x_pos,y_pos,x_vel,y_vel,angle,ang_vel,leg_1,leg_2,main_booster,lat_booster
-0.0015045165782794,1.4029898643493652,-0.1526153683662414,-0.3524518609046936,0.0019368384964764,0.038218654692173,0.0,0.0,-0.2807537317276001,0.5146963596343994
-0.0029440880753099,1.3944460153579712,-0.1449206173419952,-0.3797301054000854,0.0028943656943738,0.0191531740128994,0.0,0.0,0.190916895866394,0.2314885854721069
-0.0042648315429687,1.3857043981552124,-0.1336986124515533,-0.3885229229927063,0.0044859596528112,0.0318349748849868,0.0,0.0,0.2136951684951782,0.4643418788909912
-0.0056499480269849,1.3768781423568726,-0.1398621350526809,-0.3922872841358185,0.0058266441337764,0.0268161091953516,0.0,0.0,-0.1420609951019287,0.958921194076538
-0.0069167139008641,1.3674209117889404,-0.1258722245693206,-0.4203136563301086,0.0050322897732257,-0.0158887729048728,0.0,0.0,0.3189271688461303,0.9753518104553224
-0.0079534528777003,1.3579797744750977,-0.1011630073189735,-0.419596403837204,0.0025583046954125,-0.0494843088090419,0.0,0.0,0.0892704725265502,-0.2493323683738708
-0.008975887671113,1.3484753370285034,-0.0998275429010391,-0.4224231541156769,0.0001758177677402,-0.0476544834673404,0.0,0.0,-0.1455941796302795,0.1294854879379272
-0.0099666593596339,1.3383362293243408,-0.0968261808156967,-0.4506271481513977,-0.0020472866017371,-0.0444662347435951,0.0,0.0,0.2500345706939697,0.4709751605987549
-0.0109323505312204,1.32851243019104,-0.0944197997450828,-0.436614990234375,-0.0041572218760848,-0.0422028861939907,0.0,0.0,-0.4227417707443237,0.2212679386138916
-0.0118635175749659,1.318053960800171,-0.0911385044455528,-0.4648244082927704,-0.006113433279097,-0.039127979427576,0.0,0.0,-0.6980617046356201,0.1952406167984008
-0.0127591136842966,1.3069610595703125,-0.0877294689416885,-0.4930232167243957,-0.0079192193225026,-0.0361188910901546,0.0,0.0,0.5756241083145142,0.0955399274826049
-0.0135465618222951,1.2959884405136108,-0.0773783177137374,-0.4876743257045746,-0.0092585887759923,-0.0267902258783578,0.0,0.0,-0.4918702244758606,0.1910054683685302
-0.0142960548400878,1.28438138961792,-0.0737382993102073,-0.5158822536468506,-0.0104546165093779,-0.0239228997379541,0.0,0.0,-0.8223526477813721,-0.6402586698532104
-0.0150513648986816,1.2721344232559204,-0.0756067037582397,-0.5443074703216553,-0.0103865368291735,0.0013616367941722,0.0,0.0,-0.2131670713424682,-0.1110485792160034
-0.0157670024782419,1.259252905845642,-0.0717685744166374,-0.5725088119506836,-0.010182992555201,0.004071447532624,0.0,0.0,-0.4864732027053833,-0.8425952792167664
-0.01649646833539,1.2457278966903689,-0.0746718347072601,-0.6011040806770325,-0.0084798615425825,0.0340657792985439,0.0,0.0,-0.0414430499076843,-0.3690968155860901
-0.0171845443546772,1.2315682172775269,-0.0706658512353897,-0.6293058395385742,-0.0066497409716248,0.03660574182868,0.0,0.0,-0.4555323123931885,-0.4895204305648803
-0.0178306587040424,1.2167742252349854,-0.0665843784809112,-0.6575077176094055,-0.0046961433254182,0.0390754416584968,0.0,0.0,0.2202699184417724,-0.5510877966880798
-0.0183960907161235,1.2022398710250854,-0.0598986446857452,-0.6459591388702393,-0.001370376907289,0.0665213614702224,0.0,0.0,-0.4864861965179443,0.0573828220367431
-0.018918227404356,1.1870710849761963,-0.0556917376816272,-0.6741688251495361,0.00206831516698,0.068779706954956,0.0,0.0,-0.139566421508789,-0.2616918087005615
-0.0193966869264841,1.171267867088318,-0.0514296293258667,-0.7023695707321167,0.0056158322840929,0.070956602692604,0.0,0.0,-0.4958636164665222,0.0676720142364502
-0.0198310855776071,1.1548304557800293,-0.0471196733415126,-0.7305712103843689,0.0092665608972311,0.0730211287736892,0.0,0.0,0.0342875719070434,0.1072005033493042
-0.0201427452266216,1.1382710933685305,-0.0353389047086238,-0.736004114151001,0.0133928526192903,0.0825329348444938,0.0,0.0,-0.6122698783874512,0.5394258499145508
-0.0203619953244924,1.1210722923278809,-0.0249747298657894,-0.7644246816635132,0.0164142213761806,0.060432456433773,0.0,0.0,-0.4177073836326599,0.4606022834777832
-0.0205361358821392,1.1032390594482422,-0.0205563809722661,-0.7926257848739624,0.0195221677422523,0.0621642954647541,0.0,0.0,0.5534340143203735,0.2513686418533325
-0.0208147056400775,1.0857388973236084,-0.0304378420114517,-0.7778260707855225,0.0220757815986871,0.0510721877217292,0.0,0.0,0.3575081825256347,0.472527265548706
-0.0210578925907611,1.0684993267059326,-0.0269879009574651,-0.766238272190094,0.0247177071869373,0.052838496863842,0.0,0.0,-0.1762754917144775,0.0340961217880249
-0.0212554931640625,1.0506256818771362,-0.0225099902600049,-0.7944387793540955,0.0274269357323646,0.0541846640408039,0.0,0.0,0.115405797958374,0.269291877746582
-0.0215101242065429,1.03289794921875,-0.0278534088283777,-0.7879425287246704,0.0297890976071357,0.0472431480884552,0.0,0.0,-0.1575567722320556,0.4819232225418091
-0.0217194557189941,1.014535903930664,-0.0233705267310142,-0.8161429762840271,0.0322046875953674,0.0483118034899234,0.0,0.0,0.4854249954223633,0.7305285930633545
-0.021831702440977,0.996692419052124,-0.0122816041111946,-0.7930617928504944,0.0332448631525039,0.0208034701645374,0.0,0.0,-0.1476702094078064,0.0253145694732666
-0.0218990333378314,0.978214681148529,-0.0078162960708141,-0.8212617039680481,0.0343235023319721,0.0215726401656866,0.0,0.0,0.6537802219390869,0.5653461217880249
-0.0219931602478027,0.9603082537651062,-0.0091629093512892,-0.7958320379257202,0.0340792275965213,-0.0048853801563382,0.0,0.0,0.81064772605896,0.2574115991592407
-0.0221260078251361,0.9423564672470092,-0.0127375200390815,-0.7978466749191284,0.0335342027246952,-0.010900848545134,0.0,0.0,0.302228569984436,-0.2089282274246215
-0.0222185142338275,0.924511969089508,-0.0087738567963242,-0.7930788397789001,0.0330625362694263,-0.0094334362074732,0.0,0.0,0.2582802772521972,0.2014117240905761
-0.0222724918276071,0.9068970680236816,-0.0049913884140551,-0.7828681468963623,0.0326604433357715,-0.0080417674034833,0.0,0.0,0.5618088245391846,0.2319060564041137
-0.0223220828920602,0.8892920613288879,-0.0044312020763754,-0.7824405431747437,0.0321403816342353,-0.0104014249518513,0.0,0.0,-0.0566573143005371,0.4129204750061035
-0.0223289486020803,0.8710523247718811,-0.000146592996316,-0.8106404542922974,0.0316082239151001,-0.0106429010629653,0.0,0.0,0.3762462139129638,0.5010933876037598
-0.0223116874694824,0.8532361388206482,0.0033881268464028,-0.7917910814285278,0.0299710761755704,-0.0327429287135601,0.0,0.0,0.2673176527023315,-0.2930095195770263
-0.0222451202571392,0.8354858160018921,0.0082416366785764,-0.7888780832290649,0.0284039992839097,-0.0313413962721824,0.0,0.0,-0.2139942049980163,-0.0634621381759643
-0.0221377369016408,0.8171008825302124,0.0123681602999567,-0.8170779347419739,0.0267976559698581,-0.032127059996128,0.0,0.0,0.5645046234130859,0.2271990776062011
-0.0218865387141704,0.7988294959068298,0.0262417905032634,-0.8120419383049011,0.025683494284749,-0.0222832504659891,0.0,0.0,-0.0747049450874328,0.211888313293457
-0.0215959548950195,0.7799236178398132,0.0302394721657037,-0.8402416706085205,0.0245118029415607,-0.0234336201101541,0.0,0.0,0.6081058979034424,0.1553033590316772
-0.0211828239262104,0.761158287525177,0.0421150848269462,-0.8339989185333252,0.0237206164747476,-0.0158239789307117,0.0,0.0,0.4374475479125976,0.5353970527648926
-0.0207337383180856,0.7421364784240723,0.0469556152820587,-0.8453788161277771,0.0216979328542947,-0.0404536463320255,0.0,0.0,0.2873437404632568,0.3151751756668091
-0.0202176086604595,0.7228717803955078,0.0535740740597248,-0.856175422668457,0.019756581634283,-0.0388268418610096,0.0,0.0,0.3587050437927246,0.075059175491333
-0.0196227077394723,0.7035255432128906,0.0613176338374614,-0.8598159551620483,0.0179544761776924,-0.0360419191420078,0.0,0.0,0.4904024600982666,0.167758822441101
-0.0191076286137104,0.6846701502799988,0.0539068467915058,-0.8379958271980286,0.0155820976942777,-0.0474475063383579,0.0,0.0,0.4937295913696289,-0.041941225528717
-0.0186896324157714,0.6662459969520569,0.044875144958496,-0.8188153505325317,0.0125454878434538,-0.0607322938740253,0.0,0.0,0.1077834367752075,-0.3606095910072326
-999.0,0.6476988196372986,0.0465088337659835,-0.8242923021316528,0.0093260928988456,-0.0643878430128097,0.0,0.0,0.4466694593429565,-0.4113932847976684
-0.0176718719303607,0.6292691230773926,0.0613296143710613,-0.8190844655036926,0.0065630651079118,-0.0552606061100959,0.0,0.0,0.1754817962646484,-0.8068280816078186
-0.0171701423823833,0.6109954714775085,0.0515153817832469,-0.8121582865715027,0.0052362224087119,-0.0265365336090326,0.0,0.0,0.1396535634994506,-0.5719258785247803
-0.0166020393371582,0.5925444960594177,0.0570032820105552,-0.8200467228889465,0.005050347186625,-0.003717637155205,0.0,0.0,-0.0418826937675476,-0.4861942529678345
-0.0160053260624408,0.5734589695930481,0.0600015446543693,-0.8482465147972107,0.0047192005440592,-0.0066228681243956,0.0,0.0,0.8267991542816162,-0.8193967342376709
-0.0152678489685058,0.5545452833175659,0.0722178965806961,-0.8406126499176025,0.0062249675393104,0.0301152952015399,0.0,0.0,0.7962672710418701,-0.7325438857078552
-0.0146784782409667,0.535760760307312,0.0563462600111961,-0.8348806500434875,0.0087807672098279,0.0511159189045429,0.0,0.0,0.781872034072876,-0.3228071928024292
-0.0139702800661325,0.5176324248313904,0.0679165869951248,-0.8057213425636292,0.011642875149846,0.0572425425052642,0.0,0.0,0.7862902879714966,0.0086147785186767
-0.0130977630615234,0.4999660551548004,0.0838307961821556,-0.7852007746696472,0.0150274550542235,0.0676915347576141,0.0,0.0,0.6732547283172607,-0.2310373187065124
-0.0121395112946629,0.4829177260398865,0.0922123938798904,-0.7577446699142456,0.018589524552226,0.0712412744760513,0.0,0.0,0.359490156173706,-0.0742736458778381
-0.0112348552793264,0.466202974319458,0.0873384028673172,-0.7429199814796448,0.0216847751289606,0.0619049854576587,0.0,0.0,0.2573187351226806,-0.1389552950859069
-0.0102772712707519,0.4492777585983276,0.0926161259412765,-0.7522831559181213,0.0247792862355709,0.0618905611336231,0.0,0.0,0.6641659736633301,-0.0769380331039428
-0.0094196321442723,0.4327737092971802,0.0832948982715606,-0.733554482460022,0.0272218715399503,0.0488516949117183,0.0,0.0,0.7874178886413574,-0.1479578018188476
-0.0084261894226074,0.4164797067642212,0.0964319705963134,-0.724235475063324,0.0300944671034812,0.0574519149959087,0.0,0.0,0.7414472103118896,-0.0273036956787109
-0.0074112890288233,0.400520920753479,0.0986577048897743,-0.7093352675437927,0.0328907184302806,0.0559250116348266,0.0,0.0,0.849510669708252,-0.178330659866333
-0.0063875196501612,0.384600967168808,0.099693089723587,-0.7076169848442078,0.035533357411623,0.0528530552983284,0.0,0.0,0.8083645105361938,-0.6231245994567871
-0.0055681229569017,0.3690061569213867,0.0785847753286361,-0.6931834816932678,0.038846768438816,0.0662681311368942,0.0,0.0,0.6594887971878052,-0.0769582986831665
-0.0047483444213867,0.3540666103363037,0.0787272602319717,-0.6640658974647522,0.0420609377324581,0.0642829909920692,0.0,0.0,0.5537827014923096,0.0220721960067749
-0.0038520812522619,0.338909775018692,0.0862228646874427,-0.673740029335022,0.0454310774803161,0.0674028247594833,0.0,0.0,0.8900144100189209,-0.5435308814048767
-0.0030007362365722,0.3245874345302582,0.080742597579956,-0.6366881728172302,0.0497729554772377,0.0868373364210128,0.0,0.0,0.8738768100738525,0.678844690322876
-0.0022288323380053,0.3104273676872253,0.0746549442410469,-0.6294206380844116,0.052277136594057,0.050083328038454,0.0,0.0,0.8434104919433594,-0.0054596066474914
-0.0015915870899334,0.296756386756897,0.0618883855640888,-0.6076614856719971,0.054101075977087,0.0364788547158241,0.0,0.0,0.924114465713501,-0.2194712162017822
-0.0009516716236248,0.2835394144058227,0.0621926598250865,-0.5874878168106079,0.0558831468224525,0.0356413163244724,0.0,0.0,0.7658840417861938,0.1921374797821045
-0.0004946708795614,0.2710281610488891,0.0447439774870872,-0.5560909509658813,0.0568194389343261,0.0187260080128908,0.0,0.0,0.784717321395874,0.7883617877960205
7.963180541992188e-05,0.2588291764259338,0.0581041686236858,-0.5421502590179443,0.0561525635421276,-0.0133373765274882,0.0,0.0,0.5554406642913818,-0.3809742927551269
0.0006040573352947,0.2465443760156631,0.053482849150896,-0.5459542870521545,0.0551281161606311,-0.0204892233014106,0.0,0.0,0.8881678581237793,0.1182029247283935
0.0011870383750647,0.2341877520084381,0.0591877587139606,-0.549151599407196,0.0542516149580478,-0.0175302550196647,0.0,0.0,0.7247586250305176,-0.9190775752067566
0.0016421318287029,0.2217091917991638,0.0448169484734535,-0.5546298623085022,0.0549370162189006,0.0137079404667019,0.0,0.0,0.9695988893508912,0.285499095916748
0.0020346641540527,0.2100113928318023,0.0388211421668529,-0.519917905330658,0.0553633645176887,0.0085270246490836,0.0,0.0,0.936349868774414,0.122235894203186
0.0024662972427904,0.1991187632083892,0.0425033308565616,-0.484143853187561,0.0560102052986621,0.0129369031637907,0.0,0.0,0.7789840698242188,-0.3920526504516601
0.0027252198196947,0.1888993382453918,0.026025166735053,-0.4541919529438019,0.0558842159807682,-0.0025197165086865,0.0,0.0,0.3570961952209472,0.3980957269668579
0.002859306288883,0.1784438043832779,0.0142437713220715,-0.4646579027175903,0.0550523288547992,-0.0166375078260898,0.0,0.0,0.9598379135131836,0.1809313297271728
0.0029850960709154,0.1687621027231216,0.0134040443226695,-0.4302691519260406,0.0542272180318832,-0.0165021773427724,0.0,0.0,0.9056694507598876,-0.4655866622924804
0.0029526711441576,0.159430518746376,-0.0016376841813325,-0.414680540561676,0.0526465885341167,-0.0316128358244895,0.0,0.0,0.888756275177002,0.0713521242141723
0.0028107643593102,0.1506200581789016,-0.0120804421603679,-0.3915009498596191,0.0505609102547168,-0.0417136326432228,0.0,0.0,0.570671796798706,-0.3530402183532715
0.0026169777847826,0.14217010140419,-0.0169987920671701,-0.3754740059375763,0.0482073053717613,-0.0470719598233699,0.0,0.0,0.7392352819442749,0.1555602550506591
0.0024776458740234,0.1340098977088928,-0.0117580285295844,-0.3626080751419067,0.0460628382861614,-0.0428892932832241,0.0,0.0,0.7171497344970703,0.2409226894378662
0.0023383139632642,0.1257499009370803,-0.0116645479574799,-0.36704221367836,0.043816689401865,-0.0449230894446373,0.0,0.0,0.7644919157028198,-0.1759214401245117
0.0022701262496411,0.1175062954425811,-0.0047883857041597,-0.3663248717784881,0.0418130531907081,-0.0400725975632667,0.0,0.0,0.7968358993530273,-0.2382910847663879
0.0023263930343091,0.1095688939094543,0.0071244039572775,-0.352731317281723,0.0403337180614471,-0.0295868124812841,0.0,0.0,0.7029337882995605,-0.9477722644805908
0.0024425506126135,0.101604163646698,0.0111824655905365,-0.3540005981922149,0.0407530628144741,0.0083872135728597,0.0,0.0,0.8720746040344238,-0.6805500984191895
0.0024525641929358,0.0942818745970726,-0.000549532007426,-0.3254768252372741,0.042292408645153,0.0307868514209985,0.0,0.0,0.7487132549285889,-0.3063209056854248
0.002450656844303,0.0875304341316223,-0.0016879441682249,-0.3001096546649933,0.0437669865787029,0.0294914748519659,0.0,0.0,0.5757176876068115,-0.1480404138565063
0.0025283813010901,0.081105500459671,0.0059425705112516,-0.2856048941612243,0.0455746948719024,0.0361542552709579,0.0,0.0,0.3071826696395874,-0.4044748544692993
0.0026625632308423,0.0744384601712226,0.0114386621862649,-0.2963723540306091,0.047535128891468,0.0392083413898944,0.0,0.0,0.6467175483703613,0.7419739961624146
0.0027623176574707,0.0678953751921653,0.0098186684772372,-0.2908112108707428,0.0476895496249198,0.0030885837040841,0.0,0.0,0.79903244972229,-0.5754814147949219
0.0028582573868334,0.0621359199285507,0.0082275588065385,-0.2560197114944458,0.0490364544093608,0.0269381161779165,0.0,0.0,0.194822072982788,-0.3678193092346191
0.0029052733443677,0.0563572272658348,0.0036338395439088,-0.2568643987178802,0.0500885471701622,0.0210419930517673,0.0,0.0,0.5758223533630371,0.3462848663330078
0.0027837753295898,0.0510717742145061,-0.0124367550015449,-0.2349202036857605,0.0503746382892131,0.005721824709326,0.0,0.0,0.3640804290771484,0.0705834627151489
0.0026931762695312,0.0460202060639858,-0.0094673223793506,-0.2245261073112487,0.0507760532200336,0.0080279763787984,0.0,0.0,0.1424870491027832,0.8965599536895752
0.0025917054153978,0.0411199182271957,-0.0085067106410861,-0.2177376896142959,0.0491622127592563,-0.0322769843041896,0.0,0.0,0.3539146184921264,0.2304179668426513
0.0023808479309082,0.0364993661642074,-0.0189215317368507,-0.2052890658378601,0.0470172353088855,-0.0428995005786418,0.0,0.0,0.0128089189529418,0.5277035236358643
0.0021689415443688,0.0317016467452049,-0.0177084393799304,-0.213125541806221,0.043577741831541,-0.0687899813055992,0.0,0.0,0.604761004447937,0.6777658462524414
0.0018503188621252,0.0271411035209894,-0.0265188179910182,-0.2025445252656936,0.0383087880909442,-0.1053793057799339,0.0,0.0,0.5782270431518555,0.4451876878738403
0.0013582229148596,0.0226880647242069,-0.0429853573441505,-0.1977654099464416,0.0321567207574844,-0.1230415254831314,0.0,0.0,0.8203408718109131,0.4584790468215942
0.0009469032520428,0.0187936406582593,-0.0352290794253349,-0.1729714125394821,0.0263260789215564,-0.1166127100586891,0.0,0.0,0.3567221164703369,0.8008079528808594
0.0006380081176757,0.0147173972800374,-0.0232254099100828,-0.1810533553361892,0.0187554825097322,-0.1514117568731308,0.0,0.0,0.6031571626663208,-0.0637797117233276
0.0004466056707315,0.0111215207725763,-0.0119138564914464,-0.1597449034452438,0.0116170262917876,-0.1427690833806991,0.0,0.0,0.3114974498748779,-0.3917213082313537
0.0002211570681538,0.0078154299408197,-0.0150129273533821,-0.1468967646360397,0.0041752629913389,-0.1488352566957473,0.0,0.0,0.1523679494857788,-0.0256141424179077
8.459090895485133e-05,0.004770228639245,-0.0063602752052247,-0.1353405565023422,-0.0030257010366767,-0.1440193951129913,0.0,0.0,0.1614007949829101,-0.0185586810111999
-4.482269105210435e-06,0.0017021393869072,-0.0016358460998162,-0.1363919079303741,-0.0101985158398747,-0.1434563100337982,0.0,0.0,0.0736912488937377,-0.2101041674613952
-9.93728608591482e-05,-0.0012037301203235,-0.0019705707672983,-0.1292209327220916,-0.0176133066415786,-0.1482959985733032,1.0,0.0,0.6509426832199097,0.1691064834594726
-8.22067231638357e-05,-0.0032255435362458,0.0004776541609317,-0.0900495871901512,-0.0156399365514516,0.040426030755043,1.0,0.0,0.4765549898147583,0.0473678112030029
7.24792471373803e-06,-0.0041025900281965,0.0104856537654995,-0.0390089601278305,-0.0171152614057064,-0.0294501930475235,1.0,1.0,0.1509307622909546,-0.3237858414649963
2.784729076665826e-05,-0.0038666629698127,0.0041103181429207,0.0104892114177346,-0.0191103275865316,-0.0398696698248386,1.0,1.0,-0.6500982046127319,-0.3740285634994507
0.000116443632578,-0.0033943795133382,0.0052485899068415,0.0210290718823671,-0.0155309960246086,0.0716008618474006,1.0,1.0,-0.0842219591140747,0.5683211088180542
0.0002790451108012,-0.0027219676412642,0.0111582577228546,0.0299256388098001,-0.0104863746091723,0.1009024605154991,1.0,1.0,-0.4827202558517456,0.7445063591003418
0.0005280494806356,-0.0019746685866266,0.0192152895033359,0.0332409814000129,-0.0048766867257654,0.1122012287378311,1.0,1.0,-0.3211711645126343,0.7033746242523193
0.0008615494007244,-0.0012634539743885,0.027913412079215,0.0316173061728477,0.0004907337715849,0.1073547974228859,1.0,1.0,-0.3248406052589416,0.4768939018249511
0.0011437416542321,-0.0011073851492255,0.0269864164292812,0.0069374754093587,0.001701183617115,0.0242089126259088,1.0,1.0,-0.3546467423439026,-0.4231752157211303
0.0013702393043786,-0.0011100316187366,0.0226540230214595,-0.0001178362872451,0.0016997904749587,-2.7479673008201644e-05,1.0,1.0,-0.4534146785736084,-0.4053702354431152
0.0015368461608886,-0.0011111759813502,0.0166576635092496,-4.985736813978292e-05,0.0016991855809465,-1.1662300494208466e-05,1.0,1.0,-0.6370686888694763,-0.0504390597343444
