x_pos,y_pos,x_vel,y_vel,angle,ang_vel,leg_1,leg_2,main_booster,lat_booster
-0.0015402793651446,1.403490662574768,-0.1560596078634262,-0.3301910758018493,0.0018201402854174,0.0359080582857131,0.0,0.0,-0.7202635178046763,0.6251105265296083
-0.0030442238785326,1.395948052406311,-0.1509032249450683,-0.3352312743663788,0.0023160823620855,0.0099203558638691,0.0,0.0,-0.9844657847078068,0.6899648055154853
-0.0044991495087742,1.3882664442062378,-0.1443932652473449,-0.34140545129776,0.0012368424795567,-0.0215865839272737,0.0,0.0,-0.7650832269634602,0.6388043051281996
-0.0059308051131665,1.3804491758346558,-0.1411730349063873,-0.3474381268024444,-0.0007382263429462,-0.0395052842795848,0.0,0.0,0.9078617801312144,0.9254864474661932
-0.0071419714950025,1.3736305236816406,-0.1177381128072738,-0.3030597865581512,-0.0040778638795018,-0.0667992159724235,0.0,0.0,-0.9471023608894332,-0.7872586564633884
-0.0084184650331735,1.366677165031433,-0.1256573051214218,-0.3090443313121795,-0.006042958702892,-0.0393053516745567,0.0,0.0,0.7578284101532773,0.9826001036697996
-0.0096583366394042,1.3605115413665771,-0.1201907247304916,-0.2740479707717895,-0.0098006539046764,-0.0751608312129974,0.0,0.0,-0.8494395134480504,-0.9787123597807418
-0.0109739303588867,1.3542158603668213,-0.1294494569301605,-0.2798227369785309,-0.0118790175765752,-0.0415711924433708,0.0,0.0,-0.8024502908640849,-0.7942624872110253
-0.0123709682375192,1.3477963209152222,-0.1394733786582946,-0.2853130102157593,-0.0121106542646884,-0.0046332064084708,0.0,0.0,-0.9375180390580936,-0.607371602372836
-0.0138339046388864,1.341247797012329,-0.147545725107193,-0.2910365462303161,-0.0108726844191551,0.0247617196291685,0.0,0.0,-0.1734097003690178,-0.7124907562197764
-0.0153631214052438,1.334566950798035,-0.1556823551654815,-0.2969111800193786,-0.0081385811790823,0.054687064141035,0.0,0.0,0.8699716812279961,0.6029979191832077
-0.0167723651975393,1.3286464214324951,-0.1430460512638092,-0.2631261944770813,-0.0060549173504114,0.0416773743927478,0.0,0.0,0.0572475638240881,-0.6234924794568726
-0.0181525237858295,1.3232662677764893,-0.1418264061212539,-0.2391048371791839,-0.0022818932775408,0.0754671096801757,0.0,0.0,0.7181376719102788,0.6406407810171958
-0.0194222442805767,1.3183002471923828,-0.1300288140773773,-0.2207126170396804,0.000756760360673,0.060778222978115,0.0,0.0,-0.8199227384386074,-0.7701032906009857
-0.0207568164914846,1.3132085800170898,-0.1380793154239654,-0.22630475461483,0.0053268689662218,0.091410145163536,0.0,0.0,-0.4776430760085832,-0.8732126764965148
-0.022166347131133,1.307973027229309,-0.1473877131938934,-0.2327262610197067,0.0116904117166996,0.1272820085287094,0.0,0.0,-0.688658844006504,0.7830544559272993
-0.0235187523066997,1.302614688873291,-0.1401338875293731,-0.2381909936666488,0.0165350995957851,0.0969027802348136,0.0,0.0,0.0102044409283532,0.8861238152400044
-0.0247198101133108,1.2974636554718018,-0.1236372739076614,-0.2289865314960479,0.0200202818959951,0.0697099640965461,0.0,0.0,0.2639093707121989,0.6924122814353418
-0.0258141513913869,1.2931106090545654,-0.1121259108185768,-0.1935079544782638,0.0226748939603567,0.0530972890555858,0.0,0.0,-0.8708927947855543,-0.8500215815564107
-0.0270035751163959,1.2886210680007937,-0.1239857822656631,-0.1996191442012787,0.0276744309812784,0.0999998375773429,0.0,0.0,-0.380798595887565,-0.7017980274168087
-0.0282554626464843,1.2840019464492798,-0.1318119913339615,-0.2054331451654434,0.034212876111269,0.1307807266712188,0.0,0.0,-0.454439232966588,-0.6915011796132362
-0.0295799262821674,1.279243230819702,-0.1408765316009521,-0.2117064893245697,0.0425507239997386,0.1667722314596176,0.0,0.0,-0.4051773595047481,0.7127346624687649
-0.0308549888432025,1.2743552923202517,-0.1346591711044311,-0.2174554914236068,0.0496265105903148,0.141528382897377,0.0,0.0,0.3252289326791071,0.9745641904076182
-0.0320193283259868,1.269709587097168,-0.1221319660544395,-0.2066781520843505,0.0552715510129928,0.1129110455513,0.0,0.0,-0.9583521648200573,-0.7862777683738497
-0.0332795158028602,1.264926791191101,-0.1341601312160492,-0.212886095046997,0.0633278340101242,0.1611399203538894,0.0,0.0,0.5980020916178521,-0.9359883906390136
-0.0348338112235069,1.2609928846359253,-0.1657367199659347,-0.1753101646900177,0.0735297799110412,0.2040387094020843,0.0,0.0,-0.0517790509793734,0.9292495567345718
-0.0363335609436035,1.2569409608840942,-0.1588982939720153,-0.1805488765239715,0.0823605582118034,0.1766155362129211,0.0,0.0,-0.97237593401802,-0.794356421038221
-0.0379291549324989,1.252756118774414,-0.1709135025739669,-0.1866589039564132,0.0936134234070777,0.2250573337078094,0.0,0.0,-0.0099981651012732,0.6575632025191521
-0.0395036712288856,1.2484509944915771,-0.1682657599449157,-0.1920532435178756,0.1043421402573585,0.2145742177963256,0.0,0.0,0.4910998395172714,0.9814561307176244
-0.0410872474312782,1.244675874710083,-0.1676825881004333,-0.1684644222259521,0.1136049702763557,0.1852565258741378,0.0,0.0,0.7408379610218927,-0.7712843235214786
-0.0428308472037315,1.2421008348464966,-0.1857896149158477,-0.1153605952858924,0.1249605789780616,0.2271123826503753,0.0,0.0,-0.338181856235489,-0.7009492769014598
-0.0446556098759174,1.2393792867660522,-0.1959856003522873,-0.1221491768956184,0.1384167820215225,0.2691240310668945,0.0,0.0,0.7641847363748313,0.6618753844713706
-0.0466609969735145,1.2377960681915283,-0.2129914462566375,-0.0715663358569145,0.1508427411317825,0.2485192716121673,0.0,0.0,0.950556219718726,0.8531562471853755
-999.0,1.236702799797058,-0.2213546484708786,-0.0497591234743595,0.1619244813919067,0.2216347008943557,0.0,0.0,-0.9158846586658328,0.6450577851643028
-0.0508341789245605,1.235492467880249,-0.2173212319612503,-0.054949190467596,0.172208085656166,0.2056717127561569,0.0,0.0,0.5895540355229327,0.7832601811777212
-0.0529693588614463,1.2352529764175415,-0.2227662503719329,-0.0117457462474703,0.1814839243888855,0.1855166554450988,0.0,0.0,-0.4333597140934615,-0.6971622501107453
-0.055179975926876,1.2348634004592896,-0.2322836220264434,-0.0187253784388303,0.1927560120820999,0.2254418581724167,0.0,0.0,-0.7437317356079141,-0.7257470962228427
-0.0574635490775108,1.2343335151672363,-0.2414364367723465,-0.0253019630908966,0.2059265077114105,0.2634099125862121,0.0,0.0,0.1590492162594352,0.6549353593806656
-0.0598682388663291,1.2345551252365112,-0.2526997029781341,0.0080982856452465,0.2182725965976715,0.2469215393066406,0.0,0.0,0.2013820505445864,0.6517172443220886
-0.0623157508671283,1.2353187799453735,-0.2562110424041748,0.0322035960853099,0.2298808395862579,0.2321648597717285,0.0,0.0,0.0420872937537015,-0.963420665034852
-0.0650486946105957,1.236624240875244,-0.2872019410133362,0.0557883530855178,0.244000643491745,0.2823957800865173,0.0,0.0,-0.8342561721801758,0.9950878620147704
-0.0677090659737587,1.2378321886062622,-0.2780658602714538,0.0516434051096439,0.2562460005283355,0.2449072152376175,0.0,0.0,-0.9569239020347596,0.951007843017578
-0.0703030601143837,1.238932967185974,-0.2697354853153229,0.0470822639763355,0.2668135464191437,0.2113511562347412,0.0,0.0,-0.9107226133346558,0.9703837633132936
-0.0728300064802169,1.2399367094039917,-0.2613287568092346,0.0430108830332756,0.2756415605545044,0.1765608489513397,0.0,0.0,-0.9272226095199584,0.9526119232177734
-0.0753071755170822,1.2408273220062256,-0.2550936937332153,0.038171075284481,0.28322833776474,0.1517354547977447,0.0,0.0,-0.8943357467651367,0.9664056301116944
-0.0777230262756347,1.2416119575500488,-0.247449442744255,0.0337191335856914,0.2892638444900512,0.1207098960876464,0.0,0.0,-0.909237802028656,0.8902442455291748
-0.0800831764936447,1.2422939538955688,-0.2404805868864059,0.0294088292866945,0.2938637733459472,0.0919994413852691,0.0,0.0,-0.9160231351852416,0.8351106643676758
-0.0824131965637207,1.2428761720657349,-0.2366508990526199,0.0251397769898176,0.2976261675357818,0.075247898697853,0.0,0.0,-0.9119921326637268,0.9686449766159058
-0.0847073569893837,1.243361473083496,-0.2320983409881591,0.0210167150944471,0.3003968298435211,0.0554130785167217,0.0,0.0,-0.9767799973487854,0.92718505859375
-0.0869528800249099,0.0,-0.2260080575942993,0.0167032349854707,0.3019038140773773,0.0301388148218393,0.0,0.0,-0.978305995464325,0.793039083480835
-0.08914365619421,1.244029521942139,-0.2191379964351654,0.0126752061769366,0.3019670248031616,0.001264504622668,0.0,0.0,-0.9923781752586364,0.9246606826782228
-0.0912919044494628,1.2442189455032349,-0.2137717008590698,0.0086317798122763,0.3008769750595093,-0.0218008887022733,0.0,0.0,-0.9973739981651306,0.6935651302337646
-0.0933967605233192,0.0,-0.2083600461483001,0.0041235443204641,0.2986789345741272,-0.0439606457948684,0.0,0.0,-0.9900810122489928,0.9643275737762452
-0.0954495444893837,1.244295597076416,-0.2017626315355301,0.000438312854385,0.2950557470321655,-0.0724639445543289,0.0,0.0,-0.9948654770851136,0.8659710884094238
-0.0974391922354698,1.2441922426223757,-0.1938595622777938,-0.0035733601544052,0.2897959351539612,-0.1051959544420242,0.0,0.0,-0.9995387196540833,0.8363189697265625
-0.0993938446044921,1.2439779043197632,-0.189511239528656,-0.0083547877147793,0.2836670279502868,-0.1225783079862594,0.0,0.0,-0.999507486820221,0.9428753852844238
-0.1012866050004959,1.2436769008636477,-0.1816883832216262,-0.0119187654927372,0.2758738696575165,-0.1558630019426345,0.0,0.0,-0.9986681938171388,0.7401336431503296
-0.1031295806169509,1.243277668952942,-0.1754508465528488,-0.0161053445190191,0.2667903006076813,-0.181670993566513,0.0,0.0,-0.9975529909133912,0.7289766073226929
-0.1049305945634841,1.2427805662155151,-0.1701242327690124,-0.0203103050589561,0.2565975785255432,-0.2038542479276657,0.0,0.0,-0.9913218021392822,0.2247159481048584
-0.1067502051591873,1.2421530485153198,-0.1725084632635116,-0.0262694898992776,0.2469622045755386,-0.1927073448896408,0.0,0.0,-0.9967621564865112,0.4096957445144653
-0.1085883155465126,1.2413947582244873,-0.174882173538208,-0.0322273559868335,0.2378841787576675,-0.1815605014562606,0.0,0.0,-0.9981250166893004,0.4135336875915527
-0.1104446426033973,1.2405056953430176,-0.1772441864013672,-0.0381839871406555,0.2293633967638015,-0.1704150289297104,0.0,0.0,-0.9987673759460448,0.4643908739089966
-0.1123192757368087,1.2394853830337524,-0.1795932948589325,-0.0441394411027431,0.2213997840881347,-0.1592721939086914,0.0,0.0,-0.999014675617218,0.7139549255371094
-0.1141547188162803,1.2383544445037842,-0.174754187464714,-0.0489688999950885,0.212498128414154,-0.1780329942703247,0.0,0.0,-0.9998795390129088,0.7561101913452148
-0.11594820022583,1.2371063232421875,-0.169557973742485,-0.054097656160593,0.2026163190603256,-0.1976362019777298,0.0,0.0,-0.9914631247520448,0.7677671909332275
-0.1177124008536338,1.2357423305511477,-0.165930226445198,-0.0592222176492214,0.1920646578073501,-0.2110332995653152,0.0,0.0,-0.9984034895896912,0.8084938526153564
-0.1194303482770919,1.2342758178710938,-0.1601674407720565,-0.0637093335390091,0.1803814470767974,-0.2336643487215042,0.0,0.0,-0.9989542365074158,0.0377870798110961
-0.1211656555533409,1.2326788902282717,-0.162428006529808,-0.0696678385138511,0.1692538112401962,-0.2225527316331863,0.0,0.0,-0.9451029300689696,0.6886956691741943
-0.1228629127144813,1.230973243713379,-0.1577104777097702,-0.074472926557064,0.157234638929367,-0.2403838634490966,0.0,0.0,-0.9992026686668396,0.6925642490386963
-0.1245310753583908,1.2291452884674072,-0.1541611105203628,-0.0799578875303268,0.1446020156145095,-0.252652645111084,0.0,0.0,-0.981417953968048,0.6891263723373413
-0.126170352101326,1.2271997928619385,-0.1506356596946716,-0.0852329209446907,0.1313537806272506,-0.2649645805358886,0.0,0.0,-0.990490972995758,0.1674925088882446
-0.1278259307146072,1.2251237630844116,-0.1527935117483139,-0.0911924839019775,0.118658497929573,-0.2539059519767761,0.0,0.0,-0.98363596200943,-0.2232779264450073
-0.1294973343610763,1.222917079925537,-0.1549203097820282,-0.0971502810716629,0.1065152138471603,-0.2428659200668335,0.0,0.0,-0.9605223536491394,0.271230936050415
-0.131184384226799,1.2205795049667358,-0.1570132225751876,-0.1031063869595527,0.0949228927493095,-0.2318465709686279,0.0,0.0,-0.9997755885124208,0.4807405471801758
-0.1328864991664886,1.2181105613708496,-0.1590693145990371,-0.1090608760714531,0.0838803946971893,-0.220850184559822,0.0,0.0,-0.9951507449150084,-0.8174230456352234
-0.1346599608659744,1.215494155883789,-0.1682123839855194,-0.1157989874482154,0.0748336091637611,-0.1809353977441787,0.0,0.0,-0.999372899532318,0.8492926359176636
-0.1363837271928787,1.2127445936203003,-0.1621746718883514,-0.1217253357172012,0.0647336095571518,-0.2019999474287033,0.0,0.0,-0.9484188556671144,-0.3029128313064575
-0.1381213217973709,1.2098630666732788,-0.164100244641304,-0.1276757419109344,0.0551792234182357,-0.1910878419876098,0.0,0.0,-0.9974928498268129,0.5830461978912354
-0.1398202925920486,1.206860065460205,-0.1594469845294952,-0.1331252604722976,0.0448529534041881,-0.2065252959728241,0.0,0.0,-0.9999724626541138,0.7643054723739624
-0.1414831131696701,1.2037359476089478,-0.1551203429698944,-0.1385494321584701,0.0338301695883274,-0.220455914735794,0.0,0.0,-0.9996520280838012,-0.4962295293807983
-0.1431580483913421,1.2004802227020264,-0.1568809747695922,-0.1445000618696212,0.0233474355190992,-0.2096544057130813,0.0,0.0,-0.953859269618988,-0.2604503035545349
-0.1448445320129394,1.1970921754837036,-0.1585782319307327,-0.1504492610692978,0.0134025625884532,-0.1988974809646606,0.0,0.0,-0.9994996786117554,-0.3162455558776855
-0.1465419828891754,1.193572163581848,-0.1602074801921844,-0.1563970893621444,0.0039931088685989,-0.1881892681121826,0.0,0.0,-0.9977268576622008,-0.0888558626174926
-0.1482495367527008,1.1899194717407229,-0.161763921380043,-0.1623436063528061,-0.0048836097121238,-0.1775342524051666,0.0,0.0,-0.9962562322616576,-0.6981561183929443
-0.1500227898359298,1.1861379146575928,-0.1703112423419952,-0.168107584118843,-0.0118145802989602,-0.1386191248893737,0.0,0.0,-0.9736964106559752,-0.3264745473861694
-0.1518047302961349,1.182223200798035,-0.1717072427272796,-0.1740500181913375,-0.0182188618928194,-0.1280857324600219,0.0,0.0,-0.997825562953949,0.9847345352172852
-0.1535136252641677,1.1781636476516724,-0.1628657877445221,-0.1805462092161178,-0.0261360350996255,-0.158343568444252,0.0,0.0,-0.9920549988746644,0.3690176010131836
-0.1552293747663498,1.1739709377288818,-0.1640813052654266,-0.1864892393350601,-0.0335337184369564,-0.1479535698890686,0.0,0.0,-0.9898303151130676,0.1911461353302002
-0.1569509506225586,1.169645071029663,-0.1651990860700607,-0.1924313008785247,-0.0404159873723983,-0.1376451998949051,0.0,0.0,-0.9971832036972046,0.3469032049179077
-0.1586775779724121,1.165186047554016,-0.1662143021821975,-0.1983724981546402,-0.0467872619628906,-0.1274256110191345,0.0,0.0,-0.9945108294487,0.4580163955688476
-0.1604082137346267,1.1605933904647827,-0.1671222746372223,-0.2043128460645675,-0.0526523739099502,-0.1173024773597717,0.0,0.0,-0.6788331866264343,0.5418645143508911
-0.1620965003967285,1.1558678150177002,-0.1622548997402191,-0.2102684527635574,-0.0591495670378208,-0.1299438178539276,0.0,0.0,-0.869140088558197,0.7584691047668457
-0.1637140214443206,1.151005506515503,-0.1538512259721756,-0.21644027531147,-0.066972829401493,-0.156465083360672,0.0,0.0,-0.7757078409194946,0.2289552688598632
-0.1653322279453277,1.1460098028182983,-0.154413104057312,-0.222381591796875,-0.0743069946765899,-0.1466834843158722,0.0,0.0,-0.9840808510780334,-0.1150931119918823
-0.1669499427080154,1.1408805847167969,-0.1548527181148529,-0.2283220142126083,-0.0811587870121002,-0.1370357424020767,0.0,0.0,-0.8753825426101685,-0.8788037896156311
-0.1686248779296875,1.1356356143951416,-0.1625860929489135,-0.2333909124135971,-0.0860279202461242,-0.0973823815584182,0.0,0.0,-0.9230359792709352,0.5759381055831909
-0.1702534705400467,1.1302506923675537,-0.1572975814342498,-0.2396523058414459,-0.0915329456329345,-0.110100582242012,0.0,0.0,-0.861137330532074,0.2158501148223877
-0.1718778610229492,1.124732255935669,-0.1573575884103775,-0.2455902248620987,-0.0965791791677475,-0.1009246259927749,0.0,0.0,-0.8582406640052795,0.6201674938201904
-0.1734410226345062,1.119074821472168,-0.1502531170845031,-0.2518423795700073,-0.1025897115468978,-0.1202104687690734,0.0,0.0,-0.9158413410186768,-0.3860412836074829
-0.1749977171421051,1.113283634185791,-0.1500562727451324,-0.257780522108078,-0.1081604957580566,-0.1114158853888511,0.0,0.0,-0.3655743598937988,-0.4480060338973999
-0.1765468567609787,1.1073588132858276,-0.14973184466362,-0.2637181878089905,-0.1133022308349609,-0.1028348580002784,0.0,0.0,-0.8874120712280273,0.2846486568450928
-0.1780872344970703,1.1012998819351196,-0.1492813229560852,-0.2696553170681,-0.118026427924633,-0.094483807682991,0.0,0.0,-0.7617887258529663,0.1243090629577636
-0.1796176880598068,1.095106840133667,-0.1487068831920623,-0.2755921483039856,-0.1223454400897026,-0.0863803252577781,0.0,0.0,-0.8917126655578613,0.3049745559692383
-0.181137278676033,1.0887796878814695,-0.1480112671852111,-0.2815285921096802,-0.1262725740671157,-0.0785428211092948,0.0,0.0,-0.3809179663658142,0.5313023328781128
-0.1825956404209137,1.0823127031326294,-0.1410165280103683,-0.2878471314907074,-0.1310682594776153,-0.0959139466285705,0.0,0.0,-0.8259656429290771,-0.3185561895370483
-0.1840410232543945,1.0757114887237549,-0.1400891840457916,-0.2937840223312378,-0.1355015635490417,-0.0886657014489173,0.0,0.0,-0.3427798151969909,-0.0834251046180725
-0.1854725778102874,1.0689762830734253,-0.1390519440174102,-0.2997206449508667,-0.1395886987447738,-0.0817427709698677,0.0,0.0,-0.138805091381073,-0.4140527248382568
-0.1868893653154373,1.062106966972351,-0.1379093378782272,-0.3056571185588836,-0.1433470100164413,-0.075166255235672,0.0,0.0,-0.4044208526611328,0.1008334159851074
-0.1882905960083007,1.055103778839111,-0.1366661041975021,-0.3115935027599334,-0.1467948853969574,-0.068957582116127,0.0,0.0,-0.1883935332298278,0.4218673706054687
-0.1896754205226898,1.047966480255127,-0.1353271752595901,-0.3175298273563385,-0.1499518007040023,-0.0631383806467056,0.0,0.0,0.4002212285995483,0.3298760652542114
-0.1909460127353668,1.0417227745056152,-0.1241336464881897,-0.2777940332889557,-0.1528666019439697,-0.0582957491278648,0.0,0.0,-0.0469894409179687,0.3078806400299072
-0.1921987533569336,1.0353450775146484,-0.1226183399558067,-0.2837305068969726,-0.1555325984954834,-0.0533195808529853,0.0,0.0,0.3931710720062256,-0.4094792604446411
-0.1933063566684723,1.0293904542922974,-0.1086342483758926,-0.2648726403713226,-0.1576581448316574,-0.0425107479095459,0.0,0.0,0.1160726547241211,-0.1752244234085083
-0.1944112777709961,1.023940086364746,-0.1081812754273414,-0.2424845695495605,-0.1599632799625396,-0.0461029261350631,0.0,0.0,0.1776821613311767,-0.1865161657333374
-0.195528894662857,1.0189210176467896,-0.1092030778527259,-0.2233455330133438,-0.1625135689973831,-0.0510062277317047,0.0,0.0,0.0056712627410888,-0.2342522740364074
-0.1965841352939605,1.0142792463302612,-0.103074312210083,-0.206573337316513,-0.1649717688560485,-0.0491641797125339,0.0,0.0,0.6801701784133911,-0.1034338474273681
-0.1975043267011642,1.0102999210357666,-0.0898102298378944,-0.1771111488342285,-0.167181134223938,-0.0441874302923679,0.0,0.0,0.62237548828125,-0.5670486092567444
-0.1982541978359222,1.0066804885864258,-0.0743580609560012,-0.1609298884868621,-0.16781085729599,-0.0125944660976529,0.0,0.0,0.8548140525817871,-0.0749573707580566
-0.1987473517656326,1.0040353536605835,-0.0492694452404975,-0.117571085691452,-0.167861595749855,-0.0010147949215024,0.0,0.0,0.419562816619873,0.4540656805038452
-0.1990827620029449,1.0022759437561035,-0.0336334444582462,-0.0781819596886634,-0.1677673608064651,0.0018846325110644,0.0,0.0,0.2951345443725586,0.6541379690170288
-0.199251651763916,1.0007107257843018,-0.0157800428569316,-0.0696939602494239,-0.1688778400421142,-0.0222097784280776,0.0,0.0,0.0770512819290161,0.766991376876831
