x_pos,y_pos,x_vel,y_vel,angle,ang_vel,leg_1,leg_2,main_booster,lat_booster
-0.0015345573192462,1.403540015220642,-0.1548196971416473,-0.3280048072338104,0.0012150802649557,0.0239280126988887,0.0,0.0,0.0197764520885146,0.9463793511569972
-0.002967357635498,1.3965212106704712,-0.142022967338562,-0.3119437396526336,-2.957638025691267e-05,-0.0248949714004993,0.0,0.0,0.764064101934256,-0.4725513679889328
-0.0042675016447901,1.3900644779205322,-0.1289062201976776,-0.2869670689105987,-0.0011247944785282,-0.0219065137207508,0.0,0.0,0.2280929259941391,0.5898199974482393
-0.0056280135177075,1.3840785026550293,-0.1330362111330032,-0.266051322221756,-0.0041033132001757,-0.0595757365226745,0.0,0.0,0.0446342038264782,-0.8690592381968303
-0.0069678304716944,1.3786290884017944,-0.1322176903486251,-0.2422021180391311,-0.0058429208584129,-0.034795131534338,0.0,0.0,0.1315934246912273,0.8742211257810508
-0.0081352237612009,1.3736505508422852,-0.1127997487783432,-0.2212927937507629,-0.0097457561641931,-0.0780639201402664,0.0,0.0,-0.4431058160547052,0.6271777121492011
-0.0092627527192235,1.3685870170593262,-0.1071299463510513,-0.2250891327857971,-0.0153117207810282,-0.1113293319940567,0.0,0.0,0.0033292755703004,0.1544815901114304
-0.0103006362915039,1.3640270233154297,-0.0981396660208702,-0.2027416080236435,-0.0208938103169202,-0.1116521954536438,0.0,0.0,0.4001105534528035,-0.2767720907758887
-0.0113404272124171,1.3604466915130615,-0.0978437513113021,-0.1592221111059188,-0.0269525088369846,-0.1211854070425033,0.0,0.0,0.8115267734820524,0.2025253364734305
-0.0123653411865234,1.3579767942428589,-0.0959544628858566,-0.1099060401320457,-0.0334194786846637,-0.1293516308069229,0.0,0.0,-0.7368312627073026,-0.2813523375212672
-0.0133955003693699,1.355423092842102,-0.0960948690772056,-0.1136698499321937,-0.040266316384077,-0.1369491517543792,0.0,0.0,-0.766697639072937,0.4434150795343956
-0.0144302370026707,1.35278582572937,-0.0962002426385879,-0.1174243167042732,-0.0474669933319091,-0.1440266370773315,0.0,0.0,-0.8512840873032095,0.9409216154518358
-0.0153787611052393,1.350063681602478,-0.0849525332450866,-0.1213285475969314,-0.057262796908617,-0.1959339678287506,0.0,0.0,0.2281688831099397,-0.5633740680385645
-0.0163036342710256,1.3476474285125732,-0.0835407450795173,-0.1077514588832855,-0.066123254597187,-0.1772251427173614,0.0,0.0,0.5474748834734375,0.3574868207161993
-0.0170483589172363,1.3462903499603271,-0.0658860951662063,-0.0607060007750988,-0.0746288746595382,-0.170128121972084,0.0,0.0,0.3577928351037382,-0.1828399259615257
-0.0176871307194232,1.345205307006836,-0.0554856844246387,-0.0486609898507595,-0.0829458683729171,-0.1663549542427063,0.0,0.0,-0.0671097653630989,-0.2088686328260757
-0.0183274261653423,1.3440370559692385,-0.0554373636841774,-0.052421536296606,-0.0914649590849876,-0.1703971028327942,0.0,0.0,-0.1979141354487394,0.9057964081008064
-0.0188809391111135,1.3427659273147583,-0.044361837208271,-0.0571990273892879,-0.102381981909275,-0.2183604687452316,0.0,0.0,0.2856731827611343,0.4548928107804032
-0.0192955024540424,1.3423326015472412,-0.0307063665241003,-0.0200289245694875,-0.1130767092108726,-0.2139139175415039,0.0,0.0,0.633471627523214,0.0797345390471754
-0.0197257995605468,1.3426638841629028,-0.0318145044147968,0.0138362795114517,-0.1242414861917495,-0.2233154326677322,0.0,0.0,-0.342196112659568,-0.2277477749073689
-0.0201549530029296,1.342912197113037,-0.0316649638116359,0.0100658321753144,-0.1354659497737884,-0.2245095074176788,0.0,0.0,-0.7242698199680646,0.8180543150763594
-0.0205177310854196,1.3430602550506592,-0.0233401581645011,0.0053527266718447,-0.1483812779188156,-0.2583299279212951,0.0,0.0,0.5269003394568494,0.1059828087828153
-0.0206850059330463,1.3438458442687988,-0.0044002025388181,0.0336327366530895,-0.1607242971658706,-0.2468821257352829,0.0,0.0,0.3754250392817237,-0.0305163263344044
-0.020750617608428,1.344919204711914,0.0054358625784516,0.0463676862418651,-0.1727475970983505,-0.2404874861240387,0.0,0.0,0.2502397043703486,-0.4604703041847588
-0.0208349227905273,1.3466572761535645,0.0039362707175314,0.0757579132914543,-0.1851822137832641,-0.2487144470214843,0.0,0.0,0.5284047929726361,0.1117476818984495
-0.0209308620542287,1.349289059638977,0.0032693904358893,0.1153081282973289,-0.1981182545423507,-0.2587205469608307,0.0,0.0,0.7252238373985787,-0.7931178538759915
-0.0209300033748149,1.3529754877090454,0.0111768152564764,0.1623203754425048,-0.2092925757169723,-0.2234866172075271,0.0,0.0,-0.9238594736195184,0.1078018458072893
-0.0209247581660747,1.3565784692764282,0.0113989394158124,0.1585609167814254,-0.2202758938074112,-0.2196659743785858,0.0,0.0,-0.7061870230245202,-0.2994805550662424
-0.0209147445857524,1.360098123550415,0.0116296680644154,0.1548025608062744,-0.2310347408056259,-0.215176910161972,0.0,0.0,0.0552232339887508,-0.8470647665089402
-0.0209092143923044,1.364013671875,0.0092305550351738,0.172641173005104,-0.2398342341184616,-0.1759897917509079,0.0,0.0,0.8353286788729339,0.2332628024830177
-0.0206544883549213,1.3692078590393066,0.0337429866194725,0.229479894042015,-0.2482499927282333,-0.1683150678873062,0.0,0.0,-0.8399763703346252,-0.9003806114196777
-0.0204727165400981,1.37434184551239,0.024115839973092,0.2271559387445449,-0.2542991936206817,-0.1209838166832923,0.0,0.0,-0.7829505205154419,-0.8006710410118103
-0.0203531272709369,1.379424810409546,0.015739120543003,0.2252480089664459,-0.258155882358551,-0.077133908867836,0.0,0.0,-0.6201061606407166,-0.8643110990524292
-0.020301628857851,1.384443283081055,0.0066781691275537,0.2227805256843567,-0.2597145438194275,-0.0311724431812763,0.0,0.0,-0.7070171236991882,-0.7454431056976318
-0.020298670977354,1.389399766921997,-7.951738552947063e-06,0.2203365117311477,-0.2594076097011566,0.0061387307941913,0.0,0.0,-0.5689834356307983,-0.6588444113731384
-0.0203370098024606,1.3942943811416626,-0.0058112214319407,0.2178905159235,-0.2573833167552948,0.0404856018722057,0.0,0.0,-0.5784127116203308,-0.185094952583313
-0.020368481054902,1.3991031646728516,-0.0055690435692667,0.2141470611095428,-0.2549167573451996,0.0493313148617744,0.0,0.0,-0.5250612497329712,0.1724792718887329
-0.0203930847346782,1.403826117515564,-0.0053338957950472,0.2104037702083587,-0.2519873678684234,0.0585878603160381,0.0,0.0,-0.5431473851203918,-0.0970556139945983
-0.0204107277095317,1.4084631204605105,-0.0051076388917863,0.206660583615303,-0.2485760301351547,0.0682267397642135,0.0,0.0,-0.4789259433746338,-0.1506299376487732
-0.0204212181270122,1.4130141735076904,-0.0048921555280685,0.2029173821210861,-0.2446650117635727,0.0782204642891883,0.0,0.0,-0.513731062412262,-0.0791776776313781
-0.0204245559871196,1.417479395866394,-0.0046893479302525,0.1991740316152572,-0.2402378618717193,0.0885428711771965,0.0,0.0,-0.7589409947395325,0.3420031070709228
-0.020420741289854,1.4218589067459106,-0.0045011374168097,0.1954304575920105,-0.2352793961763382,0.0991691648960113,0.0,0.0,-0.5559037923812866,0.3609218597412109
-0.0204097740352153,1.4261527061462402,-0.0043294592760503,0.191686525940895,-0.2297756224870681,0.1100758463144302,0.0,0.0,-0.4377239942550659,0.345988392829895
-0.0203917510807514,1.4303606748580933,-0.0041762581095099,0.1879421025514602,-0.2237135767936706,0.1212409138679504,0.0,0.0,-0.7750875949859619,0.5783334970474243
-0.0203262325376272,1.434462070465088,0.0010790883097797,0.1831075549125671,-0.2181731611490249,0.1108083128929138,0.0,0.0,-0.4167889356613159,0.4529635906219482
-0.0202536582946777,1.438477873802185,0.0011898484081029,0.1793630123138427,-0.212051659822464,0.122430145740509,0.0,0.0,-0.5800086259841919,0.6023486852645874
-0.0201237685978412,1.4423881769180298,0.0076717720367014,0.1745500415563583,-0.2066760808229446,0.1075114756822586,0.0,0.0,-0.6299788355827332,0.3600451946258545
-0.0199871063232421,1.446212887763977,0.0077323773875832,0.1708054393529892,-0.2007001191377639,0.1195191144943237,0.0,0.0,-0.5863564610481262,0.8699126243591309
-0.0197905544191598,1.4499435424804688,0.0144679173827171,0.1664993017911911,-0.1954728662967682,0.104544959962368,0.0,0.0,-0.47649085521698,0.6272640228271484
-0.019541073590517,1.4535726308822632,0.0203440953046083,0.161897212266922,-0.1908457577228546,0.0925419405102729,0.0,0.0,-0.6174500584602356,0.3927738666534424
-0.0192856788635253,1.4571161270141602,0.0203150771558284,0.1581528037786483,-0.1855948567390442,0.1050179451704025,0.0,0.0,-0.5549672842025757,0.4197621345520019
-0.0190245620906353,1.4605741500854492,0.0202521532773971,0.1544077098369598,-0.1797136068344116,0.1176250800490379,0.0,0.0,-0.5970287919044495,0.7993912696838379
-0.0186851508915424,1.4639220237731934,0.029330363497138,0.1493492424488067,-0.1750929206609726,0.0924137309193611,0.0,0.0,-0.1260339617729187,0.4573861360549927
-0.0183406826108694,1.4671845436096191,0.0291944630444049,0.1456042975187301,-0.1698303073644638,0.1052520498633384,0.0,0.0,-0.5299491286277771,0.6965558528900146
-0.0179241187870502,1.4703412055969238,0.0374952480196952,0.1407712399959564,-0.1656632423400879,0.0833414569497108,0.0,0.0,-0.7131502628326416,0.5556981563568115
-0.0174670219421386,1.4734008312225342,0.0418317653238773,0.136407271027565,-0.1617823392152786,0.0776177644729614,0.0,0.0,-0.5084508061408997,0.9195489883422852
-0.0169220920652151,1.476362705230713,0.0520836114883422,0.1318995803594589,-0.1593692153692245,0.0482623390853405,0.0,0.0,-0.7626459002494812,0.2253226041793823
-0.0163735393434762,1.4792388677597046,0.0517804212868213,0.128155305981636,-0.1562961637973785,0.0614612773060798,0.0,0.0,-0.6362087726593018,0.1704106330871582
-0.0158217437565326,1.4820293188095093,0.0514310896396636,0.1244106143712997,-0.1525595188140869,0.0747331380844116,0.0,0.0,-0.7655566334724426,0.7017557621002197
-0.0152187347412109,1.4847291707992554,0.0571130625903606,0.1203177124261856,-0.1493790596723556,0.0636090636253357,0.0,0.0,-0.7878525257110596,0.5169529914855957
-0.014570141211152,1.4873290061950684,0.0621311068534851,0.1158227175474166,-0.1466528624296188,0.0545238032937049,0.0,0.0,-0.2029325366020202,-0.0670925974845886
-0.013919735327363,1.489843249320984,0.0616345703601837,0.1120777800679206,-0.1432537585496902,0.0679821819067001,0.0,0.0,-0.5382692217826843,0.1273146867752075
-0.0132679939270019,1.492271900177002,0.0610861368477344,0.1083323210477829,-0.1391790956258773,0.081493392586708,0.0,0.0,-0.7260420918464661,0.5293358564376831
-0.0125723835080862,1.4946069717407229,0.0659015923738479,0.1041156724095344,-0.1355254203081131,0.0730732157826423,0.0,0.0,-0.7146453261375427,0.6988086700439453
-0.0118214609101414,1.4968398809432983,0.0721651241183281,0.0995086804032325,-0.1326085180044174,0.0583384446799755,0.0,0.0,-0.7682279348373413,0.6301002502441406
-0.0110314367339015,1.498979926109314,0.0763850361108779,0.0953405201435089,-0.1300091445446014,0.05198759958148,0.0,0.0,-0.6344315409660339,0.0923256874084472
-0.0102422712370753,1.5010344982147217,0.0756181254982948,0.0915948301553726,-0.1267254948616027,0.0656729340553283,0.0,0.0,-0.7304534912109375,0.1811937093734741
-0.0094543453305959,1.503003478050232,0.0747942179441452,0.0878486260771751,-0.1227558106184005,0.0793937966227531,0.0,0.0,-0.6304372549057007,0.6752197742462158
-0.0086123468354344,1.5048846006393433,0.0809298306703567,0.0838745832443237,-0.1195036023855209,0.0650442540645599,0.0,0.0,-0.380780816078186,0.487452745437622
-0.0077728270553052,1.5066804885864258,0.0799901112914085,0.0801280215382576,-0.1155622079968452,0.078828141093254,0.0,0.0,-0.3113754987716675,0.7931697368621826
-0.0068831443786621,1.5083850622177124,0.0856481716036796,0.0760138854384422,-0.1122703403234481,0.0658372789621353,0.0,0.0,-0.6466137766838074,-0.0595641732215881
-0.0059971809387207,1.5100045204162598,0.0845908299088478,0.0722669064998626,-0.1082866042852401,0.0796745046973228,0.0,0.0,-0.5966764688491821,0.5804848670959473
-0.0050789834931492,1.5115392208099363,0.0880257412791252,0.0684798285365104,-0.1045175716280937,0.0753806978464126,0.0,0.0,-0.7755579948425293,0.3068050146102905
-0.0041654584929347,1.512988805770874,0.0868499130010604,0.0647321417927742,-0.1000544354319572,0.0892625600099563,0.0,0.0,-0.6214954257011414,0.3589870929718017
-0.0032573700882494,1.5143532752990725,0.085614800453186,0.0609837174415588,-0.0948962494730949,0.1031636968255043,0.0,0.0,-0.5253390669822693,0.8403550386428833
-0.0022820471785962,1.515613317489624,0.0935103222727775,0.0562545023858547,-0.0909093841910362,0.079736940562725,0.0,0.0,-0.736672580242157,-0.1055788397789001
-0.0013132095336914,1.516788363456726,0.0921574905514717,0.052505899220705,-0.0862258225679397,0.0936710834503173,0.0,0.0,-0.5727126598358154,0.6031270027160645
-0.0003042221069335,1.5178778171539309,0.0966615453362464,0.0486588552594184,-0.0820282325148582,0.0839518308639526,0.0,0.0,-0.118075430393219,0.4276585578918457
0.0006971359252929,1.5188825130462646,0.0951925963163375,0.0449096038937568,-0.0771326571702957,0.0979116410017013,0.0,0.0,-0.7750607132911682,0.4557105302810669
0.00169038772583,1.5198020935058594,0.0936664193868637,0.0411595292389392,-0.0715385749936103,0.1118815168738365,0.0,0.0,-0.4965688586235046,0.6267552375793457
0.0027133941184729,1.520626664161682,0.0969272032380104,0.0368889607489109,-0.0662271678447723,0.1062285080552101,0.0,0.0,-0.7223767638206482,0.4105467796325683
0.0037270546890795,1.5213663578033447,0.0952890366315841,0.0331379063427448,-0.0602165013551712,0.1202134042978286,0.0,0.0,-0.2141258120536804,-0.1435616016387939
0.0047308923676609,1.5220218896865845,0.0935961827635765,0.0293858367949724,-0.0535063482820987,0.1342030167579651,0.0,0.0,-0.6008354425430298,0.7696576118469238
0.00577974319458,1.522591471672058,0.0987983047962188,0.0255285687744617,-0.0474882312119007,0.1203623861074447,0.0,0.0,-0.7078614234924316,0.4557178020477295
0.0068177222274243,1.5230770111083984,0.0969994217157363,0.021775746718049,-0.040770411491394,0.134356215596199,0.0,0.0,-0.7042473554611206,0.8620388507843018
0.0079223634675145,1.5234735012054443,0.1049409359693527,0.0177624505013227,-0.0353162661194801,0.1090830340981483,0.0,0.0,-0.5259040594100952,0.4701868295669555
0.0090151783078908,1.5237857103347778,0.1030407771468162,0.0140094542875885,-0.029162585735321,0.1230735406279563,0.0,0.0,-0.5820919275283813,0.915701389312744
0.0101789478212594,1.5240031480789185,0.1115678772330284,0.0097534088417887,-0.0244122650474309,0.0950066372752189,0.0,0.0,-0.6888420581817627,0.0442655086517334
0.011329841800034,1.5241364240646362,0.1095716580748558,0.006000374443829,-0.0189629737287759,0.1089856997132301,0.0,0.0,-0.4330720901489258,0.8982611894607544
0.0125548364594578,1.5241758823394775,0.1185030713677406,0.0018013452645391,-0.0150156347081065,0.0789469256997108,0.0,0.0,-0.5574973821640015,0.6812138557434082
0.0138195035979151,1.5241347551345823,0.1231213435530662,-0.0017982715507969,-0.0117120752111077,0.0660710111260414,0.0,0.0,-0.7096627950668335,0.405707836151123
0.0150699615478515,0.0,0.1209916099905967,-0.005551076028496,-0.007711268030107,0.0800161883234977,0.0,0.0,-0.627179741859436,0.668120265007019
0.016369629651308,1.523801326751709,0.1268276870250702,-0.009234219789505,-0.0046173552982509,0.0618781968951225,0.0,0.0,-0.4845267534255981,0.0066432952880859
0.0176541320979595,1.523508906364441,0.1246163472533226,-0.0129873277619481,-0.0008279338944703,0.0757882967591285,0.0,0.0,-0.4359101057052612,0.0633121728897094
0.0189231876283884,1.5231322050094604,0.1223664507269859,-0.016741057857871,0.0036558944266289,0.0896766781806945,0.0,0.0,-0.7253586649894714,0.2038489580154419
0.0201764106750488,1.5226715803146362,0.1200795620679855,-0.0204955283552408,0.0088329138234257,0.1035402417182922,0.0,0.0,-0.436001718044281,0.2662944793701172
0.0214135162532329,1.5221270322799685,0.1177572235465049,-0.0242508612573146,0.0147017007693648,0.1173757910728454,0.0,0.0,-0.5316578149795532,0.9963126182556152
0.0226964000612497,1.521509051322937,0.1232403889298439,-0.0275257267057895,0.0196882113814353,0.0997303202748298,0.0,0.0,-0.5196350812911987,0.8227195739746094
0.0240368843078613,1.5208133459091189,0.1301948428153991,-0.030974393710494,0.0234901700168848,0.0760389044880867,0.0,0.0,-0.4979920983314514,0.7195959091186523
0.0254118926823139,1.52004075050354,0.1342757195234298,-0.0343960747122764,0.026674186810851,0.0636805593967437,0.0,0.0,-0.5745462775230408,0.1746793985366821
0.0267693512141704,1.519183874130249,0.1318266838788986,-0.038151029497385,0.0305425710976123,0.0773677080869674,0.0,0.0,-0.5005860924720764,0.6975939273834229
0.0281619075685739,0.0,0.1359922438859939,-0.0418746471405029,0.0337629243731498,0.0644070506095886,0.0,0.0,-0.5103117227554321,0.8626879453659058
0.0295912735164165,1.51722252368927,0.1403898447751999,-0.0454361550509929,0.0362788885831832,0.050319381058216,0.0,0.0,-0.4665555953979492,0.6590322256088257
0.03104143217206,0.0,0.1427705883979797,-0.0491385087370872,0.0384880788624286,0.0441840291023254,0.0,0.0,-0.5702230930328369,0.2748712301254272
0.0324727073311805,1.5149297714233398,0.1402183920145034,-0.0528936609625816,0.0413705743849277,0.057649902999401,0.0,0.0,-0.5385794639587402,0.1376745700836181
0.0338850989937782,1.513657569885254,0.137643963098526,-0.0566492564976215,0.0449228920042514,0.0710463672876358,0.0,0.0,-0.4225704669952392,0.926870822906494
0.0353690162301063,1.5123145580291748,0.1464364975690841,-0.0597436614334583,0.0468517020344734,0.0385760702192783,0.0,0.0,-0.5284895300865173,0.0457574129104614
0.0368334762752056,1.5108877420425415,0.1438216269016266,-0.0634991452097892,0.0494423769414424,0.0518136918544769,0.0,0.0,-0.3811404705047607,0.4688560962677002
0.038278292864561,1.5093770027160645,0.1411885470151901,-0.0672550052404403,0.0526904053986072,0.0649608820676803,0.0,0.0,-0.5000889301300049,-0.0094053149223327
0.039703082293272,1.5077825784683228,0.138538584113121,-0.0710113495588302,0.0565908811986446,0.0780094116926193,0.0,0.0,-0.6242761015892029,0.7749617099761963
0.0411680229008197,1.5061169862747192,0.1434351950883865,-0.0741371735930442,0.0596128739416599,0.0604397468268871,0.0,0.0,-0.5189754962921143,0.7588410377502441
0.0426783561706543,1.5043803453445437,0.1490086764097213,-0.077267862856388,0.0616120137274265,0.0399829410016536,0.0,0.0,-0.4770441055297851,0.4795609712600708
0.0441680923104286,1.5025599002838137,0.1463155448436737,-0.0810240432620048,0.0642460659146308,0.0526807084679603,0.0,0.0,-0.7197737693786621,0.8601309061050415
0.0456912033259868,1.5006622076034546,0.1503966748714447,-0.0844239816069603,0.0661432221531868,0.0379431247711181,0.0,0.0,-0.5510718822479248,-0.3681055307388305
0.0471934303641319,1.498680591583252,0.1476809084415435,-0.0881802886724472,0.0686609372496604,0.0503541901707649,0.0,0.0,-0.5963144302368164,0.9815356731414796
0.0487493500113487,1.4966224431991575,0.1543343365192413,-0.0915321260690689,0.0699068456888198,0.0249180179089307,0.0,0.0,-0.6665929555892944,0.3051137924194336
0.0502840057015419,1.4944803714752195,0.1516007184982299,-0.0952883660793304,0.0717564970254898,0.0369929894804954,0.0,0.0,-0.6306042671203613,0.6627955436706543
0.05186128616333,1.492255449295044,0.1568769663572311,-0.0989302545785904,0.0725960060954094,0.0167902521789073,0.0,0.0,-0.4770015478134155,0.7523554563522339
0.0534857735037803,1.489957332611084,0.1627715080976486,-0.1021181493997573,0.072278082370758,-0.0063585015013813,0.0,0.0,-0.5811129808425903,-0.6788462996482849
0.0550368316471576,1.4875764846801758,0.1535455584526062,-0.1058962643146514,0.0738271251320838,0.0309806875884532,0.0,0.0,-0.4669022560119629,0.0294734239578247
0.0565661415457725,1.4851117134094238,0.1507903337478637,-0.1096525117754936,0.0759375765919685,0.0422092638909816,0.0,0.0,-0.4451507329940796,0.7305538654327393
0.0581402778625488,1.4825719594955444,0.1564388573169708,-0.1129281446337699,0.0769044086337089,0.0193368289619684,0.0,0.0,-0.5426177978515625,0.7675840854644775
