x_pos,y_pos,x_vel,y_vel,angle,ang_vel,leg_1,leg_2,main_booster,lat_booster
-0.0015728950966149,1.4033451080322266,-0.1601478159427642,-0.3366800248622894,0.0025623643305152,0.0506045334041118,0.0,0.0,-0.4572023153305053,0.9609380960464478
-0.0031141280196607,1.395508885383606,-0.1553303152322769,-0.3482726514339447,0.0037534250877797,0.023824293166399,0.0,0.0,-0.5837473273277283,0.7347267866134644
-0.0046357153914868,1.3873878717422483,-0.1523285210132599,-0.3609408736228943,0.0039248364046216,0.0034284063149243,0.0,0.0,-0.3944555521011352,0.7436068058013916
-0.0061617852188646,1.3789846897125244,-0.1523496359586715,-0.3734662234783172,0.0036706067621707,-0.0050852238200604,0.0,0.0,0.271902322769165,0.7749741077423096
-0.0075685502961277,1.3710585832595823,-0.1397767215967178,-0.3522742092609405,0.0027859059628099,-0.017695739865303,0.0,0.0,-0.0459188818931579,0.860318660736084
-0.0089448932558298,1.3628517389297483,-0.1353853046894073,-0.3647458255290985,0.0005669010570272,-0.0443842336535453,0.0,0.0,0.1024256944656372,0.6313761472702026
-0.0103417392820119,1.3549433946609497,-0.136923000216484,-0.3514817953109741,-0.0021712167654186,-0.0547675713896751,0.0,0.0,0.2450637817382812,0.6274592876434326
-0.0116169927641749,1.3474880456924438,-0.1245009452104568,-0.3313578069210052,-0.0051673999987542,-0.0599290020763874,0.0,0.0,-0.2780683040618896,0.0779602527618408
-0.0129465106874704,1.3397529125213623,-0.1306855827569961,-0.3437913358211517,-0.0074085555970668,-0.0448269918560981,0.0,0.0,-0.1631630659103393,0.3835158348083496
-0.0143307689577341,1.3317382335662842,-0.1369195133447647,-0.3562186956405639,-0.0088952360674738,-0.029736315831542,0.0,0.0,-0.3163795471191406,0.741014838218689
-0.0157034881412982,1.3234435319900513,-0.1348281055688858,-0.3686743378639221,-0.0113060632720589,-0.048221256583929,0.0,0.0,-0.4949712753295898,0.1850961446762085
-0.0171317104250192,1.314869046211243,-0.1411461979150772,-0.3811038732528686,-0.0129626579582691,-0.0331350229680538,0.0,0.0,-0.2501217126846313,0.7359278202056885
-0.0185453407466411,1.3060171604156494,-0.1386510580778122,-0.3934424817562103,-0.0156410131603479,-0.0535721480846405,0.0,0.0,0.287835955619812,0.8059111833572388
-0.0198863036930561,1.297290325164795,-0.1306042969226837,-0.3878984153270721,-0.0190943963825702,-0.0690743401646614,0.0,0.0,0.0124043226242065,0.4793850183486938
-0.0211878772825002,1.289038896560669,-0.1278273910284042,-0.3667640089988708,-0.0213895495980978,-0.0459071062505245,0.0,0.0,-0.8770132660865784,0.820284366607666
-0.0224699974060058,1.2804956436157229,-0.1247001513838768,-0.3797623515129089,-0.0248601213097572,-0.0694178715348243,0.0,0.0,-0.7947236895561218,0.5640170574188232
-0.0237544067203998,1.2716768980026243,-0.1243055909872055,-0.3920105695724487,-0.028956338763237,-0.0819317772984504,0.0,0.0,-0.2841969132423401,0.7766213417053223
-0.0250205993652343,1.2625688314437866,-0.1213104873895645,-0.4049172103404999,-0.03421276435256,-0.1051379293203353,0.0,0.0,-0.3342591524124145,-0.2084119319915771
-0.0263444893062114,1.253180980682373,-0.1278273910284042,-0.4173474013805389,-0.0387238785624504,-0.0902305617928505,0.0,0.0,0.1403059959411621,0.7573647499084473
-0.0277149192988872,1.2440989017486572,-0.1316559016704559,-0.4038007855415344,-0.0440564826130867,-0.1066617146134376,0.0,0.0,-0.5690688490867615,0.4240994453430176
-0.0291433334350585,1.2347368001937866,-0.1382072865962982,-0.416235476732254,-0.0486481413245201,-0.0918415635824203,0.0,0.0,-0.6879444122314453,0.6798088550567627
-0.0305753704160451,1.2250871658325195,-0.1379213631153106,-0.4290560185909271,-0.0538814440369606,-0.1046752780675888,0.0,0.0,-0.975551187992096,0.4218153953552246
-0.0320657715201377,1.2151575088500977,-0.144496351480484,-0.4414854347705841,-0.0583798997104167,-0.0899773687124252,0.0,0.0,-0.436726450920105,0.905074954032898
-0.0335352905094623,1.2049310207366943,-0.1411142945289611,-0.454750657081604,-0.0641596838831901,-0.1156059354543685,0.0,0.0,-0.8175538182258606,0.3989783525466919
-0.0350632667541503,1.1944246292114258,-0.1477007865905761,-0.4671804010868072,-0.0692116096615791,-0.1010475382208824,0.0,0.0,0.6538007259368896,0.3911440372467041
-0.0367477424442768,1.184686541557312,-0.1633877754211425,-0.4330456852912903,-0.074216678738594,-0.1001012101769447,0.0,0.0,-0.4576061964035034,0.9177731275558472
-0.0384177193045616,1.1746660470962524,-0.160817414522171,-0.4456705749034881,-0.0803426802158355,-0.1225202530622482,0.0,0.0,0.4552813768386841,0.9548466205596924
-0.0401433929800987,1.1654696464538574,-0.1650637686252594,-0.4091603457927704,-0.0877765268087387,-0.1486768275499344,0.0,0.0,-0.4495948553085327,0.9712569713592528
-0.0418673530220985,1.1559933423995972,-0.1640842109918594,-0.4216740429401397,-0.0960188433527946,-0.164846271276474,0.0,0.0,-0.1899304389953613,0.6161878108978271
-0.0436035171151161,1.146228551864624,-0.1648037135601043,-0.4345821440219879,-0.1047492548823356,-0.1746082603931427,0.0,0.0,-0.7305407524108887,0.4811222553253174
-0.0453982353210449,1.1361839771270752,-0.1713739484548568,-0.447010338306427,-0.1127889305353164,-0.1607937961816787,0.0,0.0,0.1303896903991699,0.7796792984008789
-0.0472176559269428,1.1263022422790527,-0.1729278862476349,-0.439901053905487,-0.1217488646507263,-0.1791990399360656,0.0,0.0,-0.5160719156265259,0.8883168697357178
-0.0490346923470497,1.1161381006240845,-0.1718399971723556,-0.4525769650936126,-0.1315618455410003,-0.196259543299675,0.0,0.0,-0.5665342211723328,0.8541324138641357
-0.0508508682250976,1.1056751012802124,-0.1709015667438507,-0.4660107791423797,-0.142240285873413,-0.2135686129331588,0.0,0.0,-0.0737518668174743,0.7045340538024902
-0.0526683814823627,1.0949219465255735,-0.1702620536088943,-0.4790548980236053,-0.1537113189697265,-0.229420781135559,0.0,0.0,0.2601706981658935,0.6760174036026001
-0.0543869026005268,1.0847340822219849,-0.1596931964159011,-0.4540973007678985,-0.1658674776554107,-0.2431230992078781,0.0,0.0,-0.7920916080474854,0.7855637073516846
-0.0561050400137901,1.074248433113098,-0.1588036715984344,-0.467526376247406,-0.1789020001888275,-0.2606901526451111,0.0,0.0,-0.8653604984283447,-0.2523560523986816
-0.0578806884586811,1.063483953475952,-0.1651934087276458,-0.4799591302871704,-0.191321387887001,-0.2483878880739212,0.0,0.0,-0.7496405839920044,0.504326343536377
-0.059676170349121,1.052435278892517,-0.1668751388788223,-0.4927391409873962,-0.2040832191705703,-0.2552364766597748,0.0,0.0,-0.6814642548561096,0.695854902267456
-0.0614721290767192,1.0410912036895752,-0.1660814583301544,-0.5061095952987671,-0.2177249193191528,-0.2728340029716491,0.0,0.0,-0.8096300959587097,-0.7954263687133789
-0.0633958801627159,1.0294982194900513,-0.1813224405050277,-0.5169121026992798,-0.2289099544286728,-0.2237003296613693,0.0,0.0,0.223154067993164,-0.7109334468841553
-0.0652427673339843,1.0181739330291748,-0.1757360845804214,-0.5047138929367065,-0.2379868924617767,-0.1815388202667236,0.0,0.0,-0.0255681872367858,-0.2642204761505127
-0.0671457275748252,1.006569504737854,-0.1818757951259613,-0.5171381831169128,-0.2465366125106811,-0.1709947437047958,0.0,0.0,0.5266849994659424,0.4706683158874511
-0.068896010518074,0.995361626148224,-0.1675479561090469,-0.4994038343429565,-0.2541565597057342,-0.1523991674184799,0.0,0.0,-0.218467891216278,-0.5385816097259521
-0.0707464218139648,0.9838840365409852,-0.1791876256465912,-0.5111439228057861,-0.260137528181076,-0.119619645178318,0.0,0.0,0.2778357267379761,-0.5211760997772217
-0.0725885406136512,0.9724960327148438,-0.1799081265926361,-0.5069039463996887,-0.2645274102687835,-0.0877981930971145,0.0,0.0,0.4246265888214111,0.5292115211486816
-0.0742894187569618,0.9613436460494996,-0.1653023660182953,-0.4965352416038513,-0.2694254517555237,-0.0979605689644813,0.0,0.0,0.557520866394043,-0.1862534284591674
-0.0759367942810058,0.951089322566986,-0.1598737239837646,-0.4566528499126434,-0.2744103074073791,-0.0996973812580108,0.0,0.0,-0.4146468043327331,-0.579409658908844
-0.077689841389656,0.940581738948822,-0.1722104549407959,-0.4675865471363067,-0.2775829136371612,-0.0634518787264823,0.0,0.0,0.1523952484130859,-0.7826982140541077
-0.0794739723205566,0.9303354620933532,-0.1771879941225052,-0.4556300342082977,-0.2788394689559936,-0.025131095200777,0.0,0.0,-0.5344019532203674,-0.5257828235626221
-0.0813400298357009,0.9198212027549744,-0.1864736229181289,-0.4673268496990204,-0.2789723575115204,-0.0026577205862849,0.0,0.0,-0.7708544731140137,0.3260908126831054
-0.083256721496582,0.9090260863304138,-0.191815510392189,-0.4797483086585998,-0.2788271903991699,0.002903334563598,0.0,0.0,0.3861256837844848,0.1436114311218261
-0.0850324630737304,0.8984507918357849,-0.1783621460199356,-0.4698691964149475,-0.2780142426490783,0.0162587128579616,0.0,0.0,-0.7269202470779419,-0.4354667663574219
-0.0868570357561111,0.8875948786735535,-0.1834481805562973,-0.4822923839092254,-0.2769932448863983,0.0204197280108928,0.0,0.0,-0.565177321434021,-0.5839133858680725
-0.0887630432844162,0.8764709830284119,-0.1926322430372238,-0.4940147995948791,-0.2749115824699402,0.0416331328451633,0.0,0.0,-0.7750279903411865,0.0360410213470459
-0.090715691447258,0.8650669455528259,-0.1974276006221771,-0.5064399838447571,-0.2726953029632568,0.0443255975842475,0.0,0.0,-0.7652915716171265,-0.37558114528656
-0.0927138328552246,0.85338294506073,-0.2020636051893234,-0.5188661217689514,-0.2703819572925567,0.046266995370388,0.0,0.0,-0.9369099140167236,-0.1106825470924377
-0.094755932688713,0.8414192795753479,-0.2065304815769195,-0.5312931537628174,-0.2680093944072723,0.047451265156269,0.0,0.0,-0.7997950911521912,-0.4408103227615356
-0.0968406647443771,0.8291759490966797,-0.2108181715011596,-0.5437210202217102,-0.2656156122684479,0.0478764101862907,0.0,0.0,-0.7902102470397949,-0.0808902382850647
-0.0989666953682899,0.8166531324386597,-0.2149163782596588,-0.5561497211456299,-0.2632383704185486,0.047544490545988,0.0,0.0,-0.6720989346504211,-0.3942303657531738
-0.1011320129036903,0.8038508892059326,-0.2188145369291305,-0.5685793161392212,-0.2609153091907501,0.0464613251388073,0.0,0.0,-0.957910418510437,-0.6776355504989624
-0.1033947020769119,0.7907970547676086,-0.2300282269716262,-0.5795080661773682,-0.2570807635784149,0.076690636575222,0.0,0.0,-0.3005112409591675,0.2370185852050781
-0.1056933403015136,0.7774640917778015,-0.2334943264722824,-0.5919398069381714,-0.2533738315105438,0.0741385444998741,0.0,0.0,-0.0794741511344909,-0.4932115077972412
-0.1080259308218956,0.7638523578643799,-0.2367279529571533,-0.6043722629547119,-0.2498300522565841,0.070875234901905,0.0,0.0,-0.4075289368629455,-0.4781607389450073
-0.1103901863098144,0.7499616742134094,-0.2397181987762451,-0.6168053150177002,-0.2464840561151504,0.0669199526309967,0.0,0.0,-0.4516221880912781,-0.3842995166778564
-0.1127841025590896,0.735792338848114,-0.2424544394016266,-0.6292388439178467,-0.2433693408966064,0.062294453382492,0.0,0.0,-0.3714035749435425,-0.448466420173645
-0.1152052879333496,0.7213444113731384,-0.2449261397123336,-0.6416728496551514,-0.2405182272195816,0.0570225641131401,0.0,0.0,0.5338616371154785,-0.5221725702285767
-0.1175482720136642,0.7069928050041199,-0.2380493432283401,-0.6372393369674683,-0.2367042303085327,0.0762799382209777,0.0,0.0,0.3952136039733886,-0.442875862121582
-0.1197221726179122,0.6934059858322144,-0.2209391891956329,-0.6032936573028564,-0.233109176158905,0.0719011798501014,0.0,0.0,-0.2008172273635864,-0.543706476688385
-0.1219644546508789,0.6795555949211121,-0.2286706268787384,-0.6148704886436462,-0.2286010533571243,0.0901627019047737,0.0,0.0,0.1180404424667358,-0.4297146797180176
-0.124180220067501,0.6661178469657898,-0.2253718823194503,-0.5966591238975525,-0.2247601598501205,0.0768174976110458,0.0,0.0,-0.2327799797058105,-0.6517641544342041
-0.1264574974775314,0.6524190902709961,-0.2323505133390426,-0.6081300377845764,-0.2200776934623718,0.0936493203043937,0.0,0.0,0.5898908376693726,0.2219613790512085
-0.1286894828081131,0.6396725177764893,-0.2268291711807251,-0.5659741163253784,-0.2163983136415481,0.0735871568322181,0.0,0.0,0.2380298376083374,-0.3161983489990234
-0.1307827979326248,0.6272639632225037,-0.2127812206745147,-0.5509868264198303,-0.2129167467355728,0.0696309730410575,0.0,0.0,-0.0823900699615478,-0.3976112008094787
-0.1328812539577484,0.6145773530006409,-0.2128254473209381,-0.5634241104125977,-0.2099091857671737,0.0601513683795928,0.0,0.0,0.3244117498397827,-0.3587242364883423
-0.1348740607500076,0.6019778847694397,-0.2020276486873626,-0.5595922470092773,-0.2071437388658523,0.0553089193999767,0.0,0.0,0.1960619688034057,-0.4879759550094604
-0.1368376761674881,0.5894680023193359,-0.1984901279211044,-0.5556990504264832,-0.2049974203109741,0.0429263524711132,0.0,0.0,0.6346091032028198,-0.2584397792816162
-0.1386453658342361,0.5778350234031677,-0.1823359429836273,-0.516806423664093,-0.2034206390380859,0.0315360426902771,0.0,0.0,-0.3236929774284363,-0.1610580682754516
-0.1404457092285156,0.5659238696098328,-0.1810556799173355,-0.5292437672615051,-0.2023916542530059,0.0205798167735338,0.0,0.0,-0.9014165997505188,-0.0336487293243408
-0.1422355622053146,0.5537346005439758,-0.1794461905956268,-0.5416812896728516,-0.2019260972738266,0.0093114534392952,0.0,0.0,-0.0522468090057373,-0.360684871673584
-0.1440116912126541,0.5412672758102417,-0.1775109469890594,-0.5541189312934875,-0.2020385414361953,-0.002248539822176,0.0,0.0,0.9106113910675048,-0.0163200497627258
-0.1455420553684234,0.5298512578010559,-0.1525511145591735,-0.5074469447135925,-0.2025268822908401,-0.0097669176757335,0.0,0.0,-0.1758943796157837,0.0531791448593139
-0.1470527648925781,0.5181571841239929,-0.1499798595905304,-0.5198850035667419,-0.2036194950342178,-0.0218523852527141,0.0,0.0,0.1324925422668457,-0.2710500359535217
-0.1484835594892501,0.5068790912628174,-0.1412113755941391,-0.5015056729316711,-0.2055020928382873,-0.0376518741250038,0.0,0.0,-0.4836405515670776,0.192373514175415
-0.1498887985944748,0.495323121547699,-0.1380325704813003,-0.5139445662498474,-0.2080117315053939,-0.0501927323639392,0.0,0.0,0.1443631649017334,-0.5883501768112183
-0.1511621475219726,0.484074592590332,-0.1254949122667312,-0.5001972913742065,-0.2098674029111862,-0.0371135398745536,0.0,0.0,-0.5662478804588318,0.1691663265228271
-0.1524043083190918,0.4725481569766998,-0.121744655072689,-0.5126367211341858,-0.2123697847127914,-0.0500475764274597,0.0,0.0,0.0196325778961181,-0.8263028264045715
-0.1535592973232269,0.4611018598079681,-0.1140226274728775,-0.508936882019043,-0.2138610482215881,-0.0298252459615468,0.0,0.0,-0.3473435640335083,-0.6879215836524963
-0.154718205332756,0.4493907690048218,-0.1147910505533218,-0.5206543207168579,-0.2149700373411178,-0.0221800841391086,0.0,0.0,0.8575955629348755,-0.0613656044006347
-0.1555907279253006,0.4380016028881073,-0.0862071067094802,-0.5063369870185852,-0.2160252630710601,-0.021104197949171,0.0,0.0,0.9876787662506104,0.4432210922241211
-0.1562352180480957,0.4276611506938934,-0.0627016201615333,-0.4598289132118225,-0.2177903354167938,-0.0353013314306736,0.0,0.0,0.6266943216323853,-0.6897153258323669
-0.1566949784755706,0.4181489646434784,-0.0450083650648593,-0.4229097664356231,-0.2187781333923339,-0.0197558552026748,0.0,0.0,0.7324962615966797,-0.340744137763977
-0.1568304002285003,0.4093407988548279,-0.0124726565554738,-0.391629010438919,-0.2198524475097656,-0.0214864462614059,0.0,0.0,-0.1657558679580688,-0.4576680660247803
-0.1569186151027679,0.4002552032470703,-0.0070719011127948,-0.404069721698761,-0.2216227799654007,-0.0354067124426364,0.0,0.0,-0.2535080909729004,-0.9014599323272704
-0.1570337265729904,0.3909149467945099,-0.011016733944416,-0.415196031332016,-0.222122311592102,-0.0099907321855425,0.0,0.0,-0.1732576489448547,-0.5667885541915894
-0.1571346223354339,0.3813164234161377,-0.0098700392991304,-0.4266325533390045,-0.222341239452362,-0.0043784161098301,0.0,0.0,0.7192859649658203,-0.4897524118423462
-0.1570762693881988,0.3723149299621582,0.0068701030686497,-0.4002212882041931,-0.2233825027942657,-0.020825246348977,0.0,0.0,-0.0068264603614807,-0.8903838992118835
-0.1570454537868499,0.3630720376968384,0.002672882284969,-0.4107339084148407,-0.2229672223329544,0.0083057573065161,0.0,0.0,0.2095723152160644,-0.2808387279510498
-0.1567841470241546,0.3542778491973877,0.0261305030435323,-0.3908530473709106,-0.2229747474193573,-0.0001504258980276,0.0,0.0,-0.5741532444953918,-0.43929123878479
-0.156466394662857,0.3452061712741852,0.0325009822845459,-0.4032942950725555,-0.2237030267715454,-0.0145657490938901,0.0,0.0,-0.0727835297584533,-0.8241629600524902
-0.1561619788408279,0.335887461900711,0.0300060417503118,-0.4141022861003876,-0.2232621908187866,0.0088165635243058,0.0,0.0,-0.4628485441207886,-0.7593836784362793
-0.1558598577976226,0.3263094127178192,0.0289236810058355,-0.4254941046237945,-0.2219570279121399,0.0261035170406103,0.0,0.0,-0.793769896030426,-0.6118170619010925
-0.1555538177490234,0.3164736330509186,0.02857924439013,-0.4368443787097931,-0.2199093997478485,0.0409524366259574,0.0,0.0,-0.0142117142677307,-0.9356058835983276
-0.1552771627902984,0.3063885271549225,0.0240372028201818,-0.4476883113384247,-0.2162399291992187,0.0733889788389206,0.0,0.0,0.4453535079956054,-0.4104856252670288
-0.1547131538391113,0.2969173192977905,0.0530717559158802,-0.4204587638378143,-0.2128750830888748,0.0672969371080398,0.0,0.0,0.1599525213241577,-0.4255645275115967
-0.1539895087480545,0.2875348329544067,0.0695617944002151,-0.416598379611969,-0.2100460082292556,0.0565814152359962,0.0,0.0,-0.4144525527954101,-0.5281109809875488
-0.1532327681779861,0.2778887450695038,0.0728076845407486,-0.4283079206943512,-0.2071441262960434,0.0580377355217933,0.0,0.0,0.602750301361084,-0.7652701139450073
-0.1523389816284179,0.2691027522087097,0.0857462137937545,-0.3899853527545929,-0.2034811675548553,0.0732590928673744,0.0,0.0,-0.8596789240837097,-0.618844211101532
-0.1514157354831695,0.2600576281547546,0.0884744748473167,-0.4014822840690613,-0.1996031254529953,0.0775609537959098,0.0,0.0,-0.6361124515533447,-0.3881468772888183
-0.1504269540309906,0.2507349848747253,0.0957624688744545,-0.4139237105846405,-0.1964652836322784,0.0627571791410446,0.0,0.0,-0.023514449596405,-0.5721501111984253
-0.1494161635637283,0.2411537021398544,0.097542755305767,-0.4253664016723633,-0.1929015815258026,0.0712741762399673,0.0,0.0,0.0067580938339233,-0.817496657371521
-0.148266315460205,0.2320145964622497,0.1105278953909874,-0.4056094884872436,-0.1884277760982513,0.0894761011004448,0.0,0.0,-0.5377781391143799,-0.7436892986297607
-0.147099882364273,0.2226087003946304,0.1116455048322677,-0.4174137413501739,-0.1834058761596679,0.1004378646612167,0.0,0.0,0.1789424419403076,-0.4638171195983886
-0.1458711624145507,0.213599756360054,0.1190072521567344,-0.3999225795269012,-0.1795304715633392,0.0775080695748329,0.0,0.0,-0.4130328893661499,-0.6647557616233826
-0.1446373909711837,0.2043286114931106,0.1186410337686538,-0.4114858210086822,-0.1747819036245346,0.0949713364243507,0.0,0.0,0.3853062391281128,-0.869154155254364
-0.1433409750461578,0.1955009251832962,0.1239300742745399,-0.3916806578636169,-0.16905577480793,0.1145225167274475,0.0,0.0,-0.5563040971755981,-0.7764084935188293
-0.1420338600873947,0.1864091753959655,0.1242489442229271,-0.4033569693565368,-0.1625850349664688,0.1294147223234176,0.0,0.0,-0.1362573504447937,-0.6685978770256042
-0.1406991928815841,0.1770439743995666,0.1266919076442718,-0.415505051612854,-0.1558121144771576,0.135458305478096,0.0,0.0,0.205901026725769,-0.4528745412826538
-0.139147475361824,0.1681243032217025,0.1488064378499984,-0.3957784473896026,-0.1494525223970413,0.1271919012069702,0.0,0.0,0.1981422901153564,-0.4355219006538391
-0.137421041727066,0.159790500998497,0.1669277250766754,-0.3698271214962005,-0.1437507569789886,0.1140356659889221,0.0,0.0,-0.2708297967910766,-0.7548406720161438
