x_pos,y_pos,x_vel,y_vel,angle,ang_vel,leg_1,leg_2,main_booster,lat_booster
-0.0015924454201012,1.402980089187622,-0.1611787229776382,-0.3528893291950226,0.0017329705879092,0.0341822355985641,0.0,0.0,0.5456912072710531,0.6628448973550515
-0.0031500817276537,1.3950632810592651,-0.15618596971035,-0.3518597483634949,0.0021442035213112,0.0082262102514505,0.0,0.0,0.3176837791321543,-0.8078927192337466
-0.0047211647033691,1.386979103088379,-0.1592072546482086,-0.359301745891571,0.0042195655405521,0.0415111742913723,0.0,0.0,0.1520001619016249,-0.9661434555508864
-0.0065378188155591,1.3787689208984375,-0.1855708509683609,-0.3649143278598785,0.0080880317836999,0.0773764252662658,0.0,0.0,-0.2735429442501591,-0.9544273780016042
-0.0084836008027195,1.369916915893555,-0.1998916119337082,-0.3934634327888489,0.0133423982188105,0.1050971895456314,0.0,0.0,0.1101304849031241,-0.8078658542757101
-0.0104612354189157,1.360967993736267,-0.2046774625778198,-0.3978032767772674,0.0201706532388925,0.1365776360034942,0.0,0.0,0.3058466573127576,-0.9671553343255868
-0.0126152038574218,1.3520572185516355,-0.224110335111618,-0.396182507276535,0.0287941228598356,0.1724854409694671,0.0,0.0,-0.9800266885034772,0.9606896778302196
-0.0147449495270848,1.342509388923645,-0.219181090593338,-0.4244783818721771,0.0349349230527877,0.1228272691369056,0.0,0.0,-0.472868062490589,-0.6377924215766995
-0.0169958118349313,1.332322120666504,-0.2324825972318649,-0.4529590010643005,0.0422544106841087,0.1464030444622039,0.0,0.0,0.907505455530946,-0.635207311139633
-0.0194025989621877,1.322748780250549,-0.2492329329252243,-0.4257440567016601,0.0507149286568164,0.1692260354757309,0.0,0.0,-0.5354179339601124,0.6244831603613562
-0.0218223575502634,1.312536358833313,-0.2489772737026214,-0.4541402161121368,0.0576438158750534,0.1385904848575592,0.0,0.0,0.0745854707802133,0.7745692421268588
-0.0242164619266986,1.3022027015686035,-0.244765967130661,-0.4594837427139282,0.0629567205905914,0.1062677502632141,0.0,0.0,0.6272926267005059,-0.881601147290459
-0.0266481395810842,1.29226815700531,-0.2504069805145263,-0.441863089799881,0.0701267570257186,0.143413633108139,0.0,0.0,-0.7805377667474933,0.8532801150549552
-0.0290719028562307,1.2816894054412842,-0.2475814372301101,-0.4704251289367676,0.0752864405512809,0.1032027602195739,0.0,0.0,0.5068815553876782,0.9417106057382996
-0.0313993468880653,1.271625518798828,-0.2361048460006714,-0.4474529027938843,0.0786179900169372,0.0666370391845703,0.0,0.0,0.4910040143261018,0.97375415112793
-0.0336234085261821,1.2613292932510376,-0.2238112688064575,-0.4576884508132934,0.080004908144474,0.0277409255504608,0.0,0.0,-0.0602427779671723,-0.7133862533493538
-0.0359556190669536,1.2503916025161743,-0.2355939149856567,-0.4862478971481323,0.0823554918169975,0.0470158867537975,0.0,0.0,0.7799607860080191,-0.850577649372945
-0.0382821075618267,1.2394185066223145,-0.2369147539138794,-0.4879361689090729,0.0865882858633995,0.0846638306975364,0.0,0.0,-0.4287320826962821,0.6986573738762611
-0.0406073555350303,1.2278157472610474,-0.2350240498781204,-0.5158256888389587,0.0890716537833213,0.0496720448136329,0.0,0.0,0.1598204827098315,0.9082262583414736
-0.0430231094360351,1.2161624431610107,-0.2421039044857025,-0.5179558992385864,0.0895920023322105,0.0104079656302928,0.0,0.0,0.0056579768719426,-0.7975840018509106
-0.045511532574892,1.2045578956604004,-0.2508630752563476,-0.5158818960189819,0.0915888920426368,0.0399414785206317,0.0,0.0,0.4615183907191824,-0.715397578150445
-0.048138428479433,1.1928832530975342,-0.2660052180290222,-0.5190821290016174,0.0948929116129875,0.0660861730575561,0.0,0.0,0.2919220582981139,-0.8319148128782167
-0.0508120544254779,1.181205987930298,-0.2723268270492553,-0.5193158984184265,0.099829077720642,0.0987320840358734,0.0,0.0,0.5250094553460167,0.8233242908883143
-0.0534317977726459,1.1693257093429563,-0.2652565538883209,-0.5282360315322876,0.1030937060713768,0.0652982741594314,0.0,0.0,-0.126891058255425,0.7317155554247191
-0.056060217320919,1.156809687614441,-0.2648623883724212,-0.5564059019088745,0.1050996109843254,0.0401216000318527,0.0,0.0,-0.9853203619396438,-0.8519565395556731
-0.0588212981820106,1.1436192989349363,-0.280102789402008,-0.5865265130996704,0.1090684160590171,0.0793758854269981,0.0,0.0,-0.2305863082418813,-0.6711387035033598
-0.061683464795351,1.1297801733016968,-0.2914075255393982,-0.6154590249061584,0.1142177656292915,0.1029873862862587,0.0,0.0,-0.3069010382915185,0.764053144127314
-0.0645455345511436,1.1153126955032349,-0.2900319099426269,-0.6432949304580688,0.1180196478962898,0.0760376527905464,0.0,0.0,-0.7242883182840505,-0.6231366503222415
-0.067511461675167,1.1001955270767212,-0.301778644323349,-0.6722955107688904,0.1231796070933342,0.1031990051269531,0.0,0.0,0.0729449550020184,0.9665529454723808
-0.0704976096749305,1.084912657737732,-0.3017163872718811,-0.6794913411140442,0.1262602359056472,0.0616127625107765,0.0,0.0,0.2778557437701963,-0.8250788356851653
-0.0736541748046875,1.069960117340088,-0.3202649056911468,-0.6649595499038696,0.1308420449495315,0.0916360095143318,0.0,0.0,-0.3930344591655115,-0.9908836016522952
-0.0769340544939041,1.054340124130249,-0.3346773684024811,-0.6948177814483643,0.1375011056661605,0.1331813931465149,0.0,0.0,0.3103827455283832,-0.9334293631857344
-0.0804833397269249,1.0389991998672483,-0.3632537424564361,-0.6826171875,0.1458109766244888,0.1661978662014007,0.0,0.0,-0.2868684238901995,0.8481642601923913
-0.0840027779340744,1.0230196714401243,-0.3585899472236633,-0.7108672261238098,0.1524428576231002,0.1326375305652618,0.0,0.0,-0.2625255255901122,0.7041035283083921
-0.0874931365251541,1.0064103603363037,-0.3540590703487396,-0.7387142181396484,0.1574590802192688,0.1003241166472435,0.0,0.0,0.5285595229510383,0.6744005876087443
-0.091047003865242,0.9902150630950928,-0.3589155077934265,-0.7201656699180603,0.160988911986351,0.0705970153212547,0.0,0.0,0.5233160921862641,0.8522647782350967
-0.0946487411856651,0.974002242088318,-0.361781895160675,-0.7207489609718323,0.1626040041446685,0.0323013849556446,0.0,0.0,-0.98518061505141,-0.9462947461746646
-0.0983376502990722,0.9571349024772644,-0.3721026480197906,-0.7500144243240356,0.1658137440681457,0.0641948729753494,0.0,0.0,0.708853200821838,0.9778390597747556
-0.1021544486284256,0.9409306645393372,-0.3826780915260315,-0.7202962636947632,0.1668194234371185,0.0201136525720357,0.0,0.0,0.2857696319095391,-0.7832603993608822
-0.106096550822258,0.924773335456848,-0.3966226875782013,-0.7183752655982971,0.1692399978637695,0.0484111197292804,0.0,0.0,0.3940465864715361,0.8929493542685047
-0.1101882010698318,0.90894216299057,-0.4095055162906647,-0.7036515474319458,0.1695831269025802,0.0068627158179879,0.0,0.0,-0.8551560044288635,0.9957453012466432
-0.1141887679696083,0.8924879431724548,-0.3978146910667419,-0.7310438752174377,0.1673366725444793,-0.0449287593364715,0.0,0.0,-0.7565544843673706,0.9981050491333008
-0.1180965453386306,0.8754011988639832,-0.3860303461551666,-0.7588841319084167,0.1625850796699524,-0.0950319096446037,0.0,0.0,-0.7932426333427429,0.9968234300613404
-0.1219083815813064,0.8576903343200684,-0.3739182353019714,-0.7863653302192688,0.1553169786930084,-0.1453620642423629,0.0,0.0,-0.8452413082122803,0.9969698190689088
-0.125637337565422,0.8393413424491882,-0.3635597825050354,-0.8145711421966553,0.1459995955228805,-0.1863477677106857,0.0,0.0,-0.8138359189033508,0.997932195663452
-0.129268079996109,0.8203574419021606,-0.351382166147232,-0.8426257967948914,0.1343415081501007,-0.2331617623567581,0.0,0.0,-0.6574398279190063,0.9909963607788086
-0.1327956169843673,0.8007429838180542,-0.3386511504650116,-0.8705428838729858,0.1203044280409812,-0.280741423368454,0.0,0.0,-0.2048627138137817,0.9907724857330322
-0.1362395286560058,0.780508816242218,-0.3284293711185455,-0.8980843424797058,0.1044503599405288,-0.3170817196369171,0.0,0.0,0.7293902635574341,0.9946500062942504
-0.1398217231035232,0.7608611583709717,-0.3398117423057556,-0.8720366358757019,0.0861973762512207,-0.3650597929954529,0.0,0.0,0.4432690143585205,0.9962406158447266
-0.14335498213768,0.7412427067756653,-0.3326600790023803,-0.8708680868148804,0.0657353550195694,-0.40924072265625,0.0,0.0,0.8167160749435425,0.9526615142822266
-0.1466451585292816,0.7219502329826355,-0.3064647316932678,-0.8566070199012756,0.043442852795124,-0.4458502233028412,0.0,0.0,0.9696295261383056,0.9934651851654052
-0.1499330550432205,0.7033435702323914,-0.3038704991340637,-0.8264254927635193,0.0188297666609287,-0.4922616481781006,0.0,0.0,0.7899799346923828,0.9921947717666626
-0.1529764235019683,0.6848240494728088,-0.277377188205719,-0.8229652643203735,-0.00778324669227,-0.5322607159614563,0.0,0.0,0.9619064331054688,0.9537038803100586
-0.1558860838413238,0.6670991778373718,-0.261870414018631,-0.788173496723175,-0.0365042388439178,-0.5744203329086304,0.0,0.0,0.866466760635376,0.400989294052124
-0.1585563719272613,0.6495572328567505,-0.2385357618331909,-0.7805736064910889,-0.0646677985787391,-0.563271701335907,0.0,0.0,0.5662522315979004,0.8054665327072144
-0.161179631948471,0.6320511698722839,-0.2318716496229171,-0.779637336730957,-0.0948239788413047,-0.6031240224838257,0.0,0.0,0.9325958490371704,0.0280150175094604
-0.1635456085205078,0.6152896285057068,-0.2065184116363525,-0.7471408247947693,-0.124697096645832,-0.59746253490448,0.0,0.0,0.8972611427307129,-0.2081276774406433
-0.1655944883823394,0.5990188121795654,-0.1754175871610641,-0.7258743047714233,-0.1540649086236953,-0.587356448173523,0.0,0.0,0.8516676425933838,-0.9985707402229308
-0.1674186736345291,0.5834892392158508,-0.1549866646528244,-0.6932729482650757,-0.1815194189548492,-0.5490902066230774,0.0,0.0,0.9688283205032348,-0.9817736744880676
-0.1691764891147613,0.5687634944915771,-0.1500550955533981,-0.657836377620697,-0.2074019908905029,-0.5176511406898499,0.0,0.0,0.7550233602523804,-0.9867960810661316
-0.170796200633049,0.55397629737854,-0.1381753385066986,-0.660723090171814,-0.2314572930335998,-0.4811059534549713,0.0,0.0,0.9015775918960572,-0.9913848638534546
-0.1723525077104568,0.5398073792457581,-0.1335081756114959,-0.6333637833595276,-0.2539458572864532,-0.4497715532779693,0.0,0.0,0.7543032169342041,-0.9997196197509766
-0.1736231744289398,0.525769829750061,-0.106994055211544,-0.6274913549423218,-0.2744601368904114,-0.4102858901023865,0.0,0.0,0.8886597156524658,-0.9992052912712096
-0.1746653616428375,0.5121268630027771,-0.0860491842031478,-0.6098806262016296,-0.2931400835514068,-0.3735993504524231,0.0,0.0,0.9688966274261476,-0.9918575286865234
-0.1755475997924804,0.4985527098178863,-0.0718874111771583,-0.6066734194755554,-0.3100335597991943,-0.337869256734848,0.0,0.0,0.9621073007583618,-0.9980217218399048
-0.1763546913862228,0.4854523837566376,-0.0659192278981208,-0.5854714512825012,-0.3253947496414184,-0.3072238266468048,0.0,0.0,0.976172685623169,-0.9950108528137208
-0.1767849922180175,0.473201036453247,-0.0300919450819492,-0.5474725961685181,-0.3389052450656891,-0.2702102065086365,0.0,0.0,0.8647663593292236,-0.994962513446808
-0.1769879311323166,0.4607517421245575,-0.0092481318861246,-0.5559403896331787,-0.3504827916622162,-0.2315508425235748,0.0,0.0,0.7509148120880127,-0.9991902112960817
-0.1768215149641037,0.4489698410034179,0.025870120152831,-0.52591872215271,-0.3601986467838287,-0.1943165212869644,0.0,0.0,0.912879228591919,-0.9837312698364258
-0.1765466630458831,0.4374159574508667,0.0351848900318145,-0.5154602527618408,-0.3683285117149353,-0.1625973135232925,0.0,0.0,0.7053180932998657,-0.974227249622345
-0.1760854721069336,0.4263002276420593,0.052254993468523,-0.4956251978874206,-0.3748236000537872,-0.1299017369747162,0.0,0.0,0.6633002758026123,-0.984777569770813
-0.1753272116184234,0.4154412746429443,0.0802276358008384,-0.4837801158428192,-0.3794897794723511,-0.0933237224817276,0.0,0.0,-0.0804719924926757,-0.9804877638816832
-0.1745440512895584,0.4040014147758484,0.080618105828762,-0.5090516805648804,-0.3819297254085541,-0.048799030482769,0.0,0.0,0.3092110157012939,-0.9664688110351562
-0.1734869927167892,0.3925600349903106,0.106322668492794,-0.5086714625358582,-0.3825905323028564,-0.0132162366062402,0.0,0.0,0.6405274868011475,-0.9338883757591248
-0.1722766906023025,0.3810713291168213,0.1201142817735672,-0.5103661417961121,-0.3816205859184265,0.0193989425897598,0.0,0.0,-0.3464590311050415,-0.876412570476532
-0.1710104942321777,0.3689650297164917,0.124432548880577,-0.5374749302864075,-0.3792969584465027,0.0464725457131862,0.0,0.0,0.5060312747955322,-0.9688099026679992
-0.1696166098117828,0.3566983342170715,0.1355879306793213,-0.5441787838935852,-0.3752535879611969,0.080867514014244,0.0,0.0,-0.1441619396209716,-0.953699231147766
-0.1681725531816482,0.3438385426998138,0.1389258950948715,-0.5701194405555725,-0.3694429993629455,0.1162118464708328,0.0,0.0,0.1137919425964355,-0.9702941179275512
-0.1664184629917144,0.3311208486557007,0.1682473868131637,-0.5634000897407532,-0.3618731498718261,0.1513968557119369,0.0,0.0,0.0150647163391113,-0.9551389813423156
-0.1645101606845855,0.3185580968856811,0.1819557398557663,-0.5561312437057495,-0.3525135219097137,0.18719282746315,0.0,0.0,-0.3671205043792724,-0.9708495736122132
-0.1625677049160003,0.305392175912857,0.1832487881183624,-0.5825023651123047,-0.3409746885299682,0.2307763546705246,0.0,0.0,0.3536553382873535,-0.9827509522438048
-0.1603184640407562,0.2925281524658203,0.2121409624814987,,-0.3276216983795166,0.2670604586601257,0.0,0.0,0.6429717540740967,-0.9175843000411988
-0.1579341888427734,0.2799254357814789,0.2241576910018921,-0.5569575428962708,-0.3127678334712982,0.2970777750015259,0.0,0.0,0.2005462646484375,-0.985043466091156
-0.1553880721330642,0.2674467265605926,0.2385210692882537,-0.5512305498123169,-0.296123057603836,0.332895427942276,0.0,0.0,-0.1832258701324463,-0.9687493443489076
-0.1527865380048751,0.2543672025203705,0.2422312945127487,-0.577775239944458,-0.2776807248592376,0.368846446275711,0.0,0.0,0.3786182403564453,-0.9411725401878356
-0.149913027882576,0.241345539689064,0.2676284909248352,-0.5751180052757263,-0.2574819028377533,0.4039765000343323,0.0,0.0,0.6058993339538574,-0.97468239068985
-0.146874338388443,0.2281788140535354,0.2822681367397308,-0.5815491080284119,-0.2354995757341385,0.4396466612815857,0.0,0.0,0.6313390731811523,-0.991418182849884
-0.1435873955488205,0.2149392217397689,0.3051097989082336,-0.5848323702812195,-0.2116115540266037,0.4777607023715973,0.0,0.0,0.7330596446990967,-0.9899797439575196
-0.1399484574794769,0.201912060379982,0.3381763100624084,-0.5755069851875305,-0.1857037842273712,0.5181553959846497,0.0,0.0,0.8874070644378662,-0.9856062531471252
-0.1359955817461013,0.1888798028230667,0.3673749566078186,-0.5759546160697937,-0.1577381491661071,0.5593130588531494,0.0,0.0,0.95732581615448,-0.996455729007721
-0.1318525373935699,0.1765606701374054,0.384455144405365,-0.5446279644966125,-0.1279740780591964,0.5952816605567932,0.0,0.0,0.9290199279785156,-0.9947134852409364
-0.127498909831047,0.1649424135684967,0.4035318791866302,-0.5139414072036743,-0.0963365584611892,0.6327506303787231,0.0,0.0,0.9743292331695556,-0.9947273135185242
-0.1228465065360069,0.1538756936788559,0.4311951100826263,-0.490007996559143,-0.0626115724444389,0.6744996905326843,0.0,0.0,0.939569354057312,-0.9967584013938904
-0.1179818138480186,0.1427390873432159,0.4502974152565002,-0.4938347041606903,-0.0268573965877294,0.7150835990905762,0.0,0.0,0.9800622463226318,-0.968066394329071
-0.1131105422973632,0.1318943053483963,0.4492488801479339,-0.4817347824573517,0.0105382464826107,0.747913122177124,0.0,0.0,0.9965722560882568,-0.8073257803916931
-0.1080664619803428,0.1219990327954292,0.4648226201534271,-0.4405334889888763,0.0496338233351707,0.7819118499755859,0.0,0.0,0.991295576095581,-0.3667608499526977
-0.1029479950666427,0.1125050857663154,0.4726132750511169,-0.4237115979194641,0.088455356657505,0.7764310836791992,0.0,0.0,0.9865033626556396,0.6196529865264893
-0.0978880897164344,0.1038057878613472,0.4687050282955169,-0.3892575204372406,0.1254687905311584,0.7402694821357727,0.0,0.0,0.9738055467605592,0.7278059720993042
-0.0926276221871376,0.0957555845379829,0.4902400374412536,-0.3611841201782226,0.1611735969781875,0.7140964269638062,0.0,0.0,0.9708189964294434,0.4940729141235351
-0.0874368697404861,0.0883871614933013,0.4838630557060241,-0.3316836059093475,0.1964690387248993,0.7059093713760376,0.0,0.0,0.9004600048065186,0.907562017440796
-0.0823109596967697,0.0816531777381897,0.4797224402427673,-0.3039877116680145,0.229643628001213,0.6634925603866577,0.0,0.0,0.8595173358917236,0.8670978546142578
-0.0771385207772255,0.0751167386770248,0.4865024983882904,-0.2956054806709289,0.2609226107597351,0.6255796551704407,0.0,0.0,0.8924503326416016,0.9295088052749634
-0.0720783248543739,0.0689177587628364,0.4776778817176819,-0.2808190882205963,0.2899844348430633,0.5812369585037231,0.0,0.0,0.8646984100341797,0.5962233543395996
-0.0671779662370681,0.0628749951720237,0.4636384546756744,-0.2740544378757477,0.3172829151153564,0.5459696054458618,0.0,0.0,0.9051036834716796,0.5592191219329834
-0.0622334480285644,0.0574622265994548,0.4690936505794525,-0.246343046426773,0.3437412977218628,0.5291674137115479,0.0,0.0,0.6882277727127075,0.6632972955703735
-0.0571628585457801,0.0520011037588119,0.4830990731716156,-0.2486370950937271,0.368949681520462,0.5041682124137878,0.0,0.0,0.6926796436309814,0.3557851314544678
-0.0520970337092876,0.0470774285495281,0.482250452041626,-0.2253138571977615,0.3948063552379608,0.5171340107917786,0.0,0.0,0.6038411855697632,0.577805757522583
-0.0471640601754188,0.042576964944601,0.4704372882843017,-0.2065709382295608,0.4193766713142395,0.4914068579673767,0.0,1.0,0.978039026260376,0.9844670295715332
-0.0425918586552143,0.03963004052639,0.4525164067745209,-0.1327259242534637,0.4232500791549682,0.0756822824478149,0.0,1.0,0.7322709560394287,0.285940408706665
-0.038449477404356,0.0375414937734603,0.4278108179569244,-0.0888353660702705,0.4085614085197449,-0.293838769197464,0.0,1.0,0.2142931222915649,-0.8040198683738708
-0.0348169319331646,0.036126147955656,0.3902811408042907,-0.0553958564996719,0.3796129822731018,-0.5790229439735413,0.0,1.0,-0.7675579786300659,-0.9975335001945496
-0.0313817039132118,0.034394584596157,0.3789475858211517,-0.0680042058229446,0.3421577513217926,-0.7491692304611206,0.0,1.0,0.451262354850769,-0.9697407484054564
-0.0281291007995605,0.0327359065413475,0.3630411624908447,-0.0652593523263931,0.3027598857879638,-0.7880193591117859,0.0,1.0,0.4679166078567505,-0.9880715608596802
-0.0252189636230468,0.0311340913176536,0.3265689611434936,-0.0642231628298759,0.2661486566066742,-0.732265055179596,0.0,1.0,0.4320989847183227,-0.9911285042762756
-0.0226158145815134,0.0294554568827152,0.2938104569911957,-0.068884864449501,0.2320229858160019,-0.6825136542320251,0.0,0.0,-0.8788499236106873,-0.9860225915908812
-0.0199522972106933,0.0271182153373956,0.298091322183609,-0.0991967394948005,0.1999361515045166,-0.6417371034622192,0.0,0.0,0.0767946243286132,-0.9894189834594728
-0.017275046557188,0.0246412847191095,0.2977137267589569,-0.1063126549124717,0.1698174774646759,-0.6023739576339722,0.0,0.0,0.2671887874603271,-0.96085125207901
-0.0144634246826171,0.0219406224787235,0.309324562549591,-0.1170528158545494,0.1416683197021484,-0.5629838705062866,0.0,0.0,0.5114521980285645,-0.9829566478729248
-0.0115766525268554,0.0195435862988233,0.3148855865001678,-0.104247935116291,0.1155764609575271,-0.5218371748924255,0.0,0.0,0.2810628414154053,-0.9817719459533693
-0.0086770057678222,0.0174423791468143,0.3142671585083008,-0.09168241918087,0.091455765068531,-0.4824142456054687,0.0,0.0,0.02183198928833,-0.9538349509239196
-0.0056818006560206,0.0149778220802545,0.3219638466835022,-0.1083159446716308,0.0692353323101997,-0.4444088041782379,0.0,0.0,0.2699654102325439,-0.8398177623748779
