x_pos,y_pos,x_vel,y_vel,angle,ang_vel,leg_1,leg_2,main_booster,lat_booster
-0.0014598846901208,1.4034063816070557,-0.1479020714759826,-0.333940178155899,0.001709627918899,0.0337199941277504,0.0,0.0,-0.7468769921939287,0.6762466752897004
-0.0027988434303551,1.3956948518753052,-0.1340892314910888,-0.3427407145500183,0.0019034951692447,0.0038783457130193,0.0,0.0,-0.3309229472093902,-0.9992152296629015
-0.0041361809708178,1.3877570629119873,-0.1354646980762481,-0.352786511182785,0.0036161113530397,0.0342556163668632,0.0,0.0,-0.9132821883738108,-0.9434204277935248
-0.0055004120804369,1.3795980215072632,-0.1403898000717163,-0.3626437187194824,0.0075412327423691,0.0785097107291221,0.0,0.0,0.9955848038821826,0.7525211774429998
-0.0065818787552416,1.3724071979522705,-0.1110230833292007,-0.3196000456809997,0.0103832706809043,0.0568456575274467,0.0,0.0,0.4144141834738166,-0.6366093651407052
-0.0075292587280273,1.3656963109970093,-0.0991412624716758,-0.2983012199401855,0.0147400572896003,0.0871438086032867,0.0,0.0,0.8365673444628803,-0.9362756613909268
-0.0085285184904932,1.3597283363342283,-0.1061326637864112,-0.2653192281723022,0.0208774115890264,0.1227584928274154,0.0,0.0,0.9213503273025584,0.713048485297229
-0.0092417718842625,1.3546806573867798,-0.0765644237399101,-0.2244233042001724,0.0260590519756078,0.1036424040794372,0.0,0.0,-0.4347438915119741,-0.6852150362606318
-0.0099533079192042,1.3494205474853516,-0.0777739509940147,-0.2339097559452057,0.032603520900011,0.1309012621641159,0.0,0.0,0.2002601510825346,-0.7265086159461354
-0.0106844902038574,1.344736099243164,-0.0811675637960434,-0.208392322063446,0.0405640453100204,0.1592253595590591,0.0,0.0,-0.1299731668300483,-0.5254289961577456
-0.0113970758393406,1.3398326635360718,-0.080180674791336,-0.218197301030159,0.0493955127894878,0.1766455471515655,0.0,0.0,0.4474681348645564,-0.689254785271748
-0.0120657924562692,1.335405349731445,-0.0772894024848938,-0.1971408575773239,0.0597058422863483,0.2062256336212158,0.0,0.0,0.1882564569604512,0.6974835263970756
-0.0125534059479832,1.33153235912323,-0.0578952208161354,-0.1725185960531234,0.0687535256147384,0.180970162153244,0.0,0.0,-0.3210525923822902,-0.8817148480968319
-0.0130527494475245,1.327428102493286,-0.0606030337512493,-0.1829369664192199,0.0793336257338523,0.2116212844848632,0.0,0.0,0.2354251231432569,-0.6854596952956363
-0.0134900091215968,1.3240439891815186,-0.055914144963026,-0.1510950773954391,0.0914308056235313,0.2419656068086624,0.0,0.0,-0.6317198435763811,-0.6082655376666752
-0.0139204021543264,1.320431351661682,-0.05619877576828,-0.1614215075969696,0.1044995486736297,0.2613983452320099,0.0,0.0,0.7802458544631177,0.5358305229177854
-0.0142047880217432,1.318015456199646,-0.04093449562788,-0.1082930862903595,0.1169337704777717,0.2487071454524994,0.0,0.0,0.4982011202839491,0.7496934087281408
-0.0142861362546682,1.3159183263778689,-0.0193553008139133,-0.0941212251782417,0.12811179459095,0.2235807180404663,0.0,0.0,-0.8094693236841148,-0.8656676051412149
-0.0143861770629882,1.3136022090911863,-0.0226416401565074,-0.1040748506784439,0.1407172083854675,0.2521309554576874,0.0,0.0,-0.5734750535823132,-0.5126712175631291
-0.0144953727722167,1.3110603094100952,-0.024677088484168,-0.1143282428383827,0.1544661819934845,0.2750043570995331,0.0,0.0,0.0333819544811433,0.84298252187054
-0.0144855501130223,1.3090426921844482,-0.0110487844794988,-0.0909678861498832,0.1665269285440445,0.2412362992763519,0.0,0.0,0.9391490496202436,0.5509484479373996
-0.0144730564206838,1.3075882196426392,-0.0097015965729951,-0.0659111067652702,0.1775166541337967,0.2198145389556884,0.0,0.0,-0.0541689274577528,-0.9728213923214056
-0.0144915580749511,1.3059000968933103,-0.014293810352683,-0.0765681937336921,0.1900247186422348,0.2501832842826843,0.0,0.0,0.6299350035806781,-0.532734406669231
-0.0145113943144679,1.3044527769088743,-0.0156382285058498,-0.066130556166172,0.2037902623414993,0.2753357291221618,0.0,0.0,-0.2044908627261221,0.669105190347784
-0.0144701953977346,1.3028037548065186,-0.0084699224680662,-0.0750791206955909,0.2165173143148422,0.2545638084411621,0.0,0.0,-0.7144043614559006,0.5635407702681443
-0.0143746379762887,1.3009313344955444,-0.002165091689676,-0.0849797651171684,0.2283768653869629,0.2371909618377685,0.0,0.0,-0.5870659563492839,-0.8895174210830726
-0.0143323894590139,1.2988247871398926,-0.0092070624232292,-0.0957640260457992,0.242010086774826,0.2726644873619079,0.0,0.0,-0.4996383340177759,-0.7100242053273398
-0.0143455509096384,1.2964856624603271,-0.0164102502167224,-0.1065204441547393,0.2573801577091217,0.3074015080928802,0.0,0.0,0.0228505499872844,0.7189729230685735
-0.0145086292177438,1.2946187257766724,-0.0298587940633296,-0.0854121074080467,0.2712327837944031,0.2770522534847259,0.0,0.0,0.8306340144185238,0.9053315205109818
-0.0147670749574899,1.2933318614959717,-0.0375139415264129,-0.0594069845974445,0.2832132875919342,0.2396098673343658,0.0,0.0,0.1251386777954961,0.8564580659070847
-0.0151081085205078,1.2927026748657229,-0.0440487153828144,-0.0299262944608926,0.2934560179710388,0.2048546373844146,0.0,0.0,-0.8455638289451599,0.9905953407287598
-0.0153851509094238,1.29188072681427,-0.0359391160309314,-0.03821637108922,0.3019583821296692,0.1700479686260223,0.0,0.0,-0.883178174495697,0.9735332727432252
-0.0156067851930856,1.2908798456192017,-0.0287254955619573,-0.0458675101399421,0.308751106262207,0.1358543038368225,0.0,0.0,-0.9280875325202942,0.9762129783630372
-0.0157704353332519,1.289684176445007,-0.0212280638515949,-0.0541785098612308,0.3137864172458648,0.1007057428359985,0.0,0.0,-0.8692041635513306,0.9588191509246826
-0.015873908996582,1.2883086204528809,-0.0132712945342063,-0.0617711283266544,0.3168255090713501,0.0607819557189941,0.0,0.0,-0.954594910144806,0.9918639659881592
-0.0159191135317087,1.286759853363037,-0.0054457252845168,-0.0690374448895454,0.3177880048751831,0.0192492324858903,0.0,0.0,-0.9151427745819092,0.9896619319915771
-0.0159125328063964,1.285023212432861,0.0015718849608674,-0.0769810304045677,0.3168425261974334,-0.0189098082482814,0.0,0.0,-0.9882082939147948,0.959996461868286
-0.0158546455204486,1.2831132411956787,0.0086912037804722,-0.0842508748173713,0.3138266503810882,-0.0603176429867744,0.0,0.0,-0.9985997080802916,0.7478995323181152
-0.0157731063663959,1.2810192108154297,0.0124293277040123,-0.0921594053506851,0.3093980252742767,-0.0885723009705543,0.0,0.0,-0.9949489831924438,0.9657931327819824
-0.0156460758298635,1.27874493598938,0.0189534723758697,-0.0997582897543907,0.3029311895370483,-0.1293371617794037,0.0,0.0,-0.9912350177764891,0.9738762378692628
-0.0154936788603663,1.2762895822525024,0.0230598915368318,-0.1075187772512435,0.2948498725891113,-0.1616262793540954,0.0,0.0,-0.9655527472496032,0.7945367097854614
-0.0153050422668457,1.2736486196517944,0.0285704974085092,-0.1154465451836586,0.284850537776947,-0.1999867260456085,0.0,0.0,-0.9561912417411804,0.5959234237670898
-0.0151019096374511,1.270807862281799,0.0313847586512565,-0.1241365000605583,0.2734808325767517,-0.2273939400911331,0.0,0.0,-0.8827142715454102,0.438153862953186
-0.0149406436830759,1.2677507400512695,0.0272103361785411,-0.1338357776403427,0.2621408700942993,-0.2267990112304687,0.0,0.0,-0.9118233919143676,0.3678698539733886
-0.0148236276581883,1.2644774913787842,0.0227819867432117,-0.1435350328683853,0.2508321106433868,-0.226174995303154,0.0,0.0,-0.8916752338409424,0.2834491729736328
-0.0147533416748046,1.2609878778457642,0.0181144140660762,-0.1532342582941055,0.2395559400320053,-0.2255237400531768,0.0,0.0,-0.8925068378448486,0.3546608686447143
-0.0147319789975881,1.2572821378707886,0.0132222324609756,-0.1629334539175033,0.228313609957695,-0.2248468399047851,0.0,0.0,-0.8850113153457642,0.5190689563751221
-0.0147299766540527,1.253377079963684,0.0121212434023618,-0.1717583835124969,0.216250866651535,-0.2412546426057815,0.0,0.0,-0.6958663463592529,-0.0504135489463806
-0.0147809032350778,1.249255895614624,0.0068231634795665,-0.1814591288566589,0.2042243182659149,-0.2405310869216919,0.0,0.0,-0.763775646686554,-0.144068956375122
-0.0148865701630711,1.2449188232421875,0.001342404866591,-0.1911597996950149,0.1922349780797958,-0.2397868931293487,0.0,0.0,-0.795890212059021,-0.1072402000427246
-0.015048598870635,1.2403656244277954,-0.004307993222028,-0.2008604258298874,0.1802837997674942,-0.2390235662460327,0.0,0.0,-0.7815392017364502,-0.3177374005317688
-0.0152687076479196,1.2355965375900269,-0.0101155703887343,-0.2105609774589538,0.1683716624975204,-0.2382426708936691,0.0,0.0,-0.492635428905487,0.0309031009674072
-0.0155480382964015,1.2306113243103027,-0.0160684995353221,-0.2202614247798919,0.1564994007349014,-0.2374456375837326,0.0,0.0,-0.5896379947662354,-0.3881707787513733
-0.0158881191164255,1.225409984588623,-0.022155599668622,-0.2299617975950241,0.1446677297353744,-0.2366338223218917,0.0,0.0,-0.1038562059402465,0.1954872608184814
-0.0162899978458881,1.2199928760528564,-0.0283663682639598,-0.2396620810031891,0.132877305150032,-0.2358084470033645,0.0,0.0,-0.5031962394714355,-0.3189071416854858
-0.0167550090700387,1.2143596410751345,-0.0346909575164318,-0.2493622452020645,0.1211287602782249,-0.2349707186222076,0.0,0.0,-0.3286678791046142,-0.0959177613258361
-0.0172840114682912,1.2085102796554563,-0.0411201752722263,-0.2590623497962951,0.1094226837158203,-0.2341217547655105,0.0,0.0,-0.3193832635879516,0.1603652238845825
-0.0178780555725097,1.2024447917938232,-0.0476454719901084,-0.2687623202800751,0.0977595746517181,-0.2332625687122345,0.0,0.0,-0.568330705165863,0.0995413064956665
-0.0185378082096576,1.1961631774902344,-0.0542589128017425,-0.2784622311592102,0.086139865219593,-0.2323940694332122,0.0,0.0,-0.6802572011947632,0.3868929147720337
-0.0192642211914062,1.18966543674469,-0.0609531514346599,-0.288161963224411,0.0745640099048614,-0.2315171211957931,0.0,0.0,-0.6752010583877563,0.266867995262146
-0.0200579650700092,1.1829514503479004,-0.0677214339375495,-0.2978616058826446,0.0630324035882949,-0.2306324690580368,0.0,0.0,-0.8396762609481812,0.3694443702697754
-0.0209197048097848,1.1760213375091553,-0.0745574980974197,-0.3075611889362335,0.0515453591942787,-0.2297408580780029,0.0,0.0,-0.7903580069541931,0.2025325298309326
-0.0218500141054391,1.168874979019165,-0.0814555957913398,-0.3172606229782104,0.0401032194495201,-0.2288428843021392,0.0,0.0,-0.8575605154037476,0.2277063131332397
-0.0228495597839355,1.1615123748779297,-0.0884104371070861,-0.3269599378108978,0.0287062712013721,-0.22793909907341,0.0,0.0,-0.8983341455459595,0.0350356101989746
-0.0239187236875295,1.1539336442947388,-0.0954171642661094,-0.3366591036319732,0.0173547659069299,-0.2270300686359405,0.0,0.0,-0.8727594614028931,0.7251603603363037
-0.0250123031437397,1.1461403369903564,-0.0967520475387573,-0.3462736308574676,0.0049032075330615,-0.2490311861038208,0.0,0.0,-0.883655309677124,0.5038571357727051
-0.0261351577937603,1.1381375789642334,-0.0986698120832443,-0.3556967079639435,-0.008540223352611,-0.2688685655593872,0.0,0.0,-0.908339023590088,-0.1838127970695495
-0.0273289680480957,1.129918932914734,-0.1058069914579391,-0.3653999865055084,-0.0219374485313892,-0.2679446041584015,0.0,0.0,-0.9174061417579652,0.7932628393173218
-0.0285284034907817,1.1214921474456787,-0.1047383919358253,-0.3748155236244201,-0.036936093121767,-0.2999729514122009,0.0,0.0,-0.8519088625907898,0.60951828956604
-0.0297585483640432,1.112845540046692,-0.1068485379219055,-0.3847662210464477,-0.0529114864766597,-0.3195085823535919,0.0,0.0,-0.8565443158149719,-0.2296187281608581
-0.0310605056583881,1.103984236717224,-0.1140859723091125,-0.3944756090641022,-0.0688400939106941,-0.3185721039772033,0.0,0.0,-0.8734135031700134,-0.5524466037750244
-0.0324759483337402,1.0949134826660156,-0.1265395432710647,-0.4039000570774078,-0.0836777538061142,-0.2967533469200134,0.0,0.0,-0.907660722732544,0.351807951927185
-0.033963393419981,1.085627555847168,-0.1338299661874771,-0.4136063456535339,-0.0984683707356453,-0.2958125472068786,0.0,0.0,-0.945716381072998,0.5451209545135498
-0.0354751572012901,1.0761196613311768,-0.1350989788770675,-0.4237104654312134,-0.1144312471151351,-0.3192575871944427,0.0,0.0,-0.949842631816864,-0.4488217830657959
-0.0370594970881938,1.066397190093994,-0.1424340307712555,-0.4334194362163543,-0.130346804857254,-0.3183111548423767,0.0,0.0,-0.934765100479126,0.7428336143493652
-0.038652516901493,1.056439757347107,-0.1417155563831329,-0.4441858530044555,-0.1478699594736099,-0.3504631519317627,0.0,0.0,-0.9164189696311952,-0.3533450365066528
-0.040318202227354,1.0462682247161863,-0.149088367819786,-0.4538989663124084,-0.1653455346822738,-0.3495115041732788,0.0,0.0,-0.9631222486495972,-0.6701167821884155
-0.0421092025935649,1.0359015464782717,-0.1630666404962539,-0.4626058638095855,-0.1814091950654983,-0.3212732076644897,0.0,0.0,-0.9260095357894896,-0.8711051940917969
-0.0440309531986713,1.0253446102142334,-0.1777434647083282,-0.4710321426391601,-0.1959047615528106,-0.2899113893508911,0.0,0.0,-0.6960490942001343,-0.1616643071174621
-0.0460258498787879,1.0145721435546875,-0.1851578801870346,-0.4807368218898773,-0.2103526890277862,-0.2889586389064789,0.0,0.0,-0.1059613227844238,-0.1524672508239746
-0.0480941757559776,1.0035841464996338,-0.1925839632749557,-0.4904413223266601,-0.2247529029846191,-0.2880043685436249,0.0,0.0,-0.6158968210220337,-0.4504579305648803
-0.0502358451485633,0.9923810362815856,-0.2000205069780349,-0.5001456141471863,-0.2391053289175033,-0.2870485782623291,0.0,0.0,-0.5867140293121338,-0.7734379768371582
-0.052520465105772,0.9809871315956116,-0.2161873281002044,-0.5084353685379028,-0.2515865266323089,-0.2496236860752105,0.0,0.0,-0.1511290669441223,-0.2730754613876343
-0.0548786148428916,0.969377100467682,-0.2236399352550506,-0.5181352496147156,-0.2640198469161987,-0.2486658990383148,0.0,0.0,-0.6276784539222717,-0.4112573862075805
-0.0573105812072753,0.9575509428977966,-0.2310996949672699,,-0.2764051556587219,-0.2477061301469802,0.0,0.0,-0.920028030872345,-0.5759710073471069
-0.0598535537719726,0.9455243349075316,-0.2432713806629181,-0.5366396307945251,-0.2877435088157654,-0.2267669141292572,0.0,0.0,-0.1594858169555664,0.3581938743591308
-0.0624705329537391,0.9332813024520874,-0.2507418394088745,-0.5463370084762573,-0.2990336716175079,-0.2258032858371734,0.0,0.0,-0.4834213852882385,-0.1656193733215332
-0.0651613250374794,0.9208215475082396,-0.2582166790962219,-0.5560342073440552,-0.31027552485466,-0.2248370945453643,0.0,0.0,0.322867751121521,-0.312727689743042
-0.0676742568612098,0.9087442755699158,-0.2410409152507782,-0.5389901399612427,-0.3209241032600403,-0.2129715979099273,0.0,0.0,-0.0103600025177001,-0.5008306503295898
-0.0702907592058181,0.8964610695838928,-0.2522309720516205,-0.5480440855026245,-0.3307427763938904,-0.1963733285665512,0.0,0.0,-0.0597148537635803,-0.4541890621185303
-0.0729813575744628,0.8839608430862427,-0.2597129940986633,-0.5577386021614075,-0.3405127227306366,-0.1953990906476974,0.0,0.0,-0.5931804776191711,-0.5021048784255981
-0.075780488550663,0.8712657690048218,-0.271573007106781,-0.5662195682525635,-0.3492543697357178,-0.1748330444097519,0.0,0.0,-0.3735824227333069,-0.3254672288894653
-0.0786537155508995,0.8583535552024841,-0.2790557742118835,-0.5759124159812927,-0.3579469621181488,-0.1738519221544265,0.0,0.0,-0.1235257983207702,0.1029810905456543
-0.0816011428833007,0.8452238440513611,-0.2865381836891174,-0.5856050848960876,-0.3665902614593506,-0.1728667467832565,0.0,0.0,0.6121325492858887,0.0795451402664184
-0.084492303431034,0.832600474357605,-0.2807693779468536,-0.5632042288780212,-0.3754212856292724,-0.1766210496425628,0.0,0.0,0.852668046951294,-0.3525986671447754
-0.0870143920183181,0.8210577964782715,-0.2443546056747436,-0.5151009559631348,-0.3837637305259704,-0.1668494939804077,0.0,0.0,-0.035926342010498,-0.8453853130340576
-0.0896745696663856,0.8093357682228088,-0.2599308788776397,-0.5226268172264099,-0.3902457654476166,-0.1296409964561462,0.0,0.0,-0.0556117892265319,0.12763512134552
-0.0924087539315223,0.7973961234092712,-0.2674024701118469,-0.5323167443275452,-0.396677702665329,-0.1286384761333465,0.0,0.0,0.5112788677215576,-0.3768198490142822
-0.0948968902230262,0.78607577085495,-0.2432049512863159,-0.5047095417976379,-0.4026910066604614,-0.1202659606933593,0.0,0.0,0.4857816696166992,-0.3836936354637146
-0.0972389206290245,0.7754970192909241,-0.2284441739320755,-0.4718168675899505,-0.408876359462738,-0.1237068176269531,0.0,0.0,0.7742395401000977,-0.7885810136795044
-0.0994796752929687,0.7659071683883667,-0.2197278439998626,-0.4274785220623016,-0.4135561287403106,-0.0935951545834541,0.0,0.0,0.825347900390625,-0.6199212074279785
-0.1016452759504318,0.7569002509117126,-0.2133930623531341,-0.4012438952922821,-0.4169760644435882,-0.0683985650539398,0.0,0.0,0.966029167175293,-0.5174725651741028
-0.1037659645080566,0.7487706542015076,-0.2095445692539215,-0.3620572090148926,-0.4197042286396026,-0.0545630566775798,0.0,0.0,0.7773642539978027,-0.2105125784873962
-0.1058786362409591,0.7412937879562378,-0.208103060722351,-0.3332497179508209,-0.4231292307376861,-0.0684995502233505,0.0,0.0,0.961249589920044,-0.3276082277297973
-0.1076000183820724,0.7346881031990051,-0.169563427567482,-0.2943629920482635,-0.4259203970432281,-0.0558234937489032,0.0,0.0,0.981011152267456,-0.6959980130195618
-0.1091915145516395,0.7284477949142456,-0.1581311523914337,-0.2776565551757812,-0.4270278811454773,-0.0221496131271123,0.0,0.0,0.9430478811264038,-0.5463470220565796
-0.1103579550981521,0.7231321334838867,-0.1171975284814834,-0.2360774427652359,-0.4264254570007324,0.01204823423177,0.0,0.0,0.9226577281951904,-0.3723176717758178
-0.1112483963370323,0.7188481688499451,-0.0895318761467933,-0.1902502924203872,-0.4258928298950195,0.0106523847207427,0.0,0.0,0.8047256469726562,-0.653247058391571
-0.1117177009582519,0.7155554294586182,-0.0491059683263301,-0.1456878632307052,-0.4235392808914184,0.0470707826316356,0.0,0.0,0.5421938896179199,-0.9217230677604676
-0.1120301261544227,0.7127794027328491,-0.0353195555508136,-0.1221569329500198,-0.4191298484802246,0.0881884098052978,0.0,0.0,0.3467566967010498,-0.949718713760376
-0.1122158020734787,0.7107557654380798,-0.0245420113205909,-0.0881848782300949,-0.4126853048801422,0.1288914084434509,0.0,0.0,-0.4102509617805481,-0.5253980159759521
-0.1125064864754676,0.7085409164428711,-0.036029752343893,-0.0964302197098732,-0.4051999151706695,0.1497073769569397,0.0,0.0,-0.4804885387420654,-0.7267240285873413
-0.1129157990217208,0.7061343789100647,-0.049160823225975,-0.1046247854828834,-0.3963604569435119,0.1767892241477966,0.0,0.0,-0.2623500227928161,-0.747502863407135
-0.113461397588253,0.7035529017448425,-0.0646354183554649,-0.1119641587138176,-0.3856043517589569,0.2151215821504593,0.0,0.0,-0.3284063339233398,-0.0024042129516601
-0.1140784248709678,0.7007545232772827,-0.071870632469654,-0.1216595396399498,-0.3747917115688324,0.216253250837326,0.0,0.0,-0.8436330556869507,0.2575149536132812
-0.1147665008902549,0.69773930311203,-0.0790749415755271,-0.1313550919294357,-0.3639219999313354,0.217394471168518,0.0,0.0,-0.8315282464027405,0.2042490243911743
-0.1155252456665039,0.6945073008537292,-0.0862453579902648,-0.1410508006811142,-0.3529947698116302,0.2185445725917816,0.0,0.0,-0.3282204270362854,0.2504842281341553
-0.1163543686270713,0.6910585165023804,-0.0933785885572433,-0.1507466733455658,-0.3420096337795257,0.2197028696537017,0.0,0.0,-0.8355623483657837,0.1757564544677734
-0.1172534972429275,0.6873931288719177,-0.100471056997776,-0.1604427397251129,-0.3309662044048309,0.2208687365055084,0.0,0.0,-0.3615020513534546,-0.11272794008255
-0.1182220429182052,0.6835108399391174,-0.1075188145041465,-0.1701389700174331,-0.3198641836643219,0.2220412492752075,0.0,0.0,-0.9020248651504515,-0.1917269825935363
