x_pos,y_pos,x_vel,y_vel,angle,ang_vel,leg_1,leg_2,main_booster,lat_booster
-0.0015012740623205,1.4034028053283691,-0.1516487747430801,-0.334100604057312,0.0013629554305225,0.0268557779490947,0.0,0.0,-0.7991706132888794,0.6010873317718506
-0.0029273033142089,1.3956842422485352,-0.1422709673643112,-0.3430473208427429,0.0010348611976951,-0.0065621524117887,0.0,0.0,-0.1420025825500488,0.2986114025115967
-0.0043276785872876,1.3877434730529783,-0.1393648236989975,-0.3529207110404968,0.0003712179022841,-0.0132740270346403,0.0,0.0,-0.322018563747406,0.6458368301391602
-0.005660057067871,1.379578948020935,-0.1312278807163238,-0.3628664910793304,-0.0016235965304076,-0.0399000942707061,0.0,0.0,0.1550828218460083,0.0068175792694091
-0.0068731307983398,1.3718764781951904,-0.1194352954626083,-0.3423314392566681,-0.0034605064429342,-0.0367416739463806,0.0,0.0,-0.2999237775802612,0.3819104433059692
-0.0080561637878417,1.3639525175094604,-0.1161973848938942,-0.3521871566772461,-0.005540576763451,-0.0416053868830204,0.0,0.0,-0.1307159662246704,-0.3013516664505005
-0.0092079164460301,1.3558070659637451,-0.1128624901175499,-0.3620354533195495,-0.0078307157382369,-0.0458068773150444,0.0,0.0,0.0991746187210083,-0.2979658246040344
-0.0102245332673192,1.3480844497680664,-0.0996364578604698,-0.3432410955429077,-0.0098244445398449,-0.0398784577846527,0.0,0.0,-0.7166562676429749,-0.3469935059547424
-0.0112074855715036,1.3401401042938232,-0.096128299832344,-0.3530966937541961,-0.0119626000523567,-0.0427671149373054,0.0,0.0,-0.4144046306610107,-0.2266644239425659
-0.0121557237580418,1.3319742679595947,-0.0925411283969879,-0.3629455268383026,-0.014211069792509,-0.0449737645685672,0.0,0.0,-0.8609769940376282,0.407580018043518
-0.0130681041628122,1.3235869407653809,-0.0888807475566864,-0.3727960884571075,-0.0165363922715187,-0.0465110018849372,0.0,0.0,-0.9585747122764589,-0.0566652417182922
-0.0139435771852731,1.3149781227111816,-0.0851524621248245,-0.382646769285202,-0.0189049858599901,-0.0473763421177864,0.0,0.0,-0.5634298324584961,-0.0082518458366394
-0.0147812841460108,1.306147575378418,-0.081361249089241,-0.3924975395202636,-0.0212834570556879,-0.0475736893713474,0.0,0.0,-0.96853768825531,0.3875930309295654
-0.0155802723020315,1.2970954179763794,-0.0775118842720985,-0.4023482501506805,-0.0236387178301811,-0.0471098721027374,0.0,0.0,-0.7029064893722534,-0.3923559188842773
-0.0163395889103412,1.2878217697143557,-0.0736089050769805,-0.4121989607810974,-0.0259382370859384,-0.0459944456815719,0.0,0.0,-0.6163927912712097,0.1727317571640014
-0.0170585624873638,1.2783266305923462,-0.0696565881371498,-0.4220496118068695,-0.0281499940901994,-0.0442392826080322,0.0,0.0,-0.9181870818138124,0.4221682548522949
-0.0177363399416208,1.2686097621917725,-0.0656589791178703,-0.4319002032279968,-0.030242720618844,-0.0418586060404777,0.0,0.0,-0.6653811931610107,-0.3306158185005188
-0.0183721538633108,1.2586714029312134,-0.0616199374198913,-0.4417507350444793,-0.0321859791874885,-0.0388686992228031,0.0,0.0,-0.7382721900939941,-0.37664794921875
-0.0189655311405658,1.2485111951828003,-0.0575430989265441,-0.4516011476516723,-0.0339501835405826,-0.0352875106036663,0.0,0.0,-0.8499236702919006,-0.0713557600975036
-0.0195156093686819,1.2381293773651123,-0.0534319281578063,-0.4614515006542206,-0.0355067588388919,-0.0311345811933279,0.0,0.0,-0.9658004641532898,-0.8884732127189636
-0.0200769416987895,1.2275352478027344,-0.0562137737870216,-0.4708490073680877,-0.0354357920587062,0.0014197480631992,0.0,0.0,-0.8699911236763,-0.781156063079834
-0.0206547733396291,1.2167181968688965,-0.0596500113606452,-0.4807158708572387,-0.0335822030901908,0.0370751395821571,0.0,0.0,-0.9743403792381288,-0.2990055084228515
-0.0211877822875976,1.205679416656494,-0.0554635301232337,-0.4905657768249511,-0.0314423888921737,0.0427999123930931,0.0,0.0,-0.8614533543586731,-0.4341685771942138
-0.0216753967106342,1.1944189071655271,-0.0512544810771942,-0.5004158616065979,-0.0289915334433317,0.0490218102931976,0.0,0.0,-0.6602552533149719,0.0188006162643432
-0.0221176147460937,1.182936668395996,-0.0470261834561824,-0.5102660655975342,-0.0262068454176187,0.0556986331939697,0.0,0.0,-0.9134320616722108,0.1909489631652832
-0.0225139614194631,1.1712114810943604,-0.0428181663155555,-0.5210697650909424,-0.0230661388486623,0.0628138035535812,0.0,0.0,-0.9070011377334596,0.2098619937896728
-0.022863769903779,1.1592648029327393,-0.0385491028428077,-0.5309183597564697,-0.0195480976253747,0.0703606978058815,0.0,0.0,-0.9035636186599731,0.7285164594650269
-0.0231215469539165,1.1471027135849,-0.0285933259874582,-0.5405047535896301,-0.0167665928602218,0.0556300953030586,0.0,0.0,-0.9142791628837584,0.6080255508422852
-0.023294448852539,1.1347230672836304,-0.019564863294363,-0.5501829981803894,-0.0145155563950538,0.0450204201042652,0.0,0.0,-0.9605975151062012,-0.3780015110969543
-0.0234198570251464,1.122121810913086,-0.0152612850069999,-0.5600311756134033,-0.0118302265182137,0.0537066869437694,0.0,0.0,-0.8238729238510132,-0.4583509564399719
-0.0234975814819335,1.1092991828918457,-0.0109503883868455,-0.5698797106742859,-0.0086937174201011,0.0627303123474121,0.0,0.0,-0.8404384851455688,0.5100290775299072
-0.0234922412782907,1.0962514877319336,-0.0022258437238633,-0.5798864364624023,-0.0059734741225838,0.054405003786087,0.0,0.0,-0.888760507106781,0.3896558284759521
-0.0234387405216693,1.0829821825027466,0.0020937698427587,-0.589735209941864,-0.002771281870082,0.0640440210700035,0.0,0.0,-0.8914072513580322,0.292217493057251
-0.0233371742069721,1.069491624832153,0.0064148544333875,-0.5995844006538391,0.0009268510038964,0.0739626437425613,0.0,0.0,-0.9588097929954528,0.7663290500640869
-0.0231248848140239,1.055781006813049,0.0185504648834466,-0.6093580722808838,0.0035689184442162,0.0528412349522113,0.0,0.0,-0.7170085906982422,0.3348269462585449
-0.0228641517460346,1.041849136352539,0.0228688921779394,-0.6192072629928589,0.0067322389222681,0.0632665157318115,0.0,0.0,-0.7817139625549316,0.1719031333923339
-0.022554874420166,1.0276957750320437,0.0271832291036844,-0.6290568113327026,0.0104282740503549,0.0739206299185752,0.0,0.0,-0.7506750226020813,0.5471159219741821
-0.0221510883420705,1.0133259296417236,0.0372646227478981,-0.6386794447898865,0.0135107403621077,0.0616490840911865,0.0,0.0,-0.7014697790145874,0.7626619338989258
-0.0216422080993652,0.9987444877624512,0.0486354269087314,-0.6480890512466431,0.0157285071909427,0.0443554297089576,0.0,0.0,-0.8205419182777405,0.3402072191238403
-0.0210847854614257,0.9839415550231934,0.0529265627264976,-0.6579385995864868,0.0185088962316513,0.0556076988577842,0.0,0.0,-0.8617429137229919,0.7935552597045898
-0.0204272270202636,0.9689253568649292,0.0636798441410064,-0.6674112677574158,0.0205616746097803,0.0410554334521293,0.0,0.0,-0.9283812046051024,-0.0642247796058654
-0.0197210311889648,0.953687846660614,0.0679463893175125,-0.6772611141204834,0.0231936834752559,0.0526403859257698,0.0,0.0,-0.8996663093566895,0.1974130868911743
-0.0189665798097848,0.9382291436195374,0.0721978992223739,-0.6871111989021301,0.0264124032109975,0.0643739998340606,0.0,0.0,-0.9086593389511108,0.8000829219818115
-0.0180898662656545,0.9225503206253052,0.0856866464018821,-0.6968717575073242,0.0283711403608322,0.0391747839748859,0.0,0.0,-0.8314710259437561,0.4573725461959839
-0.0171648971736431,0.9066503047943116,0.0899024754762649,-0.7067219018936157,0.030929822474718,0.0511736348271369,0.0,0.0,-0.8657050132751465,0.9293513298034668
-0.0161125175654888,0.8905230164527893,0.1040444746613502,-0.7167884707450867,0.0321058295667171,0.0235201083123683,0.0,0.0,-0.9556468725204468,-0.4733487963676452
-0.0150122642517089,0.8741747140884399,0.1082170233130455,-0.726638674736023,0.0338930822908878,0.0357451364398002,0.0,0.0,-0.8958907127380371,0.1858747005462646
-0.0138643262907862,0.8576049208641052,0.1123650074005127,-0.7364890575408936,0.0362965762615203,0.0480699092149734,0.0,0.0,-0.8142901659011841,0.1390770673751831
-0.012668895535171,0.8408140540122986,0.1164864674210548,-0.7463397979736328,0.0393208973109722,0.0604862757027149,0.0,0.0,-0.909798800945282,0.384868860244751
-0.011426162905991,0.8238019347190857,0.1205793842673301,-0.7561910152435303,0.0429702065885067,0.0729863494634628,0.0,0.0,-0.7810089588165283,0.4001868963241577
-0.0101364133879542,0.8065688610076904,0.1246417015790939,-0.7660427689552307,0.0472483411431312,0.0855627804994583,0.0,0.0,-0.8864344954490662,0.8877884149551392
-0.0087367054075002,0.7891252040863037,0.1366168558597564,-0.7753812074661255,0.050560139119625,0.0662360563874244,0.0,0.0,-0.8300665616989136,0.3665201663970947
-0.0072907446883618,0.7714605331420898,0.1406116783618927,-0.7852332592010498,0.0545073635876178,0.0789444521069526,0.0,0.0,-0.7202258706092834,0.8057591915130615
-0.005734825041145,0.7535877227783203,0.1525745689868927,-0.7944638133049011,0.0574792325496673,0.0594374425709247,0.0,0.0,-0.9334090948104858,-0.6141047477722168
-0.0041698454879224,0.7354884743690491,0.1519207507371902,-0.8045943975448608,0.0620120912790298,0.0906573161482811,0.0,0.0,-0.7199466824531555,0.4680734872817993
-0.0025594711769372,0.7171683311462402,0.1557981669902801,-0.8144479393959045,0.0671878978610038,0.1035160571336746,0.0,0.0,-0.7735769748687744,-0.3739322423934936
-0.0009042739984579,0.698627769947052,0.159631997346878,-0.8243021368980408,0.0730085596442222,0.1164132729172706,0.0,0.0,-0.8607512712478638,-0.0439442992210388
0.0007952690357342,0.67986661195755,0.163420021533966,-0.834157407283783,0.0794757455587387,0.1293435394763946,0.0,0.0,-0.6358997821807861,-0.2219144701957702
0.0025386810302734,0.6608852744102478,0.1671599447727203,-0.8440137505531311,0.0865907967090606,0.142301470041275,0.0,0.0,0.0282014608383178,0.0942006111145019
0.0042360303923487,0.6424083709716797,0.1621208637952804,-0.8216513395309448,0.0941356420516967,0.1508970558643341,0.0,0.0,0.1559613943099975,0.7888309955596924
0.0060554505325853,0.6241061091423035,0.1752261370420456,-0.8138692378997803,0.1007924526929855,0.1331363320350647,0.0,0.0,0.2944378852844238,0.3287239074707031
0.00778369884938,0.6063920259475708,0.1658291667699813,-0.787777304649353,0.1077364236116409,0.1388791501522064,0.0,0.0,0.2143572568893432,0.8167026042938232
0.0096806529909372,0.5890499353408813,0.1836012899875641,-0.7712104320526123,0.1137889251112937,0.1210501790046691,0.0,0.0,0.170315146446228,0.1903759241104126
0.0115859983488917,0.5721377730369568,0.1837174445390701,-0.7521887421607971,0.1205697953701019,0.135617047548294,0.0,0.0,0.1803940534591674,0.7473242282867432
0.0135628702118992,0.5554383397102356,0.1917113959789276,-0.7426915764808655,0.1265187412500381,0.11897873878479,0.0,0.0,-0.1338866949081421,0.2477723360061645
0.015579605475068,0.5385189056396484,0.1950482875108719,-0.7525498270988464,0.1331183761358261,0.131992369890213,0.0,0.0,0.3156814575195312,0.2371982336044311
0.0175620075315237,0.5223963260650635,0.1908901333808899,-0.717231810092926,0.1404472142457962,0.146576702594757,0.0,0.0,-0.3806447982788086,0.9700976610183716
0.0196703914552927,0.5060608386993408,0.2050379514694214,-0.7265806794166565,0.1462277770042419,0.1156111806631088,0.0,0.0,0.5559127330780029,0.2063859701156616
0.0217246059328317,0.4907041490077972,0.1988559663295745,-0.6831783652305603,0.152774378657341,0.1309323012828827,0.0,0.0,-0.2909358143806457,0.8667254447937012
0.0238733291625976,0.4751371145248413,0.2091278284788131,-0.6924679279327393,0.1585069298744201,0.114651009440422,0.0,0.0,-0.1486334204673767,-0.0602591037750244
0.0260581020265817,0.4593503475189209,0.2121076136827469,-0.70232754945755,0.1648849546909332,0.1275606155395507,0.0,0.0,0.3386001586914062,0.5419238805770874
0.0282644275575876,0.444108247756958,0.2146475613117218,-0.6781038641929626,0.1708806157112121,0.1199129000306129,0.0,0.0,-0.0206204652786254,-0.2813446521759033
0.0305053703486919,0.4286464750766754,0.2174698412418365,-0.6879644989967346,0.1775179505348205,0.1327464133501052,0.0,0.0,0.4283616542816162,0.1322138309478759
0.0327543243765831,0.4137192964553833,0.2173558473587036,-0.6643522381782532,0.1850885301828384,0.1514115631580352,0.0,0.0,0.165822148323059,0.5558826923370361
0.0350032821297645,0.3989803194999695,0.2178824692964553,-0.6559597253799438,0.1921358704566955,0.1409467756748199,0.0,0.0,-0.0784323811531066,0.1214371919631958
0.0372840873897075,0.3840220272541046,0.2204550206661224,-0.6658223867416382,0.1998172551393509,0.1536272466182708,0.0,0.0,0.7714173793792725,0.1072251796722412
0.0394906029105186,0.3693695962429046,0.2125536501407623,-0.652333676815033,0.2079728245735168,0.1631113290786743,0.0,0.0,0.7118585109710693,0.7085584402084351
0.0416019447147846,0.3557249307632446,0.2038797438144683,-0.6074674725532532,0.2153060436248779,0.1466640830039978,0.0,0.0,0.0261391401290893,0.8354511260986328
0.0437546744942665,0.3426515758037567,0.2090609818696975,-0.5819565057754517,0.22158183157444,0.1255160272121429,0.0,0.0,-0.0921462774276733,0.552527666091919
0.0459693893790245,0.3293759822845459,0.2155553847551345,-0.5909243822097778,0.2275677621364593,0.1197190135717392,0.0,0.0,0.2174594402313232,-0.3680765628814697
0.0480633750557899,0.3162055611610412,0.2033236473798751,-0.5863015651702881,0.2337283194065094,0.1232110038399696,0.0,0.0,0.2774128913879394,0.2962627410888672
0.0500724799931049,0.3037187755107879,0.1940978914499282,-0.5560665130615234,0.240644171833992,0.1383174657821655,0.0,0.0,-0.1554263830184936,0.673516035079956
0.0521497726440429,0.291028618812561,0.2014471739530563,-0.5650491714477539,0.2470354586839676,0.1278257519006729,0.0,0.0,0.2744680643081665,0.6548420190811157
0.0541276931762695,0.2788841724395752,0.1922948211431503,-0.5406874418258667,0.2526272237300873,0.1118353381752967,0.0,0.0,0.0993404388427734,0.1800582408905029
0.0560049042105674,0.2671933174133301,0.181689903140068,-0.5206417441368103,0.2587774395942688,0.1230044737458229,0.0,0.0,-0.0668410658836364,0.676609992980957
0.0579633712768554,0.2553068995475769,0.1907921135425567,-0.5291878581047058,0.26394984126091,0.1034478917717933,0.0,0.0,0.0155246257781982,0.2274583578109741
0.0599024780094623,0.243511751294136,0.1882168650627136,-0.5252683162689209,0.2697726488113403,0.1164554581046104,0.0,0.0,0.6574146747589111,0.4917449951171875
0.0618439689278602,0.2321186661720276,0.1874834299087524,-0.5076013207435608,0.2766022384166717,0.1365915536880493,0.0,0.0,0.1183180809020996,-0.1129535436630249
0.0637949928641319,0.2211052924394607,0.1874504685401916,-0.4909484684467315,0.2844617366790771,0.1571902334690094,0.0,0.0,0.4669026136398315,0.1363070011138916
0.0657849311828613,0.2104296833276748,0.1902478039264679,-0.4762008786201477,0.2934556305408478,0.179877370595932,0.0,0.0,0.5200604200363159,0.3034287691116333
0.0675870925188064,0.2005258947610855,0.1709917336702346,-0.4420540928840637,0.3029793500900268,0.1904744058847427,0.0,0.0,0.3073749542236328,0.743415355682373
0.0693074241280555,0.1913070231676101,0.1637359857559204,-0.411480039358139,0.3115653395652771,0.1717197299003601,0.0,0.0,0.8859786987304688,0.7441294193267822
0.0710116401314735,0.1830573379993438,0.162766233086586,-0.3683148920536041,0.3195129632949829,0.1589526385068893,0.0,0.0,0.9158695936203004,0.7132126092910767
0.07278623431921,0.1752070486545562,0.1704220622777938,-0.3504727482795715,0.326838880777359,0.1465183198451995,0.0,0.0,0.6835172176361084,0.0044429302215576
0.0743569359183311,0.1678494364023208,0.149797722697258,-0.3286685943603515,0.3344359099864959,0.1519405990839004,0.0,0.0,0.875391960144043,-0.1277070641517639
0.0757096260786056,0.1617082506418228,0.1270898729562759,-0.2748569548130035,0.3429863452911377,0.1710085570812225,0.0,0.0,0.9005067348480225,0.2358741760253906
0.0768284797668457,0.156259998679161,0.1033737882971763,-0.2441937178373336,0.3519114851951599,0.1785032302141189,0.0,0.0,0.9494287967681884,0.6721415519714355
0.077534481883049,0.1518663913011551,0.0633490234613418,-0.1970615684986114,0.3595446348190307,0.1526637375354766,0.0,0.0,0.6270482540130615,0.3883237838745117
0.0780888572335243,0.1482645869255066,0.0473725162446498,-0.1621245294809341,0.3680516183376312,0.1701390445232391,0.0,0.0,-0.021014928817749,0.4710794687271118
0.0786521881818771,0.1444442570209503,0.0478551350533962,-0.1719926297664642,0.3770244121551513,0.1794562190771103,0.0,0.0,-0.254085898399353,0.4519462585449219
0.0792235359549522,0.1404057145118713,0.0482684411108493,-0.181861326098442,0.3864513635635376,0.1885387897491455,0.0,0.0,-0.3924399614334106,0.8180785179138184
0.0798599272966384,0.1361809819936752,0.0559035949409008,-0.189884215593338,0.3947055339813232,0.1650833785533905,0.0,0.0,0.2895975112915039,0.8173732757568359
0.0802857428789138,0.132365733385086,0.0361489467322826,-0.1713742613792419,0.4016052484512329,0.1379937529563903,0.0,0.0,-0.153798758983612,0.7795562744140625
0.0807602852582931,0.1283568739891052,0.0417638346552848,-0.1797971278429031,0.4077142179012298,0.1221793442964553,0.0,0.0,-0.4467436075210571,0.9069440364837646
0.0813153237104415,0.1241834238171577,0.0515154376626014,-0.1866404265165329,0.4120108783245086,0.0859333947300911,0.0,0.0,-0.3473761081695556,0.8223763704299927
0.0819421783089637,0.1198268756270408,0.0600641258060932,-0.1943915486335754,0.4148291349411011,0.0563648864626884,0.0,0.0,-0.6684850454330444,0.9496110677719116
0.0826554298400878,0.1153132542967796,0.0706385523080825,-0.2008055001497268,0.415570318698883,0.0148237738758325,0.0,0.0,-0.5975616574287415,0.8282327651977539
0.0834272354841232,0.1106241792440414,0.0777026563882827,-0.2082539647817611,0.4150123596191406,-0.011159055866301,0.0,0.0,-0.7080978155136108,0.8599424362182617
0.0842754393815994,0.1057748198509216,0.0870684757828712,-0.214865431189537,0.4125835299491882,-0.0485764481127262,0.0,0.0,-0.2288419008255005,0.2059541940689087
0.0851258262991905,0.1007057279348373,0.0869825705885887,-0.2247254997491836,0.4104891419410705,-0.0418877601623535,0.0,0.0,-0.3526177406311035,0.8174440860748291
0.0860337242484092,0.0954622626304626,0.0940023809671402,-0.2321150600910186,0.4070300459861755,-0.069182202219963,0.0,0.0,-0.4196445941925049,0.8049429655075073
0.0870046615600586,0.0900467708706855,0.1017436012625694,-0.2393604964017868,0.4020318686962127,-0.0999636501073837,0.0,0.0,0.0631836652755737,0.3564519882202148
0.0879085510969162,0.0848492234945297,0.094555377960205,-0.229829654097557,0.3975641131401062,-0.0893551632761955,0.0,0.0,-0.2376971840858459,0.7005558013916016
0.0888526886701583,0.0794582664966583,0.0994189530611038,-0.2382070571184158,0.3922163248062134,-0.1069556698203086,0.0,0.0,0.6566674709320068,-0.2277469038963318
0.0894804969429969,0.0744891762733459,0.0681061819195747,-0.2193933874368667,0.386534035205841,-0.1136465519666671,0.0,0.0,0.4225434064865112,0.7683379650115967
0.0899615287780761,0.0699965804815292,0.054734468460083,-0.1978917866945266,0.3794837892055511,-0.1410047858953476,0.0,0.0,0.211734652519226,0.2718923091888428
0.0903144851326942,0.065839871764183,0.0416407659649848,-0.1830749809741974,0.3727527558803558,-0.1346205919981002,0.0,0.0,-0.0084426999092102,0.8067188262939453
0.0907400101423263,0.0614986270666122,0.0506015196442604,-0.1908699423074722,0.3642264306545257,-0.170526310801506,0.0,0.0,-0.4875879287719726,-0.3921757936477661
0.0911640152335167,0.0569375120103359,0.0502872839570045,-0.20073002576828,0.3559016585350036,-0.1664952933788299,0.0,0.0,0.4713518619537353,0.8464131355285645
0.091419793665409,0.053222332149744,0.0349545404314994,-0.1628302782773971,0.3460478782653808,-0.1970757991075515,0.0,0.0,-0.0054589509963989,0.7497475147247314
0.0917367935180664,0.0493130311369895,0.0425643399357795,-0.1711773723363876,0.3346774578094482,-0.2274087220430374,0.0,0.0,0.7425999641418457,0.4761264324188232
0.0919355377554893,0.0461579672992229,0.030167456716299,-0.1378780007362365,0.3239439725875854,-0.2146701514720916,0.0,0.0,-0.2901712656021118,0.2512881755828857
