x_pos,y_pos,x_vel,y_vel,angle,ang_vel,leg_1,leg_2,main_booster,lat_booster
-0.0014899254310876,1.4033104181289673,-0.1506809294223785,-0.3382130265235901,0.0015079370932653,0.0297265145927667,0.0,0.0,-0.8862955409281341,0.7064132958004157
-0.002885437104851,1.3954062461853027,-0.1392534375190735,-0.3512932360172272,0.0012181425699964,-0.0057959663681685,0.0,0.0,0.4318210425176605,-0.937027334609664
-0.004188060760498,1.3877060413360596,-0.1317461878061294,-0.3422373831272125,0.002684948965907,0.0293388329446315,0.0,0.0,-0.1936799253744128,0.6911016701175594
-0.005411815829575,1.3796892166137695,-0.1225012987852096,-0.3562980890274048,0.0028092614375054,0.0024866634048521,0.0,0.0,0.0182176783982097,0.7281950654375611
-0.0064518926665186,1.3719642162322998,-0.1025127172470092,-0.3433338105678558,0.0013226506998762,-0.0297350101172924,0.0,0.0,-0.1805571893513593,-0.8640099399382348
-0.0075085638090968,1.3639235496520996,-0.1052439585328102,-0.3573625981807709,0.00091364455875,-0.0081809125840663,0.0,0.0,-0.5991637119158049,0.7191213232988216
-0.0084742549806833,1.3555690050125122,-0.0945209711790084,-0.3713186979293823,-0.001110554090701,-0.0404877588152885,0.0,0.0,-0.9781704646278946,-0.7239643277884251
-0.0094460491091012,1.3469023704528809,-0.0959755927324295,-0.3851841390132904,-0.0022987814154475,-0.0237667541950941,0.0,0.0,0.4274528716138284,0.8050619757927098
-0.0103274341672658,1.339014768600464,-0.0850544720888137,-0.3505674600601196,-0.0053431447595357,-0.0608932487666606,0.0,0.0,-0.8993685730533292,-0.6041476785770155
-0.0112190246582031,1.3308172225952148,-0.0870473831892013,-0.3643511533737182,-0.007430306635797,-0.0417468771338462,0.0,0.0,-0.6560550508345755,-0.8576371727195983
-0.0121310232207179,1.322306752204895,-0.0903087705373764,-0.3782469630241394,-0.0083031430840492,-0.0174587629735469,0.0,0.0,-0.0526446884477542,0.976635385252565
-0.0129190441220998,1.31347918510437,-0.075497418642044,-0.3923589885234833,-0.0115795945748686,-0.0655351430177688,0.0,0.0,-0.1040520250341325,0.8041101997049072
-0.0135918613523244,1.3043404817581177,-0.061771135777235,-0.4062148332595825,-0.0170320328325033,-0.1090583950281143,0.0,0.0,0.891464466012134,0.7543605916600713
-0.0140741346403956,1.295487403869629,-0.0411634407937526,-0.3935700356960296,-0.0240156669169664,-0.1396853625774383,0.0,0.0,-0.3016598291440702,-0.8153530945824657
-0.0145668983459472,1.2863309383392334,-0.0432315692305564,-0.4070679843425751,-0.0299944747239351,-0.1195867508649826,0.0,0.0,-0.7140079736594838,0.9307929360495673
-0.014934348873794,1.2768460512161257,-0.0282568987458944,-0.421735405921936,-0.0383912324905395,-0.1679506599903106,0.0,0.0,-0.3017641012111425,0.9379490407675254
-0.0151715278625488,1.2670542001724243,-0.0126923890784382,-0.4355109333992004,-0.0493035949766635,-0.2182671278715133,0.0,0.0,0.10701141550731,0.7222785360581179
-0.0151915550231933,1.2573078870773315,0.0105949956923723,-0.4336299300193786,-0.0617705658078193,-0.2493618726730346,0.0,0.0,0.3499513117135493,-0.918499416186666
-0.0151125909760594,1.2482383251190186,0.0187768954783678,-0.4035782814025879,-0.0725581645965576,-0.2157716006040573,0.0,0.0,0.4365598267171158,0.8742871344988761
-0.0149686811491847,1.2395933866500854,0.0273396074771881,-0.3848952949047088,-0.0854033678770065,-0.2569272518157959,0.0,0.0,0.4449996558663931,0.922457316577906
-0.0145293232053518,1.231600999832153,0.0588162429630756,-0.3561319410800934,-0.1001685559749603,-0.2953304946422577,0.0,0.0,0.9146288700812224,-0.8578169880765975
-0.0140515323728322,1.2240656614303589,0.0611030831933021,-0.3358531594276428,-0.1134125888347625,-0.2649048566818237,0.0,0.0,0.8521214493130127,0.8127654148688553
-0.0132423397153615,1.2170896530151367,0.0957283228635788,-0.3112421631813049,-0.1281643211841583,-0.2950612902641296,0.0,0.0,-0.4979159620513735,0.8662197245339738
-0.0123179433867335,1.2097785472869873,0.1093796491622924,-0.3264750242233276,-0.1450590938329696,-0.3379259705543518,0.0,0.0,-0.9560832835431854,-0.6625914060436033
-0.0114168170839548,1.2021729946136477,0.1055830866098404,-0.3396005928516388,-0.1605204045772552,-0.3092540204524994,0.0,0.0,0.1262918942800586,-0.7617908518445694
-0.0105721475556492,1.194991946220398,0.0986760407686233,-0.3207566142082214,-0.1747487783432006,-0.2845671474933624,0.0,0.0,-0.5347327117223764,0.7561209488774885
-0.009627342224121,1.187489032745361,0.1103651747107505,-0.3354065120220184,-0.1906992942094802,-0.319010466337204,0.0,0.0,0.0830292878210217,-0.6247126910236466
-0.008681965060532,1.1805202960968018,0.1094669476151466,-0.3117094933986664,-0.2057109475135803,-0.3002329766750335,0.0,0.0,0.2176443220029922,-0.7819534280199176
-0.0077459337189793,1.174137830734253,0.1071921959519386,-0.2856196761131286,-0.2194410264492035,-0.2746014595031738,0.0,0.0,0.2103537920206586,0.8946269245062071
-0.0066406251862645,1.1679469347000122,0.1260619163513183,-0.2775353193283081,-0.2351696789264679,-0.3145731091499328,0.0,0.0,0.850202142213488,-0.8367303154111368
-0.0053137778304517,1.1628526449203491,0.1466164141893386,-0.2287027537822723,-0.2493398040533065,-0.2834025919437408,0.0,0.0,0.3894211896451944,-0.97842454255999
-0.0040040970779955,1.1580336093902588,0.1431455910205841,-0.2162884324789047,-0.2617617547512054,-0.2484391033649444,0.0,0.0,0.4625219892306482,0.7619603387463039
-0.0024890899658203,1.1539469957351685,0.1654218137264251,-0.1841870248317718,-0.2760176360607147,-0.285117357969284,0.0,0.0,0.8174120819411603,0.854997582660758
-0.00083589553833,1.1501188278198242,0.1811786144971847,-0.1732171922922134,-0.2923218309879303,-0.3260840475559234,0.0,0.0,0.6653620737982069,0.9840241978821284
0.0011332512367516,1.1468496322631836,0.2147548198699951,-0.1489841043949127,-0.3107631206512451,-0.3688255548477173,0.0,0.0,0.0591085793751657,-0.923227458726286
0.003237533615902,1.1439969539642334,0.2265114039182663,-0.1303211897611618,-0.3274744153022766,-0.3342261910438537,0.0,0.0,0.815483515629265,-0.974109903820433
0.0054400442168116,1.141592264175415,0.2345342338085174,-0.1101813167333602,-0.3423982262611389,-0.2984763979911804,0.0,0.0,0.7152469271643567,0.9016436535451816
0.0080593107268214,1.1399425268173218,0.2779474854469299,-0.0772222205996513,-0.3592395186424255,-0.3368262946605682,0.0,0.0,0.6385475407334085,0.9445586634087426
0.0110450740903615,1.139150619506836,0.3165015280246734,-0.0398027338087558,-0.3782013058662414,-0.3792358338832855,0.0,0.0,-0.8742114273840136,0.972379057525674
0.0141475675627589,1.1380070447921753,0.3301249146461487,-0.0562353953719139,-0.3993926346302032,-0.4238274693489074,0.0,0.0,-0.2108132479924276,0.9896506343903466
0.0173537246882915,1.1365264654159546,0.34197798371315,-0.0719914585351944,-0.4223849177360534,-0.4598455429077148,0.0,0.0,-0.2821323871612549,-0.9987267851829528
0.0205451007932424,1.134774684906006,0.3388905525207519,-0.083931878209114,-0.4438530802726745,-0.4293633997440338,0.0,0.0,-0.1180207729339599,-0.9969419240951538
0.023716639727354,1.132746696472168,0.335241436958313,-0.0959955230355262,-0.4637094438076019,-0.3971274495124817,0.0,0.0,-0.4514074325561523,-0.9852381944656372
0.02687244489789,1.130450963973999,0.3320341408252716,-0.1076313629746437,-0.4819569289684295,-0.3649495244026184,0.0,0.0,-0.0365924835205078,-0.9987787008285522
0.0299925804138183,1.1278929710388184,0.3264425992965698,-0.1188123524188995,-0.4980867803096771,-0.3225964605808258,0.0,0.0,-0.2166719436645507,-0.9978825449943542
0.0330880172550678,1.1250667572021484,0.3222319483757019,-0.1302749961614608,-0.5123883485794067,-0.2860320806503296,0.0,0.0,-0.5814029574394226,-0.9885627627372742
0.036163043230772,1.121975660324097,0.3185158967971802,-0.1415769606828689,-0.5249139070510864,-0.2505099177360534,0.0,0.0,-0.3847248554229736,-0.9998628497123718
0.0392029769718647,1.1186509132385254,0.3128170967102051,-0.1511969417333603,-0.5349956154823303,-0.2016336023807525,0.0,0.0,-0.4283569455146789,-0.9959160089492798
0.042205810546875,1.1150935888290403,0.3068665266036987,-0.1607234477996826,-0.5425642728805542,-0.1513732224702835,0.0,0.0,-0.7667483687400818,-0.999772608280182
0.0451795570552349,1.111283302307129,0.3020970523357391,-0.1712584495544433,-0.5480130910873413,-0.1089768260717392,0.0,0.0,-0.875787079334259,-0.995746374130249
0.0481436736881732,1.1072053909301758,0.299784243106842,-0.1826141625642776,-0.5519192218780518,-0.0781220942735672,0.0,0.0,-0.7432473301887512,-0.9988495111465454
0.0510784164071083,1.1028865575790403,0.2948735654354095,-0.1925213783979416,-0.5535486936569214,-0.0325896888971328,0.0,0.0,-0.9050787091255188,-0.9990284442901612
0.05399751663208,1.0982997417449951,0.2918765246868133,-0.2038454264402389,-0.553506076335907,0.0008522316929884,0.0,0.0,-0.7408888339996338,-0.9962118268013
0.05689487606287,1.0934678316116333,0.2879151403903961,-0.2140063792467117,-0.5513930916786194,0.0422598645091056,0.0,0.0,-0.9733442068099976,-0.9929104447364808
0.0597817413508892,1.0883647203445437,0.2855425775051117,-0.2255159467458725,-0.5477468371391296,0.0729249268770217,0.0,0.0,-0.8297461271286011,-0.9988675117492676
0.0626305565237999,1.083014965057373,0.2796333432197571,-0.2356522679328918,-0.541691243648529,0.1211113110184669,0.0,0.0,-0.9489851593971252,-0.9919939637184144
0.0654670745134353,1.0774098634719849,0.2768651247024536,-0.2464077025651931,-0.5338853001594543,0.1561189889907837,0.0,0.0,-0.9140365719795228,-0.9202920794487
0.0682976692914962,1.0715373754501345,0.2749515175819397,-0.2578378021717071,-0.5246080160140991,0.1855452358722686,0.0,0.0,-0.964067041873932,-0.9839403033256532
0.0711139664053917,1.0654112100601196,0.2718813121318817,-0.2685537040233612,-0.5135253667831421,0.2216531485319137,0.0,0.0,-0.9698401093482972,-0.9648107886314392
0.0738996490836143,1.0590426921844482,0.2667286396026611,-0.2786586582660675,-0.5001649260520935,0.2672085165977478,0.0,0.0,-0.9917925000190736,-0.9824567437171936
0.0766611099243164,1.052405834197998,0.2625728249549866,-0.2901090383529663,-0.4849522113800049,0.3042541146278381,0.0,0.0,-0.9271650910377502,-0.9774566888809204
0.079385757446289,1.0455249547958374,0.2566294372081756,-0.3003646433353424,-0.467362105846405,0.3518021404743194,0.0,0.0,-0.9743868112564088,-0.8768728375434875
0.0821011513471603,1.038368821144104,0.2542732059955597,-0.3123560845851898,-0.4483397006988525,0.3804479837417602,0.0,0.0,-0.9876598715782166,-0.9803932905197144
0.084790900349617,1.0309529304504397,0.2497380971908569,-0.323580265045166,-0.427371084690094,0.419372022151947,0.0,0.0,-0.944584846496582,-0.9040085673332214
0.0874549895524978,1.0232661962509155,0.2453066855669021,-0.335395336151123,-0.4045764207839966,0.4558935761451721,0.0,0.0,-0.9524638652801514,-0.964618444442749
0.0900753960013389,1.0153268575668335,0.2384784519672393,-0.3463410437107086,-0.3793912231922149,0.5037040114402771,0.0,0.0,-0.9900948405265808,-0.8530111312866211
0.0926781669259071,1.007126808166504,0.234866052865982,,-0.3525140583515167,0.5375434160232544,0.0,0.0,-0.9285020232200624,-0.920360028743744
0.0952590927481651,0.9986446499824524,0.2308905124664306,-0.3705805540084839,-0.3240329921245575,0.5696219205856323,0.0,0.0,-0.9616565704345704,-0.968157947063446
0.0978125557303428,0.989904522895813,0.2260554730892181,-0.3821833431720733,-0.2936637699604034,0.6073852181434631,0.0,0.0,-0.92649507522583,-0.8562254309654236
0.1003293991088867,0.9808933138847352,0.2201511412858963,-0.3944791257381439,-0.2612967789173126,0.6473399996757507,0.0,0.0,-0.9119893312454224,-0.612025260925293
0.1028308868408203,0.9716059565544128,0.2169477045536041,-0.4072082638740539,-0.2275099605321884,0.6757370233535767,0.0,0.0,-0.969717264175415,-0.8550557494163513
0.1053073853254318,0.9620434641838074,0.2125783413648605,-0.4199807345867157,-0.1920955777168274,0.7082875967025757,0.0,0.0,-0.9492618441581726,-0.0784875750541687
0.1078202277421951,0.9521830677986144,0.2159676551818847,-0.4340445697307586,-0.1566894650459289,0.7081228494644165,0.0,0.0,-0.9814304113388062,0.19599449634552
0.1103681549429893,0.9420253038406372,0.2192853987216949,-0.4481090903282165,-0.1212907060980796,0.7079758644104004,0.0,0.0,-0.977757453918457,0.3083863258361816
0.1129498481750488,0.9315696954727172,0.222524955868721,-0.462174117565155,-0.0858985558152198,0.7078431844711304,0.0,0.0,-0.8940377235412598,-0.3234249949455261
0.115564152598381,0.9208166599273682,0.2256792038679123,-0.4762396216392517,-0.0505125150084495,0.7077212333679199,0.0,0.0,-0.9784605503082277,0.7944252490997314
0.1182689666748046,0.9097530841827391,0.2361795157194137,-0.4909087121486664,-0.0166315976530313,0.6776187419891357,0.0,0.0,-0.8077646493911743,0.3603662252426147
0.1210036277770996,0.8983908295631409,0.2391404807567596,-0.5049659013748169,0.0172441191971302,0.677514910697937,0.0,0.0,-0.8660934567451477,0.2464104890823364
0.1237664222717285,0.8867293000221252,0.2419916093349456,-0.5190231204032898,0.0511146336793899,0.6774109601974487,0.0,0.0,-0.6381598114967346,0.427942156791687
0.1265560090541839,0.8747692108154297,0.2447242438793182,-0.5330802798271179,0.0849797874689102,0.6773034334182739,0.0,0.0,0.0193032026290893,0.7879015207290649
0.1293230056762695,0.8628026843070984,0.2441812753677368,-0.5340057611465454,0.1172399967908859,0.6452044248580933,0.0,0.0,-0.5317964553833008,0.8489170074462891
0.1321839392185211,0.8505552411079407,0.2555235028266907,-0.547017514705658,0.1476832032203674,0.608864426612854,0.0,0.0,0.7051241397857666,-0.5652984976768494
0.1348241865634918,0.8388528227806091,0.2327576577663421,-0.5235117673873901,0.178957387804985,0.6254838705062866,0.0,0.0,0.7133598327636719,0.8783420324325562
0.1373649537563324,0.8278910517692566,0.2248379439115524,-0.4909798502922058,0.208357885479927,0.5880106091499329,0.0,0.0,-0.7169712781906128,0.9442638158798218
0.1399946212768554,0.8166531324386597,0.2357606440782547,-0.5035345554351807,0.2358852177858352,0.5505470037460327,0.0,0.0,0.344504714012146,0.8619633913040161
0.1426747292280197,0.8058531880378723,0.2426178902387619,-0.4842788279056549,0.2617405652999878,0.5171071290969849,0.0,0.0,0.2420536279678344,0.896399736404419
0.145392507314682,0.795146644115448,0.2483208626508712,-0.4802119135856628,0.2857900559902191,0.480990469455719,0.0,0.0,0.6706223487854004,0.807004451751709
0.1481699049472808,0.784784197807312,0.2558425962924957,-0.465009480714798,0.3083759248256683,0.4517176151275635,0.0,0.0,0.8418043851852417,0.879805326461792
0.1510030776262283,0.7751371264457703,0.2630168795585632,-0.4332180321216583,0.3294762670993805,0.4220076501369476,0.0,0.0,0.8670270442962646,0.9517512321472168
0.1539387702941894,0.7659277319908142,0.2750010788440704,-0.413655549287796,0.3489016592502594,0.3885076642036438,0.0,0.0,0.874957799911499,0.6157708168029785
0.1566274613142013,0.7576359510421753,0.2516774833202362,-0.3728013336658478,0.3670231103897095,0.3624291718006134,0.0,0.0,0.851548433303833,0.87750244140625
0.1591140776872635,0.7502877116203308,0.2332417964935302,-0.3306266665458679,0.3833785653114319,0.3271089196205139,0.0,0.0,0.2679857015609741,0.9870197772979736
0.1615860015153885,0.743449866771698,0.2337867766618728,-0.3075769543647766,0.3976908326148987,0.2862462401390075,0.0,0.0,0.9363274574279784,0.9050333499908448
0.1640980690717697,0.7369371652603149,0.239414781332016,-0.2928070425987243,0.4103503823280334,0.2531910240650177,0.0,0.0,0.875541090965271,0.2267396450042724
0.1663229018449783,0.7308716177940369,0.2110432684421539,-0.2729505896568298,0.4227038621902466,0.2470688074827194,0.0,0.0,0.916172981262207,0.2646820545196533
0.1682226210832595,0.7259229421615601,0.178206592798233,-0.2235227972269058,0.4354772865772247,0.2554681599140167,0.0,0.0,0.9449894428253174,0.4613585472106933
0.1698082983493805,0.7215558886528015,0.1470284014940261,-0.1977309882640838,0.4480859041213989,0.2521722912788391,0.0,0.0,0.8389806747436523,0.9544973373413086
0.170927807688713,0.7180292010307312,0.1025430932641029,-0.1597863286733627,0.4584189057350158,0.2066596448421478,0.0,0.0,0.8757843971252441,0.9300131797790528
0.1718480139970779,0.7153803706169128,0.0843036919832229,-0.120296761393547,0.4669291377067566,0.1702052801847458,0.0,0.0,0.9319355487823486,0.989621639251709
0.1723655760288238,0.7136045098304749,0.0460872538387775,-0.0808475092053413,0.4731993079185486,0.1254031956195831,0.0,0.0,0.8149615526199341,0.9941806793212892
0.1724701821804046,0.7126027345657349,0.0068718246184289,-0.0457529947161674,0.4771837592124939,0.0796888843178749,0.0,0.0,0.5681009292602539,0.9973907470703124
0.1723876893520355,0.7119486927986145,-0.0098757669329643,-0.0296314433217048,0.4789954721927643,0.0362335368990898,0.0,0.0,0.3552426099777221,0.9852163791656494
0.1720294058322906,0.7116145491600037,-0.0355033241212368,-0.0147386873140931,0.4786286354064941,-0.0073365555144846,0.0,0.0,-0.0371873378753662,0.993873119354248
0.1717032492160797,0.7110041379928589,-0.0308097954839468,-0.0265088602900505,0.4766277968883514,-0.040017046034336,0.0,0.0,0.2301816940307617,0.998939037322998
0.1712594926357269,0.7109151482582092,-0.0406018383800983,-0.0026644563768059,0.4724397659301758,-0.083760492503643,0.0,0.0,0.2169208526611328,0.9990921020507812
0.1707880049943924,0.7109566330909729,-0.0414049513638019,0.0037923296913504,0.4660815000534057,-0.1271654665470123,0.0,0.0,-0.5104008913040161,0.9973931312561036
0.170375257730484,0.7107564806938171,-0.033073391765356,-0.0061730425804853,0.4570304751396179,-0.1810203939676284,0.0,0.0,-0.9050630331039428,0.9767606258392334
0.1699989289045334,0.7102987170219421,-0.0274968706071376,-0.0170633178204298,0.4459081888198852,-0.2224456965923309,0.0,0.0,-0.975701868534088,0.9329220056533812
0.1696722954511642,0.7095963358879089,-0.0201541986316442,-0.0272961892187595,0.4322620928287506,-0.2729215919971466,0.0,0.0,-0.974783182144165,0.8281247615814209
0.1693819016218185,0.7086277604103088,-0.0145520959049463,-0.0386737696826458,0.4165674746036529,-0.3138924241065979,0.0,0.0,-0.9977718591690063,0.2879750728607178
0.1690603196620941,0.707347571849823,-0.0174821801483631,-0.0526497140526771,0.4007599651813507,-0.3161502778530121,0.0,0.0,-0.9911795258522034,0.5497841835021973
0.1687483787536621,0.7057881951332092,-0.0151039790362119,-0.0648631304502487,0.3835749924182892,-0.3437000811100006,0.0,0.0,-0.9894675612449646,0.4961693286895752
0.1684028655290603,0.7039178013801575,-0.0182355772703886,-0.0788430199027061,0.3662644922733307,-0.3462099432945251,0.0,0.0,-0.9767241477966307,0.5727581977844238
0.168055921792984,0.7017565965652466,-0.0172451492398977,-0.0916996002197265,0.3478823900222778,-0.3676418364048004,0.0,0.0,-0.999061644077301,0.0481059551239013
0.1676733940839767,0.6992849707603455,-0.0205487944185733,-0.1056831553578376,0.3293620645999908,-0.370406836271286,0.0,0.0,-0.9981589913368224,0.4494029283523559
0.1672547310590744,0.6965028643608093,-0.0239290595054626,-0.1196673214435577,0.3106970489025116,-0.3733003437519073,0.0,0.0,-0.9977063536643982,0.3437730073928833
0.1667990684509277,0.6934105753898621,-0.0273797065019607,-0.1336521655321121,0.2918809354305267,-0.3763222098350525,0.0,0.0,-0.9993091225624084,0.1157289743423461
0.1663055419921875,0.6900081038475037,-0.0308949537575244,-0.1476376950740814,0.2729073464870453,-0.3794720470905304,0.0,0.0,-0.9979305863380432,0.0814021825790405
0.1657737791538238,0.6862956285476685,-0.0344694107770919,-0.1616239547729492,0.2537699341773987,-0.3827491104602813,0.0,0.0,-0.9985121488571168,-0.1342048645019531
0.1652030944824218,0.6822731494903564,-0.0380981191992759,-0.1756110042333603,0.2344623208045959,-0.3861523568630218,0.0,0.0,-0.9935728907585144,0.2184182405471801
0.1645929366350174,0.6779410243034363,-0.0417765006422996,-0.189598873257637,0.2149783074855804,-0.3896806240081787,0.0,0.0,-0.996776044368744,-0.8816648721694946
