x_pos,y_pos,x_vel,y_vel,angle,ang_vel,leg_1,leg_2,main_booster,lat_booster
-0.0015188216930255,1.402922511100769,-0.1536600291728973,-0.3554455041885376,0.0015888402704149,0.0313285700976848,0.0,0.0,-0.1496616601943969,0.919559359550476
-0.0029549598693847,1.3942420482635498,-0.1430116891860962,-0.3858015239238739,0.0010017200838774,-0.0117431664839386,0.0,0.0,-0.078783631324768,0.28909432888031
-0.0043868063949048,1.3848589658737185,-0.1424478888511657,-0.4170200526714325,0.0002732808061409,-0.0145701589062809,0.0,0.0,0.0596213340759277,0.9113928079605104
-0.0058337212540209,1.3752517700195312,-0.1420032531023025,-0.4269874393939972,-0.0023912678007036,-0.05329604819417,0.0,0.0,0.4763380289077759,0.6668050289154053
-0.0070967674255371,1.3658185005187988,-0.122452512383461,-0.4192765057086944,-0.0062059983611106,-0.0763015821576118,0.0,0.0,0.0154157876968383,-0.1799607276916504
-0.0082701686769723,1.3561830520629885,-0.1138150244951248,-0.4282581210136413,-0.0096992244943976,-0.069870576262474,0.0,0.0,0.59132981300354,-0.0213629007339477
-0.0094572063535451,1.3466805219650269,-0.115003190934658,-0.4223612248897552,-0.0133580071851611,-0.0731824338436126,0.0,0.0,-0.1666308641433715,-0.1058171391487121
-0.0106417657807469,1.33647620677948,-0.1147207468748092,-0.4535622596740722,-0.0170574355870485,-0.0739950463175773,0.0,0.0,0.5424190759658813,0.4356503486633301
-0.0118223186582326,1.3267422914505005,-0.1142375841736793,-0.432666927576065,-0.0208310950547456,-0.0754801928997039,0.0,0.0,0.2160375118255615,0.6731958389282227
-0.0129376407712697,1.3171107769012451,-0.106368638575077,-0.428141713142395,-0.0259394496679306,-0.1021763905882835,0.0,0.0,0.1682806015014648,-0.1375939846038818
-0.0139799118041992,1.307405948638916,-0.0993701219558715,-0.431426078081131,-0.0307380966842174,-0.0959815606474876,0.0,0.0,-0.5486372113227844,0.4107903242111206
-0.0150212291628122,1.296999216079712,-0.0993270426988601,-0.4626247584819793,-0.0354973524808883,-0.0951937288045883,0.0,0.0,-0.7281194925308228,0.3322560787200928
-0.0160621646791696,1.285891056060791,-0.0993436053395271,-0.4938200116157532,-0.0401970632374286,-0.0940027609467506,0.0,0.0,0.5535248517990112,-0.8975488543510437
-0.0170876495540142,1.2745730876922607,-0.0997774079442024,-0.5030981302261353,-0.0429363511502742,-0.0547905638813972,0.0,0.0,-0.91242253780365,-0.8033246994018555
-0.0181617736816406,1.2625645399093628,-0.1059795171022415,-0.5337540507316589,-0.0443571470677852,-0.0284185856580734,0.0,0.0,-0.8131648898124695,-0.5740712881088257
-0.0192740447819232,1.2498499155044556,-0.1108462586998939,-0.5651093125343323,-0.0447318479418754,-0.0074951713904738,0.0,0.0,0.062792420387268,0.0645962953567504
-0.0202744491398334,1.2372517585754397,-0.1002089977264404,-0.5599063634872437,-0.0445581227540969,0.003474757540971,0.0,0.0,-0.3486449122428894,-0.5957766175270081
-0.0213125236332416,1.223948955535889,-0.1050439625978469,-0.5911988615989685,-0.0433325134217739,0.0245143808424472,0.0,0.0,-0.0171936750411987,-0.0123845934867858
-0.0223526004701852,1.209944248199463,-0.1054170727729797,-0.6223905086517334,-0.0419416353106498,0.0278200861066579,0.0,0.0,-0.0532570481300354,0.6484001874923706
-0.0233508106321096,1.1952344179153442,-0.1002811416983604,-0.6537549495697021,-0.0414853021502494,0.009127595461905,0.0,0.0,0.3722279071807861,-0.4324961900711059
-0.0242198947817087,1.1807520389556885,-0.0880727618932724,-0.6436309814453125,-0.0403377935290336,0.0229524690657854,0.0,0.0,-0.5400364995002747,-0.3645676374435425
-0.0250921249389648,1.165567398071289,-0.0885955542325973,-0.6748329997062683,-0.0389802791178226,0.0271526481956243,0.0,0.0,0.5049418210983276,-0.0181419253349304
-0.0258301738649606,1.1504175662994385,-0.0759696215391159,-0.6732780337333679,-0.0368484184145927,0.0426410436630249,0.0,0.0,-0.1903833746910095,0.021783709526062
-0.0265721324831247,1.1345655918121338,-0.0765852853655815,-0.7044785618782043,-0.0344798453152179,0.0473758801817894,0.0,0.0,0.2354308366775512,-0.0336838960647583
-0.0274075511842966,1.1187385320663452,-0.0857002586126327,-0.7033730745315552,-0.0323539152741432,0.0425227656960487,0.0,0.0,0.4100450277328491,0.3276945352554321
-0.0283527374267578,1.1030950546264648,-0.09634879976511,-0.6952283978462219,-0.0305417422205209,0.0362433716654777,0.0,0.0,0.2851505279541015,0.2868819236755371
-0.0292821880429983,1.0875966548919678,-0.0950677320361137,-0.6887722611427307,-0.0284432936459779,0.0419688858091831,0.0,0.0,0.2379885911941528,0.1533186435699463
-0.0302966125309467,1.0723278522491455,-0.1034019961953163,-0.6785775423049927,-0.0265149362385272,0.0385673865675926,0.0,0.0,-0.1659479141235351,-0.2957816123962402
-0.031316090375185,1.0563571453094482,-0.1042013764381408,-0.7097705602645874,-0.0242938790470361,0.0444210246205329,0.0,0.0,-0.5286496877670288,-0.152058720588684
-0.0323410034179687,1.039684534072876,-0.105033054947853,-0.7409638166427612,-0.0217709764838218,0.0504581332206726,0.0,0.0,0.2282010316848755,0.3280177116394043
-0.0333436019718647,1.0232535600662231,-0.1031976118683815,-0.7302270531654358,-0.0188732836395502,0.0579537637531757,0.0,0.0,-0.3171483874320984,-0.4280425310134887
-0.0343518257141113,1.0061208009719849,-0.1040884256362915,-0.761420488357544,-0.0156570915132761,0.0643240287899971,0.0,0.0,-0.3315603733062744,0.3988468647003174
-0.0353660583496093,0.988286316394806,-0.1050062179565429,-0.7926143407821655,-0.012114836834371,0.0708450525999069,0.0,0.0,0.542402982711792,0.6749985218048096
-0.0363940224051475,0.9702489972114564,-0.1052246540784835,-0.8016372919082642,-0.0097153028473258,0.0479905866086483,0.0,0.0,0.7587145566940308,0.3182376623153686
-0.0374044403433799,0.9525110721588136,-0.1038904786109924,-0.7883312702178955,-0.0068960073404014,0.056385688483715,0.0,0.0,0.9801883697509766,0.3796260356903076
-0.0383931174874305,0.9354310631752014,-0.1021743044257164,-0.7591010928153992,-0.003630154998973,0.0653170719742775,0.0,0.0,0.6211932897567749,0.7800331115722656
-0.0393533706665039,0.918315291404724,-0.0980681329965591,-0.7606996893882751,-0.0016155872726812,0.0402914658188819,0.0,0.0,-0.0227317214012146,0.3619546890258789
-0.040320299565792,0.9004976749420166,-0.0990975797176361,-0.7918933629989624,0.0007557488279417,0.0474266931414604,0.0,0.0,0.1964998245239257,0.508408784866333
-0.0412854179739952,0.8828992247581482,-0.0981873124837875,-0.7821537256240845,0.0024119114968925,0.0331230238080024,0.0,0.0,0.8367903232574463,0.1184407472610473
-0.0422276481986045,0.8656129240989685,-0.0964178889989852,-0.7682886123657227,0.0045795934274792,0.0433534793555736,0.0,0.0,0.6069941520690918,0.7807106971740723
-0.0432333946228027,0.8487669825553894,-0.1013655513525009,-0.748711347579956,0.0053598247468471,0.0156045760959386,0.0,0.0,0.1344423294067382,-0.1422933936119079
-0.044163417071104,0.8317590355873108,-0.0945740714669227,-0.7559123635292053,0.0069063557311892,0.0309308134019374,0.0,0.0,-0.111520767211914,0.677129864692688
-0.0450385101139545,0.8140425682067871,-0.0878704637289047,-0.7874029874801636,0.0072671771049499,0.0072162067517638,0.0,0.0,0.6211037635803223,0.2963719367980957
-0.0458271987736225,0.7964033484458923,-0.0800806656479835,-0.7839727401733398,0.008459779433906,0.0238519571721553,0.0,0.0,-0.0943224430084228,0.2724578380584717
-0.0466234199702739,0.7780622243881226,-0.081212468445301,-0.8151665329933167,0.0100365150719881,0.0315345227718353,0.0,0.0,0.7824349403381348,0.7645491361618042
-0.0473159775137901,0.7595540881156921,-0.0698157548904419,-0.8225880861282349,0.0105932764708995,0.0111353527754545,0.0,0.0,0.6992172002792358,0.7802910804748535
-0.0478900894522666,0.741031289100647,-0.0569375567138195,-0.8232291340827942,0.0101208640262484,-0.009448074735701,0.0,0.0,0.6194806098937988,0.69798743724823
-0.0485454574227333,0.7230391502380371,-0.0637909322977066,-0.7996386885643005,0.0084011126309633,-0.0343949869275093,0.0,0.0,0.6362903118133545,-0.4033316373825073
-0.049346350133419,0.7055145502090454,-0.0781364366412162,-0.7788655757904053,0.0064671440050005,-0.0386794693768024,0.0,0.0,-0.0969266295433044,-0.0338078737258911
-0.050154972821474,0.6872881054878235,-0.0793118402361869,-0.8100594282150269,0.0049285953864455,-0.0307707488536834,0.0,0.0,0.7485954761505127,0.2938607931137085
-0.0508226379752159,0.6692675352096558,-0.0663190484046936,-0.8009134531021118,0.0044894088059663,-0.0087838182225823,0.0,0.0,0.6706568002700806,0.6210547685623169
-0.0515152923762798,0.651666522026062,-0.0678117796778678,-0.7822594046592712,0.0030622777994722,-0.0285428315401077,0.0,0.0,0.6490609645843506,0.3706750869750976
-0.0521079078316688,0.6340298652648926,-0.0587379336357116,-0.7838490009307861,0.0025395217817276,-0.0104548940435051,0.0,0.0,0.6444637775421143,-0.2199602127075195
-0.0527073852717876,0.61688232421875,-0.0598300583660602,-0.7621099352836609,0.0024321738164871,-0.0021471490617841,0.0,0.0,0.7503116130828857,0.5177264213562012
-0.0531068816781044,0.5998066067695618,-0.0396945625543594,-0.7589190602302551,0.0021722896490246,-0.0051977587863802,0.0,0.0,0.377481460571289,0.2814980745315552
-0.0535948760807514,0.5826181769371033,-0.048574823886156,-0.763932466506958,0.0019460601033642,-0.0045245224609971,0.0,0.0,0.9055843353271484,0.351080060005188
-0.0539841651916503,0.5661069750785828,-0.0396198146045208,-0.7338289618492126,0.0026241461746394,0.01356210000813,0.0,0.0,0.658295750617981,0.8291804790496826
-0.0541641227900981,0.5499136447906494,-0.0176791120320558,-0.7197015285491943,0.0023192397784441,-0.0060981661081314,0.0,0.0,0.4565745592117309,0.4342466592788696
-0.0542877204716205,0.5341075658798218,-0.0127739803865551,-0.7024936079978943,0.0027222512289881,0.008060279302299,0.0,0.0,0.5077117681503296,0.7452056407928467
-0.0544392578303813,0.5186817049980164,-0.0143369808793067,-0.6855918169021606,0.0019123699748888,-0.0161974318325519,0.0,0.0,-0.5725153684616089,0.279213547706604
-0.0545988082885742,0.5025540590286255,-0.0155451446771621,-0.7167853116989136,0.0015055531403049,-0.0081361774355173,0.0,0.0,0.6568775177001953,0.8545277118682861
-0.0548115745186805,0.4867840409278869,-0.019369313493371,-0.7008879780769348,-0.0003800891572609,-0.03771298751235,0.0,0.0,0.7013916969299316,0.84496009349823
-0.054824449121952,0.471109002828598,0.0016807510983198,-0.6966759562492371,-0.0032999406103044,-0.0583972223103046,0.0,0.0,0.8284748792648315,0.6466423273086548
-0.0547636039555072,0.4557502269744873,0.0098607344552874,-0.6826229095458984,-0.0070337234064936,-0.0746755674481391,0.0,0.0,0.9199199676513672,0.1496034860610962
-0.0546984672546386,0.440388411283493,0.0098540559411048,-0.6827671527862549,-0.0103245303034782,-0.0658163875341415,0.0,0.0,0.9050920009613036,-0.2610700130462646
-0.0547768585383892,0.4253492355346679,-0.0042444532737135,-0.6684357523918152,-0.0138756753876805,-0.0710228756070137,0.0,0.0,0.913866639137268,0.0575289726257324
-0.0548245422542095,0.4110946655273437,-0.0016913441941142,-0.6335659027099609,-0.0169128775596618,-0.0607437901198864,0.0,0.0,0.4038525819778442,0.4440574645996094
-0.0548061355948448,0.3965092599391937,0.0041850539855659,-0.6482703685760498,-0.0192297473549842,-0.0463374443352222,0.0,0.0,0.9461102485656738,0.1158069372177124
-0.0547443404793739,0.3827290534973144,0.0079689566045999,-0.6124759912490845,-0.0210030935704708,-0.0354665033519268,0.0,0.0,0.6058065891265869,-0.4464696645736694
-0.0547721870243549,0.3689398765563965,-0.0009618956828489,-0.6128814816474915,-0.0228048339486122,-0.0360350757837295,0.0,0.0,0.8010330200195312,0.7414460182189941
-0.0548413284122943,0.3555605113506317,-0.00374865392223,-0.594689667224884,-0.0259262025356292,-0.062427245080471,0.0,0.0,-0.3479161262512207,0.1794197559356689
-0.0549181923270225,0.3414792716503143,-0.0049189194105565,-0.6258830428123474,-0.028656480833888,-0.054605484008789,0.0,0.0,0.978877067565918,0.4345858097076416
-0.0551279075443744,0.3282194137573242,-0.0178814139217138,-0.5893859267234802,-0.0317115373909473,-0.0611010380089283,0.0,0.0,0.5837694406509399,0.2903095483779907
-0.0552573204040527,0.3150843977928161,-0.0105700595304369,-0.5838344097137451,-0.034053985029459,-0.046848963946104,0.0,0.0,0.9748810529708862,0.2793283462524414
-0.0554185882210731,0.3019502162933349,-0.0139641109853982,-0.583791971206665,-0.0361985303461551,-0.042890939861536,0.0,0.0,0.941352128982544,0.8783758878707886
-0.0554167740046978,0.2886688709259033,0.0035696637351065,-0.5903671979904175,-0.0395375080406665,-0.0667797029018402,0.0,0.0,0.943763017654419,-0.7200685143470764
-0.0555037483572959,0.2752827107906341,-0.0070594982244074,-0.5949855446815491,-0.0411629378795623,-0.0325082391500473,0.0,0.0,0.98997962474823,0.0590890645980834
-0.0555689819157123,0.2626270353794098,-0.0052050007507205,-0.5625126957893372,-0.0424589775502681,-0.0259207729250192,0.0,0.0,0.937646508216858,-0.131541907787323
-0.0555070862174034,0.2506970763206482,0.0066885678097605,-0.5302324295043945,-0.0429479479789733,-0.0097793098539114,0.0,0.0,0.9568581581115724,-0.6313967704772949
-0.0556026473641395,0.2395345717668533,-0.0103203766047954,-0.4960879385471344,-0.042191132903099,0.0151364523917436,0.0,0.0,0.3473891019821167,0.34303879737854
-0.0557992942631244,0.228081613779068,-0.020316008478403,-0.5090047121047974,-0.0415565632283687,0.0126917231827974,0.0,0.0,0.5002431869506836,0.593748927116394
-0.0558864586055278,0.2170022279024124,-0.008617665618658,-0.49241903424263,-0.0416499860584735,-0.0018688396085053,0.0,0.0,0.7541617155075073,-0.1820944547653198
-0.05606260150671,0.2061432898044586,-0.017378743737936,-0.4826253056526184,-0.0418829768896102,-0.0046595050953328,0.0,0.0,0.4853788614273071,0.515687108039856
-0.0562321655452251,0.1954985707998275,-0.0159102957695722,-0.4731287956237793,-0.0429222658276557,-0.0207857247442007,0.0,0.0,0.7775959968566895,0.2244009971618652
-0.0563891418278217,0.1852801442146301,-0.0149389309808611,-0.4541741609573364,-0.0436715260148048,-0.0149852158501744,0.0,0.0,0.2596718072891235,-0.234972596168518
-0.0564669594168663,0.175020083785057,-0.0076889032498002,-0.4560060203075409,-0.0437683425843715,-0.0019361553713679,0.0,0.0,0.2033976316452026,0.4046148061752319
-0.056523323059082,0.1644304394721985,-0.0059565501287579,-0.4706400632858276,-0.0434452220797538,0.0064623653888702,0.0,0.0,0.8804299831390381,0.5676188468933105
-0.056408978998661,0.1538111120462417,0.0115890344604849,-0.4719732105731964,-0.0436026453971862,-0.0031484824139624,0.0,0.0,0.9214131832122804,-0.5115146636962891
-0.056131649762392,0.1434757262468338,0.0259745232760906,-0.4593013525009155,-0.0418698824942112,0.0346552655100822,0.0,0.0,0.8212002515792847,0.188347578048706
-0.0556889548897743,0.1330802738666534,0.04147694632411,-0.4619446992874145,-0.0391021408140659,0.0553550645709037,0.0,0.0,0.9057403802871704,-0.5420415997505188
-0.0552680976688861,0.1232887133955955,0.0378919169306755,-0.435076504945755,-0.0349572859704494,0.0828969329595565,0.0,0.0,0.8551697731018066,-0.7113582491874695
-0.05484189838171,0.1140787899494171,0.0365819185972213,-0.4092017412185669,-0.0289964247494936,0.1192173212766647,0.0,0.0,0.9234048128128052,-0.051790714263916
-0.0542540550231933,0.1053254902362823,0.0517533905804157,-0.3889131546020508,-0.0220586899667978,0.1387547850608825,0.0,0.0,0.8403854370117188,0.1430699825286865
-0.0535515770316123,0.0964126214385032,0.0623859390616416,-0.3960312902927398,-0.0143015133216977,0.1551435589790344,0.0,0.0,0.9691028594970704,0.7040731906890869
-0.0528578758239746,0.0877071022987365,0.0628103166818618,-0.3868643939495086,-0.0078190742060542,0.1296488791704177,0.0,0.0,0.9228115081787108,0.359359860420227
-0.0520630851387977,0.079805314540863,0.0721529573202133,-0.3511697053909302,-0.0005947549943812,0.1444862931966781,0.0,0.0,0.8496772050857544,0.5765843391418457
-0.0512555129826068,0.0721578672528266,0.0743959844112396,-0.3398985564708709,0.0056857448071241,0.1256101429462433,0.0,0.0,0.9005222320556641,0.9086285829544068
-0.0505444519221782,0.0651891306042671,0.0665997862815857,-0.3097448348999023,0.0101421875879168,0.0891286805272102,0.0,0.0,0.4131597280502319,0.4772219657897949
-0.0497698783874511,0.058415375649929,0.0723247975111007,-0.3011004030704498,0.0152073698118329,0.101303830742836,0.0,0.0,0.4761019945144653,0.1757550239562988
-0.0490581505000591,0.0519443862140178,0.0660049468278884,-0.2876589000225067,0.0203079991042614,0.102012500166893,0.0,0.0,0.6180698871612549,0.4860562086105346
-0.0484470352530479,0.0458692871034145,0.0560764595866203,-0.2700791656970978,0.0252826586365699,0.0994930788874626,0.0,0.0,0.4957115650177002,0.7081537246704102
-0.047820471227169,0.0397675856947898,0.058839313685894,-0.2712570428848266,0.0290438793599605,0.0752247273921966,0.0,0.0,0.7045767307281494,0.6850403547286987
-0.0472929961979389,0.0338919013738632,0.0503804981708526,-0.2611888945102691,0.0313822887837886,0.0467680916190147,0.0,0.0,0.7852609157562256,0.9215748310089112
-0.0468953140079975,0.0281558372080326,0.0393336825072765,-0.2549442946910858,0.0318180210888385,0.0087144542485475,0.0,0.0,0.8948301076889038,0.9776277542114258
-0.0463155731558799,0.0229695886373519,0.0590628385543823,-0.2304762750864029,0.0307442136108875,-0.0214761551469564,0.0,0.0,0.5108081102371216,0.591972827911377
-0.0456422790884971,0.0175872892141342,0.0692584216594696,-0.2391741573810577,0.0288403611630201,-0.0380769595503807,0.0,0.0,0.7773159742355347,-0.538862407207489
-0.044872760772705,0.0127433631569147,0.0771215632557869,-0.2152820080518722,0.0286700949072837,-0.0034051542170345,0.0,0.0,0.7671253681182861,-0.0475080609321594
-0.0441550239920616,0.008441099897027,0.0718668550252914,-0.1912074238061905,0.0285765193402767,-0.0018713928293436,0.0,0.0,0.7041431665420532,0.781645655632019
-0.0432423576712608,0.004777381196618,0.0924326032400131,-0.1628118157386779,0.0274208113551139,-0.0231141671538352,0.0,0.0,0.047766089439392,-0.5765663385391235
-0.0423345565795898,0.0009633517474867,0.0905426442623138,-0.1695141643285751,0.0276625622063875,0.0048350421711802,0.0,0.0,0.543026328086853,-0.4643493890762329
-0.0415575020015239,-0.0016926788957789,0.0966827720403671,-0.1178276091814041,0.0088389609009027,-0.3765801191329956,0.0,1.0,0.5839033126831055,0.0538994073867797
-0.0408598892390728,-0.0027172111440449,0.0881849378347396,-0.0456510633230209,-0.0097459387034177,-0.3721958696842193,1.0,1.0,0.7581204175949097,-0.9603014588356018
-0.0400654785335063,-0.0029303217306733,0.081100970506668,-0.0094872424378991,-0.0113874478265643,-0.0328472182154655,1.0,1.0,-0.6042753458023071,-0.9631714224815368
-0.0394557006657123,-0.0027219320181757,0.0593362376093864,0.0092702228575944,-0.0097844153642654,0.0320466831326484,1.0,1.0,-0.2080724835395813,-0.9344384670257568
-0.0390283577144146,-0.0021526599302887,0.0383370146155357,0.0253246128559112,-0.0054587749764323,0.0864959210157394,1.0,1.0,-0.5602992177009583,-0.447218656539917
-0.0386703498661518,-0.001391484751366,0.0299834217876195,0.0338383130729198,0.0002721208147704,0.1146075576543808,1.0,1.0,-0.313387393951416,0.0294153690338134
-0.0383378975093364,-0.0005800628568977,0.0269523747265338,0.036058459430933,0.0064660208299756,0.1238471120595932,1.0,1.0,-0.7640123963356018,0.3300725221633911
-0.0380630493164062,-0.0003824377199634,0.0259230341762304,0.0087766014039516,0.0080052223056554,0.0307776778936386,1.0,1.0,-0.528253436088562,-0.0687013864517211
-0.0378399863839149,-0.0007580185192637,0.0252701640129089,-0.0166791006922721,0.005077282898128,-0.0585638806223869,0.0,1.0,-0.5596999526023865,-0.2037152051925659
-0.0376919731497764,-0.0007635974907316,0.0147996414452791,-0.0002482478157617,0.0050743939355015,-6.022958405083045e-05,1.0,1.0,0.0152221918106079,-0.0627822875976562
-0.0375473983585834,-0.0007590914028696,0.0144539894536137,0.0002007025614148,0.005077049601823,4.792238178197295e-05,1.0,1.0,-0.3413178920745849,0.0980391502380371
