x_pos,y_pos,x_vel,y_vel,angle,ang_vel,leg_1,leg_2,main_booster,lat_booster
-0.0014895439380779,1.402992606163025,-0.1509943157434463,-0.3523297905921936,0.0018289353465661,0.03608263656497,0.0,0.0,-0.2849109768867492,0.8495389223098755
-0.0028711319901049,1.3944525718688965,-0.1382075399160385,-0.37955442070961,0.0018708043498918,0.0008379417704418,0.0,0.0,-0.3424908518791199,0.0681439638137817
-0.0042160986922681,1.3852802515029907,-0.1346195042133331,-0.4076571464538574,0.0019998734351247,0.0025816441047936,0.0,0.0,0.5846840143203735,0.8034864664077759
-0.0055875778198242,1.3761922121047974,-0.13552987575531,-0.4039131999015808,0.000395638460759,-0.0320875719189643,0.0,0.0,0.0144821405410766,0.5902446508407593
-0.0067846300080418,1.3670748472213743,-0.1171291097998619,-0.405217707157135,-0.0021503646858036,-0.0509248152375221,0.0,0.0,0.1661467552185058,0.6299769878387451
-0.0077829360961914,1.3578993082046509,-0.0962764397263526,-0.4078083038330078,-0.0056642098352313,-0.0702834501862526,0.0,0.0,-0.2606233358383178,-0.0856774449348449
-0.0087398532778024,1.3480920791625977,-0.0922521203756332,-0.4358905851840973,-0.009074430912733,-0.0682106018066406,0.0,0.0,-0.5771017670631409,-0.5237730741500854
-0.0096856113523244,1.3376553058624268,-0.0920193940401077,-0.4638771414756775,-0.0115970438346266,-0.0504568517208099,0.0,0.0,-0.4187647700309753,0.1292787790298462
-0.0105880741029977,1.3265867233276367,-0.0878010615706443,-0.4919570386409759,-0.0140089746564626,-0.0482433699071407,0.0,0.0,-0.4988948106765747,-0.1650595664978027
-0.0114461900666356,1.3148863315582275,-0.0834884494543075,-0.5200368762016296,-0.0163060817867517,-0.0459460318088531,0.0,0.0,-0.2015011310577392,-0.6870638728141785
-0.0123055456206202,1.3025559186935425,-0.0849050506949424,-0.5480319261550903,-0.0173178035765886,-0.0202365070581436,0.0,0.0,-0.0160062313079834,-0.6708298325538635
-0.0131652830168604,1.2895933389663696,-0.086273655295372,-0.5761058926582336,-0.0170345678925514,0.0056653534993529,0.0,0.0,-0.152108609676361,-0.743928849697113
-0.0140241626650094,1.2760040760040283,-0.0874681025743484,-0.6039497256278992,-0.0154699543491005,0.0312949270009994,0.0,0.0,0.2686860561370849,-0.4726691246032715
-0.0147780422121286,1.2621909379959106,-0.0773485600948333,-0.6139023900032043,-0.0135270878672599,0.0388610884547233,0.0,0.0,-0.6064088940620422,-0.6348934173583984
-0.0155216213315725,1.247753381729126,-0.0774303525686264,-0.6416498422622681,-0.0104875769466161,0.0607955865561962,0.0,0.0,-0.5594977736473083,-0.4245426058769226
-0.0162158962339162,1.2326840162277222,-0.0726325437426567,-0.6697284579277039,-0.0073137502186,0.0634819716215133,0.0,0.0,-0.4218459725379944,-0.3559855222702026
-0.016860008239746,1.2169830799102783,-0.0677622854709625,-0.6978073716163635,-0.0040020262822508,0.0662406831979751,0.0,0.0,0.0912874937057495,-0.5089085102081299
-0.0173890106379985,1.201016902923584,-0.0576109699904918,-0.7095946669578552,0.0006628986448049,0.0933067053556442,0.0,0.0,-0.3086265921592712,0.2755434513092041
-0.0178665164858102,1.1844192743301392,-0.052609633654356,-0.7376789450645447,0.0054705473594367,0.0961614400148391,0.0,0.0,-0.4126056432723999,0.6214103698730469
-0.0182493217289447,1.1671901941299438,-0.0422097407281398,-0.7657535672187805,0.0093558328226208,0.0777126401662826,0.0,0.0,0.0462417602539062,-0.1634839177131652
-0.0185030940920114,1.1500451564788818,-0.0298280771821737,-0.762045681476593,0.0137675032019615,0.08824123442173,0.0,0.0,-0.4422781467437744,0.65559983253479
-0.0186505317687988,1.1322654485702517,-0.018013933673501,-0.7902368903160095,0.0170023646205663,0.0647030249238014,0.0,0.0,0.1572943925857544,0.3768618106842041
-0.0186595916748046,1.1144286394119265,-0.0047561479732394,-0.7927945256233215,0.0208149496465921,0.0762583464384079,0.0,0.0,0.3021577596664428,0.4387768507003784
-0.018564224243164,1.0963308811187744,0.0052690333686769,-0.8044091463088989,0.0250389967113733,0.0844881311058998,0.0,0.0,-0.0547544956207275,0.7428582906723022
-0.0183691028505563,1.077605128288269,0.016235876828432,-0.8323066234588623,0.0282925721257925,0.0650769546627998,0.0,0.0,0.2380110025405883,0.5584442615509033
-0.0182085037231445,1.0590174198150637,0.0139607917517423,-0.8261660933494568,0.0303602088242769,0.0413528010249137,0.0,0.0,-0.1236665844917297,0.611466646194458
-0.0179432872682809,1.0398038625717163,0.0254973359405994,-0.8539515137672424,0.0313673168420791,0.0201423801481723,0.0,0.0,0.6771111488342285,0.0497739315032959
-0.0177805908024311,1.0212085247039795,0.0157111678272485,-0.8264703750610352,0.0319269634783268,0.0111928125843405,0.0,0.0,0.3270188570022583,0.5718021392822266
-0.0176502224057912,1.0029157400131226,0.0136904325336217,-0.8130002617835999,0.0312786735594272,-0.0129657220095396,0.0,0.0,-0.1537197828292846,-0.2633705735206604
-0.0174627304077148,0.9839912056922911,0.0192380584776401,-0.841078519821167,0.0308009982109069,-0.0095534464344382,0.0,0.0,-0.371013879776001,-0.1226629614830017
-0.0172176361083984,0.9644349813461304,0.0248172171413898,-0.8691567778587341,0.0304959807544946,-0.0061005502939224,0.0,0.0,0.6673108339309692,0.1796356439590454
-0.0170065872371196,0.9449066519737244,0.0215983781963586,-0.8679168820381165,0.0300023294985294,-0.0098730828613042,0.0,0.0,0.8875539302825928,0.1174958944320678
-0.0168592445552349,0.9261154532432556,0.0155009403824806,-0.8351458311080933,0.0292486548423767,-0.015073237940669,0.0,0.0,0.3430607318878174,0.4657574892044067
-0.0167139060795307,0.9071301221847534,0.0153652001172304,-0.8437821865081787,0.0284334141761064,-0.0163051020354032,0.0,0.0,0.5382554531097412,0.111986756324768
-0.016511345282197,0.8883892893791199,0.0208287313580513,-0.8329161405563354,0.0278679355978965,-0.0113096348941326,0.0,0.0,0.4391396045684814,0.7068750858306885
-0.0161950103938579,0.8700130581855774,0.0334203280508518,-0.8166913390159607,0.0261080060154199,-0.035198800265789,0.0,0.0,0.3353434801101684,0.0147821903228759
-0.0158504489809274,0.8515560030937195,0.0361533686518669,-0.8202799558639526,0.0244326461106538,-0.0335073098540306,0.0,0.0,0.2790917158126831,0.4079011678695678
-0.0154316900297999,0.8333523273468018,0.043250635266304,-0.8090360164642334,0.023077605292201,-0.0271006673574447,0.0,0.0,-0.2823799848556518,0.4154690504074096
-0.01495361328125,0.8145167827606201,0.048988502472639,-0.8371142745018005,0.0219078622758388,-0.0233947895467281,0.0,0.0,-0.0095674395561218,0.7049238681793213
-0.0143578527495265,0.7950525283813477,0.0620599500834941,-0.8650456070899963,0.0194567237049341,-0.0490229278802871,0.0,0.0,0.7212276458740234,0.2697293758392334
-0.0138296131044626,0.7761697769165039,0.0556356906890869,-0.8391929268836975,0.0166784506291151,-0.0555654391646385,0.0,0.0,-0.4652203321456909,-0.3109346032142639
-0.0132419588044285,0.7566556334495544,0.0613911226391792,-0.8672716021537781,0.0140886474400758,-0.0517963953316211,0.0,0.0,0.4521989822387695,-0.381200909614563
-0.012513255700469,0.7369250059127808,0.0748988017439842,-0.8768981099128723,0.0120831755921244,-0.0401092208921909,0.0,0.0,0.4524375200271606,-0.8341207504272461
-0.0116985319182276,0.717258632183075,0.0814973041415214,-0.874061644077301,0.0120568554848432,-0.0005264732753857,0.0,0.0,-0.0550090670585632,0.105120301246643
-0.0108243944123387,0.6969606280326843,0.0872470289468765,-0.9021397233009338,0.0122213205322623,0.0032893777824938,0.0,0.0,0.5208606719970703,-0.1643764972686767
-0.0098523143678903,0.6764928698539734,0.0966452211141586,-0.909679651260376,0.0127727873623371,0.0110295703634619,0.0,0.0,0.8354697227478027,-0.4275386333465576
-0.008759593591094,0.6561395525932312,0.1082044690847396,-0.9046067595481871,0.0138296810910105,0.0211378000676631,0.0,0.0,0.737940788269043,-0.8090158700942993
-0.0078141214326024,0.636474609375,0.0919068902730941,-0.8740240335464478,0.0164404958486557,0.0522164218127727,0.0,0.0,0.818892240524292,-0.0805903673171997
-0.006969928741455,0.6174758672714233,0.082267090678215,-0.8444167375564575,0.0185682438313961,0.0425549075007438,0.0,0.0,0.5181839466094971,-0.509308397769928
-0.0061366083100438,0.5985431671142578,0.0800008326768875,-0.8414939045906067,0.021847466006875,0.0655845031142234,0.0,0.0,0.8387447595596313,0.2990200519561767
-0.0050991056486964,0.5799374580383301,0.0994910150766372,-0.8269914388656616,0.0260582827031612,0.0842161625623703,0.0,0.0,0.4113620519638061,-0.3463071584701538
-0.0040688514709472,0.5616419911384583,0.0988052040338516,-0.81321120262146,0.0302347000688314,0.0835281759500503,0.0,0.0,0.6705188751220703,0.0582849979400634
-0.0028835297562181,0.5433940291404724,0.1135890930891037,-0.8111244440078735,0.0351155623793602,0.0976172611117363,0.0,0.0,0.7570996284484863,0.1582064628601074
-0.001666736556217,0.525786817073822,0.1165158003568649,-0.7826741337776184,0.0402051322162151,0.1017914414405822,0.0,0.0,0.5685358047485352,0.3178250789642334
-0.0002698898315429,0.5082506537437439,0.133672684431076,-0.7795583605766296,0.0461419336497783,0.1187361255288124,0.0,0.0,0.5467768907546997,-0.0295315980911254
0.0010741234291344,0.4907381236553192,0.1286258846521377,-0.7785234451293945,0.0518574640154838,0.1143106967210769,0.0,0.0,0.5979204177856445,0.1254787445068359
0.0025256157387048,0.4737562239170074,0.1387495696544647,-0.7549851536750793,0.0581857934594154,0.1265663802623748,0.0,0.0,0.8106918334960938,0.0811867713928222
0.0041412352584302,0.4572634398937225,0.1542596369981765,-0.7333137392997742,0.0654054209589958,0.1443925201892852,0.0,0.0,0.1222845315933227,0.1501742601394653
0.0058264732360839,0.440981924533844,0.1607963591814041,-0.7239801287651062,0.0730509236454963,0.1529101580381393,0.0,0.0,0.3625106811523437,0.2965085506439209
0.0074566840194165,0.42503222823143,0.1554048657417297,-0.7092679142951965,0.0805962681770324,0.150906816124916,0.0,0.0,0.2496249675750732,0.4510059356689453
0.0091573717072606,0.4088751673698425,0.1620756536722183,-0.7185413241386414,0.0885103568434715,0.1582817584276199,0.0,0.0,0.8666477203369141,0.8729616403579712
0.0107858655974268,0.3932684957981109,0.1566677093505859,-0.6940088272094727,0.0946376919746398,0.1225465536117553,0.0,0.0,0.6238677501678467,0.048949122428894
0.0125401495024561,0.3778071701526642,0.1684943735599517,-0.6876253485679626,0.1015143021941185,0.1375321596860885,0.0,0.0,0.5068625211715698,-0.1118906140327453
0.0143113136291503,0.3625525534152984,0.169901818037033,-0.67849200963974,0.1086768954992294,0.143251821398735,0.0,0.0,0.6315914392471313,0.6464111804962158
0.0161504745483398,0.3472622632980346,0.1777904778718948,-0.6800282001495361,0.1147562265396118,0.1215867847204208,0.0,0.0,0.815650463104248,0.11483895778656
0.017830466851592,0.3322853744029999,0.162335604429245,-0.6660842895507812,0.1203901767730712,0.1126792058348655,0.0,0.0,0.6954869031906128,0.5976977348327637
0.0195243842899799,0.3180049955844879,0.1646897196769714,-0.6350715160369873,0.1250697523355484,0.0935914665460586,0.0,0.0,0.7219092845916748,0.3480938673019409
0.0213136672973632,0.303563117980957,0.1736445724964141,-0.6423137784004211,0.1303257793188095,0.1051203832030296,0.0,0.0,0.8660192489624023,-0.4069192409515381
0.0230552665889263,0.289930135011673,0.1685594469308853,-0.6064087152481079,0.135901853442192,0.111521378159523,0.0,0.0,0.8775539398193359,-0.1210572123527526
0.0246641151607036,0.2764439284801483,0.1556141823530197,-0.5998795032501221,0.1411600559949875,0.1051637977361679,0.0,0.0,0.8095405101776123,0.1260900497436523
0.0261140819638967,0.263406753540039,0.1400088220834732,-0.5799102187156677,0.1461276262998581,0.0993517115712165,0.0,0.0,0.6678838729858398,0.3631871938705444
0.0275467876344919,0.250677615404129,0.1379768103361129,-0.5662654042243958,0.1514112055301666,0.1056715250015258,0.0,0.0,0.8308212757110596,0.442846417427063
0.0287393573671579,0.2386729121208191,0.1144589632749557,-0.5340378880500793,0.1562041342258453,0.0958586856722831,0.0,0.0,0.7057682275772095,0.7802108526229858
0.0300230979919433,0.2269542962312698,0.1248140782117843,-0.5212039947509766,0.1597630828619003,0.0711790919303894,0.0,0.0,0.9704718589782716,0.1200720071792602
0.0312319751828908,0.2152856886386871,0.1173511892557144,-0.5189909338951111,0.1633001267910003,0.0707410126924514,0.0,0.0,0.9231072664260864,0.4751015901565552
0.0324948318302631,0.2035651504993438,0.1222190856933593,-0.5213643908500671,0.1673642694950103,0.0812828913331031,0.0,0.0,0.937608242034912,0.198905348777771
0.0336903557181358,0.1917929798364639,0.1155046001076698,-0.5236700773239136,0.1714145094156265,0.0810049623250961,0.0,0.0,0.973105788230896,-0.2082406282424926
0.0347480773925781,0.1807871907949447,0.1016243323683738,-0.4896321594715118,0.175572395324707,0.0831577032804489,0.0,0.0,0.9818717241287231,0.4026393890380859
0.0357611663639545,0.1706206947565078,0.0965648144483566,-0.4524113833904266,0.1803243905305862,0.0950398668646812,0.0,0.0,0.9628591537475586,0.2194902896881103
0.036498449742794,0.1612201482057571,0.0694665759801864,-0.4183250963687897,0.1846054792404174,0.0856217443943023,0.0,0.0,0.9893475770950316,-0.6164150238037109
0.0369794853031635,0.1517111808061599,0.0429186709225177,-0.4232747852802276,0.1898138374090194,0.1041672080755233,0.0,0.0,0.986520767211914,0.965151071548462
0.0374326705932617,0.1430164724588394,0.0418457649648189,-0.3868843615055084,0.1933102905750274,0.0699294060468673,0.0,0.0,0.9510762691497804,0.8207186460494995
0.0377136245369911,0.1346718668937683,0.0264011584222316,-0.3710947930812835,0.1950142234563827,0.0340786054730415,0.0,0.0,0.9940040111541748,0.0367316007614135
0.0377915389835834,0.1268804371356964,0.0062718368135392,-0.3464846909046173,0.1965384632349014,0.0304844677448272,0.0,0.0,0.939166784286499,0.1566848754882812
0.0377131476998329,0.1196609362959861,-0.0094068748876452,-0.3210748732089996,0.1981184184551239,0.031599536538124,0.0,0.0,0.8923583030700684,0.4195935726165771
0.0376167297363281,0.1128195822238922,-0.011786094866693,-0.3043479025363922,0.2002751231193542,0.043134044855833,0.0,0.0,0.8537478446960449,0.6269779205322266
0.037533663213253,0.1059286668896675,-0.0093798134475946,-0.3064090311527252,0.2013582289218902,0.0216617938131093,0.0,0.0,0.819394588470459,0.6270401477813721
0.0375283248722553,0.0991012677550315,-0.000737112481147,-0.3034686744213104,0.2015647143125534,0.0041296021081507,0.0,0.0,0.8597462177276611,0.9856843948364258
0.037658404558897,0.0926655381917953,0.0143899293616414,-0.2858404219150543,0.2001674175262451,-0.0279456563293933,0.0,0.0,0.8851304054260254,0.814574122428894
0.0379373542964458,0.0863249376416206,0.0304559562355279,-0.2814598083496094,0.1975821554660797,-0.0517048649489879,0.0,0.0,0.977924108505249,0.5809733867645264
0.0380779281258583,0.0806913003325462,0.0177408661693334,-0.2498972862958908,0.1938863098621368,-0.0739167630672454,0.0,0.0,0.8445334434509277,0.8311343193054199
0.0381543152034282,0.075709044933319,0.012826383113861,-0.2207628786563873,0.1886630356311798,-0.1044655293226242,0.0,0.0,0.8308460712432861,0.6896908283233643
0.0382867828011512,0.0712446272373199,0.0194164812564849,-0.1976449787616729,0.1824695169925689,-0.1238703951239585,0.0,0.0,0.688626766204834,0.312882661819458
0.0384520515799522,0.0666693523526191,0.022176768630743,-0.2026642113924026,0.1768079400062561,-0.1132318750023841,0.0,0.0,0.8144220113754272,-0.7535459995269775
0.0383878722786903,0.0622540824115276,-0.0021971412934362,-0.1957358568906784,0.1725694835186004,-0.0847691446542739,0.0,0.0,0.8762435913085938,-0.0004689693450927
0.0382361412048339,0.0586800202727317,-0.0114227812737226,-0.1584156155586242,0.1688127666711807,-0.0751344040036201,0.0,0.0,0.0934361219406127,-0.1274797916412353
0.037989042699337,0.0550275668501853,-0.0209160409867763,-0.1619051098823547,0.1650124937295913,-0.0760055929422378,0.0,0.0,0.2244094610214233,0.479447603225708
0.0375342369079589,0.0515931956470012,-0.0412678346037864,-0.1521769016981125,0.1608038991689682,-0.0841716602444648,0.0,0.0,-0.4207760691642761,0.8298773765563965
0.0371304526925087,0.0475497096776962,-0.0342770889401435,-0.1790657043457031,0.1546998769044876,-0.1220800504088401,0.0,0.0,0.3758708238601684,0.0959049463272094
0.0365607254207134,0.0437906123697757,-0.0506489500403404,-0.1664261221885681,0.1483884304761886,-0.1262291967868805,0.0,0.0,0.1359776258468628,0.8993809223175049
0.0358902923762798,0.0401716344058513,-0.0588770508766174,-0.1600514054298401,0.1402475088834762,-0.1628182232379913,0.0,0.0,0.1359068155288696,0.952473282814026
0.0351959243416786,0.0364389270544052,-0.0593369789421558,-0.1649798899888992,0.1301827728748321,-0.2012950479984283,0.0,0.0,0.5582133531570435,0.9552209377288818
0.0343454368412494,0.0329109989106655,-0.0728398635983467,-0.1557748466730117,0.1180391535162925,-0.2428725510835647,0.0,0.0,0.3337095975875854,0.9792261123657228
0.0333462730050087,0.0293700546026229,-0.0856122449040412,-0.1563070863485336,0.1038275435566902,-0.2842322885990143,0.0,0.0,0.1173183917999267,0.9649262428283693
0.0324181541800498,0.0259561389684677,-0.0764762535691261,-0.1506736427545547,0.0876316726207733,-0.3239175379276275,0.0,0.0,0.0043466091156005,0.8683068752288818
0.0315424911677837,0.0222567655146121,-0.0693976134061813,-0.1634508520364761,0.0696438774466514,-0.3597560226917267,0.0,0.0,-0.0248581171035766,0.0591824054718017
0.030623722821474,0.0179298967123031,-0.0736167356371879,-0.1915552914142608,0.0515861958265304,-0.3611536622047424,0.0,0.0,0.6248716115951538,0.1381628513336181
0.0295980460941791,0.0141171552240848,-0.0841118544340133,-0.1689201891422271,0.0333450809121131,-0.3648227453231811,0.0,0.0,0.435650110244751,-0.3981699347496032
0.0286243446171283,0.0107962228357791,-0.079384833574295,-0.1472881138324737,0.0155889503657817,-0.3551227748394012,0.0,0.0,0.4186775684356689,-0.2651589512825012
0.027659511193633,0.0075957393273711,-0.0787079185247421,-0.1421507447957992,-0.0019617557991296,-0.351014107465744,0.0,0.0,0.4892357587814331,-0.2865787744522095
0.0266388896852731,0.0048715807497501,-0.084143728017807,-0.121188960969448,-0.0196488536894321,-0.3537420630455017,0.0,0.0,0.2906200885772705,-0.2087147831916809
0.0256254188716411,0.0024411415215581,-0.0835406556725502,-0.10834451764822,-0.0372315198183059,-0.351653516292572,0.0,0.0,0.1227724552154541,-0.0052559375762939
0.0247469898313283,0.0005220389575697,-0.0893115252256393,-0.0852909237146377,-0.0356870405375957,0.0310097523033618,1.0,0.0,0.2926371097564697,0.597081184387207
0.0240400321781635,-0.000728192331735,-0.0902085453271865,-0.0552210919559001,-0.0163817331194877,0.3861638605594635,1.0,0.0,0.376196026802063,0.9408905506134032
0.0234282501041889,-0.0016323471209034,-0.0902801305055618,-0.0401411466300487,0.0124217318370938,0.5761643648147583,1.0,1.0,0.5512293577194214,0.9926390647888184
0.0227927211672067,-0.0019929432310163,-0.0786037370562553,-0.0164081957191228,0.0265565644949674,0.2817662358283996,1.0,1.0,0.2825021743774414,0.9979066848754884
0.0221569053828716,-0.0019047522218897,-0.0625803843140602,0.0039281975477933,0.0255432538688182,-0.0203015338629484,0.0,1.0,-0.5215523838996887,0.0971684455871582
0.0214567184448242,-0.0020690106321126,-0.0581937916576862,-0.0071421489119529,0.0138509916141629,-0.2338643819093704,0.0,1.0,-0.4676532745361328,0.1977103948593139
0.0209224708378314,-0.0019502067007124,-0.0503324344754219,0.0052830195054411,0.0108368881046772,-0.0602345466613769,1.0,1.0,-0.9071327447891236,0.9740798473358154
0.0205680839717388,-0.0016475105658173,-0.0329968854784965,0.0134520335122942,0.0084654139354825,-0.0473888330161571,1.0,1.0,-0.9295100569725036,0.9451984167099
0.0203726775944232,-0.0012289786245673,-0.0162358097732067,0.0186039768159389,0.0052236653864383,-0.064797542989254,1.0,1.0,-0.9388107657432556,0.1404423713684082
0.0201943404972553,-0.0007637047674506,-0.0141037153080105,0.0206858739256858,0.0015795598737895,-0.072833277285099,1.0,1.0,-0.3582066297531128,0.0752835273742675
