x_pos,y_pos,x_vel,y_vel,angle,ang_vel,leg_1,leg_2,main_booster,lat_booster
-0.0016416549915447,1.4029070138931274,-0.1666272580623626,-0.3561383187770843,0.0022044498473405,0.043517742305994,0.0,0.0,-0.020135760307312,0.232370376586914
-0.0034019469749182,1.3941996097564695,-0.1785502284765243,-0.3869988322257995,0.0046933647245168,0.0497836396098136,0.0,0.0,0.4872429370880127,0.9422123432159424
-0.0050715445540845,1.3853145837783811,-0.1680848598480224,-0.3948988616466522,0.0058084153570234,0.0223030783236026,0.0,0.0,0.3695093393325805,0.8133574724197388
-0.0069087981246411,1.3763298988342283,-0.1833802759647369,-0.3993135690689087,0.0054686972871422,-0.00679502915591,0.0,0.0,0.6545877456665039,0.9674601554870604
-0.0086455345153808,1.36761212348938,-0.1719005554914474,-0.3874451220035553,0.0037191438023,-0.034994326531887,0.0,0.0,0.5882617235183716,0.8884499073028564
-0.0102833751589059,1.3589602708816528,-0.1607502549886703,-0.3845306038856506,0.0007200107211247,-0.0599885284900665,0.0,0.0,0.5097863674163818,0.8980088233947754
-0.0119905471801757,1.3503825664520264,-0.1661219298839569,-0.3812366724014282,-0.0038286070339381,-0.0909807309508323,0.0,0.0,-0.1380963921546936,0.8522727489471436
-0.0137298582121729,1.3410897254943848,-0.1674458980560302,-0.4130455553531647,-0.0102400975301861,-0.1282417327165603,0.0,0.0,0.4304523468017578,0.4251405000686645
-0.0155872348695993,1.3321669101715088,-0.1794353276491165,-0.3966260552406311,-0.0164782870560884,-0.1247754544019699,0.0,0.0,-0.0042531490325927,0.9176923036575316
-0.0174868591129779,1.32253098487854,-0.1820210963487625,-0.4283702075481415,-0.0243298485875129,-0.1570456326007843,0.0,0.0,0.3000160455703735,0.7498573064804077
-0.0193532947450876,1.3128756284713743,-0.1774985194206237,-0.4293011724948883,-0.0333756171166896,-0.1809323579072952,0.0,0.0,-0.1627804040908813,0.9166123867034912
-0.0212516784667968,1.3024979829788208,-0.1788145154714584,-0.4615101814270019,-0.044291328638792,-0.2183338403701782,0.0,0.0,-0.5339756011962891,0.9015066623687744
-0.0231753345578908,1.2914036512374878,-0.1792777776718139,-0.4935196936130523,-0.0572412274777889,-0.2590218186378479,0.0,0.0,-0.0265056490898132,0.8717174530029297
-0.0251332279294729,1.2795796394348145,-0.1808879673480987,-0.5261476635932922,-0.0720036104321479,-0.2952746152877807,0.0,0.0,0.1926299333572387,0.8112872838973999
-0.0269768722355365,1.2679203748703003,-0.1680426150560379,-0.5190502405166626,-0.0881775096058845,-0.323507696390152,0.0,0.0,-0.5670110583305359,-0.4834920763969421
-0.0289282798767089,1.255547046661377,-0.1789254546165466,-0.5509665012359619,-0.1042792946100235,-0.322065144777298,0.0,0.0,0.05960214138031,0.3278069496154785
-0.0308411605656147,1.2432641983032229,-0.17556232213974,-0.5470795035362244,-0.1199171692132949,-0.3127861618995666,0.0,0.0,0.0099952220916748,-0.1810824275016784
-0.0327451713383197,1.2305922508239746,-0.1751383394002914,-0.5644959807395935,-0.1351208239793777,-0.3041008412837982,0.0,0.0,0.4809434413909912,0.7968235015869141
-0.0344962105154991,1.2182506322860718,-0.1584392338991165,-0.5501083135604858,-0.1517557799816131,-0.3327295184135437,0.0,0.0,-0.6984975934028625,-0.8153957724571228
-0.0364208221435546,1.2052106857299805,-0.1776704639196396,-0.5811241865158081,-0.1665615886449813,-0.2961426377296448,0.0,0.0,0.737302303314209,-0.9070945978164672
-0.0382365211844444,1.192612648010254,-0.1688310801982879,-0.5613889098167419,-0.1793486624956131,-0.2557644546031952,0.0,0.0,-0.5561357736587524,-0.6907182335853577
-0.0402029976248741,1.179309368133545,-0.1852264702320099,-0.592676043510437,-0.1908443123102188,-0.2299332618713379,0.0,0.0,0.8458706140518188,-0.8880543112754822
-0.0420615188777446,1.1661595106124878,-0.176412895321846,-0.5856847763061523,-0.2003521025180816,-0.1901726573705673,0.0,0.0,0.624701976776123,-0.6024942994117737
-0.043927002698183,1.1527297496795654,-0.1783987581729889,-0.5979954600334167,-0.2085806429386139,-0.1645852029323578,0.0,0.0,0.7565135955810547,-0.7911080718040466
-0.045964527875185,1.1396608352661133,-0.1967447698116302,-0.5818450450897217,-0.2156654596328735,-0.1417087018489837,0.0,0.0,0.9792546033859252,-0.7013353705406189
-0.0481499657034873,1.1271719932556152,-0.2123311012983322,-0.5559765696525574,-0.2219450324773788,-0.1255915611982345,0.0,0.0,0.9657514095306396,0.0668866634368896
-0.0502260215580463,1.1152300834655762,-0.2012625634670257,-0.5317229628562927,-0.2283660620450973,-0.1284205615520477,0.0,0.0,0.9609043598175048,-0.451022207736969
-0.0523135177791118,1.104055404663086,-0.2015362232923507,-0.4977785050868988,-0.2356850057840347,-0.146378681063652,0.0,0.0,-0.5437995791435242,-0.7098214030265808
-0.0545452125370502,1.0921943187713623,-0.2174888104200363,-0.5280840992927551,-0.2414545863866806,-0.1153915673494339,0.0,0.0,0.8739838600158691,0.041852593421936
-0.0567430481314659,1.0804309844970703,-0.213798850774765,-0.5238150358200073,-0.2475484609603881,-0.1218775287270546,0.0,0.0,0.2656706571578979,-0.2872020602226257
-0.058839701116085,1.0688893795013428,-0.2035209238529205,-0.5140110850334167,-0.2538058459758758,-0.1251477748155594,0.0,0.0,0.8903747797012329,-0.7963447570800781
-0.0610336288809776,1.057415246963501,-0.2143952399492263,-0.5108327269554138,-0.2589059770107269,-0.102002702653408,0.0,0.0,0.3753522634506225,0.1431115865707397
-0.0631865486502647,1.046218991279602,-0.2097393274307251,-0.4986030459403991,-0.2645832300186157,-0.1135451048612594,0.0,0.0,0.0405707359313964,-0.8664518594741821
-0.065452292561531,1.0346733331680298,-0.2224617004394531,-0.5138919949531555,-0.2687864005565643,-0.0840633958578109,0.0,0.0,0.8529946804046631,-0.1500710248947143
-0.0675680190324783,1.0234214067459106,-0.2072750031948089,-0.5008795857429504,-0.2731910943984985,-0.0880932658910751,0.0,0.0,0.6332523822784424,-0.0862782597541809
-0.0695143714547157,1.0125261545181274,-0.1901309490203857,-0.4850846230983734,-0.2778109312057495,-0.0923969522118568,0.0,0.0,0.1082397699356079,0.4191682338714599
-0.0714385956525802,1.0013625621795654,-0.1875374317169189,-0.4970927536487579,-0.2828224003314972,-0.1002294793725013,0.0,0.0,-0.1339874267578125,-0.6721635460853577
-0.0734488517045974,0.9895088076591492,-0.1970887184143066,-0.527603805065155,-0.286872535943985,-0.0810025036334991,0.0,0.0,0.337947130203247,-0.124155580997467
-0.0753306373953819,0.9779343008995056,-0.1837845295667648,-0.5152948498725891,-0.2914026081562042,-0.0906015485525131,0.0,0.0,-0.220881700515747,-0.686782717704773
-0.0772902518510818,0.9656669497489928,-0.1925254911184311,-0.5459081530570984,-0.2949447333812713,-0.0708419233560562,0.0,0.0,0.8785061836242676,-0.0772510766983032
-0.079131506383419,0.954007089138031,-0.1798105388879776,-0.5190901160240173,-0.2994014024734497,-0.089132621884346,0.0,0.0,0.7184598445892334,-0.4197508096694946
-0.0807064995169639,0.9423553347587584,-0.1534165889024734,-0.5187070965766907,-0.3036267161369324,-0.0845063403248786,0.0,0.0,-0.6858038306236267,-0.7287425994873047
-0.0823403373360633,0.9300015568733216,-0.1601286381483078,-0.5497357249259949,-0.3069879412651062,-0.0672248750925064,0.0,0.0,0.3857235908508301,-0.7261000871658325
-0.0838116630911827,0.9175483584403992,-0.145082414150238,-0.5539042353630066,-0.3091111481189728,-0.0424636825919151,0.0,0.0,0.358000636100769,-0.9226633310317992
-0.0853163748979568,0.9047656059265136,-0.1498238742351532,-0.5682612061500549,-0.3097828328609466,-0.0134334908798336,0.0,0.0,-0.5599111914634705,-0.8136584162712097
-0.0868721008300781,0.891286313533783,-0.1560124307870865,-0.5989913940429688,-0.3093290030956268,0.0090763168409466,0.0,0.0,0.4702497720718384,-0.9049544930458068
-0.0883038491010665,0.8776591420173645,-0.1450592428445816,-0.6052539944648743,-0.3073773086071014,0.0390330180525779,0.0,0.0,-0.0217558741569519,-0.8053025007247925
-0.0897860527038574,0.8633586168289185,-0.1516006290912628,-0.6348692774772644,-0.3038828372955322,0.0698902979493141,0.0,0.0,0.0338842868804931,-0.9174721837043762
-0.0912568122148513,0.8491330146789551,-0.1518934071063995,-0.6312519907951355,-0.2989045977592468,0.0995650514960289,0.0,0.0,-0.4969937801361084,-0.6607099771499634
-0.0927478820085525,0.83421391248703,-0.1548617929220199,-0.6618977785110474,-0.2929636538028717,0.1188196167349815,0.0,0.0,0.0348380804061889,0.1266703605651855
-0.0940120667219162,0.819054365158081,-0.132167637348175,-0.6726166605949402,-0.2870402634143829,0.1184677854180336,0.0,0.0,0.2507566213607788,-0.3775179982185364
-0.0951167121529579,0.8040002584457397,-0.115604817867279,-0.6680721044540405,-0.2817580997943878,0.1056435108184814,0.0,0.0,-0.1719543933868408,-0.5535048842430115
-0.0962072387337684,0.7882425785064697,-0.1146501898765564,-0.6992683410644531,-0.2760051786899566,0.1150576844811439,0.0,0.0,-0.4390047788619995,-0.3137378096580505
-0.0972430258989334,0.7717695236206055,-0.108752891421318,-0.7311674952507019,-0.2707036435604095,0.1060307025909423,0.0,0.0,-0.2861661314964294,-0.2380867600440979
-0.0982188209891319,0.754581093788147,-0.1023093461990356,-0.7630660533905029,-0.2658589482307434,0.0968938544392585,0.0,0.0,0.1227239370346069,-0.347699761390686
-0.0991079360246658,0.7371660470962524,-0.0928955748677253,-0.7732832431793213,-0.2617766857147217,0.0816449895501136,0.0,0.0,0.1021000146865844,-0.8359944820404053
-0.0997807532548904,0.7198103666305542,-0.072518490254879,-0.7704371809959412,-0.2564367353916168,0.1067989021539688,0.0,0.0,0.2121155261993408,-0.7396935820579529
-0.1001980751752853,0.7024389505386353,-0.0480933934450149,-0.7709718942642212,-0.2499443739652633,0.1298471838235855,0.0,0.0,-0.0539462566375732,0.0528459548950195
-0.1005355864763259,0.6843518614768982,-0.0396617576479911,-0.8028714060783386,-0.2439280897378921,0.1203260421752929,0.0,0.0,0.4730609655380249,-0.4926798939704895
-0.1006855964660644,0.6665939092636108,-0.020143661648035,-0.788403332233429,-0.2387061715126037,0.1044382601976394,0.0,0.0,0.3692638874053955,-0.9105623960494996
-0.1006987541913986,0.648568332195282,-0.0078240316361188,-0.8000954985618591,-0.2320974320173263,0.1321750879287719,0.0,0.0,0.469511866569519,-0.3968833684921264
-0.1005628556013107,0.6307687163352966,0.0079517951235175,-0.7902137041091919,-0.2263889908790588,0.1141688451170921,0.0,0.0,0.0589185953140258,-0.8343961834907532
-0.1002307906746864,0.6127272844314575,0.0263686589896678,-0.8008120656013489,-0.2194706499576568,0.1383669227361679,0.0,0.0,0.8610453605651855,-0.5594531893730164
-0.0996643081307411,0.5949872732162476,0.0491018965840339,-0.7873417735099792,-0.2118407785892486,0.1525973826646804,0.0,0.0,0.6300139427185059,-0.6359967589378357
-0.0989533439278602,0.5771206021308899,0.0627389550209045,-0.7928991317749023,-0.2034130245447158,0.1685553342103958,0.0,0.0,0.3088641166687011,-0.5500621199607849
-0.0981891602277755,0.5592725872993469,0.0676730424165725,-0.7920690774917603,-0.1946056336164474,0.1761473566293716,0.0,0.0,0.5992438793182373,-0.5410509705543518
-0.097175121307373,0.5419406890869141,0.0920034199953079,-0.7690975069999695,-0.185152381658554,0.1890648454427719,0.0,0.0,0.0860449075698852,-0.653184175491333
-0.0960058197379112,0.5241671204566956,0.1066374331712722,-0.7886863946914673,-0.174827367067337,0.2065003365278244,0.0,0.0,0.4836112260818481,-0.690977931022644
-0.0946155562996864,0.5068262815475464,0.1277864724397659,-0.7694193124771118,-0.1635690480470657,0.2251664847135543,0.0,0.0,0.2165660858154297,-0.7191346287727356
-0.093185618519783,0.4893166124820709,0.1308985501527786,-0.7769199013710022,-0.1514766067266464,0.2418490648269653,0.0,0.0,-0.1115997433662414,-0.3642079830169678
-0.0916369408369064,0.4710924625396728,0.1432523429393768,-0.8088245987892151,-0.1398944109678268,0.2316440045833587,0.0,0.0,0.7397148609161377,-0.4314892888069153
-0.0898442268371582,0.4531201720237732,0.168008953332901,-0.7977522015571594,-0.1286741495132446,0.2244049608707428,0.0,0.0,0.8192737102508545,-0.4809401035308838
-0.0879504233598709,0.4358434677124023,0.1792856454849243,-0.7670124769210815,-0.1186231449246406,0.2010198831558227,0.0,0.0,0.7655026912689209,-0.8067237138748169
-0.0858367905020713,0.4187667965888977,0.1999637335538864,-0.7580971121788025,-0.1073094606399536,0.2262738049030304,0.0,0.0,0.6146118640899658,-0.7626330852508545
-0.0836530700325965,0.4015548825263977,0.2060304880142212,-0.7641326785087585,-0.0950592756271362,0.2450037449598312,0.0,0.0,0.9208557605743408,-0.6037439703941345
-0.0812699347734451,0.3841810226440429,0.2250244617462158,-0.771376371383667,-0.0818939134478569,0.2633072733879089,0.0,0.0,0.9140582084655762,-0.6220402717590332
-0.0788144096732139,0.3666853904724121,0.2316288650035858,-0.7768824696540833,-0.0681120678782463,0.2756371200084686,0.0,0.0,0.9687198400497437,-0.6378975510597229
-0.0762253776192665,0.3499019145965576,0.2442404776811599,-0.7453311681747437,-0.0536042749881744,0.2901557385921478,0.0,0.0,0.9342211484909058,-0.7020360827445984
-0.0734081268310546,0.3338382542133331,0.2658918797969818,-0.7134503126144409,-0.0379676520824432,0.3127326369285583,0.0,0.0,0.9805734157562256,-0.3951579928398132
-0.070556066930294,0.3185367286205292,0.2705334424972534,-0.6797601580619812,-0.0234706383198499,0.2899402678012848,0.0,0.0,0.9120032787322998,-0.6448293924331665
-0.0677735358476638,0.3030964136123657,0.2632121741771698,-0.6860676407814026,-0.0086260437965393,0.2968921661376953,0.0,0.0,0.9733773469924928,-0.7083238363265991
-0.0648529082536697,0.2883645892143249,0.2759897708892822,-0.6547358632087708,0.0072387726977467,0.3172962665557861,0.0,0.0,0.9523179531097412,-0.1396224498748779
-0.0619220733642578,0.2739371061325073,0.278097927570343,-0.6413607001304626,0.0220331363379955,0.2958874702453613,0.0,0.0,0.9424400329589844,-0.4249414205551147
-0.0589375495910644,0.2599877417087555,0.2842922210693359,-0.6202393174171448,0.0360134430229663,0.2796061635017395,0.0,0.0,0.9577114582061768,-0.318649411201477
-0.0558607093989849,0.2465645372867584,0.2941223084926605,-0.5969680547714233,0.0494130849838256,0.2679925560951233,0.0,0.0,0.9234964847564696,-0.652967631816864
-0.0526230819523334,0.2334453165531158,0.309131920337677,-0.583623468875885,0.0638792589306831,0.2893235087394714,0.0,0.0,0.9452860355377196,-0.5123247504234314
-0.0492842681705951,0.2202083617448806,0.3186469376087188,-0.5890284776687622,0.0789423882961273,0.3012629151344299,0.0,0.0,0.9890527725219728,-0.5467155575752258
-0.0457706451416015,0.2069863677024841,0.3352237641811371,-0.5885730385780334,0.0949327275156974,0.3198069334030151,0.0,0.0,0.9719446897506714,-0.2825019359588623
-0.0420082099735736,0.1940924525260925,0.3598223924636841,-0.5741841793060303,0.1112250685691833,0.3258466422557831,0.0,0.0,0.9984067678451538,-0.7022204399108887
-0.038034152239561,0.1812110543251037,0.379656583070755,-0.5739259123802185,0.1288676112890243,0.3528509140014648,0.0,0.0,0.965742826461792,-0.2484195828437805
-0.0340423583984375,0.168943703174591,0.382019579410553,-0.5467901229858398,0.1459723263978958,0.3420943021774292,0.0,0.0,0.990868091583252,-0.208282470703125
-0.0300067905336618,0.1573263704776764,0.3867665827274322,-0.5180593132972717,0.1627450287342071,0.3354541659355163,0.0,0.0,0.9880952835083008,-0.3489277362823486
-0.0258131977170705,0.1462188065052032,0.402417242527008,-0.4956113696098327,0.1797088682651519,0.3392768800258636,0.0,0.0,0.9671337604522704,-0.5243509411811829
-0.0214638710021972,0.1349877268075943,0.4171232581138611,-0.5014132261276245,0.1976076662540435,0.3579759001731872,0.0,0.0,0.99615216255188,-0.2637239694595337
-0.0171568877995014,0.1239282190799713,0.413733422756195,-0.4938893020153045,0.2147162407636642,0.3421711027622223,0.0,0.0,0.9587128162384032,-0.4321131110191345
-0.0128288269042968,0.1136848330497741,0.4159333109855652,-0.457805186510086,0.231795459985733,0.3415842950344085,0.0,0.0,0.9937822818756104,-0.6908265352249146
-0.0085997581481933,0.1036997884511947,0.4052842259407043,-0.4466543197631836,0.2497014701366424,0.3581202924251556,0.0,0.0,0.979412317276001,-0.4201312065124511
-0.0046092988923192,0.0943296551704406,0.3826576173305511,-0.4193281531333923,0.266431450843811,0.3345999121665954,0.0,0.0,0.9731673002243042,-0.4221333861351013
-0.0005963325384072,0.0854910239577293,0.3849847018718719,-0.3958839178085327,0.2831598222255707,0.3345674872398376,0.0,0.0,0.9835070371627808,-0.3121932744979858
0.0032452582381665,0.0772070735692977,0.3686650395393371,-0.3712629973888397,0.2991126477718353,0.3190566599369049,0.0,0.0,0.949504852294922,-0.4052352905273437
0.0068752290681004,0.0694302394986152,0.3484791219234466,-0.3486959338188171,0.3141402900218963,0.3005529344081878,0.0,0.0,0.8779627084732056,-0.4110698699951172
0.0104457857087254,0.0617311559617519,0.3431774079799652,-0.3452534675598144,0.3285682499408722,0.2885599732398987,0.0,0.0,0.8704071044921875,-0.3481062650680542
0.0138139724731445,0.0542177520692348,0.3240531682968139,-0.3368889689445495,0.3419216275215149,0.2670674622058868,0.0,0.0,0.6045877933502197,-0.2630934715270996
0.0170166976749897,0.0466323234140872,0.3086413145065307,-0.3399409651756286,0.3541406989097595,0.2443814277648925,0.0,0.0,0.6996793746948242,-0.5624405145645142
0.0201732628047466,0.0394103862345218,0.3031224608421325,-0.3241221308708191,0.3673582077026367,0.2643504440784454,0.0,0.0,0.7335983514785767,-0.083070158958435
0.0234445575624704,0.033289585262537,0.3309144675731659,-0.2709965705871582,0.3636063635349273,-0.0746644288301467,0.0,1.0,0.9994711875915528,0.7341469526290894
0.0265094749629497,0.0287543628364801,0.3286239504814148,-0.1961078196763992,0.3404082655906677,-0.4638326168060303,0.0,1.0,0.9988582134246826,-0.974627673625946
0.0291152950376272,0.0248274654150009,0.2828884124755859,-0.1694387644529342,0.3171232640743255,-0.4657198786735534,0.0,0.0,0.4407901763916015,-0.9767951965332032
0.0316414833068847,0.0215093940496444,0.2790705561637878,-0.1419717818498611,0.2896366715431213,-0.549904465675354,0.0,1.0,0.9878078699111938,-0.9605294466018676
0.0339107513427734,0.018702445551753,0.2576996684074402,-0.1191516742110252,0.2575667202472687,-0.6421229243278503,0.0,1.0,0.9900333881378174,-0.9542561769485474
0.035799216479063,0.0166725497692823,0.2214132994413375,-0.0848578438162803,0.2243797332048416,-0.6638245582580566,0.0,1.0,0.9697171449661256,-0.918037474155426
0.0374933257699012,0.0153102735057473,0.1997267305850982,-0.0562318675220012,0.19376140832901,-0.6123925447463989,0.0,1.0,0.7078659534454346,-0.8646841645240784
0.0391202941536903,0.0139421317726373,0.1912514120340347,-0.057329673320055,0.1650854498147964,-0.5735410451889038,0.0,0.0,-0.9246224164962769,-0.8631204962730408
0.0408087745308876,0.0118475053459405,0.1958970725536346,-0.0903205350041389,0.1380533576011657,-0.5406625866889954,0.0,0.0,-0.5086326599121094,-0.8095245957374573
0.0425633415579795,0.0090260365977883,0.2010829448699951,-0.1232312768697738,0.112556055188179,-0.5099660158157349,0.0,0.0,0.7150101661682129,-0.9365406036376952
0.0442972183227539,0.0063500143587589,0.1976436078548431,-0.1172901913523674,0.0884747728705406,-0.4816445708274841,0.0,0.0,0.5591917037963867,-0.8237594962120056
0.0460925102233886,0.0037092184647917,0.2025434076786041,-0.1161692664027214,0.0656709596514701,-0.4560936391353607,0.0,0.0,0.4464879035949707,-0.7655082941055298
0.0480777733027935,0.0008282756898552,0.2202392369508743,-0.1272349506616592,0.0441902764141559,-0.4296298921108246,0.0,0.0,0.8112421035766602,-0.9308443665504456
0.0501971244812011,-0.0015783453127369,0.2339413464069366,-0.1064575836062431,0.022443052381277,-0.4349568784236908,0.0,1.0,0.9296598434448242,-0.7804291248321533
0.0522522926330566,-0.0032487893477082,0.2269018441438675,-0.0740620419383049,0.0013185238931328,-0.4225090146064758,1.0,1.0,0.6180834770202637,-0.999456524848938
0.0543218627572059,-0.0047086980193853,0.2173589766025543,-0.0650963261723518,-0.0082513857632875,-0.1905080080032348,1.0,1.0,0.7815115451812744,-0.9988650679588318
