x_pos,y_pos,x_vel,y_vel,angle,ang_vel,leg_1,leg_2,main_booster,lat_booster
-0.0015187263488769,1.403263807296753,-0.1541497707366943,-0.3402788937091827,0.0020423585083335,0.0403081551194191,0.0,0.0,0.7871541164970683,-0.9250771780717316
-0.0030436515808105,1.3960140943527222,-0.1567060798406601,-0.3222188949584961,0.0062154857441782,0.0834708660840988,0.0,0.0,-0.0701207914696782,0.9284958839762047
-0.0044738771393895,1.3883973360061646,-0.145187497138977,-0.3385316133499145,0.0083501813933253,0.0426980778574943,0.0,0.0,0.2471124590360343,0.7562308342608678
-0.0059437751770019,1.380982756614685,-0.1476725786924362,-0.3295422494411468,0.009025172330439,0.0135011794045567,0.0,0.0,0.222365831347123,0.8930849941936877
-0.0072314264252781,1.3739362955093384,-0.1278779208660125,-0.3131685853004455,0.0081487298011779,-0.0175305642187595,0.0,0.0,-0.7108250903193221,-0.99303915846471
-0.0085733411833643,1.366527080535889,-0.1349382102489471,-0.3293057680130005,0.0088912956416606,0.0148526802659034,0.0,0.0,-0.227229298521703,0.8885764226761976
-0.009841633029282,1.3587582111358645,-0.1259362995624542,-0.3452813029289245,0.008003270253539,-0.0177619718015193,0.0,0.0,-0.8176411061259605,0.5654594016758419
-0.0110481260344386,1.3506308794021606,-0.1183591708540916,-0.3611994683742523,0.0057468372397124,-0.0451327785849571,0.0,0.0,-0.1836966389549559,-0.9534088790747788
-0.0123246191069483,1.3421528339385986,-0.1273091733455658,-0.3768047988414764,0.0054075070656836,-0.0067870439961552,0.0,0.0,0.5572328929573849,-0.7864139828312682
-0.0136610027402639,1.334345459938049,-0.1348333209753036,-0.3470000624656677,0.0065776999108493,0.0234062206000089,0.0,0.0,0.8916118408091895,0.9773123589829388
-0.0148087497800588,1.3272007703781128,-0.1141034588217735,-0.3175415992736816,0.0059206518344581,-0.0131424944847822,0.0,0.0,-0.9078409355906604,-0.6342790610447528
-0.0159938819706439,1.3196935653686523,-0.1188556551933288,-0.3336541950702667,0.0062575098127126,0.0067377956584095,0.0,0.0,0.015837570632927,0.6729446032010432
-0.0170305259525775,1.3124756813049316,-0.102583609521389,-0.3207883238792419,0.0051982891745865,-0.0211866982281208,0.0,0.0,-0.1744135296700553,0.8340867713735944
-0.0179869644343853,1.3048899173736572,-0.0925236940383911,-0.3371357917785644,0.0021113757975399,-0.0617439970374107,0.0,0.0,0.7979540283778281,0.8821658843365987
-0.0186989791691303,1.2982994318008425,-0.0664161965250969,-0.2929109930992126,-0.0026284542400389,-0.0948049575090408,0.0,0.0,-0.1276100236069213,-0.750396730606717
-0.019452666863799,1.2913397550582886,-0.0715582445263862,-0.3093332946300506,-0.0063991267234086,-0.0754198506474495,0.0,0.0,0.7677803724099259,-0.625580708485137
-0.0200843811035156,1.2853988409042358,-0.0607353076338768,-0.2640531361103058,-0.0087996115908026,-0.0480141378939151,0.0,0.0,0.2289848612622829,-0.7062818763320489
-0.0206434242427349,1.2795082330703735,-0.0547516830265522,-0.2618075609207153,-0.0099420603364706,-0.0228510163724422,0.0,0.0,0.6099229875008292,-0.6134247074830588
-0.0211339946836233,1.2744355201721191,-0.0490358918905258,-0.2254571467638015,-0.0099563812837004,-0.0002865081478375,0.0,0.0,-0.4588141699526724,-0.5943324841394697
-0.0216711051762104,1.2690024375915527,-0.0546794719994068,-0.2414624989032745,-0.0089954603463411,0.0192201826721429,0.0,0.0,-0.3962124449593012,0.5689175713542508
-0.0221469886600971,1.2632123231887815,-0.0467859134078025,-0.2573434114456177,-0.0097915660589933,-0.0159235335886478,0.0,0.0,0.7309569473525945,-0.5791439312708965
-0.0226443298161029,1.2577542066574097,-0.0497115291655063,-0.2425854504108429,-0.0098122330382466,-0.0004135952913202,0.0,0.0,-0.0722832019820627,-0.8164247863078277
-0.0231857299804687,1.2519348859786987,-0.0549659542739391,-0.2586290240287781,-0.0089936787262558,0.0163724441081285,0.0,0.0,-0.055545455010344,-0.8967291769906796
-0.0237833019345998,1.2457458972930908,-0.0617219619452953,-0.2750517725944519,-0.0070535209961235,0.0388063788414001,0.0,0.0,-0.1602348935807107,-0.9479513129215276
-0.0244671814143657,1.2392001152038574,-0.0722201541066169,-0.2909101843833923,-0.0032574371434748,0.0759285017848014,0.0,0.0,0.1877523671108294,-0.7278673127170444
-0.0253191944211721,1.2330366373062134,-0.0898826420307159,-0.2739363312721252,0.0013604580890387,0.0923577696084976,0.0,0.0,0.678926840309034,0.829392477435988
-0.0260958671569824,1.2276251316070557,-0.08016187697649,-0.2405114322900772,0.0038288931827992,0.0493686832487583,0.0,0.0,0.5873492906258415,0.7802734955299064
-0.0269462577998638,1.2230503559112549,-0.0851933509111404,-0.2033320069313049,0.0039783082902431,0.0029882781673222,0.0,0.0,-0.4179682218425198,0.6617368849825299
-0.0277493484318256,1.2181204557418823,-0.07886653393507,-0.2191020399332046,0.0025593405589461,-0.0283794850111007,0.0,0.0,0.2909757480613977,-0.9677104352732416
-0.0286427494138479,1.21339750289917,-0.0892815962433815,-0.2099111527204513,0.0025049466639757,-0.0010879059555009,0.0,0.0,-0.8718209196271842,-0.8864271783788233
-0.0295978542417287,1.20832359790802,-0.0966166332364082,-0.225507840514183,0.0035950171295553,0.0218015313148498,0.0,0.0,-0.9848912358283995,0.9162578582763672
-0.0304836276918649,1.2028841972351074,-0.0874937623739242,-0.2417531758546829,0.0025237828958779,-0.0214247480034828,0.0,0.0,-0.9883283972740172,0.5339697599411011
-0.0313268676400184,1.1970893144607544,-0.0817176327109336,-0.257549375295639,-4.903564331470989e-05,-0.051456581801176,0.0,0.0,-0.9869656562805176,0.8255701065063477
-0.0321057327091693,1.1909265518188477,-0.0731846839189529,-0.273910254240036,-0.0046847849152982,-0.092715099453926,0.0,0.0,-0.9884200096130372,0.8372631072998047
-0.0328104980289936,1.184404969215393,-0.0634427517652511,-0.2898882031440735,-0.0116344392299652,-0.1389929801225662,0.0,0.0,-0.9891015291213988,0.2557718753814697
-0.0335094444453716,1.177523493766785,-0.0622411295771598,-0.3059196770191192,-0.0191962923854589,-0.1512370258569717,0.0,0.0,-0.9796007871627808,-0.0744677782058715
-0.0342027656733989,1.1702826023101809,-0.0610423386096954,-0.3219523131847381,-0.0273779239505529,-0.163632720708847,0.0,0.0,-0.948198676109314,0.3870183229446411
-0.0348903648555278,1.1626819372177124,-0.0598477721214294,-0.3379861712455749,-0.0361863039433956,-0.1761676967144012,0.0,0.0,-0.9599233269691468,-0.260165810585022
-0.0355725288391113,1.1547223329544067,-0.0586587563157081,-0.3540214598178863,-0.0456278286874294,-0.1888304203748703,0.0,0.0,-0.9667999744415284,0.0945440530776977
-0.0362493507564067,1.1464039087295532,-0.0574766397476196,-0.3700581789016723,-0.0557083338499069,-0.2016102522611618,0.0,0.0,-0.9641350507736206,-0.5813422203063965
-0.0369746200740337,1.1377358436584473,-0.063069924712181,-0.385626882314682,-0.0650701746344566,-0.1872365772724151,0.0,0.0,-0.8689413666725159,-0.459337830543518
-0.0376948341727256,1.128709077835083,-0.0619053021073341,-0.4016645550727844,-0.0750812888145446,-0.2002221792936325,0.0,0.0,-0.991038739681244,-0.5085529685020447
-0.0384440422058105,1.1193217039108276,-0.0650024265050888,-0.4177412688732147,-0.0848983228206634,-0.1963406056165695,0.0,0.0,-0.9372883439064026,-0.6844868063926697
-0.0392334945499897,1.1095802783966064,-0.0695238411426544,-0.4335220456123352,-0.0942348092794418,-0.1867297887802124,0.0,0.0,-0.984928011894226,-0.7259663939476013
-0.0400798805058002,1.099479913711548,-0.0761094316840171,-0.4494595825672149,-0.1026912033557891,-0.1691278666257858,0.0,0.0,-0.9872978329658508,-0.5649113655090332
-0.0409630760550498,1.0890216827392578,-0.0801875367760658,-0.4653986990451813,-0.110774241387844,-0.1616606414318084,0.0,0.0,-0.9722211956977844,-0.7045655250549316
-0.0418921485543251,1.0782089233398438,-0.0853646546602249,-0.4811441600322723,-0.1182637587189674,-0.1497901976108551,0.0,0.0,-0.7724193334579468,-0.9665112495422364
-0.0429061874747276,1.067063570022583,-0.0955087170004844,-0.4958284497261047,-0.124130792915821,-0.1173410266637802,0.0,0.0,0.2844078540802002,-0.1666483283042907
-0.0439428314566612,1.0564905405044556,-0.0966088697314262,-0.4705200493335724,-0.1311484426259994,-0.1403528600931167,0.0,0.0,-0.9465845823287964,-0.4097074270248413
-0.0449756607413291,1.0455586910247805,-0.0955604687333107,-0.4865583777427673,-0.1388417780399322,-0.1538663357496261,0.0,0.0,-0.9222862720489502,-0.3926448822021484
-0.046004869043827,1.0342683792114258,-0.0945316329598426,-0.502597987651825,-0.1472127586603164,-0.1674199998378753,0.0,0.0,-0.8149490356445312,-0.4363116025924682
-0.0470307357609272,1.0226197242736816,-0.0935234129428863,-0.5186389684677124,-0.1562632173299789,-0.1810093224048614,0.0,0.0,-0.9813588857650756,-0.1766986846923828
-0.0480533614754676,1.010613203048706,-0.0925367996096611,-0.5346814393997192,-0.1659947335720062,-0.1946299970149994,0.0,0.0,-0.963942527770996,-0.9525241255760192
-0.0491460785269737,0.9982756972312928,-0.1007564440369606,-0.5493037700653076,-0.1745058596134185,-0.1702223867177963,0.0,0.0,-0.9497228860855104,-0.8832093477249146
-0.0502880103886127,0.9855905175209044,-0.1063541620969772,-0.5647282004356384,-0.1823704242706298,-0.1572914272546768,0.0,0.0,-0.8705058097839355,-0.952831506729126
-0.0515137687325477,0.9725667238235474,-0.1162703186273574,-0.5796304941177368,-0.1887079179286956,-0.1267502754926681,0.0,0.0,-0.4160497188568115,-0.958825945854187
-0.0527990348637104,0.9592110514640808,-0.1231605857610702,-0.5942813754081726,-0.1941011399030685,-0.1078646406531333,0.0,0.0,-0.4842252731323242,-0.4465577602386474
-0.0540822967886924,0.9454968571662904,-0.1222925335168838,-0.6103217005729675,-0.2001805603504181,-0.1215880289673805,0.0,0.0,-0.6210576295852661,-0.7825973033905029
-0.0554159171879291,0.9314484000205994,-0.1280167996883392,-0.6251091361045837,-0.2055636346340179,-0.1076614633202552,0.0,0.0,0.3524724245071411,-0.8195816874504089
-0.0567482002079486,0.9180344939231871,-0.1287666261196136,-0.5968011021614075,-0.2100609838962555,-0.0899468958377838,0.0,0.0,-0.8751388192176819,-0.3463940620422363
-0.0580793395638465,0.9042620658874512,-0.1279787570238113,-0.6128415465354919,-0.2152456045150756,-0.103692352771759,0.0,0.0,0.2595002651214599,-0.9334671497344972
-0.059453297406435,0.8909716010093689,-0.1334112733602523,-0.59126877784729,-0.2192761898040771,-0.0806116014719009,0.0,0.0,-0.9540807008743286,-0.6999218463897705
-0.0608698837459087,0.8773354291915894,-0.1380989104509353,-0.606584906578064,-0.2228752374649047,-0.071981132030487,0.0,0.0,-0.9943873286247252,-0.7312757968902588
-0.0623400695621967,0.8633603453636169,-0.1441867053508758,-0.6215501427650452,-0.2257452607154846,-0.0574002489447593,0.0,0.0,-0.974760115146637,-0.9419829845428468
-0.0638829246163368,0.8490445017814636,-0.1526169627904892,-0.6365145444869995,-0.2274341881275177,-0.0337791629135608,0.0,0.0,-0.9546817541122437,-0.7459236979484558
-0.0654951110482215,0.834394633769989,-0.1606684029102325,-0.6511935591697693,-0.2279968708753585,-0.0112533029168844,0.0,0.0,-0.9601263999938964,-0.6435201168060303
-0.0671546012163162,0.8194100260734558,-0.1659458726644516,-0.6659795641899109,-0.22798852622509,0.0001669384073466,0.0,0.0,-0.8710777759552002,-0.3819381594657898
-0.0688148513436317,0.8040668964385986,-0.1653613448143005,-0.6820193529129028,-0.2286650538444519,-0.0135304685682058,0.0,0.0,-0.9678602814674376,-0.703158974647522
-0.0705266967415809,0.7883912324905396,-0.1711816787719726,-0.696698784828186,-0.2286654710769653,-8.213866749429144e-06,0.0,0.0,-0.6473295092582703,-0.8301056623458862
-0.0723142623901367,0.7723792195320129,-0.1799973547458648,-0.7114546895027161,-0.2274171710014343,0.0249661151319742,0.0,0.0,-0.5077191591262817,-0.2952221632003784
-0.0741037353873252,0.7560085654258728,-0.1795033365488052,-0.727494478225708,-0.226850613951683,0.0113310236483812,0.0,0.0,-0.5659632086753845,-0.4353155493736267
-0.0758953094482421,0.7392794489860535,-0.1790393888950348,-0.7435341477394104,-0.2269644886255264,-0.002277351450175,0.0,0.0,-0.8011019229888916,-0.6729323863983154
-0.0777507796883583,0.7222208976745605,-0.1863988190889358,-0.7580304741859436,-0.2261052280664444,0.0171855632215738,0.0,0.0,-0.0197607278823852,-0.188700795173645
-0.0796089172363281,0.7048035860061646,-0.1859946846961975,-0.7740699648857117,-0.2259232401847839,0.0036396470386534,0.0,0.0,0.6504772901535034,-0.2954924702644348
-0.0814152732491493,0.687610387802124,-0.1799958348274231,-0.7642455697059631,-0.2265725880861282,-0.0129869263619184,0.0,0.0,-0.2265034317970276,-0.7923107743263245
-0.0832801833748817,0.6700690388679504,-0.1865778714418411,-0.7796027064323425,-0.2264858186244964,0.001735288882628,0.0,0.0,0.8957734107971191,-0.5699494481086731
-0.085143469274044,0.6527609825134277,-0.1867724806070327,-0.7691767811775208,-0.2260339260101318,0.0090375440195202,0.0,0.0,0.6549402475357056,-0.7763563990592957
-0.0869000405073165,0.6362863779067993,-0.1769688576459884,-0.7320030927658081,-0.2246983051300048,0.0267120711505413,0.0,0.0,0.2429540157318115,0.0711421966552734
-0.0884650200605392,0.6203305721282959,-0.1574367433786392,-0.7090084552764893,-0.2237506806850433,0.0189526733011007,0.0,0.0,-0.2284033298492431,-0.209447979927063
-0.0900342017412185,0.6040160059928894,-0.1572038233280182,-0.7250477075576782,-0.2234667688608169,0.0056781964376568,0.0,0.0,0.7495017051696777,-0.7227001786231995
-0.0917325988411903,0.5879172086715698,-0.1705712378025055,-0.7153909206390381,-0.2227147221565246,0.0150410113856196,0.0,0.0,0.727383017539978,-0.1789305210113525
-0.0932118445634841,0.5726548433303833,-0.148211732506752,-0.6782830357551575,-0.2224252223968505,0.0057899700477719,0.0,0.0,-0.507396399974823,-0.925676167011261
-0.094779297709465,0.5570620894432068,-0.1585344970226287,-0.6927456259727478,-0.2206118702888488,0.0362672284245491,0.0,0.0,0.5259411334991455,-0.0502239465713501
-0.0962641686201095,0.5420433878898621,-0.1494113802909851,-0.6673561930656433,-0.2196832597255706,0.0185722652822732,0.0,0.0,0.2170642614364624,-0.6688302755355835
-0.0977028831839561,0.527444064617157,-0.1454596221446991,-0.6486245393753052,-0.2180659621953964,0.0323457196354866,0.0,0.0,-0.2592726945877075,-0.6062812805175781
-0.099186897277832,0.5124993324279785,-0.150401622056961,-0.6639156937599182,-0.2160471826791763,0.0403759256005287,0.0,0.0,0.6782989501953125,-0.6282083988189697
-0.1006260886788368,0.4977068603038788,-0.1465847641229629,-0.6570519208908081,-0.2133449465036392,0.0540445446968078,0.0,0.0,0.8879388570785522,0.0449920892715454
-0.1018699631094932,0.4831966161727905,-0.1269247084856033,-0.644538164138794,-0.2107854187488556,0.051190435886383,0.0,0.0,0.8574371337890625,-0.0595723390579223
-0.1028237342834472,0.4692173600196838,-0.0980510413646698,-0.6209227442741394,-0.208088681101799,0.0539348907768726,0.0,0.0,0.5652973651885986,-0.6537151336669922
-0.103616714477539,0.4553941786289215,-0.0829606801271438,-0.613852322101593,-0.2043967992067337,0.073837473988533,0.0,0.0,0.711358904838562,-0.6408493518829346
-0.1043130904436111,0.4423771798610687,-0.073953278362751,-0.5779430866241455,-0.2000450044870376,0.0870358273386955,0.0,0.0,0.183790922164917,0.2976797819137573
-0.1048860549926757,0.4297938346862793,-0.0611109845340251,-0.5587499737739563,-0.1962009817361831,0.0768804624676704,0.0,0.0,0.2511696815490722,-0.0976607203483581
-0.1052742972970008,0.4175672531127929,-0.0424902141094207,-0.5429242253303528,-0.1925243884325027,0.0735322311520576,0.0,0.0,0.5261281728744507,-0.6860360503196716
-0.1055652648210525,0.4054048955440521,-0.0337231457233428,-0.5399547219276428,-0.1878716349601745,0.0930552035570144,0.0,0.0,0.5255327224731445,-0.5763961672782898
-0.1058713942766189,0.3936024606227875,-0.0356906689703464,-0.5239178538322449,-0.1827758550643921,0.1019156351685524,0.0,0.0,-0.4018895626068115,0.3683667182922363
-0.1061841025948524,0.3814411759376526,-0.0357753634452819,-0.5399556756019592,-0.1782612055540084,0.0902931690216064,0.0,0.0,0.2829806804656982,-0.2570254206657409
-0.1064429283142089,0.369578093290329,-0.0297303199768066,-0.5267912149429321,-0.1744030267000198,0.0771639794111251,0.0,0.0,0.0497276782989501,-0.1980113983154297
-0.1066985130310058,0.3581231236457824,-0.02848357334733,-0.5087706446647644,-0.1714743375778198,0.0585736110806465,0.0,0.0,0.2717571258544922,-0.678737461566925
-0.1068478599190712,0.3471008241176605,-0.0187773779034614,-0.4894401431083679,-0.1676245182752609,0.076996348798275,0.0,0.0,0.5089771747589111,0.2499885559082031
-0.1069376915693283,0.3367450535297394,-0.0120551558211445,-0.4599139988422394,-0.1645452231168747,0.0615858323872089,0.0,0.0,-0.7952038049697876,-0.3463616371154785
-0.1070340126752853,0.326029896736145,-0.0121777076274156,-0.4759489595890045,-0.1619996875524521,0.0509106591343879,0.0,0.0,0.2513630390167236,-0.6792117357254028
-0.1071498841047287,0.3155296444892883,-0.0149472905322909,-0.4663186967372894,-0.1586492359638214,0.0670090466737747,0.0,0.0,0.2456029653549194,-0.0818826556205749
-0.1072875037789344,0.305362343788147,-0.0161891747266054,-0.4516220688819885,-0.1562166512012481,0.0486518144607543,0.0,0.0,-0.2586650848388672,-0.6307206153869629
-0.1074931174516677,0.2948487401008606,-0.0240663718432188,-0.46690633893013,-0.1527059227228164,0.0702141299843788,0.0,0.0,0.1114540100097656,0.2438044548034668
-0.1075607314705848,0.2846761643886566,-0.0101265870034694,-0.4517750442028045,-0.1493514776229858,0.0670887976884841,0.0,0.0,0.1501369476318359,-0.267482042312622
-0.1075539588928222,0.2745154500007629,-0.0024050001520663,-0.4512789845466614,-0.1462718993425369,0.0615918263792991,0.0,0.0,-0.4661558270454407,-0.4716231822967529
-0.1075529083609581,0.2639951705932617,-0.0025280993431806,-0.4673122465610504,-0.143650621175766,0.0524255223572254,0.0,0.0,-0.2699156999588012,-0.906402349472046
-0.1076304465532302,0.2531387507915497,-0.0118214758113026,-0.4821216166019439,-0.139588177204132,0.0812490060925483,0.0,0.0,0.3739433288574219,0.1928220987319946
-0.1074969321489334,0.2429534941911697,0.0091563044115901,-0.452290266752243,-0.1354052573442459,0.0836582630872726,0.0,0.0,0.2691593170166015,-0.4285851716995239
-0.1072503104805946,0.2330585122108459,0.0205992553383111,-0.439414232969284,-0.1313638240098953,0.0808286517858505,0.0,0.0,-0.2080016732215881,-0.7677018046379089
-0.1070689186453819,0.2228235602378845,0.0129228774458169,-0.4544343650341034,-0.1261630654335022,0.1040150895714759,0.0,0.0,0.1500673294067382,0.0660710334777832
-0.1067811995744705,0.2130368500947952,0.0237319581210613,-0.4345466494560241,-0.1211461797356605,0.1003376394510269,0.0,0.0,0.3988969326019287,0.0885392427444458
-0.1063830405473709,0.2034561485052108,0.0348078645765781,-0.4254125356674194,-0.1161753684282302,0.0994160249829292,0.0,0.0,-0.1707319617271423,-0.1143977642059326
-0.1059889793395996,0.1935155987739563,0.0347496233880519,-0.4414448142051697,-0.1115482002496719,0.0925435572862625,0.0,0.0,0.3856377601623535,-0.1976165175437927
-0.1056574806571006,0.1838767379522323,0.0293161869049072,-0.4281120598316192,-0.1077441945672035,0.0760801881551742,0.0,0.0,0.5821231603622437,0.365109920501709
-0.1052918434143066,0.1746863424777984,0.0331424996256828,-0.4082216918468475,-0.104341834783554,0.0680471286177635,0.0,0.0,-0.1495178937911987,0.0006133317947387
-0.1049291640520095,0.1651358157396316,0.0331343039870262,-0.4242520332336426,-0.1012263670563697,0.0623092167079448,0.0,0.0,0.6234266757965088,-0.3804678916931152
-0.1044055968523025,0.1557330042123794,0.0488863214850425,-0.4176701307296753,-0.0977845638990402,0.0688360780477523,0.0,0.0,0.5076518058776855,-0.7786997556686401
-0.1037858948111534,0.1468996554613113,0.057022213935852,-0.3922769129276275,-0.0928763672709465,0.098163902759552,0.0,0.0,0.3251947164535522,-0.3756411075592041
-0.1030879020690918,0.1386698633432388,0.0649870857596397,-0.3654779493808746,-0.0881022736430168,0.0954817160964012,0.0,0.0,0.0542203187942504,-0.7829688191413879
