x_pos,y_pos,x_vel,y_vel,angle,ang_vel,leg_1,leg_2,main_booster,lat_booster
-0.0015766143333166,1.4033373594284058,-0.1600085794925689,-0.3370184302330017,0.0020948906894773,0.0413482710719108,0.0,0.0,0.1322110248209478,-0.7532437008943493
-0.0032266615889966,1.3959609270095823,-0.1689048856496811,-0.3278524279594421,0.0059581641107797,0.0772734731435775,0.0,0.0,0.7743598582395483,0.7784829457788413
-0.0047157285735011,1.388943791389465,-0.1518904119729995,-0.3118835389614105,0.0089183365926146,0.0592087507247924,0.0,0.0,-0.7295046116325112,-0.9301786541184404
-0.0063472748734056,1.3816354274749756,-0.1686757802963256,-0.3248592317104339,0.0143733937293291,0.1091111302375793,0.0,0.0,0.5242673504021054,0.95924129731805
-0.0078327180817723,1.3749501705169678,-0.1525973528623581,-0.2971698045730591,0.0183858554810285,0.0802565440535545,0.0,0.0,0.0502077548348778,0.5348238408481139
-0.0092416759580373,1.3684983253479004,-0.1443591862916946,-0.2867876589298248,0.0218115095049142,0.0685193836688995,0.0,0.0,-0.0512011289231117,0.8434314264810311
-0.0106432912871241,1.3617616891860962,-0.1422986984252929,-0.2994411885738373,0.0239255782216787,0.0422852896153926,0.0,0.0,0.4414981403483313,0.6972086855172119
-0.0119164464995265,1.3555935621261597,-0.1286501884460449,-0.2741612792015075,0.0252362005412578,0.0262148380279541,0.0,0.0,-0.1299980469316766,0.844576755084717
-0.0131820682436227,1.3491497039794922,-0.1265231817960739,-0.2863911688327789,0.0252053160220384,-0.0006177997565828,0.0,0.0,-0.6409302558675978,0.5909271309078588
-0.0144587513059377,1.3424242734909058,-0.1267654150724411,-0.2988944351673126,0.0243057999759912,-0.0179915092885494,0.0,0.0,-0.4280816937094081,-0.7083771211671523
-0.0158412940800189,1.335410475730896,-0.1388657093048095,-0.3117378950119018,0.0249115005135536,0.0121151888743042,0.0,0.0,-0.2041287039638988,-0.9205488588798184
-0.017346192151308,1.3281052112579346,-0.1530323326587677,-0.3247245252132416,0.0274302214384078,0.0503787994384765,0.0,0.0,-0.2714414396760045,-0.6659766438624355
-0.0189509391784667,1.3205145597457886,-0.1643734872341156,-0.3374370336532593,0.0312869250774383,0.0771409347653389,0.0,0.0,0.4787758726342652,-0.9789387457145792
-0.020630931481719,1.313104271888733,-0.174240693449974,-0.3294865489006042,0.0374598167836666,0.1234693080186843,0.0,0.0,-0.5234002379272458,0.9072289059580856
-0.0222822185605764,1.3054215908050537,-0.1694274246692657,-0.3415688872337341,0.0417142361402511,0.0850958526134491,0.0,0.0,-0.8184639156861018,0.5774063431964709
-0.023939037695527,1.2974486351013184,-0.1689100414514541,-0.3544511497020721,0.0449225753545761,0.0641727894544601,0.0,0.0,-0.179299581102386,-0.620223479089097
-0.0256932266056537,1.2891932725906372,-0.1799333989620208,-0.3670426607131958,0.0493866726756095,0.0892896950244903,0.0,0.0,0.8572166833204851,0.9373631890233628
-0.0272764209657907,1.2812927961349487,-0.1615740954875946,-0.3512422740459442,0.0526077821850776,0.0644280165433883,0.0,0.0,0.7981995478256814,-0.7084098279443871
-0.028907012194395,1.2744255065917969,-0.1683117002248764,-0.3054074645042419,0.0578116811811924,0.104087509214878,0.0,0.0,0.3096782005999225,0.6409955957941507
-0.0306436531245708,1.2679409980773926,-0.1778084337711334,-0.2883631289005279,0.0619206614792346,0.0821867436170578,0.0,0.0,0.6360311769524947,-0.5776684242978847
-0.0323965065181255,1.2622971534729004,-0.18124720454216,-0.2510952651500702,0.0678336918354034,0.1182713061571121,0.0,0.0,0.1134652786767536,0.5000279678313309
-0.0341815948486328,1.256814956665039,-0.1837988793849945,-0.2439034134149551,0.0730781257152557,0.1048979312181472,0.0,0.0,0.6920140995396662,-0.7382202200516745
-0.0359807014465332,1.2518889904022217,-0.1872996538877487,-0.2193087786436081,0.0804040282964706,0.1465311050415039,0.0,0.0,0.3575093907772961,-0.9164825045105348
-0.037866972386837,1.247049331665039,-0.1982158720493316,-0.2156340330839157,0.0899209454655647,0.1903555393218994,0.0,0.0,-0.1477537227754917,0.8929689963057589
-0.0397600159049034,1.2419335842132568,-0.1978403180837631,-0.2278985232114792,0.0983864292502403,0.1693245470523834,0.0,0.0,0.9754244564803912,0.7191876478544273
-0.0419255271553993,1.2377517223358154,-0.2234854996204376,-0.1863362938165664,0.105268694460392,0.1376454532146453,0.0,0.0,-0.1214177728200389,0.5316405406516328
-0.0441092476248741,1.2332934141159058,-0.22454734146595,-0.198590338230133,0.1113931611180305,0.1224895566701889,0.0,0.0,-0.4317349577189895,0.8277952581261517
-0.0463027954101562,1.2285659313201904,-0.224528282880783,-0.210505872964859,0.1165309995412826,0.1027569770812988,0.0,0.0,-0.1546137172582564,-0.7522247736761613
-0.0486287102103233,1.223545789718628,-0.2399069815874099,-0.2237075418233871,0.1238020434975624,0.1454207301139831,0.0,0.0,-0.2409408974180078,0.8025267371258717
-0.050953485071659,1.2182477712631226,-0.2385400086641311,-0.2359815090894699,0.1298366338014602,0.1206917166709899,0.0,0.0,-0.57640147621198,0.9806668784586638
-0.053259752690792,1.212689757347107,-0.2349526435136795,-0.2473998665809631,0.1341542452573776,0.0863523036241531,0.0,0.0,-0.9735422730445862,0.983772039413452
-0.0555577278137207,1.206853270530701,-0.2327268868684768,-0.2596653401851654,0.1370699405670166,0.0583140552043914,0.0,0.0,-0.9878439903259276,0.9934760332107544
-0.0578487403690815,1.2007533311843872,-0.230612114071846,-0.2712492942810058,0.1385738402605056,0.0300782173871994,0.0,0.0,-0.9640297293663024,0.9869610071182252
-0.0601287856698036,1.1943721771240234,-0.2280598878860473,-0.2836069464683532,0.1386233419179916,0.0009899127762764,0.0,0.0,-0.9487858414649964,0.9599676132202148
-0.0623907074332237,1.1877226829528809,-0.224562719464302,-0.2953866124153137,0.1370050609111786,-0.0323654823005199,0.0,0.0,-0.9366658926010132,0.9510225057601928
-0.0646349936723709,1.1808093786239624,-0.221138447523117,-0.3069566786289215,0.1337276995182037,-0.0655471011996269,0.0,0.0,-0.8391101360321045,0.9143891334533693
-0.0668684020638465,1.1736187934875488,-0.2186044752597808,-0.3191613852977752,0.1290062069892883,-0.0944298654794693,0.0,0.0,-0.9103190898895264,0.9521960020065308
-0.069080926477909,1.1661648750305176,-0.2147723734378814,-0.3307472467422485,0.1225585862994194,-0.1289524883031845,0.0,0.0,-0.8262109160423279,0.6396150588989258
-0.071304515004158,1.1584402322769165,-0.2149703800678253,-0.342722624540329,0.1152118742465972,-0.1469343155622482,0.0,0.0,-0.918329894542694,0.8223531246185303
-0.0735174193978309,1.150442600250244,-0.2124712765216827,-0.3547946810722351,0.106442354619503,-0.1753904521465301,0.0,0.0,-0.6912000179290771,0.8946834802627563
-0.075729563832283,1.1421761512756348,-0.211190789937973,-0.3667189180850982,0.0964954495429992,-0.1989379376173019,0.0,0.0,-0.7403981685638428,0.913971185684204
-0.0779109001159668,1.1336350440979004,-0.2061711847782135,-0.3788847625255584,0.0846452787518501,-0.2370036393404007,0.0,0.0,-0.902572751045227,0.6747817993164062
-0.080085277557373,1.1248091459274292,-0.2041936218738556,-0.3915565609931946,0.0715250372886657,-0.2624047994613647,0.0,0.0,-0.8837138414382935,0.8354415893554688
-0.0822376236319542,1.115705490112305,-0.2002988755702972,-0.4039542376995086,0.0567536614835262,-0.2954275906085968,0.0,0.0,-0.8685393333435059,0.6671315431594849
-0.0843946486711502,1.106314182281494,-0.1997831910848617,-0.4168575406074524,0.0410291813313961,-0.3144900202751159,0.0,0.0,-0.8946504592895508,0.749666690826416
-0.0865408927202224,1.096635818481445,-0.1973624527454376,-0.4297657310962677,0.0239808689802885,-0.3409664034843445,0.0,0.0,-0.9069377183914183,0.3333423137664795
-0.088739588856697,1.0866739749908447,-0.2028853893280029,-0.4425568580627441,0.0072093736380338,-0.3354298770427704,0.0,0.0,-0.8598287105560303,0.7160677909851074
-0.0909439101815223,1.07643723487854,-0.2025403976440429,-0.4549772441387176,-0.0104475356638431,-0.3531385660171509,0.0,0.0,-0.8023012280464172,0.7814850807189941
-0.0931505188345909,1.0659236907958984,-0.2018251717090606,-0.4675049185752868,-0.0290470104664564,-0.3719894289970398,0.0,0.0,-0.749314546585083,0.779778242111206
-0.0953473076224327,1.055122971534729,-0.1995995789766311,-0.4805440604686737,-0.0488786697387695,-0.3966336846351623,0.0,0.0,-0.901885449886322,-0.0838531851768493
-0.0975926369428634,1.0440397262573242,-0.2047285586595535,-0.4933421909809112,-0.0684505924582481,-0.3914383053779602,0.0,0.0,-0.6233590245246887,0.8483859300613403
-0.099824234843254,1.0326741933822632,-0.2021135538816452,-0.5062353610992432,-0.0892942920327186,-0.416874498128891,0.0,0.0,-0.9312142133712769,-0.5540363192558289
-0.1021379455924034,1.0210281610488892,-0.2115040272474289,-0.518904983997345,-0.1089864894747734,-0.3938441872596741,0.0,0.0,-0.6867468357086182,0.7702404260635376
-0.1044345870614051,1.0090969800949097,-0.2085622102022171,-0.5319448709487915,-0.1299778819084167,-0.4198280870914459,0.0,0.0,-0.6197170615196228,0.1267640590667724
-0.1067746132612228,0.9968838095664978,-0.2131739407777786,-0.5447452664375305,-0.1507330685853958,-0.4151040911674499,0.0,0.0,-0.7419997453689575,-0.3758602738380432
-0.1091562286019325,0.9843887686729432,-0.2176338732242584,-0.557544469833374,-0.171259194612503,-0.4105226397514343,0.0,0.0,-0.6505210399627686,-0.284048318862915
-0.1115778908133506,0.971611261367798,-0.2219322919845581,-0.5703424215316772,-0.1915639191865921,-0.4060940742492676,0.0,0.0,-0.2922093868255615,-0.5576956272125244
-0.1140710860490799,0.9585631489753724,-0.2302220165729522,-0.5824984908103943,-0.2107908129692077,-0.3845382928848266,0.0,0.0,-0.1391555666923523,-0.0980949401855468
-0.1166008934378624,0.945232093334198,-0.2341662943363189,-0.5952914953231812,-0.2298132926225662,-0.3804496228694916,0.0,0.0,0.1212445497512817,-0.9660722017288208
-0.1191765815019607,0.93245130777359,-0.240963339805603,-0.5707114934921265,-0.2466793358325958,-0.3373211026191711,0.0,0.0,0.0288673639297485,0.1350574493408203
-0.1216979995369911,0.9197101593017578,-0.2359314411878585,-0.5690832734107971,-0.2632128298282623,-0.3306705057621002,0.0,0.0,0.5944782495498657,-0.237101137638092
-0.1241675391793251,0.9077030420303344,-0.2305550575256347,-0.5366926789283752,-0.280019462108612,-0.3361328244209289,0.0,0.0,-0.653973400592804,-0.5814371705055237
-0.1267012655735016,0.8954250812530518,-0.238102838397026,-0.5486947298049927,-0.2957264184951782,-0.314138650894165,0.0,0.0,0.5377204418182373,-0.4661722779273987
-0.1290741860866546,0.8836714625358582,-0.2223463803529739,-0.5255014300346375,-0.3111802339553833,-0.3090764582157135,0.0,0.0,0.4676402807235718,-0.8675979375839233
-0.1314211785793304,0.8721625208854675,-0.2216670215129852,-0.5143547058105469,-0.3247242271900177,-0.2708804011344909,0.0,0.0,0.6783654689788818,-0.1299193501472473
-0.1337176263332367,0.861282229423523,-0.2162359207868576,-0.4866479337215423,-0.3387235403060913,-0.2799861133098602,0.0,0.0,-0.2955812811851501,-0.9414283633232116
-0.1360981911420822,0.8501619696617126,-0.2266030758619308,-0.4969677031040191,-0.3507393300533294,-0.2403158396482467,0.0,0.0,0.2877378463745117,0.2020624876022339
-0.1383571624755859,0.839043915271759,-0.2148656845092773,-0.4968684613704681,-0.3623602092266083,-0.232417494058609,0.0,0.0,0.730417013168335,-0.8611395359039307
-0.1403449028730392,0.82892245054245,-0.1895896643400192,-0.4521972835063934,-0.3720639050006866,-0.1940737068653106,0.0,0.0,0.9458487033843994,-0.8436378836631775
-0.1423169076442718,0.8193922638893127,-0.1895236074924469,-0.4255876243114471,-0.3802076578140259,-0.162875235080719,0.0,0.0,0.9420260190963744,-0.5983012914657593
-0.144151970744133,0.8107762932777405,-0.1767785251140594,-0.3847412765026092,-0.3873723447322845,-0.1432934701442718,0.0,0.0,0.7219696044921875,-0.7580826878547668
-0.1457700729370117,0.8027894496917725,-0.1566597521305084,-0.3563815355300903,-0.392863929271698,-0.1098314970731735,0.0,0.0,0.9771342277526855,-0.769270658493042
-0.1472119390964508,0.796054482460022,-0.1402141153812408,-0.3004330098628998,-0.3971059918403625,-0.0848414525389671,0.0,0.0,0.9610624313354492,-0.8414341807365417
-0.1483615934848785,0.7899636626243591,-0.1128095388412475,-0.2713103890419006,-0.3994109332561493,-0.046098805963993,0.0,0.0,0.9801297187805176,-0.9259852170944214
-0.1494356095790863,0.7842949628829956,-0.1069519072771072,-0.2520667612552643,-0.3998995423316955,-0.0097724273800849,0.0,0.0,0.9550995826721193,-0.6869112849235535
-0.1503256857395172,0.7788450121879578,-0.0900373756885528,-0.2419292032718658,-0.3987909257411957,0.0221726279705762,0.0,0.0,0.9481375217437744,-0.8958726525306702
-0.151155948638916,0.7737180590629578,-0.0856749266386032,-0.2271292060613632,-0.3959584534168243,0.0566493794322013,0.0,0.0,0.970698356628418,-0.8054235577583313
-0.1516754180192947,0.7696630954742432,-0.0560823157429695,-0.1790730059146881,-0.3915330469608307,0.0885073840618133,0.0,0.0,0.8984062671661377,-0.8157526850700378
-0.1517858505249023,0.7666078209877014,-0.0169036071747541,-0.1341881603002548,-0.3852850496768951,0.1249597296118736,0.0,0.0,0.1665713787078857,-0.8899906277656555
-0.1518088281154632,0.764168381690979,-0.0098062120378017,-0.1064165979623794,-0.3773037195205688,0.1596271693706512,0.0,0.0,-0.3675262928009033,-0.8521170616149902
-0.1518882811069488,0.7614798545837402,-0.0173724479973316,-0.1170278415083885,-0.3673053383827209,0.1999677270650863,0.0,0.0,-0.9284881353378296,-0.4377096891403198
-0.1519432067871093,0.7585060000419617,-0.0148593802005052,-0.1298054903745651,-0.357426255941391,0.1975815892219543,0.0,0.0,-0.8477864861488342,-0.4148483276367187
-0.1519711464643478,0.7552468180656433,-0.0120520368218421,-0.1425833106040954,-0.3476807773113251,0.194909781217575,0.0,0.0,-0.8172613382339478,-0.7050163149833679
-0.1520252227783203,0.7517359256744385,-0.0160780735313892,-0.1535011380910873,-0.3365026414394378,0.2235620021820068,0.0,0.0,-0.9198620319366456,0.087802767753601
-0.1520467698574066,0.747939944267273,-0.0127096325159072,-0.1662817150354385,-0.3254851102828979,0.2203505933284759,0.0,0.0,-0.9850369691848756,0.6390359401702881
-0.1519788801670074,0.7438315153121948,-0.0021843085996806,-0.1806070208549499,-0.3161347806453705,0.1870064586400985,0.0,0.0,-0.8670122623443604,0.5898287296295166
-0.1518287658691406,0.7394095063209534,0.0073778927326202,-0.1948932260274887,-0.3082260489463806,0.1581745594739914,0.0,0.0,-0.978935182094574,-0.0068416595458984
-0.1516390740871429,0.7347016930580139,0.0115160942077636,-0.2076694667339325,-0.3005137145519256,0.1542466729879379,0.0,0.0,-0.8197503685951233,0.6729767322540283
-0.1513445824384689,0.729678750038147,0.0238315947353839,-0.222095176577568,-0.2947125136852264,0.116024300456047,0.0,0.0,-0.9970746636390686,-0.1499037742614746
-0.1510060280561447,0.7243697047233582,0.028426194563508,-0.2348693907260894,-0.2891283929347992,0.1116826385259628,0.0,0.0,-0.9745333790779114,-0.7034167051315308
-0.1506742537021637,0.7188035845756531,0.0265666786581277,-0.2460844665765762,-0.28232342004776,0.1360997557640075,0.0,0.0,-0.9946742057800292,0.3654655218124389
-0.1502945870161056,0.7129517793655396,0.0315697453916072,-0.2588599324226379,-0.2757537066936493,0.1313939988613128,0.0,0.0,-0.9885570406913756,0.1350240707397461
-0.1498652398586273,0.7068139910697937,0.0367601588368415,-0.2716352343559265,-0.2694275081157684,0.126524269580841,0.0,0.0,-0.9880346059799194,-0.1045203208923339
-0.1493845880031585,0.7003904581069946,0.0421266742050647,-0.2844103276729584,-0.2633523941040039,0.1215020269155502,0.0,0.0,-0.9893909692764282,-0.2700408697128296
-0.1488511115312576,0.6936810612678528,0.047658335417509,-0.2971851527690887,-0.257535457611084,0.1163382530212402,0.0,0.0,-0.9945675134658812,-0.4605734348297119
-0.1482631713151931,0.6866857409477234,0.0533445365726947,-0.3099597692489624,-0.2519832849502563,0.1110433563590049,0.0,0.0,-0.9837098717689514,-0.1950390338897705
-0.1476196348667144,0.6794044375419617,0.0591750368475914,-0.3227341473102569,-0.2467019259929657,0.1056273207068443,0.0,0.0,-0.9996657371520996,-0.314293622970581
-0.1469190567731857,0.6718370318412781,0.0651400536298751,-0.3355083465576172,-0.2416969537734985,0.1000994220376014,0.0,0.0,-0.9982143640518188,-0.2770766615867615
-0.146160215139389,0.6639836430549622,0.071230262517929,-0.3482822775840759,-0.2369735389947891,0.0944684371352195,0.0,0.0,-0.989790380001068,0.3797948360443115
-0.145342156291008,0.6558443307876587,0.0774367675185203,-0.3610559403896332,-0.2325364053249359,0.0887425914406776,0.0,0.0,-0.9997055530548096,-0.2389229536056518
-0.1444637328386306,0.647418737411499,0.0837511718273162,-0.3738294243812561,-0.2283899486064911,0.0829294472932815,0.0,0.0,-0.7774455547332764,-0.4080350399017334
-0.1435239762067794,0.6387071013450623,0.0901655629277229,-0.3866026103496551,-0.2245381325483322,0.0770361796021461,0.0,0.0,-0.9951704144477844,-0.1430308818817138
-0.1425221413373947,0.6297093033790588,0.0966725125908851,-0.3993755877017975,-0.2209846675395965,0.0710693746805191,0.0,0.0,-0.9960857629776,-0.2956645488739013
-0.1414573639631271,0.620425283908844,0.1032650247216224,-0.4121484160423279,-0.2177329063415527,0.0650350749492645,0.0,0.0,-0.9981173872947692,-0.9478151798248292
-0.1403882056474685,0.6108804941177368,0.1024418324232101,-0.4235605001449585,-0.213209331035614,0.0904718711972236,0.0,0.0,-0.9954784512519836,0.0234855413436889
-0.1392545700073242,0.6010496020317078,0.109186053276062,-0.4363338351249695,-0.2089933902025222,0.0843187943100929,0.0,0.0,-0.9998642802238464,-0.7472977042198181
-0.138098806142807,0.5909521579742432,0.1105656251311302,-0.4480751156806946,-0.2039425522089004,0.1010167226195335,0.0,0.0,-0.9992016553878784,-0.4054059982299804
-0.1368773430585861,0.5805687308311462,0.1174390092492103,-0.4608487784862518,-0.1992043703794479,0.0947635024785995,0.0,0.0,-0.9987868070602416,-0.6707047820091248
-0.1356283128261566,0.5699188113212585,0.1194892302155494,-0.4726123213768005,-0.1937473714351654,0.1091398447751998,0.0,0.0,-0.9990822076797484,-0.3295789361000061
-0.1343124359846115,0.5589827299118042,0.1264722198247909,-0.4853860735893249,-0.1886072605848312,0.1028023585677146,0.0,0.0,-0.9916762709617616,-0.7971035838127136
-0.1329909265041351,0.5477864742279053,0.1257335990667343,-0.4968096017837524,-0.1821616142988205,0.1289128959178924,0.0,0.0,-0.996529221534729,-0.3116641044616699
-0.1316018104553222,0.5363042950630188,0.1328092664480209,-0.5095841288566589,-0.176036387681961,0.1225044727325439,0.0,0.0,-0.995391845703125,-0.6403989791870117
-0.1301880776882171,0.5245445370674133,0.1344649344682693,-0.521854817867279,-0.1691231280565261,0.1382651031017303,0.0,0.0,-0.9936351776123048,-0.6040686368942261
-0.1287625283002853,0.5125145316123962,0.1345158368349075,-0.5337743759155273,-0.1610766500234604,0.1609294265508651,0.0,0.0,-0.9980390071868896,0.2239696979522705
-0.1272682249546051,0.5001987218856812,0.1417041718959808,-0.546550452709198,-0.1533549129962921,0.1544347107410431,0.0,0.0,-0.9888161420822144,0.0080276727676391
-0.1257048547267913,0.4875971376895904,0.1489243358373642,-0.5593258142471313,-0.1459591090679168,0.1479159444570541,0.0,0.0,-0.9909366369247437,0.0629116296768188
-0.1240722686052322,0.4747096002101898,0.1561737209558487,-0.5721005797386169,-0.138890340924263,0.141375333070755,0.0,0.0,-0.9805223345756532,-0.2058598399162292
-0.1223700493574142,0.4615360796451568,0.1634498536586761,-0.5848747491836548,-0.1321495920419693,0.1348148584365844,0.0,0.0,-0.8551710247993469,-0.5624155402183533
-0.120634838938713,0.4480864107608795,0.1661320775747299,-0.597126841545105,-0.124794952571392,0.1470929086208343,0.0,0.0,-0.7690708041191101,-0.6329628229141235
-0.1188767403364181,0.4343658089637756,0.1675278842449188,-0.6091330647468567,-0.1165561527013778,0.1647758036851883,0.0,0.0,-0.6892341375350952,-0.2914966940879822
