x_pos,y_pos,x_vel,y_vel,angle,ang_vel,leg_1,leg_2,main_booster,lat_booster
-0.0014834403991699,1.403187870979309,-0.1503488719463348,-0.3436520993709564,0.0018026662291958,0.0355623736977577,0.0,0.0,-0.8339203833965863,-0.9682458638243068
-0.0029962540138512,1.3950375318527222,-0.1548865884542465,-0.3622460067272186,0.0053663388825953,0.0712807029485702,0.0,0.0,0.147644794535432,-0.8193321741832844
-0.004428100772202,1.3868658542633057,-0.1485731899738311,-0.363218754529953,0.0106925182044506,0.1065333858132362,0.0,0.0,-0.8465848383407555,-0.8455278414714359
-0.005900097079575,1.378253936767578,-0.1546701490879058,-0.3828229606151581,0.0180765595287084,0.1476947218179702,0.0,0.0,0.6369816243874171,0.8119881902187422
-0.0071395873092114,1.370183348655701,-0.1301206201314926,-0.3587817847728729,0.0241772662848234,0.1220255047082901,0.0,0.0,-0.0458565828830281,0.6881676985404285
-0.0082741733640432,1.361677646636963,-0.1179883629083633,-0.3781040012836456,0.0286625865846872,0.0897145569324493,0.0,0.0,0.2883153406574132,-0.7698056735045393
-0.00946388207376,1.353407859802246,-0.1250835955142974,-0.3676773011684418,0.0347011759877204,0.1207830086350441,0.0,0.0,-0.8070816389160913,0.9712424780158324
-0.0105209350585937,1.3447095155715942,-0.1094375103712081,-0.3866850435733795,0.038393847644329,0.0738602727651596,0.0,0.0,-0.1243691157384512,-0.8901853777445901
-0.0116127971559762,1.335580587387085,-0.1147824525833129,-0.4058853089809418,0.0439411774277687,0.1109566241502761,0.0,0.0,0.2118340663391826,-0.847054846084845
-0.0127591136842966,1.3268150091171265,-0.121990218758583,-0.3898162841796875,0.0512199662625789,0.1455892473459243,0.0,0.0,-0.2795886016726152,0.6081087155068853
-0.0138153079897165,1.317617893218994,-0.1116232126951217,-0.4089754223823547,0.0571753270924091,0.1191180348396301,0.0,0.0,-0.5694549390630976,-0.6532066006970786
-0.0148817058652639,1.3079798221588137,-0.1138675808906555,-0.428654283285141,0.0643310546875,0.1431278437376022,0.0,0.0,0.0693771706981332,-0.8870801253562506
-0.0159136764705181,1.298591136932373,-0.1122784167528152,-0.4176890254020691,0.0733188688755035,0.1797731667757034,0.0,0.0,-0.0668239623442956,-0.7402796430893879
-0.0169636718928813,1.2887544631958008,-0.1154246553778648,-0.4377263486385345,0.0836644247174263,0.2069301158189773,0.0,0.0,-0.7032212398522406,0.7001519416205925
-0.017913531512022,1.278498291969299,-0.1037368923425674,-0.4563378691673279,0.0923455879092216,0.1736388504505157,0.0,0.0,0.6291431647863064,-0.9628830887432818
-0.0188122745603323,1.2682398557662964,-0.1007521525025367,-0.4566356837749481,0.1031614616513252,0.2163374722003936,0.0,0.0,0.4835472828089187,0.7284751082795788
-0.0195664409548044,1.2587307691574097,-0.0851357877254486,-0.4233208894729614,0.1128273904323577,0.1933362036943435,0.0,0.0,0.8327294810261647,0.9300885433653986
-0.0200894363224506,1.249439716339111,-0.0605187825858593,-0.4135705828666687,0.12100300937891,0.163527250289917,0.0,0.0,-0.9493436523600668,0.7422903153342443
-0.020516300573945,1.2397325038909912,-0.049221996217966,-0.4319839477539062,0.1275132149457931,0.1302160769701004,0.0,0.0,0.7486038109435449,0.9226928441994936
-0.0210129730403423,1.230475664138794,-0.0542576424777507,-0.4118153750896454,0.1320869028568267,0.0914825275540351,0.0,0.0,-0.9615157928266744,-0.6281389173682184
-0.0215213783085346,1.220779299736023,-0.0564648136496543,-0.4314565062522888,0.1377031803131103,0.1123355850577354,0.0,0.0,-0.3771993077132418,0.7687565778733391
-0.0219415668398141,1.2106554508209229,-0.0461273416876792,-0.4503397345542907,0.1418117433786392,0.0821785032749176,0.0,0.0,0.5053361220521619,-0.7523910226515473
-0.0223351474851369,1.2008461952209473,-0.0452614054083824,-0.436538964509964,0.1477071046829223,0.1179177016019821,0.0,0.0,-0.9346331072617826,0.6924541693355691
-0.0226430892944335,1.1906065940856934,-0.0351990386843681,-0.4555380940437317,0.1521163284778595,0.0881926640868187,0.0,0.0,0.8573290999211247,0.9041994108858696
-0.0231410972774028,1.1809821128845217,-0.0521460883319377,-0.4279972910881042,0.1544591635465622,0.0468609891831874,0.0,0.0,0.4396081592186183,-0.9974536133099464
-0.0239314083009958,1.1717625856399536,-0.0833271816372871,-0.4102045893669128,0.1587476283311844,0.0857692882418632,0.0,0.0,0.8540278135407269,-0.7956931281655522
-0.0248870849609375,1.163305640220642,-0.1015052944421768,-0.3765080571174621,0.1646927595138549,0.1189025864005088,0.0,0.0,-0.2598123045625988,-0.7241892933527916
-0.0258916858583688,1.1544033288955688,-0.108217179775238,-0.3965385854244232,0.1724557131528854,0.1552591621875763,0.0,0.0,-0.2066975503003505,-0.8590022046395589
-0.0269591324031353,1.1450514793395996,-0.1166245564818382,-0.4168210625648498,0.1823660880327224,0.198207288980484,0.0,0.0,-0.0373722423815336,-0.9080141572749332
-999.0,1.135241150856018,-0.1239676028490066,-0.4375078082084656,0.1942208111286163,0.2370943278074264,0.0,0.0,-0.0615458847476499,0.7444538035974028
-0.029127025976777,1.125022053718567,-0.1149061471223831,-0.45557302236557,0.2045855671167373,0.2072949856519699,0.0,0.0,0.1843869955848325,-0.6285363279203233
-0.0303297042846679,1.114791750907898,-0.1317643672227859,-0.4563094973564148,0.2161788642406463,0.2318663597106933,0.0,0.0,0.3398174942953142,-0.9368677660061288
-0.0318058021366596,1.1050395965576172,-0.1609242856502533,-0.4354346394538879,0.2296569049358368,0.2695609331130981,0.0,0.0,-0.3565007372744935,-0.9810949082749518
-0.0333499908447265,1.0948160886764526,-0.1699122786521911,-0.4568718671798706,0.2453858852386474,0.3145792186260223,0.0,0.0,0.3790143684988722,0.9746158375271868
-0.034919261932373,1.0849565267562866,-0.170492872595787,-0.4405284523963928,0.2592106163501739,0.2764951586723327,0.0,0.0,0.4641548777377422,-0.6644169479297016
-0.0366830825805664,1.0756267309188845,-0.1912955343723297,-0.4173690676689148,0.2744649350643158,0.3050863742828369,0.0,0.0,0.0601440566655615,-0.6036211292635497
-0.0385790839791297,1.066255807876587,-0.2056650817394256,-0.4195936322212219,0.2909766733646393,0.3302339315414428,0.0,0.0,0.0802255267828524,-0.7955847628984384
-0.0406421646475791,1.0571587085723877,-0.2239177972078323,-0.4079327285289764,0.3091663420200348,0.3637936413288116,0.0,0.0,-0.4316562922681097,-0.8364222186821582
-0.0427659973502159,1.0476069450378418,-0.2316750288009643,-0.4287626445293426,0.3292154371738434,0.4009812474250793,0.0,0.0,0.0932714387185922,-0.6449951818371178
-0.0450413711369037,1.0381815433502195,-0.2480209171772003,-0.423717051744461,0.3506591320037842,0.4288736879825592,0.0,0.0,-0.856231877762915,-0.7010814174715808
-0.0473734848201274,1.028298258781433,-0.2551827728748321,-0.4447863399982452,0.3738401532173157,0.463620126247406,0.0,0.0,-0.8160855174064636,0.9908034801483154
-0.0496131889522075,1.0180341005325315,-0.2434968054294586,-0.4614338874816894,0.3946163952350616,0.4155254960060119,0.0,0.0,-0.6590391397476196,0.973663330078125
-0.051764391362667,1.0073795318603516,-0.2323567420244217,-0.4784304499626159,0.4131192862987518,0.3700586855411529,0.0,0.0,-0.6979390382766724,0.9890682697296144
-0.0538290031254291,0.9963451027870178,-0.2214156091213226,-0.4948755204677582,0.4292841255664825,0.3232965767383575,0.0,0.0,-0.4368667602539062,0.988114595413208
-0.0558221824467182,0.9849117398262024,-0.2124552428722381,-0.512229323387146,0.4435952603816986,0.2862226366996765,0.0,0.0,-0.68189936876297,0.9567770957946776
-0.0577378273010253,0.9730872511863708,-0.2027082741260528,-0.5291091799736023,0.4558173418045044,0.244441419839859,0.0,0.0,-0.8077327609062195,0.974158525466919
-0.0595749840140342,0.960878849029541,-0.1928352564573288,-0.5456045269966125,0.4658471047878265,0.2005955725908279,0.0,0.0,-0.3861745595932007,0.9444791078567504
-0.0613611228764057,0.9482848048210144,-0.1862522363662719,-0.562322735786438,0.4742936491966247,0.168931096792221,0.0,0.0,-0.3761281371116638,0.9101852178573608
-0.0631007179617881,0.9353001713752748,-0.1802318692207336,-0.5792626738548279,0.4812776446342468,0.1396803855895996,0.0,0.0,-0.6309922337532043,0.9502518177032472
-0.0647764205932617,0.9219270348548888,-0.1721509099006652,-0.5959621071815491,0.4863750040531158,0.1019477695226669,0.0,0.0,-0.926588237285614,0.9808721542358398
-0.0663696303963661,0.9081841111183168,-0.1616174280643463,-0.6116120219230652,0.4889512360095978,0.0515245907008647,0.0,0.0,-0.8947253823280334,0.9870824813842772
-0.0679051429033279,0.8940598368644714,-0.1541993618011474,-0.6279748678207397,0.4896690547466278,0.014356268569827,0.0,0.0,-0.8356713652610779,0.9654394388198853
-0.0693628340959549,0.8795574307441711,-0.1442929953336715,-0.6440301537513733,0.4880211353302002,-0.0329582802951335,0.0,0.0,-0.834786057472229,0.9795091152191162
-0.0707585364580154,0.8646807074546814,-0.1362495869398117,-0.660014808177948,0.4843116700649261,-0.0741894245147705,0.0,0.0,-0.8547073602676392,0.9928109645843506
-0.0720710754394531,0.8494322896003723,-0.1256079822778701,-0.6757411956787109,0.4780245423316955,-0.1257425844669342,0.0,0.0,-0.9506894946098328,0.980823278427124
-0.0733292549848556,0.8337889313697815,-0.1186045780777931,-0.6928007006645203,0.4700284004211426,-0.159923642873764,0.0,0.0,-0.9682812690734864,0.997376561164856
-0.0745146721601486,0.8177793622016907,-0.1091116443276405,-0.7083797454833984,0.4596150815486908,-0.2082666158676147,0.0,0.0,-0.967954397201538,0.999498963356018
-0.0756205543875694,0.8014025688171387,-0.098769798874855,-0.7240135073661804,0.4466357827186584,-0.2595867812633514,0.0,0.0,-0.9652968049049376,0.9994502067565918
-0.0766561478376388,0.7846580147743225,-0.0895039290189743,-0.7397966384887695,0.4313039481639862,-0.3066366314888,0.0,0.0,-0.9051644206047058,0.99889874458313
-0.077638529241085,0.7675307989120483,-0.0824006125330925,-0.7564442157745361,0.4141474068164825,-0.3431308567523956,0.0,0.0,-0.8268073797225952,0.9986364841461182
-0.0785476714372634,0.7500147223472595,-0.0728622078895568,-0.77333003282547,0.3947544395923614,-0.387859582901001,0.0,0.0,-0.5694164037704468,0.9957752227783204
-0.0794053077697753,0.7321094870567322,-0.0659437552094459,-0.7904312610626221,0.3736349940299988,-0.4223889708518982,0.0,0.0,-0.6643860340118408,0.9530246257781982
-0.0801860839128494,0.7138208150863647,-0.0558313652873039,-0.8071877360343933,0.3501456677913666,-0.4697864055633545,0.0,0.0,-0.7353421449661255,0.194608449935913
-0.0809746757149696,0.6951026916503906,-0.0564057417213916,-0.8266304135322571,0.3266443014144897,-0.4700275063514709,0.0,0.0,-0.1846746802330017,0.3553113937377929
-0.0817708969116211,0.6759548783302307,-0.0569815449416637,-0.8460734486579895,0.3031270503997803,-0.4703449606895447,0.0,0.0,-0.5092838406562805,0.1956008672714233
-0.0825747475028038,0.6563777327537537,-0.0575535520911216,-0.8655168414115906,0.2795901894569397,-0.4707376956939697,0.0,0.0,0.3715718984603882,-0.1050665974617004
-0.083564855158329,0.6374027132987976,-0.0760878473520279,-0.8391220569610596,0.2561123669147491,-0.4695561826229095,0.0,0.0,-0.4892847537994385,0.6638321876525879
-0.0845034569501876,0.6180135607719421,-0.069254495203495,-0.8576414585113525,0.2310891449451446,-0.5004646182060242,0.0,0.0,0.3082959651947021,-0.1107480525970459
-0.0855829268693924,0.5991902947425842,-0.0832765102386474,-0.8329101800918579,0.206134557723999,-0.4990919232368469,0.0,0.0,-0.1284860968589782,0.6580572128295898
-0.0866258591413497,0.579949676990509,-0.0783417373895645,-0.8517329096794128,0.1800319850444793,-0.5220521688461304,0.0,0.0,-0.5767999887466431,-0.1838808059692382
-0.0876749977469444,0.5602814555168152,-0.0788126289844513,-0.8711882829666138,0.1538924872875213,-0.5227900743484497,0.0,0.0,0.9732620716094972,-0.7481586337089539
-0.0888631790876388,0.5412837862968445,-0.0941606014966964,-0.8419758081436157,0.1293024867773056,-0.4918001294136047,0.0,0.0,-0.8100764751434326,0.2385058403015136
-0.0900565162301063,0.5218576192855835,-0.0945571884512901,-0.8614253997802734,0.1046691238880157,-0.4926674365997314,0.0,0.0,-0.3285969495773315,-0.9270693063735962
-0.0913185104727745,0.5019922852516174,-0.1029459238052368,-0.8814383745193481,0.0816126689314842,-0.461129367351532,0.0,0.0,0.9915099143981934,-0.9254642128944396
-0.0927400588989257,0.48238006234169,-0.1205811500549316,-0.8706166744232178,0.0602677427232265,-0.4268984198570251,0.0,0.0,0.99137282371521,-0.9516212344169616
-0.0941726714372634,0.4629147350788116,-0.1237115636467933,-0.8644504547119141,0.0409320853650569,-0.3867129981517792,0.0,0.0,0.4885077476501465,-0.3872315883636474
-0.0956488624215126,0.4434745907783508,-0.1278538405895233,-0.8635851144790649,0.0214097183197736,-0.3904472887516022,0.0,0.0,0.9917654991149902,-0.3859943151473999
-0.0971573814749717,0.4250367283821106,-0.1309711784124374,-0.8192950487136841,0.0017831225413829,-0.3925319314002991,0.0,0.0,0.9926729202270508,-0.6662557721138
-0.098617747426033,0.4076497256755829,-0.1277173459529876,-0.7728329300880432,-0.0163082871586084,-0.3618281781673431,0.0,0.0,-0.2793123722076416,0.1014336347579956
-0.1000783890485763,0.3898305594921112,-0.1276768147945404,-0.7922604084014893,-0.0344619527459144,-0.3630735278129577,0.0,0.0,0.8512933254241943,-0.1656113862991333
-0.1016704589128494,0.372143417596817,-0.1400828957557678,-0.7866418361663818,-0.0533506162464618,-0.3777733445167541,0.0,0.0,0.9946637153625488,-0.8296453952789307
-0.1032220870256424,0.3554621636867523,-0.1377902328968048,-0.742099940776825,-0.0705387964844703,-0.3437638580799103,0.0,0.0,-0.3495138883590698,0.1015458106994628
-0.1047711372375488,0.338348388671875,-0.1374821811914444,-0.7615249752998352,-0.087795615196228,-0.3451363742351532,0.0,0.0,0.9507949352264404,-0.8116104006767273
-0.1063805595040321,0.3220188021659851,-0.14493989944458,-0.7267737984657288,-0.1036569103598594,-0.317225843667984,0.0,0.0,0.0402350425720214,-0.7467073202133179
-0.1080067604780197,0.305927038192749,-0.1480810940265655,-0.7162612676620483,-0.1181055605411529,-0.2889728546142578,0.0,0.0,0.9431490898132324,-0.2968676686286926
-0.1094449013471603,0.2904027700424194,-0.1296885907649994,-0.6911463141441345,-0.1321543008089065,-0.2809751629829407,0.0,0.0,0.8957078456878662,-0.4354023337364197
-0.1107974052429199,0.2750234305858612,-0.1212090104818344,-0.6848350763320923,-0.146153450012207,-0.2799829542636871,0.0,0.0,0.9719784259796144,-0.5772964954376221
-0.1120010390877723,0.2599031925201416,-0.1077560633420944,-0.6732941269874573,-0.1587439775466919,-0.251810610294342,0.0,0.0,0.9881248474121094,-0.565668523311615
-0.1129454597830772,0.2453322261571884,-0.0834494829177856,-0.6488103270530701,-0.1697396785020828,-0.2199141532182693,0.0,0.0,0.9913694858551024,-0.7503859996795654
-0.1136791259050369,0.2309923470020294,-0.064244195818901,-0.6383963823318481,-0.1788875609636306,-0.1829573959112167,0.0,0.0,0.9861011505126952,-0.9244334697723388
-0.11431884765625,0.2175783067941665,-0.0566234700381755,-0.5970863103866577,-0.186274379491806,-0.1477360427379608,0.0,0.0,0.9844801425933838,-0.889819324016571
-0.1148052215576171,0.2050862908363342,-0.0430603548884391,-0.5559079647064209,-0.1918753832578659,-0.1120202168822288,0.0,0.0,0.9877088069915771,-0.9420146346092224
-0.1150346770882606,0.1933176070451736,-0.0194775480777025,-0.5235078930854797,-0.1953667402267456,-0.069827064871788,0.0,0.0,0.9622764587402344,-0.8309955596923828
-0.1151106804609298,0.1816556602716446,-0.0059675714001059,-0.5185239911079407,-0.1970079094171524,-0.0328233800828456,0.0,0.0,0.9829375743865968,-0.9664616584777832
-0.1151937469840049,0.1704966574907302,-0.0083915088325738,-0.4959415793418884,-0.1969205737113952,0.001746668247506,0.0,0.0,0.97289776802063,-0.8336189389228821
-0.1150118857622146,0.160413771867752,0.0162871181964874,-0.4478785693645477,-0.1950098872184753,0.0382137335836887,0.0,0.0,0.8989529609680176,-0.8561463356018066
-0.1147787123918533,0.1508852839469909,0.0198551472276449,-0.4230386018753052,-0.1915288269519806,0.0696212723851203,0.0,0.0,0.799872636795044,-0.8580242395401001
-0.1145715713500976,0.1422666609287262,0.0158861111849546,-0.3824348151683807,-0.1866836994886398,0.0969025865197181,0.0,0.0,0.6361749172210693,-0.8830978870391846
-0.1141868606209755,0.1342279016971588,0.0318307168781757,-0.3564589321613312,-0.1800151914358139,0.1333703994750976,0.0,0.0,0.2887177467346191,-0.3487365245819092
-0.1137141212821006,0.1266282349824905,0.0409041121602058,-0.3370037972927093,-0.1736352443695068,0.1275986731052398,0.0,0.0,-0.0112257599830627,-0.4847340583801269
-0.1132158264517784,0.1185929179191589,0.0435638017952442,-0.3564084470272064,-0.1673520356416702,0.1256643235683441,0.0,0.0,0.7997616529464722,0.2682902812957763
-0.1126266494393348,0.1109308078885078,0.0528657063841819,-0.3398669958114624,-0.1612921953201294,0.1211965903639793,0.0,0.0,0.432988166809082,-0.7634059190750122
-0.112095832824707,0.1036478579044342,0.0457620285451412,-0.3229124248027801,-0.1539746969938278,0.1463497430086136,0.0,0.0,0.1142847537994384,0.4811635017395019
-0.1115808486938476,0.0964762046933174,0.0447343438863754,-0.318058043718338,-0.1472271531820297,0.1349512189626693,0.0,0.0,0.3940539360046386,-0.183353304862976
-0.1108569130301475,0.0897488668560981,0.065321460366249,-0.2983096539974212,-0.1401680558919906,0.1411817520856857,0.0,0.0,0.2090964317321777,-0.0042762160301208
-0.1100175827741622,0.0829776152968406,0.0767450854182243,-0.300288051366806,-0.1330043077468872,0.1432745456695556,0.0,0.0,0.4440208673477173,-0.1417733430862426
-0.1089295372366905,0.0767369344830513,0.101128913462162,-0.2766999304294586,-0.1253584772348404,0.1529165208339691,0.0,0.0,0.172147512435913,0.3165936470031738
-0.1077526062726974,0.070882998406887,0.1101882830262184,-0.2595604658126831,-0.1178930774331092,0.1493078768253326,0.0,0.0,0.0666921138763427,-0.0913202166557312
-0.1063816994428634,0.065399132668972,0.1292536407709121,-0.2431297153234481,-0.1101081520318985,0.1556983143091201,0.0,0.0,-0.3161488771438598,-0.6738232374191284
-0.105018138885498,0.0594875440001487,0.1274440586566925,-0.2621049582958221,-0.1012568697333335,0.1770252883434295,0.0,0.0,0.3763036727905273,-0.0554265975952148
-0.103551484644413,0.0541565269231796,0.1378916203975677,-0.2363621443510055,-0.0925421267747879,0.1742950677871704,0.0,0.0,0.1697396039962768,-0.3411185145378113
-0.1019486412405967,0.0492170415818691,0.1514016687870025,-0.2190063893795013,-0.0837385207414627,0.1760719716548919,0.0,0.0,0.256413459777832,0.0153120756149292
-0.1002123802900314,0.0443557351827621,0.1645545065402984,-0.2155763655900955,-0.0747623369097709,0.1795233190059662,0.0,0.0,0.2944388389587402,-0.6316308379173279
-0.0985510796308517,0.0398024171590805,0.1560955345630645,-0.2018994987010955,-0.0648275166749954,0.1986966282129287,0.0,0.0,0.4055700302124023,-0.8327286243438721
-0.0970044136047363,0.0354858487844467,0.1432070434093475,-0.1913881003856659,-0.0534998998045921,0.2265521585941314,0.0,0.0,0.5681853294372559,-0.309548020362854
-0.0954026207327842,0.0315377078950405,0.1489320546388626,-0.17510886490345,-0.0423806197941303,0.2223859280347824,0.0,0.0,0.4548028707504272,-0.8271660208702087
-0.0937724113464355,0.0278600081801414,0.1501766294240951,-0.1631396114826202,-0.0296958163380622,0.2536959648132324,0.0,0.0,0.3946374654769897,-0.7601941823959351
-0.0920207947492599,0.0241936780512332,0.16071218252182,-0.1627249270677566,-0.0154333896934986,0.2852485477924347,0.0,0.0,0.6323138475418091,-0.7583107352256775
-0.0901621803641319,0.0211094245314598,0.1697980612516403,-0.1369887739419937,0.0004219864786136,0.3171076774597168,0.0,0.0,0.3827626705169678,-0.1311336755752563
-0.0882311835885047,0.0186048131436109,0.1770553141832351,-0.1114013195037841,0.0162570010870695,0.3167001903057098,0.0,0.0,0.092775821685791,-0.4779031276702881
-0.0862087234854698,0.0159773211926221,0.1861287504434585,-0.1170239672064781,0.032168660312891,0.3182334899902344,0.0,0.0,-0.0992307662963867,-0.4771021008491516
