x_pos,y_pos,x_vel,y_vel,angle,ang_vel,leg_1,leg_2,main_booster,lat_booster
-0.0015212058788165,1.40340256690979,-0.1538572609424591,-0.334117591381073,0.0015522937756031,0.030604962259531,0.0,0.0,-0.1306342699029101,0.672596618415664
-0.0029846192337572,1.39568293094635,-0.1461846530437469,-0.3430953919887543,0.0014022757532075,-0.0030000512488186,0.0,0.0,0.9056342152921923,0.7861666665431762
-0.0042201997712254,1.3884345293045044,-0.1220163702964782,-0.3221515417098999,-0.0001249567576451,-0.0305473003536462,0.0,0.0,0.8467842762524718,0.9256697058083502
-0.0055334093049168,1.3817988634109497,-0.1274177730083465,-0.2949288487434387,-0.0039797932840883,-0.0771042853593826,0.0,0.0,0.2088013755938815,0.912760111780057
-0.0066677094437181,1.375658631324768,-0.1075514182448387,-0.2729193568229675,-0.0097923465073108,-0.1162619814276695,0.0,0.0,-0.9690514495065712,-0.6297497076932608
-0.0078466413542628,1.3692964315414429,-0.1127602458000183,-0.2828002572059631,-0.0148606123402714,-0.1013745218515396,0.0,0.0,0.5959954876778522,-0.7298726919464613
-0.0091065410524606,1.3635512590408323,-0.1220621243119239,-0.2553857266902923,-0.0187537763267755,-0.0778706446290016,0.0,0.0,0.2811391825257938,0.8778356810341026
-0.0101648326963186,1.358333706855774,-0.1000286340713501,-0.231980875134468,-0.0244827549904584,-0.1145899146795272,0.0,0.0,-0.2126319504971026,-0.7643116857574508
-0.0112955095246434,1.3529049158096311,-0.1086260080337524,-0.2413589060306549,-0.028884632512927,-0.088045597076416,0.0,0.0,-0.8636874009527622,-0.9109157335347976
-0.0125109674409031,1.3472633361816406,-0.1186995953321456,-0.2507992386817932,-0.0316982455551624,-0.0562772825360298,0.0,0.0,-0.7256332668921481,-0.7445941130059459
-0.0137911792844533,1.3414026498794556,-0.1262369453907013,-0.2605109512805938,-0.0334659591317176,-0.0353574939072132,0.0,0.0,-0.6591360457858322,0.743615414318541
-0.0150219919160008,1.335315465927124,-0.119412288069725,-0.2706304788589477,-0.0370996333658695,-0.0726801082491874,0.0,0.0,-0.5133370532470303,-0.9257120200085948
-0.0163272861391305,1.3290144205093384,-0.1280911266803741,-0.2801119387149811,-0.0395102724432945,-0.0482166521251201,0.0,0.0,-0.4246617816116003,-0.8200011031874339
-0.0177087783813476,1.3224871158599854,-0.1369447708129882,-0.290131539106369,-0.0407000854611396,-0.0237988121807575,0.0,0.0,-0.8205137392807591,0.9666293770731392
-0.0190159790217876,1.3157423734664917,-0.1269074976444244,-0.2998758256435394,-0.0444729663431644,-0.0754647776484489,0.0,0.0,0.3826575430218262,-0.9754850457204808
-0.0203048698604106,1.3091351985931396,-0.1268946975469589,-0.2937105000019073,-0.0464471280574798,-0.0394866727292537,0.0,0.0,-0.5586893030561322,0.8472237265274257
-0.0215336792171001,1.302310347557068,-0.118583045899868,-0.3034631311893463,-0.050704188644886,-0.0851488336920738,0.0,0.0,-0.7631997177246277,-0.7814699031272142
-0.0228330604732036,1.2952607870101929,-0.1266232430934906,-0.3134270310401916,-0.0539911203086376,-0.065744437277317,0.0,0.0,0.8715942974986148,0.900723794372038
-0.0239150039851665,1.2893447875976562,-0.1030831933021545,-0.2631326615810394,-0.0590555481612682,-0.1012975201010704,0.0,0.0,-0.0600719459184935,0.8544805371545557
-0.0249637607485055,1.2832014560699463,-0.0980657488107681,-0.273321658372879,-0.0658047720789909,-0.1349968463182449,0.0,0.0,0.2621897689609576,-0.7427973712310918
-0.0259493831545114,1.2776968479156494,-0.093173548579216,-0.2448895275592804,-0.0711467191576957,-0.1068486720323562,0.0,0.0,0.4426919790540422,-0.737388322312424
-0.0269814487546682,1.2725496292114258,-0.0990971773862838,-0.2289661765098571,-0.0752178952097892,-0.081430897116661,0.0,0.0,0.5005844960699726,-0.9487450579162432
-0.0279451366513967,1.2679123878479004,-0.0940933674573898,-0.2062140256166458,-0.0774728134274482,-0.0451018288731575,0.0,0.0,0.9012084240676372,-0.9227370115921278
-0.0288941375911235,1.2635785341262815,-0.0944193750619888,-0.1926430910825729,-0.0779465287923812,-0.0094755692407488,0.0,0.0,0.7739054589356595,-0.8400933410196503
-0.0300520900636911,1.260085940361023,-0.1164834275841713,-0.1551923900842666,-0.0772716253995895,0.0134992403909564,0.0,0.0,0.4899678111304697,0.748979823112733
-0.0312779434025287,1.25731360912323,-0.1212949007749557,-0.1232782751321792,-0.0785456597805023,-0.0254807583987712,0.0,0.0,0.806012446220844,-0.8579103441728779
-0.032534409314394,0.0,-0.1258825957775116,-0.0797086283564567,-0.078312337398529,0.0046664783731102,0.0,0.0,0.1489176742749016,-0.7374189929004757
-0.033937644213438,1.2543892860412598,-0.1417282521724701,-0.0501758605241775,-0.0769207999110221,0.0278307888656854,0.0,0.0,-0.430712816627337,0.9771413739598586
-0.035311222076416,1.2530380487442017,-0.137013629078865,-0.0600746199488639,-0.077262133359909,-0.0068266792222857,0.0,0.0,-0.7707878441408929,0.6346213418952511
-0.0366682037711143,1.2514569759368896,-0.1339097321033477,-0.0703604221343994,-0.0790343284606933,-0.0354439541697502,0.0,0.0,-0.2811288204201803,-0.8016681152267818
-0.0381179824471473,1.2496705055236816,-0.1445387750864029,-0.0794210880994796,-0.0794668272137641,-0.0086497841402888,0.0,0.0,-0.7537772501997633,0.8047888994063912
-0.0395450592041015,1.2476511001586914,-0.1406503468751907,-0.0898643806576728,-0.0815062299370765,-0.0407878383994102,0.0,0.0,-0.8870360887998989,-0.609396403325889
-0.0410591140389442,1.24542236328125,-0.1505351811647415,-0.0991047099232673,-0.0823728516697883,-0.0173324570059776,0.0,0.0,0.0419466761953581,0.6002262329605782
-0.0425855629146099,1.2433061599731443,-0.1502889096736908,-0.094182588160038,-0.0847050473093986,-0.0466442592442035,0.0,0.0,-0.4453089388286526,0.8048529443166089
-0.0440799705684185,1.240961670875549,-0.1452178806066513,-0.1044386997818946,-0.0888920798897743,-0.0837404578924179,0.0,0.0,-0.1323398277215328,-0.6987999752704502
-0.0456609725952148,1.238408088684082,-0.1550332605838775,-0.1136771515011787,-0.0919350907206535,-0.060860238969326,0.0,0.0,0.6300413087762187,0.820302189464991
-0.0471987724304199,1.2362949848175049,-0.1488000601530075,-0.0942355692386627,-0.0968704894185066,-0.0987081453204155,0.0,0.0,-0.1385134471817057,0.9213603240079498
-0.0486928932368755,1.233956217765808,-0.1422617882490158,-0.1044182553887367,-0.1039634570479393,-0.1418592482805252,0.0,0.0,0.5703600636806372,-0.7553712668433104
-0.0502378456294536,1.232615351676941,-0.1485935449600219,-0.0600148439407348,-0.1098282933235168,-0.1172965764999389,0.0,0.0,-0.1827601978197497,0.9245021290779512
-0.0517410263419151,1.2310421466827393,-0.1422593593597412,-0.0705354437232017,-0.1178297102451324,-0.1600282937288284,0.0,0.0,0.8250852088074849,-0.9365761941459988
-0.0533804893493652,1.2305731773376465,-0.157367005944252,-0.0213764980435371,-0.1243785172700882,-0.1309763491153717,0.0,0.0,-0.98771995306015,-0.5822750329971313
-0.055091094225645,1.229888677597046,-0.1651998311281204,-0.0309256557375192,-0.1302087604999542,-0.1166047826409339,0.0,0.0,-0.9933472275733948,-0.2805821895599365
-0.0568364150822162,1.228982925415039,-0.1684741228818893,-0.0407962463796138,-0.1362435221672058,-0.1206951141357421,0.0,0.0,-0.9823856949806212,-0.487251877784729
-0.0586165413260459,1.2278560400009155,-0.1717611849308014,-0.0506671294569969,-0.1424821466207504,-0.1247725933790206,0.0,0.0,-0.9890864491462708,-0.5505418181419373
-0.0604784004390239,1.2265114784240725,-0.1808982938528061,-0.0602730996906757,-0.1477524042129516,-0.105405293405056,0.0,0.0,-0.9868446588516236,-0.5231174826622009
-0.0624136924743652,1.2249490022659302,-0.1890054494142532,-0.0699070319533348,-0.1522615551948547,-0.090183213353157,0.0,0.0,-0.9792649745941162,-0.1697215437889099
-0.064384177327156,1.2231650352478027,-0.1923234462738037,-0.0797768160700798,-0.1569723635911941,-0.0942162498831749,0.0,0.0,-0.9781831502914428,-0.4639931917190552
-0.0663897544145584,1.221159815788269,-0.1956498473882675,-0.0896468311548233,-0.1618839502334594,-0.098232015967369,0.0,0.0,-0.9809711575508118,-0.1270353198051452
-0.0684306174516677,1.2189332246780396,-0.198983758687973,-0.0995170772075653,-0.1669954061508178,-0.1022292524576187,0.0,0.0,-0.9882839322090148,-0.2019347548484802
-0.0705068558454513,1.2164857387542725,-0.202324241399765,-0.1093875467777252,-0.1723057329654693,-0.1062064543366432,0.0,0.0,-0.998278558254242,-0.1939812302589416
-0.0726184844970703,1.2138170003890991,-0.2056704759597778,-0.1192582622170448,-0.1778138279914856,-0.110162004828453,0.0,0.0,-0.9814977049827576,0.3539050817489624
-0.0747656822204589,1.2109272480010986,-0.2090217322111129,-0.1291292309761047,-0.1835185289382934,-0.1140942573547363,0.0,0.0,-0.985454797744751,-0.0731874704360961
-0.0769481658935546,1.2078163623809814,-0.2123772203922271,-0.1390004158020019,-0.189418613910675,-0.1180013194680213,0.0,0.0,-0.9327399134635924,-0.2761402130126953
-0.0791661292314529,1.2044843435287476,-0.2157362252473831,-0.1488718539476394,-0.1955126523971557,-0.1218811497092247,0.0,0.0,-0.9925116300582886,-0.5255377292633057
-0.0814504623413086,1.2009384632110596,-0.2229766845703125,-0.1583212018013,-0.2010063081979751,-0.1098730564117431,0.0,0.0,-0.9491597414016724,0.2384241819381714
-0.0837702751159668,1.197171688079834,-0.2263403832912445,-0.1681924164295196,-0.2066908776760101,-0.1136917844414711,0.0,0.0,-0.9199817180633544,-0.1346374154090881
-0.0861255675554275,1.1931838989257812,-0.2297055721282959,-0.1780638694763183,-0.2125646919012069,-0.1174760833382606,0.0,0.0,-0.9161996245384216,-0.1349729299545288
-0.0885162353515625,1.1889748573303225,-0.2330715358257293,-0.1879355460405349,-0.218625858426094,-0.1212231740355491,0.0,0.0,-0.9959090352058412,0.1167309284210205
-0.0909422859549522,1.1845451593399048,-0.2364376485347747,-0.1978074610233307,-0.2248723655939102,-0.1249301806092262,0.0,0.0,-0.9977560639381408,0.0437160730361938
-0.0934037193655967,1.1798945665359497,-0.2398033142089843,-0.2076795995235443,-0.2313020378351211,-0.1285938024520874,0.0,0.0,-0.9700726866722108,-0.2466914653778076
-0.0959005355834961,1.1750229597091677,-0.2431678771972656,-0.217551976442337,-0.2379125654697418,-0.1322106122970581,0.0,0.0,-0.9859431385993958,-0.2640610933303833
-0.0984327346086502,1.1699304580688477,-0.246530681848526,-0.2274245917797088,-0.2447014153003692,-0.1357769668102264,0.0,0.0,-0.9111876487731934,-0.3808291554450989
-0.1010000258684158,1.1646173000335691,-0.2498911172151565,-0.2372974455356598,-0.251665860414505,-0.1392888724803924,0.0,0.0,-0.7857751250267029,-0.4009798765182495
-0.1036024093627929,1.1590832471847534,-0.2532485425472259,-0.2471705079078674,-0.258802980184555,-0.1427422165870666,0.0,0.0,-0.9410749077796936,-0.0882441997528076
-0.1062399893999099,1.1533286571502686,-0.2566022276878357,-0.2570438086986542,-0.2661096155643463,-0.1461324542760849,0.0,0.0,-0.8534479737281799,-0.4082516431808471
-0.1089124679565429,1.1473532915115356,-0.2599515616893768,-0.26691734790802,-0.2735823690891266,-0.1494549512863159,0.0,0.0,-0.7125087976455688,-0.1787703037261963
-0.1116198524832725,1.1411575078964231,-0.263295829296112,-0.2767910957336426,-0.2812176048755646,-0.1527047455310821,0.0,0.0,-0.8992069959640503,-0.200950026512146
-0.1143620461225509,1.1347405910491943,-0.2666342854499817,-0.2866650223731994,-0.2890114486217499,-0.1558766216039657,0.0,0.0,-0.8625971674919128,-0.0941983461380004
-0.1171387657523155,1.1281033754348757,-0.2699662446975708,-0.2965391278266907,-0.2969596683979034,-0.158964991569519,0.0,0.0,-0.6967689394950867,-0.4682778120040893
-0.1199500113725662,1.121245503425598,-0.2732909023761749,-0.3064133822917938,-0.3050578832626343,-0.1619642972946167,0.0,0.0,-0.8465061187744141,-0.7627902030944824
-0.1228610053658485,1.1142011880874634,-0.2848747968673706,-0.3144039809703827,-0.3115082085132599,-0.1290066540241241,0.0,0.0,-0.572535514831543,0.0165127515792846
-0.1258063316345214,1.1069360971450806,-0.2881812751293182,-0.3242764472961426,-0.3180986940860748,-0.1318099647760391,0.0,0.0,-0.2860758304595947,0.1299623250961303
-0.1287858039140701,1.0994501113891602,-0.2914778292179107,-0.3341489732265472,-0.3248239755630493,-0.1345056593418121,0.0,0.0,-0.8138383626937866,-0.5023235082626343
-0.1318321228027343,1.0917596817016602,-0.2989163994789123,-0.3430892825126648,-0.3307777345180511,-0.1190752014517784,0.0,0.0,-0.5158163905143738,-0.3809120655059814
-0.1349122077226638,1.0838483572006226,-0.3021897673606872,-0.3529609739780426,-0.3368545770645141,-0.1215365678071975,0.0,0.0,-0.7222134470939636,0.1054002046585083
-0.1380258500576019,1.0757158994674685,-0.3054501414299011,-0.362832635641098,-0.3430481255054474,-0.1238709688186645,0.0,0.0,0.3747223615646362,-0.1174464225769043
-0.141102597117424,1.067774772644043,-0.3015558123588562,-0.3544106483459472,-0.3494733870029449,-0.1285045146942138,0.0,0.0,-0.6594440937042236,-0.3749065399169922
-0.1442125290632248,1.0596126317977903,-0.3047869801521301,-0.3642824292182922,-0.3560016751289367,-0.1305658370256424,0.0,0.0,-0.4812078475952148,-0.3258798122406006
-0.1473552733659744,1.05122971534729,-0.308001697063446,-0.3741540908813476,-0.3626257479190826,-0.1324813365936279,0.0,0.0,-0.6268031001091003,0.4308485984802246
-0.1505308151245117,1.0426255464553833,-0.3111986517906189,-0.3840256929397583,-0.3693380057811737,-0.1342451125383377,0.0,0.0,-0.476967453956604,-0.074845016002655
-0.1537386924028396,1.033800482749939,-0.3143764138221741,-0.393897145986557,-0.3761305809020996,-0.1358515918254852,0.0,0.0,-0.2000296115875244,0.097629427909851
-0.1569786965847015,1.024754285812378,-0.3175335228443146,-0.4037684798240661,-0.3829953670501709,-0.1372955739498138,0.0,0.0,-0.121683120727539,0.2979514598846435
-0.1602503806352615,1.0154870748519895,-0.3206684291362762,-0.4136396646499634,-0.3899239599704742,-0.1385722905397415,0.0,0.0,0.1438308954238891,0.3680248260498047
-0.1634102761745453,1.0066715478897097,-0.309285819530487,-0.3936575651168823,-0.3970834016799927,-0.1431887298822403,0.0,0.0,-0.465754747390747,-0.2868533730506897
-0.1666012704372406,0.9976348280906676,-0.3123713433742523,-0.4035285711288452,-0.4042893350124359,-0.1441189050674438,0.0,0.0,-0.0247749090194702,0.3713464736938476
-0.1698228865861892,0.988377034664154,-0.3154293894767761,-0.4133993685245514,-0.4115328788757324,-0.1448709964752197,0.0,0.0,-0.31556236743927,-0.1895655393600464
-0.1730749160051345,0.9788978695869446,-0.3184580206871032,-0.4232698976993561,-0.4188050031661987,-0.1454427540302276,0.0,0.0,-0.0780189037322998,-0.0881339907646179
-0.1763567924499511,0.969197690486908,-0.321455180644989,-0.4331401586532593,-0.4260966181755066,-0.1458325535058975,0.0,0.0,-0.137955904006958,-0.1534584164619445
-0.1796682327985763,0.9592762589454652,-0.3244187533855438,-0.4430101215839386,-0.4333986043930053,-0.1460395157337188,0.0,0.0,0.1820660829544067,0.4753607511520386
-0.1827997267246246,0.9494547843933104,-0.3068675696849823,-0.4384689331054687,-0.4402404129505157,-0.1368361264467239,0.0,0.0,0.8675805330276489,-0.3671011328697204
-0.1856036186218261,0.9405683279037476,-0.2741158902645111,-0.396947830915451,-0.4471039772033691,-0.1372711956501007,0.0,0.0,0.7983696460723877,-0.4250342845916748
-0.1880483627319336,0.9325551390647888,-0.2383677512407302,-0.3581071496009826,-0.453794777393341,-0.1338162124156952,0.0,0.0,0.8444838523864746,0.0838056802749633
-0.1900691986083984,0.9252329468727112,-0.1966116577386856,-0.3272250592708587,-0.4598165154457092,-0.1204349994659423,0.0,0.0,0.99359393119812,-0.6483879089355469
-0.1918733566999435,0.9181593656539916,-0.1765033453702926,-0.3156757652759552,-0.4641211330890655,-0.0860926285386085,0.0,0.0,0.9971885681152344,0.2365831136703491
-0.1934852600097656,0.9117321968078612,-0.1570678502321243,-0.2870366275310516,-0.4686762690544128,-0.0911026149988174,0.0,0.0,0.9801905155181884,-0.8928593397140503
-0.194615751504898,0.9064480662345886,-0.1108718141913414,-0.2355870753526687,-0.4710865616798401,-0.0482064858078956,0.0,0.0,0.9544576406478882,-0.9361889958381652
-0.1955585479736328,0.901911735534668,-0.0938826352357864,-0.2017472386360168,-0.4715259075164795,-0.0087870880961418,0.0,0.0,0.924119472503662,-0.9818800091743468
-0.196314051747322,0.8985609412193298,-0.0768696963787078,-0.148480474948883,-0.4700700640678406,0.029117738828063,0.0,0.0,0.8845659494400024,-0.9087570905685424
-0.196697324514389,0.896030068397522,-0.0416115000844001,-0.1113735362887382,-0.4664427638053894,0.0725461617112159,0.0,0.0,0.2411212921142578,-0.8926277160644531
-0.1969523429870605,0.8941163420677185,-0.0305463038384914,-0.0833733156323432,-0.4608727395534515,0.1114006042480468,0.0,0.0,0.3916805982589721,-0.8189069032669067
-0.1970752775669098,0.8929283022880554,-0.0189178977161645,-0.0506266318261623,-0.4535772502422333,0.1459095925092697,0.0,0.0,-0.6104943156242371,-0.8371975421905518
-0.1972820311784744,0.8915608525276184,-0.0290758367627859,-0.0580723546445369,-0.4443669617176056,0.1842053234577179,0.0,0.0,0.3187363147735595,-0.7535514831542969
-0.1974505484104156,0.8907282948493958,-0.0267194174230098,-0.0339094288647174,-0.4336064755916595,0.2152093350887298,0.0,0.0,0.0599567890167236,-0.368599534034729
-0.1975853890180587,0.8901926875114441,-0.0230911336839199,-0.0208743978291749,-0.4231826663017273,0.2084763795137405,0.0,0.0,0.0071368217468261,-0.493881344795227
-0.1975005120038986,0.889995276927948,-0.0015489717479795,-0.0058014602400362,-0.4123443365097046,0.2167667597532272,0.0,0.0,-0.5623639822006226,-0.2297028303146362
-0.1974338591098785,0.8895767331123352,-0.0035279002040624,-0.0156719218939542,-0.4013846218585968,0.2191945612430572,0.0,0.0,-0.1948314309120178,-0.1127370595932006
-0.1973844468593597,0.8889369964599609,-0.0054218508303165,-0.0255425591021776,-0.3902982473373413,0.2217272222042083,0.0,0.0,0.1171100139617919,-0.6085835695266724
-0.1972105056047439,0.8888458609580994,0.0056950692087411,-0.0008887218427844,-0.3778412044048309,0.2491407841444015,0.0,0.0,-0.6129856705665588,0.2258399724960327
-0.1970519125461578,0.8885340094566345,0.0039778682403266,-0.0107621122151613,-0.3652480244636535,0.2518634498119354,0.0,0.0,-0.7155956625938416,0.3418672084808349
-0.1969075202941894,0.8880016207695007,0.0023535618092864,-0.0206358339637517,-0.3525144457817077,0.2546721696853637,0.0,0.0,-0.3881075382232666,0.7890900373458862
-0.1967172622680664,0.8872239589691162,0.0082768285647034,-0.0319633856415748,-0.3412264585494995,0.2257600277662277,0.0,0.0,-0.5467545390129089,0.2119296789169311
-0.1965393126010894,0.8862253427505493,0.0068466202355921,-0.041834820061922,-0.3297902643680572,0.2287240028381347,0.0,0.0,-0.6640573143959045,0.5592941045761108
-0.1963264495134353,0.8849787712097168,0.011417250148952,-0.0531843341886997,-0.3195015490055084,0.2057745456695556,0.0,0.0,0.0936977863311767,0.0530225038528442
-0.1960721909999847,0.884131908416748,0.01571836322546,-0.0355317927896976,-0.3094325363636017,0.2013801783323288,0.0,0.0,-0.6994346380233765,0.2519323825836181
-0.1958274841308593,0.8830637335777283,0.0145914014428853,-0.0454013906419277,-0.2992057800292969,0.2045352458953857,0.0,0.0,-0.7527514100074768,0.0491999387741088
-0.1955910623073578,0.8817746043205261,0.0135675370693206,-0.0552713312208652,-0.2888186275959015,0.2077437341213226,0.0,0.0,-0.5259656310081482,0.4813582897186279
-0.1953620016574859,0.8802638053894043,0.01264757104218,-0.0651416406035423,-0.2782685756683349,0.2110010832548141,0.0,0.0,-0.5549096465110779,0.8086780309677124
-0.1950661689043045,0.8784928321838379,0.0210978984832763,-0.0771183297038078,-0.2695564329624176,0.1742431223392486,0.0,0.0,-0.6358897089958191,0.711868405342102
-0.1947120726108551,0.8764771223068237,0.0283643044531345,-0.0883091241121292,-0.2623497545719147,0.1441329270601272,0.0,0.0,-0.070246934890747,0.5792444944381714
-0.1943153440952301,0.8742262125015259,0.0336445495486259,-0.0989726707339286,-0.2561902403831482,0.1231900453567504,0.0,0.0,-0.2041796445846557,0.8243961334228516
