x_pos,y_pos,x_vel,y_vel,angle,ang_vel,leg_1,leg_2,main_booster,lat_booster
-0.0015352249611169,1.4031866788864136,-0.156011551618576,-0.3437057733535766,0.0022340374998748,0.0441034585237503,0.0,0.0,-0.1010512113571167,0.4296474456787109
-0.0030818940140306,1.3950388431549072,-0.1573254913091659,-0.3621334433555603,0.0048634298145771,0.0525936894118785,0.0,0.0,0.2865985631942749,0.947911024093628
-0.0044461251236498,1.3869192600250244,-0.1377227008342743,-0.3608756363391876,0.0061510750092566,0.0257551912218332,0.0,0.0,-0.8114848136901855,0.4596225023269653
-0.0058209421113133,1.378361701965332,-0.1392416656017303,-0.3803384006023407,0.0078860912472009,0.0347035564482212,0.0,0.0,-0.7653241157531738,0.9317747354507446
-0.0071172714233398,1.369370698928833,-0.1295720338821411,-0.3996040523052215,0.0078279646113514,-0.0011628412175923,0.0,0.0,0.2547883987426758,0.712888240814209
-0.0082537652924656,1.3605616092681885,-0.1127810329198837,-0.3915103077888489,0.0069802543148398,-0.0169556215405464,0.0,0.0,-0.0636437535285949,0.5825996398925781
-0.0093555450439453,1.3513152599334717,-0.1086448058485984,-0.4109450280666351,0.0054627945646643,-0.0303520075976848,0.0,0.0,0.2296545505523681,0.430766224861145
-0.0103578567504882,1.3423542976379397,-0.0996758788824081,-0.3982581496238708,0.0049136197194457,-0.0109848855063319,0.0,0.0,-0.706351101398468,0.8830747604370117
-0.0113007547333836,1.3329657316207886,-0.0924412682652473,-0.4172649979591369,0.0030848188325762,-0.0365795753896236,0.0,0.0,-0.900791347026825,0.5706691741943359
-0.01220703125,1.323143482208252,-0.0880674421787262,-0.4365479350090027,0.0005603595636785,-0.0504939965903759,0.0,0.0,-0.7207739353179932,0.5765398740768433
-0.0130690578371286,1.3128838539123535,-0.0827565714716911,-0.4559830129146576,-0.0028402172029018,-0.0680180937051773,0.0,0.0,-0.6166025400161743,-0.1079868078231811
-0.0139381410554051,1.3021867275238037,-0.0838995650410652,-0.475439190864563,-0.0058143446221947,-0.0594881772994995,0.0,0.0,0.0256974697113037,-0.6765297651290894
-0.0147721292451024,1.2917062044143677,-0.0822712630033493,-0.4658007323741913,-0.0069325342774391,-0.0223655346781015,0.0,0.0,-0.8673083782196045,-0.1062603592872619
-0.0156122203916311,1.2807879447937012,-0.0832965299487114,-0.4852610826492309,-0.0076332674361765,-0.0140159148722887,0.0,0.0,-0.4534509778022766,-0.0612531304359436
-0.0164576526731252,1.2694318294525146,-0.0842544138431549,-0.5047143697738647,-0.0079196952283382,-0.0057292799465358,0.0,0.0,-0.1867111921310424,0.620452880859375
-0.0172500610351562,1.2576299905776978,-0.0778867155313491,-0.5245318412780762,-0.0092517668381333,-0.026643818244338,0.0,0.0,-0.7885056138038635,-0.949320375919342
-0.018104076385498,1.245402455329895,-0.0859402567148208,-0.5434512495994568,-0.0087249521166086,0.0105374632403254,0.0,0.0,-0.8295304179191589,0.1831394433975219
-0.0189615245908498,1.2327368259429932,-0.0866761952638626,-0.5629065632820129,-0.0077997585758566,0.0185054559260606,0.0,0.0,0.1214997768402099,0.048214316368103
-0.0197512619197368,1.2204501628875732,-0.0806224271655082,-0.5460678339004517,-0.0061720130033791,0.0325579419732093,0.0,0.0,-0.64175945520401,-0.4299170970916748
-0.020542811602354,1.2077256441116333,-0.0811934843659401,-0.5655298233032227,-0.0041566854342818,0.0403102673590183,0.0,0.0,-0.4611706733703613,0.3747463226318359
-0.021335219964385,1.194563388824463,-0.0816769674420356,-0.5849839448928833,-0.0017596494872123,0.0479452982544899,0.0,0.0,-0.1938481330871582,0.3528107404708862
-0.0221278183162212,1.1809635162353516,-0.0820706486701965,-0.6044386029243469,0.0010123912943527,0.0554458312690258,0.0,0.0,-0.6173726916313171,-0.0763353109359741
-0.0229198448359966,1.166926026344299,-0.0823723375797271,-0.623894989490509,0.0041524595580995,0.0628072470426559,0.0,0.0,-0.8067911267280579,0.261992335319519
-0.0237102508544921,1.1524509191513062,-0.0825801268219947,-0.643351674079895,0.0076532228849828,0.0700213685631752,0.0,0.0,-0.8080024719238281,0.5658215284347534
-0.0244640354067087,1.137540340423584,-0.0784014463424682,-0.6627171635627747,0.0106470854952931,0.0598825588822364,0.0,0.0,-0.7779513001441956,0.5794212818145752
-0.0251794811338186,1.1221741437911987,-0.0740406662225723,-0.6829600930213928,0.0131127787753939,0.0493136867880821,0.0,0.0,-0.7736876606941223,0.232812762260437
-0.025890540331602,1.106370449066162,-0.0739481970667839,-0.7024145722389221,0.0159152671694755,0.0560495778918266,0.0,0.0,0.0822176933288574,0.4404881000518799
-0.0266906730830669,1.0909379720687866,-0.082774706184864,-0.6859202980995178,0.0186496265232563,0.0546872094273567,0.0,0.0,-0.4642171859741211,0.5523281097412109
-0.0274504665285348,1.075073480606079,-0.0781979039311409,-0.7051187753677368,0.0208418630063533,0.0438445843756198,0.0,0.0,-0.5452826023101807,-0.1687157154083252
-0.0282033924013376,1.0587713718414309,-0.0778151303529739,-0.7245732545852661,0.0233430247753858,0.050023078918457,0.0,0.0,0.1397584676742553,0.699285626411438
-0.0288921352475881,1.0429178476333618,-0.0703243389725685,-0.7046196460723877,0.0247679315507411,0.0284981075674295,0.0,0.0,-0.4868481159210205,-0.5069027543067932
-0.0296175964176654,1.026622295379639,-0.075432501733303,-0.7242992520332336,0.027619794011116,0.0570371262729167,0.0,0.0,-0.2725919485092163,0.8620409965515137
-0.0302749630063772,1.0098997354507446,-0.0674057304859161,-0.7432584166526794,0.0292687304317951,0.0329788625240325,0.0,0.0,0.4121057987213135,0.1606500148773193
-0.0309857372194528,0.9931995272636414,-0.0727534443140029,-0.7422714233398438,0.0309317577630281,0.0332603156566619,0.0,0.0,0.4332807064056396,0.3542530536651611
-0.0316882133483886,0.976877987384796,-0.0722625032067298,-0.7254397869110107,0.032914463430643,0.0396541506052017,0.0,0.0,-0.65752774477005,0.5448578596115112
-0.0323349945247173,0.9601252675056458,-0.0657931044697761,-0.7445906400680542,0.0340226255357265,0.0221629478037357,0.0,0.0,0.1995394229888916,-0.2173917889595031
-0.0329998023808002,0.9434296488761902,-0.0677477568387985,-0.7420604825019836,0.0352726951241493,0.0250014308840036,0.0,0.0,-0.8179276585578918,0.5463322401046753
-0.0336060523986816,0.926302969455719,-0.0609368905425071,-0.7611924409866333,0.0355841740965843,0.006229372229427,0.0,0.0,0.2145521640777588,0.2381757497787475
-0.0342498794198036,0.9096657037734984,-0.0647691413760185,-0.7394427061080933,0.0359661877155303,0.0076402253471314,0.0,0.0,0.1349978446960449,-0.2386077642440796
-0.0348754897713661,0.8932179808616638,-0.0632302090525627,-0.7310304045677185,0.036629132926464,0.0132589740678668,0.0,0.0,-0.249114990234375,0.7214605808258057
-0.0354399681091308,0.8763412237167358,-0.0561040043830871,-0.7500705122947693,0.0362882018089294,-0.0068187341094017,0.0,0.0,-0.0870059132575988,-0.64927738904953
-0.0360304825007915,0.8590230345726013,-0.0599142983555793,-0.7697137594223022,0.0371382124722003,0.0170001909136772,0.0,0.0,0.7244020700454712,0.7993088960647583
-0.036443043500185,0.8417587280273438,-0.0408749878406524,-0.7672857642173767,0.0367619208991527,-0.0075258836150169,0.0,0.0,0.5084617137908936,-0.1630944013595581
-0.0367671959102153,0.8247854113578796,-0.0326006077229976,-0.7543728947639465,0.0369408726692199,0.003578906878829,0.0,0.0,-0.2575522661209106,0.8660457134246826
-0.0370114333927631,0.8073678016662598,-0.0231030695140361,-0.7740855813026428,0.0356364473700523,-0.026088535785675,0.0,0.0,0.0472139120101928,-0.3706691265106201
-0.0372179970145225,0.7898315787315369,-0.0195811130106449,-0.7793623208999634,0.0345742255449295,-0.0212444812059402,0.0,0.0,0.0810518264770507,0.4272046089172363
-0.0373784080147743,0.7722980976104736,-0.0152462199330329,-0.7792457342147827,0.0337898395955562,-0.0156879499554634,0.0,0.0,0.4386016130447387,0.521540641784668
-0.0376111045479774,0.7554177641868591,-0.021242406219244,-0.7501925826072693,0.0317870154976844,-0.0400564596056938,0.0,0.0,0.2511236667633056,-0.0133310556411743
-0.0379464142024517,0.7389899492263794,-0.031094592064619,-0.7300800085067749,0.0293839666992425,-0.0480609275400638,0.0,0.0,0.6670322418212891,-0.5360092520713806
-0.038344956934452,0.7228893637657166,-0.0384928919374942,-0.7155507206916809,0.0280362144112586,-0.0269548539072275,0.0,0.0,-0.4873183369636535,-0.1633464694023132
-0.0387264266610145,0.7063513994216919,-0.036817405372858,-0.7350045442581177,0.0267248284071683,-0.026228180155158,0.0,0.0,-0.4390829801559448,-0.5760217308998108
-0.0391407012939453,0.6893773674964905,-0.0413855537772178,-0.7543992400169373,0.0266905762255191,-0.0006850955542176,0.0,0.0,-0.4324430227279663,0.7781082391738892
-0.0394647605717182,0.671964168548584,-0.0305244587361812,-0.7738828659057617,0.0248368233442306,-0.0370754078030586,0.0,0.0,0.0061475038528442,0.1146752834320068
-0.039781380444765,0.6548420786857605,-0.0297930389642715,-0.7609574198722839,0.0229870602488517,-0.0369950905442237,0.0,0.0,0.1522825956344604,-0.1170929074287414
-0.0399845130741596,0.6377956867218018,-0.0188987925648689,-0.7575949430465698,0.0215997640043497,-0.0277461223304271,0.0,0.0,-0.0007118582725524,0.6235542297363281
-0.0401283279061317,0.6203102469444275,-0.0118951648473739,-0.7770969271659851,0.0191380176693201,-0.0492349825799465,0.0,0.0,0.532921314239502,-0.3460526466369629
-0.0401814468204975,0.6034987568855286,-0.0031852193642407,-0.7471550703048706,0.0170356836169958,-0.0420465096831321,0.0,0.0,0.4947643280029297,0.4909559488296509
-0.040102481842041,0.5871679186820984,0.0095027266070246,-0.7257996201515198,0.0154544450342655,-0.0316250063478946,0.0,0.0,0.2423746585845947,0.6629458665847778
-0.0399002060294151,0.5713374018669128,0.023136081174016,-0.7035478353500366,0.0125821214169263,-0.0574466399848461,0.0,0.0,-0.5436861515045166,-0.1865178942680359
-0.0396801941096782,0.5550693869590759,0.0249913986772298,-0.723002016544342,0.0096294973045587,-0.0590523704886436,0.0,0.0,0.3113715648651123,-0.3226510286331177
-0.0394046790897846,0.5388051867485046,0.030450377613306,-0.7228367328643799,0.0067731658928096,-0.0571264550089836,0.0,0.0,0.6602730751037598,-0.1782641410827636
-0.0392168052494525,0.5231597423553467,0.022250760346651,-0.6953431367874146,0.0033479689154773,-0.0685040429234504,0.0,0.0,-0.0352375507354736,-0.5122067928314209
-0.0390434265136718,0.5070751309394836,0.0200992822647094,-0.7148641347885132,0.0006191786960698,-0.0545755438506603,0.0,0.0,0.396579384803772,0.6391472816467285
-0.0387802124023437,0.4913313388824463,0.0304634422063827,-0.6997302770614624,-0.0034616061020642,-0.0816159099340438,0.0,0.0,-0.1036838293075561,-0.5003094673156738
-0.0385382659733295,0.475146472454071,0.0274694915860891,-0.7193386554718018,-0.006693662609905,-0.0646410211920738,0.0,0.0,0.7424733638763428,-0.3010337352752685
-0.0384049415588378,0.4594604074954986,0.0173631161451339,-0.6971825957298279,-0.0106722582131624,-0.0795718133449554,0.0,0.0,0.5052602291107178,-0.7169439196586609
-0.0382806770503521,0.4445151388645172,0.015129747800529,-0.6642518639564514,-0.0133368019014596,-0.0532908923923969,0.0,0.0,-0.2810898423194885,-0.4054619073867798
-0.0381386764347553,0.4291324317455292,0.017063021659851,-0.6837062239646912,-0.0161613374948501,-0.0564906410872936,0.0,0.0,0.6675288677215576,0.4261572360992431
-0.0379376411437988,0.4146037101745605,0.0229981876909732,-0.6457538604736328,-0.0190279185771942,-0.0573313608765602,0.0,0.0,0.5743032693862915,-0.3292163610458374
-0.0378000251948833,0.4003164768218994,0.0172578357160091,-0.6350348591804504,-0.0224851891398429,-0.0691453889012336,0.0,0.0,0.5208070278167725,-0.2260055541992187
-0.0377152450382709,0.3865293562412262,0.0125577300786972,-0.6128265261650085,-0.0265166759490966,-0.0806297585368156,0.0,0.0,-0.2063384056091308,-0.924342930316925
-0.0376823432743549,0.3723092973232269,0.0058108405210077,-0.6320507526397705,-0.0289935711771249,-0.0495383404195308,0.0,0.0,0.7235453128814697,-0.3971377611160278
-0.0377404205501079,0.3589785099029541,-0.0024753489997237,-0.5925467610359192,-0.032288834452629,-0.0659052729606628,0.0,0.0,-0.520263671875,-0.7532704472541809
-0.0378333106637001,0.3452127575874328,-0.0070739472284913,-0.6118605136871338,-0.0344713404774665,-0.0436501838266849,0.0,0.0,0.9453125,-0.4876192212104797
-0.0379322990775108,0.331701785326004,-0.0072986232116818,-0.6005470156669617,-0.037045981734991,-0.0514928288757801,0.0,0.0,0.899176836013794,-0.5516435503959656
-0.0379607193171978,0.318305492401123,-0.0013658370589837,-0.5954306125640869,-0.0385002270340919,-0.0290849152952432,0.0,0.0,0.8000915050506592,-0.0175063610076904
-0.037991713732481,0.3050278425216675,-0.001245469902642,-0.590164065361023,-0.0403326153755188,-0.0366478152573108,0.0,0.0,0.9575319290161132,-0.2822291851043701
-0.0379772186279296,0.2927219271659851,0.0035804682411253,-0.5469899773597717,-0.0424344316124916,-0.0420364066958427,0.0,0.0,0.5833292007446289,-0.8389694094657898
-0.0378926284611225,0.2811571657657623,0.0089912451803684,-0.51400226354599,-0.0429607927799224,-0.0105273127555847,0.0,0.0,0.8166372776031494,-0.0788001418113708
-0.0378751754760742,0.2705097198486328,0.0030859319958835,-0.4732609689235687,-0.0442898087203502,-0.0265802256762981,0.0,0.0,0.4055022001266479,-0.4846960306167602
-0.037937831133604,0.2598542869091034,-0.0041628130711615,-0.4736389517784118,-0.0463634170591831,-0.041472278535366,0.0,0.0,0.4951645135879516,-0.8150691390037537
-0.0379732139408588,0.2498421221971511,-0.0029036712367087,-0.4450035393238067,-0.0469926968216896,-0.0125857125967741,0.0,0.0,-0.1905381679534912,0.0734806060791015
-0.0379912368953228,0.2393924593925476,-0.0009169044205918,-0.464458018541336,-0.0478636771440506,-0.0174194574356079,0.0,0.0,0.5596287250518799,-0.6273874044418335
-0.0380668640136718,0.2294741421937942,-0.0075727431103587,-0.4408126175403595,-0.0478560999035835,0.0001515952171757,0.0,0.0,0.1591885089874267,-0.4211827516555786
-0.0381099693477153,0.2198540270328521,-0.0040344214066863,-0.4275705516338348,-0.0481341332197189,-0.005560697056353,0.0,0.0,-0.0829189419746398,0.0591590404510498
-0.0381357185542583,0.2097963243722915,-0.0020452223252505,-0.4470251500606537,-0.0486609898507595,-0.0105370413511991,0.0,0.0,0.3697656393051147,-0.5033445358276367
-0.038149069994688,0.1997226625680923,-0.001614941866137,-0.4477073550224304,-0.0483863465487957,0.0054930024780333,0.0,0.0,0.417230486869812,-0.5404725074768066
-0.0380851738154888,0.1897218823432922,0.0050751632079482,-0.4444365203380584,-0.0470867007970809,0.0259928945451974,0.0,0.0,0.611760139465332,0.053463339805603
-0.0378343574702739,0.1801082044839859,0.0233542006462812,-0.4272222220897674,-0.0453764870762825,0.034204114228487,0.0,0.0,0.1386289596557617,-0.6321173906326294
-0.0374963767826557,0.1704555302858352,0.0308918319642543,-0.4289214313030243,-0.0425104685127735,0.0573204755783081,0.0,0.0,0.1839493513107299,-0.6557921767234802
-0.0371745117008686,0.1611807495355606,0.0282298177480697,-0.4121085703372955,-0.0386006087064743,0.0781969875097274,0.0,0.0,0.2052488327026367,-0.8440592885017395
-0.0368545539677143,0.152306780219078,0.0265767611563205,-0.394266813993454,-0.0332481302320957,0.1070495694875717,0.0,0.0,0.1856918334960937,-0.9118563532829284
-0.0364691726863384,0.1437153369188308,0.0315006263554096,-0.3817029893398285,-0.0262988042086362,0.1389866173267364,0.0,0.0,0.1740058660507202,-0.7866982221603394
-0.0360407829284668,0.1350258439779281,0.0344096198678016,-0.3860755562782287,-0.0179716404527425,0.1665430068969726,0.0,0.0,0.2045254707336425,-0.5353533625602722
-0.0356727614998817,0.1264572888612747,0.0276301652193069,-0.3807429373264313,-0.0089194662868976,0.1810432374477386,0.0,0.0,0.1285074949264526,0.7145779132843018
-0.0351599678397178,0.1183428615331649,0.0437471009790897,-0.3606174290180206,-0.0014750172849744,0.1488892138004303,0.0,0.0,-0.0761813521385192,-0.5098581314086914
-0.0346717834472656,0.1097914054989814,0.0404680296778678,-0.380078375339508,0.0067688198760151,0.1648764759302139,0.0,0.0,0.5315234661102295,0.6244897842407227
-0.0342474952340126,0.1019140109419822,0.0358707644045352,-0.3501501977443695,0.0132408794015645,0.1294412314891815,0.0,0.0,-0.0409873723983764,0.212873101234436
-0.0338061340153217,0.0935994461178779,0.0378449037671089,-0.3696069717407226,0.0194616168737411,0.1244145631790161,0.0,0.0,0.8113707304000854,0.8929579257965088
-0.033357810229063,0.0860876142978668,0.040693249553442,-0.3339151442050934,0.0235424507409334,0.0816165953874588,0.0,0.0,0.4362479448318481,0.4774725437164306
-0.0329796783626079,0.0791118741035461,0.0342773646116256,-0.310092568397522,0.0270425155758857,0.0700013488531112,0.0,0.0,0.1361459493637085,0.7619129419326782
-0.0325528159737587,0.0722110122442245,0.0409412421286106,-0.3067364394664764,0.0287648309022188,0.0344463847577571,0.0,0.0,0.4171919822692871,0.5628710985183716
-0.0321878418326377,0.0656436756253242,0.0363873094320297,-0.2918832004070282,0.0288776420056819,0.0022562802769243,0.0,0.0,0.4507820606231689,0.9091391563415528
-0.0318970680236816,0.0593227483332157,0.0311984866857528,-0.280890554189682,0.026781553402543,-0.0419217273592948,0.0,0.0,0.2284713983535766,0.070210576057434
-0.0315248481929302,0.0533684603869915,0.0392228104174137,-0.2646000981330871,0.0248110797256231,-0.0394094847142696,0.0,0.0,-0.0956720113754272,-0.176573634147644
-0.0311354640871286,0.0469764322042465,0.0411658361554145,-0.2840534746646881,0.0226047895848751,-0.0441258065402507,0.0,0.0,0.5662730932235718,-0.1206684112548828
-0.0306079871952533,0.0412359349429607,0.0545738451182842,-0.255103588104248,0.0208017919212579,-0.0360600464046001,0.0,0.0,-0.1105396151542663,-0.8907018303871155
-0.0301368720829486,0.0350629203021526,0.0473153591156005,-0.27435502409935,0.020607404410839,-0.0038881010841578,0.0,0.0,0.8312638998031616,0.0436182022094726
-0.0295101162046194,0.0298773869872093,0.0623602755367755,-0.2304710745811462,0.0209185406565666,0.0062228636816143,0.0,0.0,-0.2437615394592285,0.2630069255828857
-0.0288664810359478,0.0242541171610355,0.0642736703157424,-0.2499242126941681,0.0210074204951524,0.0017775550950318,0.0,0.0,0.7254040241241455,-0.168357253074646
-0.0282314307987689,0.0194716304540634,0.0636719390749931,-0.2125543057918548,0.0208429545164108,-0.0032893144525587,0.0,0.0,0.5017366409301758,-0.0808616876602172
-0.0275393482297658,0.0153265809640288,0.0693311393260955,-0.1842197030782699,0.0207191687077283,-0.0024756365455687,0.0,0.0,-0.2307589650154113,-0.700531005859375
-0.0268785469233989,0.0107388589531183,0.0651951432228088,-0.2039113789796829,0.02159234136343,0.017463494092226,0.0,0.0,0.7403764724731445,0.1806578636169433
-0.0263440124690532,0.0066859698854386,0.0533836372196674,-0.1801292896270752,0.0216638371348381,0.0014298127498477,0.0,0.0,0.4392259120941162,-0.1343430876731872
-0.02591447904706,0.0028641438111662,0.0436155200004577,-0.1698483675718307,0.0210170038044452,-0.0129366489127278,0.0,0.0,0.5699492692947388,0.0824440717697143
-0.0255001075565814,-0.000592722906731,0.0423845276236534,-0.1536245942115783,0.0200792197138071,-0.018755855038762,0.0,1.0,0.8756235837936401,0.7860665321350098
-0.0250347144901752,-0.0032884501852095,0.0560958795249462,-0.1199019402265548,0.0099593559280037,-0.2032704353332519,0.0,1.0,0.6108262538909912,0.3263415098190307
-0.0244352333247661,-0.0047736428678035,0.0639176964759826,-0.0660063698887825,0.0060468474403023,-0.0782486200332641,1.0,1.0,0.7069902420043945,-0.8736699819564819
-0.0238792411983013,-0.0045102499425411,0.0558660700917243,0.0116946045309305,0.0057970061898231,-0.0049729468300938,1.0,1.0,-0.5723665952682495,-0.9411439895629884
-0.0234865192323923,-0.0036098146811127,0.037749096751213,0.0400081127882003,0.0073137958534061,0.0303489416837692,1.0,1.0,-0.6839991807937622,-0.8190165162086487
-0.0231586452573537,-0.002255299128592,0.030442614108324,0.0601829439401626,0.0096415542066097,0.0465686693787574,1.0,1.0,-0.7447521090507507,0.2245744466781616
