x_pos,y_pos,x_vel,y_vel,angle,ang_vel,leg_1,leg_2,main_booster,lat_booster
-0.001531982445158,1.4030826091766355,-0.1551918685436248,-0.3483305871486664,0.0017874789191409,0.0352612510323524,0.0,0.0,0.2217717170715332,0.9207864999771118
-0.0029548644088208,1.3952341079711914,-0.142252579331398,-0.3488247096538543,0.0017491773469373,-0.0007653223001398,0.0,0.0,0.0070008039474487,0.7661404609680176
-0.0042293546721339,1.387207269668579,-0.1259385794401168,-0.3567441403865814,0.0002653675619512,-0.0296790599822998,0.0,0.0,-0.3386992216110229,-0.0007392764091491
-0.0055086137726902,1.378638744354248,-0.1264412701129913,-0.3808287382125854,-0.0012030319776386,-0.0293707251548767,0.0,0.0,0.4057304859161377,0.2456772327423095
-0.0066812513396143,1.3703603744506836,-0.1163300052285194,-0.3679256439208984,-0.00212974101305,-0.0185360424220561,0.0,0.0,-0.1692193150520324,0.0525959730148315
-0.0078568458557128,1.3615400791168213,-0.1166326850652694,-0.3920124173164367,-0.0030392899643629,-0.0181928388774395,0.0,0.0,-0.253169298171997,0.8096563816070557
-0.0089729307219386,1.3521778583526611,-0.1091451793909072,-0.4161047339439392,-0.0054730740375816,-0.048680130392313,0.0,0.0,-0.1825819015502929,0.5994638204574585
-0.0100310323759913,1.3422752618789673,-0.1018704995512962,-0.4401346445083618,-0.0093676354736089,-0.0778985098004341,0.0,0.0,0.2404764890670776,-0.0555530190467834
-0.0110922809690237,1.3327736854553225,-0.1021653264760971,-0.422324538230896,-0.0132851144298911,-0.0783568397164344,0.0,0.0,-0.0299168229103088,0.337321400642395
-0.0121527668088674,1.3227301836013794,-0.1021051779389381,-0.4464134871959686,-0.0171826854348182,-0.077958658337593,0.0,0.0,-0.3737822771072387,0.1160837411880493
-0.0132116321474313,1.3121452331542969,-0.1019673570990562,-0.4704917967319488,-0.021060163155198,-0.0775565952062606,0.0,0.0,-0.4059562683105469,-0.4236786365509033
-0.0142682073637843,1.3010187149047852,-0.1017566695809364,-0.4945725500583648,-0.024917734786868,-0.0771585702896118,0.0,0.0,0.602973222732544,0.4161357879638672
-0.0151783945038914,1.2903634309768677,-0.0877500474452972,-0.4736234247684479,-0.0281584300100803,-0.0648196190595626,0.0,0.0,-0.548518180847168,0.1242796182632446
-0.0160850528627634,1.279166340827942,-0.0874098464846611,-0.4977129101753235,-0.0313809067010879,-0.0644554644823074,0.0,0.0,-0.0155518054962158,-0.849824845790863
-0.0170387271791696,1.267438888549805,-0.0934314504265785,-0.521264910697937,-0.0332928113639354,-0.0382412038743495,0.0,0.0,-0.7834860682487488,-0.8125338554382324
-0.018040370196104,1.2551627159118652,-0.0995805636048317,-0.545624852180481,-0.0338705442845821,-0.0115559371188282,0.0,0.0,-0.5671328902244568,0.0916297435760498
-0.0190369598567485,1.242344617843628,-0.0990849658846855,-0.5697052478790283,-0.0344335213303566,-0.0112605895847082,0.0,0.0,-0.7476438879966736,-0.6592099666595459
-0.0200677867978811,1.2289810180664062,-0.1035409420728683,-0.5939203500747681,-0.0339837633073329,0.0089958542957901,0.0,0.0,-0.4342762231826782,-0.189624547958374
-0.0210927966982126,1.2150757312774658,-0.1029637232422828,-0.6180009245872498,-0.0335226655006408,0.009222806431353,0.0,0.0,-0.5030707716941833,0.0168009996414184
-0.0221115108579397,1.2006287574768066,-0.102351114153862,-0.6420813798904419,-0.033051423728466,0.0094258664175868,0.0,0.0,-0.3619357943534851,-0.6205945611000061
-0.0231622699648141,1.1856462955474854,-0.1065451353788375,-0.6658536791801453,-0.0315997637808322,0.029035672545433,0.0,0.0,-0.7059869170188904,-0.3228912353515625
-0.0242063514888286,1.1701220273971558,-0.1058792248368263,-0.6899345517158508,-0.0301429945975542,0.0291384104639291,0.0,0.0,0.402653694152832,0.0336430072784423
-0.0251193046569824,1.1547441482543943,-0.0932992920279502,-0.6834238171577454,-0.0281703919172287,0.0394557639956474,0.0,0.0,-0.2357573509216308,-0.2477760314941406
-0.0260253902524709,1.1388243436813354,-0.092597410082817,-0.7075096964836121,-0.0261976569890975,0.0394579097628593,0.0,0.0,0.1393911838531494,0.5247504711151123
-0.0269787795841693,1.1230323314666748,-0.0960709601640701,-0.7018503546714783,-0.0254782922565937,0.0143886310979723,0.0,0.0,0.5654568672180176,-0.2362674474716186
-0.0280464179813861,1.1076828241348269,-0.1068398728966713,-0.6822015047073364,-0.0254021678119897,0.0015224580420181,0.0,0.0,-0.6087228059768677,-0.4975935220718384
-0.0291068069636821,1.0917915105819702,-0.1061101704835891,-0.706279993057251,-0.0253336988389492,0.0013697821414098,0.0,0.0,0.3764649629592895,-0.6941385269165039
-0.0303181651979684,1.0764033794403076,-0.1223856583237648,-0.6838970184326172,-0.0240988880395889,0.0246963612735271,0.0,0.0,-0.4638020992279053,-0.2522907257080078
-0.0315223708748817,1.0604734420776367,-0.1216643080115318,-0.7079757452011108,-0.0228779911994934,0.0244179721921682,0.0,0.0,-0.3412450551986694,-0.07272869348526
-0.0327197089791297,1.044001817703247,-0.1209537759423255,-0.7320544719696045,-0.02167434617877,0.0240728706121444,0.0,0.0,0.0180944204330444,0.0200423002243042
-0.0338874831795692,1.0277704000473022,-0.11802738904953,-0.7213757634162903,-0.0204381141811609,0.0247246455401182,0.0,0.0,-0.5145281553268433,-0.0054466724395751
-0.0350486747920513,1.010997295379639,-0.1173515319824218,-0.7454544305801392,-0.0192261692136526,0.0242389850318431,0.0,0.0,-0.0162374973297119,0.3242650032043457
-0.036203671246767,0.9936825037002563,-0.1166994199156761,-0.769533097743988,-0.018042167648673,0.0236798916012048,0.0,0.0,0.5619542598724365,-0.7531264424324036
-0.037472914904356,0.9763337969779968,-0.1294786781072616,-0.7710185647010803,-0.0155129013583064,0.0505854412913322,0.0,0.0,0.8703739643096924,0.2907345294952392
-0.0387070663273334,0.9595082998275756,-0.1260276883840561,-0.7477830052375793,-0.0129340626299381,0.0515767447650432,0.0,0.0,-0.1073471903800964,-0.6074532866477966
-0.0399826988577842,0.9421463012695312,-0.1313163191080093,-0.7716094851493835,-0.0092230606824159,0.0742196664214134,0.0,0.0,0.2643554210662842,0.4749307632446289
-0.0412703529000282,0.9247657656669616,-0.1323915421962738,-0.7724493145942688,-0.0056485612876713,0.0714902803301811,0.0,0.0,0.3727526664733886,0.4802310466766357
-0.0425186157226562,0.9077921509742736,-0.1285448968410492,-0.754375696182251,-0.0019753854721784,0.0734636262059211,0.0,0.0,0.0263644456863403,0.6289205551147461
-0.0437398925423622,0.8910688757896423,-0.1245066151022911,-0.7432526350021362,0.0003640012291725,0.0467878207564353,0.0,0.0,-0.6270803809165955,0.6126840114593506
-0.0449072830379009,0.8738047480583191,-0.1177630051970481,-0.767295241355896,0.001371894031763,0.0201581325381994,0.0,0.0,-0.2263194918632507,0.1284244060516357
-0.0460721962153911,0.8559989333152771,-0.1174432411789894,-0.7913739085197449,0.0023196544498205,0.0189553350210189,0.0,0.0,-0.1117955446243286,0.4083178043365478
-0.0472350120544433,0.8376511931419373,-0.1171813458204269,-0.8154523968696594,0.0032030397560447,0.0176677796989679,0.0,0.0,0.4447147846221924,0.5952661037445068
-0.0482576377689838,0.8191672563552856,-0.1021040081977844,-0.8215088248252869,0.0030361632816493,-0.0033373739570379,0.0,0.0,0.9297924041748048,0.1141262054443359
-0.04916562885046,0.8010682463645935,-0.0910991579294204,-0.8044008016586304,0.0033328579738736,0.0059340549632906,0.0,0.0,0.7323727607727051,0.679448127746582
-0.0500671379268169,0.7828827500343323,-0.0889009237289428,-0.8082460761070251,0.0020954180508852,-0.0247489213943481,0.0,0.0,0.9606798887252808,0.4250454902648926
-0.0509159080684185,0.7647504210472107,-0.0837869197130203,-0.8058803677558899,0.0010287651093676,-0.0213331244885921,0.0,0.0,0.7593879699707031,0.4651644229888916
-0.0517016425728797,0.74679034948349,-0.0777158886194229,-0.7982280254364014,0.0001769585505826,-0.0170361343771219,0.0,0.0,0.4105405807495117,0.7144885063171387
-0.0525399222970008,0.7293638586997986,-0.0812506303191185,-0.7745090126991272,-0.0023642792366445,-0.0508248023688793,0.0,0.0,0.3510617017745971,-0.184183120727539
-0.0534883514046669,0.7123629450798035,-0.0916637778282165,-0.7556040287017822,-0.0055014328099787,-0.0627432465553283,0.0,0.0,0.1046555042266845,-0.0869269371032714
-0.0544530861079692,0.6953307390213013,-0.0931304618716239,-0.7570065855979919,-0.0088021699339151,-0.0660146027803421,0.0,0.0,0.3340750932693481,-0.0618749260902404
-0.055302906781435,0.6784469485282898,-0.0820713564753532,-0.7504110932350159,-0.0116692911833524,-0.0573423132300376,0.0,0.0,0.1441659927368164,-0.1033304333686828
-0.0561923012137413,0.6617873907089233,-0.0857464596629142,-0.7404504418373108,-0.0148270623758435,-0.0631552785634994,0.0,0.0,0.5908792018890381,0.790223240852356
-0.0569029822945594,0.6452200412750244,-0.0663690716028213,-0.7363801598548889,-0.0194650068879127,-0.092758685350418,0.0,0.0,-0.1614810824394226,-0.4434239268302917
-0.0576211921870708,0.6281113028526306,-0.0670127496123313,-0.7604606747627258,-0.0242168717086315,-0.0950372740626335,0.0,0.0,0.0139011144638061,-0.2485823035240173
-0.0582492835819721,0.6109063625335693,-0.0583056285977363,-0.7647398710250854,-0.0286634266376495,-0.088931106030941,0.0,0.0,0.6471695899963379,-0.5759620070457458
-0.0590213760733604,0.5938682556152344,-0.0734832137823104,-0.7573282718658447,-0.0323449857532978,-0.0736311748623848,0.0,0.0,0.8561615943908691,-0.3742791414260864
-0.0596693977713584,0.5776258111000061,-0.0614324323832988,-0.7219623923301697,-0.0356628634035587,-0.0663575902581214,0.0,0.0,0.7288784980773926,-0.0524311661720275
-0.0601591095328331,0.5618919730186462,-0.0461583659052848,-0.6993480920791626,-0.038441140204668,-0.0555653795599937,0.0,0.0,0.1808201074600219,-0.5797446370124817
-0.0606250762939453,0.5465038418769836,-0.0449235066771507,-0.6839622259140015,-0.0400931909680366,-0.0330412425100803,0.0,0.0,-0.0796360373497009,-0.4271519184112549
-0.0611042976379394,0.5305740237236023,-0.0461065471172332,-0.7080415487289429,-0.04188022762537,-0.0357409194111824,0.0,0.0,0.8232262134552002,-0.0545651316642761
-0.0615240111947059,0.5147114396095276,-0.0402884259819984,-0.7050510048866272,-0.0435440465807914,-0.033276580274105,0.0,0.0,0.8652305603027344,-0.5195121169090271
-0.062085248529911,0.4995070695877075,-0.0549879856407642,-0.6757795214653015,-0.044666614383459,-0.0224516671150922,0.0,0.0,-0.6536498665809631,0.926621913909912
-0.0625742897391319,0.4837529957294464,-0.0453735627233982,-0.700292706489563,-0.048155277967453,-0.069773331284523,0.0,0.0,0.5344641208648682,-0.0766528844833374
-0.0630310028791427,0.468308687210083,-0.0420936718583107,-0.6865311861038208,-0.0516893900930881,-0.0706822127103805,0.0,0.0,0.9114980697631836,0.3334866762161255
-0.0634726509451866,0.4530170261859894,-0.0404700860381126,-0.6797637939453125,-0.0553309321403503,-0.0728307887911796,0.0,0.0,0.9073050022125244,-0.2051860690116882
-0.0640378966927528,0.4382176101207733,-0.0520192272961139,-0.6579246520996094,-0.0597853362560272,-0.0890882462263107,0.0,0.0,0.9597017765045166,0.3703814744949341
-0.0645366683602333,0.4243944883346557,-0.0453390479087829,-0.61454838514328,-0.0642760545015335,-0.0898143723607063,0.0,0.0,0.7671260833740234,0.4852372407913208
-0.0649483650922775,0.4104897975921631,-0.0368749760091304,-0.6181775331497192,-0.0685168355703353,-0.084815964102745,0.0,0.0,0.5851489305496216,-0.1555875539779663
-0.0652994140982627,0.3972667157649994,-0.0307803265750408,-0.587894856929779,-0.0727959349751472,-0.085581824183464,0.0,0.0,-0.0406987071037292,-0.4986681938171386
-0.065672680735588,0.383502334356308,-0.0328450240194797,-0.6119758486747742,-0.0772351324558258,-0.0887839347124099,0.0,0.0,0.9369206428527832,-0.9104390740394592
-0.0661976784467697,0.3704095780849457,-0.0494618788361549,-0.5820602178573608,-0.0802434235811233,-0.0601656325161457,0.0,0.0,0.3016691207885742,-0.7198269367218018
-0.0667368918657302,0.3575133681297302,-0.0522053427994251,-0.573258101940155,-0.0819420740008354,-0.0339729636907577,0.0,0.0,-0.0195345282554626,-0.5527336001396179
-0.0673532485961914,0.3440882265567779,-0.061113603413105,-0.5967004299163818,-0.082467146217823,-0.0105014136061072,0.0,0.0,0.8481056690216064,-0.105193018913269
-0.0678600296378135,0.3310770988464355,-0.0503591373562812,-0.5782920718193054,-0.0827780663967132,-0.0062185544520616,0.0,0.0,0.4845726490020752,0.1581065654754638
-0.068394087255001,0.3180534243583679,-0.052778922021389,-0.5788646340370178,-0.0833963006734848,-0.0123648354783654,0.0,0.0,0.8896974325180054,0.2379451990127563
-0.068846508860588,0.305034190416336,-0.0448113977909088,-0.5786551833152771,-0.0838228538632392,-0.0085310069844126,0.0,0.0,0.926138401031494,-0.6350663900375366
-0.0693830475211143,0.2920699119567871,-0.0542306713759899,-0.576160192489624,-0.0832590535283088,0.0112760905176401,0.0,0.0,0.8539679050445557,0.0706114768981933
-0.0698831528425216,0.2798956632614136,-0.0503677316009998,-0.5410564541816711,-0.0829081535339355,0.0070180646143853,0.0,0.0,0.5597772598266602,-0.2224496006965637
-0.0702730193734169,0.2683218419551849,-0.0395214185118675,-0.5143656730651855,-0.0823776274919509,0.0106105618178844,0.0,0.0,0.6739823818206787,0.853116512298584
-0.0706822425127029,0.2574601769447326,-0.0393592417240142,-0.4828270971775055,-0.0839235782623291,-0.0309190116822719,0.0,0.0,-0.6230192184448242,0.0107620954513549
-0.0711213126778602,0.2460569888353347,-0.0421856567263603,-0.5069069862365723,-0.0856397822499275,-0.0343239903450012,0.0,0.0,0.4070281982421875,-0.8248801827430725
-0.0715594291687011,0.235129177570343,-0.0436135716736316,-0.4856951534748077,-0.0858317017555236,-0.0038381572812795,0.0,0.0,-0.2095290422439575,0.4571971893310547
-0.0720284432172775,0.2236596941947937,-0.0465418510138988,-0.5097748637199402,-0.0861935392022132,-0.0072365505620837,0.0,0.0,0.5974645614624023,0.4062668085098266
-0.0725253075361251,0.2126349508762359,-0.0489053651690483,-0.4900344312191009,-0.08697010576725,-0.015531038865447,0.0,0.0,0.7827709913253784,-0.4066266417503357
-0.0730012878775596,0.2021979391574859,-0.0465913228690624,-0.463929146528244,-0.087975263595581,-0.0201031677424907,0.0,0.0,-0.1335368156433105,0.0694215297698974
-0.0735096931457519,0.1912193447351455,-0.049647606909275,-0.4880090057849884,-0.0891484841704368,-0.0234645940363407,0.0,0.0,0.218827486038208,0.4884927272796631
-0.0740106552839279,0.1800741553306579,-0.0488305017352104,-0.4954195022583008,-0.0904079303145408,-0.0251889023929834,0.0,0.0,0.8973393440246582,-0.2143323421478271
-0.0743967071175575,0.1690637171268463,-0.0376655496656894,-0.4894095957279205,-0.0913404673337936,-0.0186510942876338,0.0,0.0,0.9674482345581056,-0.4589815139770508
-0.0745795220136642,0.1585036069154739,-0.0179830957204103,-0.4693585336208343,-0.0916270539164543,-0.005732150748372,0.0,0.0,0.8214282989501953,-0.1919915080070495
-0.074602797627449,0.1480302661657333,-0.0025936882011592,-0.465466558933258,-0.091365709900856,0.0052270283922553,0.0,0.0,0.927764058113098,-0.1566062569618225
-0.0745862945914268,0.1383256018161773,0.0015807384625077,-0.4313119351863861,-0.0912961512804031,0.0013912210706621,0.0,0.0,0.4076416492462158,-0.2953234910964966
-0.0745183005928993,0.1290412247180938,0.0067615187726914,-0.4126375615596771,-0.0912638753652572,0.0006457605049945,0.0,0.0,0.7078408002853394,-0.7800888419151306
-0.0743417739868164,0.1202372908592224,0.0159378908574581,-0.3911806941032409,-0.0895590037107467,0.0340972878038883,0.0,0.0,0.3413959741592407,-0.6111595630645752
-0.074134349822998,0.1112758517265319,0.0177740231156349,-0.3981109261512756,-0.0866180881857872,0.0588183887302875,0.0,0.0,0.8049328327178955,-0.2901436686515808
-0.0739699378609657,0.1026117429137229,0.0138935120776295,-0.3849258422851562,-0.084094651043415,0.0504691079258918,0.0,0.0,0.9377572536468506,-0.4891034364700317
-0.0736555084586143,0.0949061512947082,0.0285797510296106,-0.3423115313053131,-0.081261046230793,0.0566722340881824,0.0,0.0,0.4866151809692383,-0.6224554181098938
-0.0734052658081054,0.0874333679676055,0.0211027301847934,-0.3319174647331238,-0.0773825868964195,0.0775694027543068,0.0,0.0,0.2138934135437011,0.4452375173568725
-0.0732348412275314,0.0803038477897644,0.0136991338804364,-0.3166995346546173,-0.0740695893764495,0.0662598013877868,0.0,0.0,0.2527514696121216,-0.1888351440429687
-0.0729929953813552,0.0734170749783515,0.0206662230193614,-0.3059101700782776,-0.0705902278423309,0.0695870146155357,0.0,0.0,0.4665095806121826,0.2380156517028808
-0.0727849975228309,0.0669902861118316,0.0176393277943134,-0.2854899168014526,-0.0674657598137855,0.0624894723296165,0.0,0.0,0.2563478946685791,0.7172099351882935
-0.0725854858756065,0.0608806461095809,0.0184619445353746,-0.2714739143848419,-0.065993808209896,0.0294390954077243,0.0,0.0,-0.1110390424728393,0.2321648597717285
-0.0724189728498458,0.0542293414473533,0.0152988908812403,-0.2955532670021057,-0.0646484047174453,0.0269079655408859,0.0,0.0,0.7984333038330078,0.2394826412200927
-0.0723692923784256,0.0480287186801433,0.0043176310136914,-0.2755586802959442,-0.0640124455094337,0.0127195073291659,0.0,0.0,0.6413452625274658,0.884380578994751
-0.0724155455827713,0.0420725680887699,-0.0031059172470122,-0.2647817730903625,-0.0655061304569244,-0.0298737436532974,0.0,0.0,0.740786075592041,0.9671924114227296
-0.0722423568367958,0.0366941317915916,0.0207019038498401,-0.2391944825649261,-0.0688582956790924,-0.0670431554317474,0.0,0.0,0.587824821472168,0.8571577072143555
-0.071942999958992,0.031283650547266,0.0350548364222049,-0.2407097816467285,-0.073926456272602,-0.1013630181550979,0.0,0.0,0.819603681564331,-0.0067782998085021
-0.0714529007673263,0.0265709739178419,0.0534810535609722,-0.20967698097229,-0.0783562213182449,-0.0885953456163406,0.0,0.0,0.2962725162506103,-0.0426602959632873
-0.0709631890058517,0.0222295857965946,0.0536292009055614,-0.1932016909122467,-0.0829636007547378,-0.0921477824449539,0.0,0.0,0.4461648464202881,-0.440531849861145
-0.0703164115548133,0.0184493158012628,0.0688386783003807,-0.1682470589876175,-0.0870814770460128,-0.0823578462004661,0.0,0.0,-0.100114107131958,0.3532073497772217
-0.0696982368826866,0.0141276689246296,0.0660480111837387,-0.1923275738954544,-0.0912810415029525,-0.0839907974004745,0.0,0.0,0.2872122526168823,-0.0193716883659362
-0.0690556541085243,0.010215506888926,0.0685945600271225,-0.1741434633731842,-0.0955813601613044,-0.0860061794519424,0.0,0.0,0.4232476949691772,-0.410575270652771
-0.0682353004813194,0.0075232838280498,0.0670941919088363,-0.1187697649002075,-0.0807675868272781,0.2962928414344787,1.0,0.0,0.4070882797241211,-0.873187780380249
-0.067278005182743,0.0054448582231998,0.0634833201766014,-0.0909542664885521,-0.0488172210752964,0.6390647292137146,1.0,0.0,0.0947977304458618,-0.1514856219291687
-0.0663982406258583,0.0034324144944548,0.057014524936676,-0.0887161567807197,-0.0182306244969367,0.6117316484451294,1.0,0.0,0.4088509082794189,0.1399042606353759
-0.0656196624040603,0.0015517926076427,0.047380480915308,-0.0834875553846359,0.0118487514555454,0.6015880107879639,0.0,0.0,0.0181964635848999,0.9599485397338868
-0.0648117065429687,-0.0003378057444933,0.0523320920765399,-0.0844449177384376,0.0399645641446113,0.5623166561126709,0.0,1.0,0.3827985525131225,0.9834437370300292
-0.0640661269426345,-0.0016646767035126,0.0614853985607624,-0.0596135780215263,0.0516004115343093,0.2310663759708404,0.0,1.0,-0.8733981847763062,0.8343944549560547
-0.0634463280439376,-0.0030120753217488,0.0704005509614944,-0.0596258863806724,0.043243084102869,-0.1671950817108154,0.0,1.0,-0.1071841716766357,0.2551883459091186
-0.062911607325077,-0.0044173384085297,0.0758290812373161,-0.0619657002389431,0.0211318861693143,-0.4422652721405029,0.0,1.0,0.3406351804733276,-0.1904932260513305
-0.0624025352299213,-0.004396703094244,0.0652756243944168,0.0010310744401067,0.0070103071630001,-0.2823436260223388,1.0,1.0,-0.3455618619918823,-0.9007355570793152
