x_pos,y_pos,x_vel,y_vel,angle,ang_vel,leg_1,leg_2,main_booster,lat_booster
-0.0015212058788165,1.4030003547668457,-0.1539388447999954,-0.3519949316978454,0.0016248631291091,0.032041747123003,0.0,0.0,0.3116247076098939,0.6171477838855085
-0.0029469490982592,1.3950259685516355,-0.1428821384906768,-0.3544202148914337,0.0019276427337899,0.0060568554326891,0.0,0.0,0.1070398254829148,-0.9115773209223176
-0.0043374062515795,1.3868262767791748,-0.1410373449325561,-0.3644379675388336,0.0039019144605845,0.0394889190793037,0.0,0.0,0.938182466757165,-0.7333884263558309
-0.0059370039962232,1.3788777589797974,-0.1628634333610534,-0.3532748222351074,0.006770365871489,0.0573744773864746,0.0,0.0,-0.3794852927921774,0.8938991262120053
-0.0074496269226074,1.3703086376190186,-0.1518196165561676,-0.3808526992797851,0.0073129781521856,0.0108533632010221,0.0,0.0,-0.5504379374489852,0.8878212690844927
-0.0088752750307321,1.3611149787902832,-0.1407431066036224,-0.4085984826087951,0.005512835457921,-0.0360064469277858,0.0,0.0,0.050719163830577,0.8723837874846987
-0.0102501865476369,1.3518484830856323,-0.1337260007858276,-0.4118333458900451,0.001787191722542,-0.0745197832584381,0.0,0.0,-0.2372431873948637,-0.8885149620749933
-0.0116772651672363,1.3419601917266846,-0.1400684118270874,-0.4394763112068176,-0.0008168494096025,-0.052085630595684,0.0,0.0,-0.5378682737311811,0.7705387894175771
-0.0130448341369628,1.3314563035964966,-0.1323969662189483,-0.4668508768081665,-0.0051276865415275,-0.0862247794866561,0.0,0.0,0.8123136283073877,0.6316450633177483
-0.0143599510192871,1.3215272426605225,-0.1256700903177261,-0.4413224160671234,-0.0109087815508246,-0.1156325787305831,0.0,0.0,-0.344258110046524,-0.9967276172636736
-0.0157435424625873,1.3109759092330933,-0.1340045183897018,-0.4689865112304687,-0.0152209494262933,-0.0862511545419693,0.0,0.0,0.0785316392298616,0.8584550558538477
-0.0170021057128906,1.3003134727478027,-0.1195627450942993,-0.4739603996276855,-0.0214480701833963,-0.1245536655187606,0.0,0.0,-0.1188875865135992,0.9562259572749509
-0.0181715972721576,1.2890294790267944,-0.1080821976065635,-0.5016598105430603,-0.0302169267088174,-0.175393134355545,0.0,0.0,-0.3322839341867871,-0.62104775522191
-0.0193880088627338,1.2771185636520386,-0.1136277094483375,-0.529556393623352,-0.0381384789943695,-0.158445805311203,0.0,0.0,-0.7967020015449773,0.966433701653366
-0.0205143932253122,1.2645893096923828,-0.1019903570413589,-0.5571627020835876,-0.0486755482852458,-0.2107605189085006,0.0,0.0,0.5765830299281336,-0.8138031387599616
-0.021580409258604,1.2518486976623535,-0.0975347086787223,-0.5665618777275085,-0.0576542019844055,-0.1795891225337982,0.0,0.0,-0.2704637692701683,0.6049949150789298
-0.0225937850773334,1.2384874820709229,-0.0905235707759857,-0.594287633895874,-0.0683697685599327,-0.2143305838108062,0.0,0.0,0.5577240309775944,0.728002365046067
-0.0233856197446584,1.2250053882598877,-0.0669369623064994,-0.5998092889785767,-0.0805102512240409,-0.2428315877914428,0.0,0.0,0.8171740958940605,-0.6976059860683014
-0.0240538604557514,1.212220311164856,-0.0559968724846839,-0.5688442587852478,-0.0912550017237663,-0.2149146348237991,0.0,0.0,0.6801775033716857,-0.7937287869458368
-0.0248316768556833,1.199692726135254,-0.0680997818708419,-0.5573968887329102,-0.1008676216006279,-0.1922695338726043,0.0,0.0,-0.8254057754666297,0.8557693216065475
-0.0255381576716899,1.1865365505218506,-0.0586287602782249,-0.5855690240859985,-0.1128220558166503,-0.239110067486763,0.0,0.0,0.0272927834175673,0.8799918972153152
-0.0261482242494821,1.1731510162353516,-0.0469526760280132,-0.596041738986969,-0.1268140226602554,-0.2798645794391632,0.0,0.0,0.6031036451594789,0.7202527727368772
-0.0265109054744243,1.1598923206329346,-0.0207948125898838,-0.5906617641448975,-0.1422526538372039,-0.3088004291057586,0.0,0.0,0.4756406524614816,0.9965328258635356
-0.0267006866633892,1.1463844776153564,-0.0013029553228989,-0.6021305322647095,-0.1599175333976745,-0.3533295094966888,0.0,0.0,-0.7587538343060831,0.7683759167719905
-0.0268596652895212,1.1322484016418457,0.0031719282269477,-0.6304352283477783,-0.1790458559989929,-0.382600337266922,0.0,0.0,-0.8567133994066412,0.8981923570146007
-0.026984691619873,1.1174631118774414,0.0081852972507476,-0.6597519516944885,-0.1998299658298492,-0.4156821370124817,0.0,0.0,-0.9101481638438468,0.7986763507111093
-0.0270652770996093,1.1020464897155762,0.0144312931224703,-0.688374400138855,-0.2225220054388046,-0.4538407921791076,0.0,0.0,0.8912209919223286,-0.730358881578155
-0.0271700862795114,1.0874754190444946,0.0110798962414264,-0.6510112881660461,-0.244407832622528,-0.4377167224884033,0.0,0.0,0.564795305587805,0.6705989701660507
-0.0271974559873342,1.0733907222747805,0.0206060744822025,-0.6300457119941711,-0.2682207226753235,-0.4762585163116455,0.0,0.0,-0.6420059406774234,0.8122990316289276
-0.0271882060915231,1.0586631298065186,0.0259513948112726,-0.6593483686447144,-0.293924480676651,-0.5140756368637085,0.0,0.0,0.2377342149281305,0.91614147021484
-0.0269322395324707,1.0442038774490356,0.0525137111544609,-0.6483113765716553,-0.3217735886573791,-0.5569828748703003,0.0,0.0,0.0105692719992034,-0.993901906825598
-0.0267464630305767,1.0295711755752563,0.0435452871024608,-0.6561084985733032,-0.3478586673736572,-0.5217024087905884,0.0,0.0,-0.6568965282104,-0.7275459964548787
-0.0266468040645122,1.0143632888793943,0.0333652645349502,-0.681759774684906,-0.3725406527519226,-0.4936395585536957,0.0,0.0,0.7797326917820939,0.6558485056021551
-0.0264565460383892,0.9990903735160828,0.0439259633421897,-0.685507595539093,-0.3990547358989715,-0.5302820205688477,0.0,0.0,-0.0343019533145654,-0.6135687277954514
-0.0263386722654104,0.9832317233085632,0.0355469062924385,-0.7117252945899963,-0.424631655216217,-0.5115386247634888,0.0,0.0,-0.6517122591487254,0.9257407593808418
-0.0261816978454589,0.9667192101478576,0.0412625297904014,-0.741851270198822,-0.4524787962436676,-0.5569429993629456,0.0,0.0,-0.1699018339445814,-0.8483331689750211
-0.0261206626892089,0.949634313583374,0.029929855838418,-0.7672722935676575,-0.4787786602973938,-0.525998055934906,0.0,0.0,-0.6969879660064122,-0.7891496663514161
-0.0261429790407419,0.9319803714752196,0.0201328117400407,-0.792580783367157,-0.5038112998008728,-0.5006529092788696,0.0,0.0,-0.8138769693805168,-0.6881213675361878
-0.0262490268796682,0.9137591123580932,0.010366478934884,-0.8177374601364136,-0.527576744556427,-0.4753089547157287,0.0,0.0,0.950008501389222,-0.9534679937306838
-0.0260634422302246,0.8958806991577148,0.0376726761460304,-0.802193820476532,-0.5495474338531494,-0.4394136071205139,0.0,0.0,-0.195963656294374,-0.9563145483044292
-0.0259895324707031,0.8774604201316833,0.0244418811053037,-0.8257782459259033,-0.5693913102149963,-0.396877259016037,0.0,0.0,0.3380069732666015,-0.984399914741516
-0.0256965644657611,0.858924150466919,0.0445634499192237,-0.8304665684700012,-0.5873837471008301,-0.3598491847515106,0.0,0.0,0.3320666551589966,-0.9869112372398376
-0.0252995491027832,0.8400639891624451,0.0532500557601451,-0.8443340063095093,-0.6035318374633789,-0.3229616582393646,0.0,0.0,0.0339893102645874,-0.9647404551506042
-0.0247611999511718,0.8209918737411499,0.0657818615436554,-0.8532289266586304,-0.6179322004318237,-0.2880069613456726,0.0,0.0,0.0861164331436157,-0.972727596759796
-0.0242501255124807,0.8016200065612793,0.0614493191242218,-0.8659234642982483,-0.6304978132247925,-0.2513107359409332,0.0,0.0,-0.0618922710418701,-0.9824880957603456
-0.023848820477724,0.7816817164421082,0.0489966720342636,-0.8905006647109985,-0.6413747668266296,-0.2175392657518386,0.0,0.0,-0.0281248092651367,-0.995529055595398
-0.0235560424625873,0.7611803412437439,0.0367241352796554,-0.914907157421112,-0.6505725383758545,-0.1839551329612732,0.0,0.0,-0.4529248476028442,-0.989395260810852
-0.023383617401123,0.7401483654975891,0.0227777548134326,-0.937573254108429,-0.657443106174469,-0.1374117136001587,0.0,0.0,-0.2240052223205566,-0.986527144908905
-0.0233351700007915,0.7185868620872498,0.0084207113832235,-0.9601426720619202,-0.6619136929512024,-0.0894113928079605,0.0,0.0,-0.0488320589065551,-0.996320903301239
-0.0234065055847167,0.696474552154541,-0.0051673287525773,-0.9837933778762816,-0.6643717288970947,-0.049160897731781,0.0,0.0,0.0392242670059204,-0.9678054451942444
-0.023287296295166,0.6741332411766052,0.0124448426067829,-0.9932231307029724,-0.6650296449661255,-0.0131583763286471,0.0,0.0,0.1587578058242797,-0.9830317497253418
-0.0230021476745605,0.651898980140686,0.0274735428392887,-0.9876481890678406,-0.6637271046638489,0.0260506123304367,0.0,0.0,0.0563308000564575,-0.9913046956062316
-0.0225982666015625,0.6293672919273376,0.0378459617495536,-1.0000885725021362,-0.660548210144043,0.0635783076286315,0.0,0.0,0.4831836223602295,-0.9779401421546936
-0.0218692775815725,0.6071351170539856,0.0687867403030395,-0.9859781265258788,-0.6554161310195923,0.1026420593261718,0.0,0.0,0.5236172676086426,-0.9205656051635742
-0.0208632461726665,0.5847360491752625,0.0949010327458381,-0.9926103353500366,-0.6483341455459595,0.1416399031877517,0.0,0.0,0.3605849742889404,-0.942755401134491
-0.0198179241269826,0.5623233914375305,0.0973238721489906,-0.9924983382225036,-0.6394234299659729,0.1782145798206329,0.0,0.0,0.7186381816864014,-0.8907338976860046
-0.0183067321777343,0.5402580499649048,0.142278254032135,-0.9763433933258056,-0.6285809278488159,0.2168498337268829,0.0,0.0,0.9175565242767334,-0.881693422794342
-0.0163116455078125,0.5184290409088135,0.1888816803693771,-0.965095579624176,-0.615674614906311,0.2581266164779663,0.0,0.0,0.7968719005584717,-0.9590807557106018
-0.0138482097536325,0.4970694780349731,0.2339123785495758,-0.9435260891914368,-0.600703239440918,0.2994269132614136,0.0,0.0,0.9486585855484008,-0.9959483742713928
-0.0110697746276855,0.4763935804367065,0.2636773288249969,-0.9125679135322572,-0.5838456153869629,0.3371527791023254,0.0,0.0,0.9069218635559082,-0.9813385605812072
-0.0081351278349757,0.4556346535682678,0.2773855924606323,-0.915665090084076,-0.5649183392524719,0.3785452842712402,0.0,0.0,0.9490845203399658,-0.9749894738197328
-0.0049978257156908,0.4354753792285919,0.2958935797214508,-0.8885902762413025,-0.5442009568214417,0.4143469333648681,0.0,0.0,0.9106276035308838,-0.875328779220581
-0.0015441894065588,0.41539466381073,0.3255153298377991,-0.8846498131752014,-0.5214341282844543,0.4553380906581878,0.0,0.0,0.915762186050415,-0.8929404020309448
0.0021610260009765,0.3956518173217773,0.3487310707569122,-0.8693272471427917,-0.4967943727970123,0.4927951395511627,0.0,0.0,0.8668432235717773,-0.9736310839653016
0.0059521673247218,0.3759312629699707,0.3552449941635132,-0.8680843114852905,-0.470156580209732,0.5327557921409607,0.0,0.0,0.8569397926330566,-0.9021267294883728
0.0097748758271336,0.3566368222236633,0.3566169440746307,-0.8491098284721375,-0.441922664642334,0.5646783113479614,0.0,0.0,0.8351905345916748,-0.5711366534233093
0.0139185907319188,0.338035523891449,0.3872107565402984,-0.8184465169906616,-0.4124451577663421,0.5895501375198364,0.0,0.0,0.7626590728759766,-0.9276486039161682
0.0181364063173532,0.3192253112792969,0.3923381268978119,-0.8277538418769836,-0.3809230923652649,0.6304415464401245,0.0,0.0,0.6999971866607666,-0.8788496255874634
0.0225769039243459,0.3010575771331787,0.4124528467655182,-0.7993797063827515,-0.3475184142589569,0.6680943965911865,0.0,0.0,0.8188576698303223,-0.9576064348220824
0.0269433017820119,0.2831088304519653,0.4028951525688171,-0.7899791598320007,-0.3122990131378174,0.7043887972831726,0.0,0.0,0.9721894264221193,-0.5286036133766174
0.0313364043831825,0.2657800912857055,0.4044268131256103,-0.7630665302276611,-0.2762946188449859,0.7200879454612732,0.0,0.0,0.992045283317566,-0.6702700257301331
0.0358492843806743,0.2489337474107742,0.4145396649837494,-0.7422231435775757,-0.2387609183788299,0.7506749629974365,0.0,0.0,0.9977688789367676,-0.7375417351722717
0.0403119102120399,0.2330584377050399,0.4079976975917816,-0.6998299360275269,-0.2000478655099868,0.7742612957954407,0.0,0.0,0.9999654293060304,0.2240306138992309
0.0449265465140342,0.2175795882940292,0.4223925173282623,-0.6831430792808533,-0.1608179956674575,0.7845982313156128,0.0,0.0,0.9967501163482666,0.2075295448303222
0.0495020858943462,0.2022060304880142,0.4182787835597992,-0.679492175579071,-0.121651254594326,0.7833353281021118,0.0,0.0,0.9999518394470216,0.4042742252349853
0.0541315078735351,0.186799481511116,0.4229562282562256,-0.6819562315940857,-0.081958532333374,0.7938549518585205,0.0,0.0,0.999305248260498,0.7237584590911865
0.0587340369820594,0.1713935881853103,0.4215150475502014,-0.6830302476882935,-0.0436457023024559,0.766257107257843,0.0,0.0,0.999645471572876,-0.0475659966468811
0.0632913559675216,0.1568223387002945,0.4167931675910949,-0.6469260454177856,-0.005193892866373,0.7690371870994568,0.0,0.0,0.9999986886978148,0.8120642900466919
0.0679459571838378,0.14313405752182,0.4277075231075287,-0.6086611151695251,0.0320823453366756,0.7455250024795532,0.0,0.0,0.9999995231628418,0.3977609872817993
0.0723549872636795,0.13031667470932,0.4035976529121399,-0.5708703398704529,0.0689565688371658,0.7374847531318665,0.0,0.0,0.9999946355819702,0.8274145126342773
0.0765533447265625,0.1174732521176338,0.3844005167484283,-0.5728290677070618,0.1040611565113067,0.7020919322967529,0.0,0.0,0.9996212720870972,0.8715176582336426
0.0806946754455566,0.1054756939411163,0.380191445350647,-0.5359324216842651,0.1378000825643539,0.6747794151306152,0.0,0.0,0.9999709129333496,0.9735283851623536
0.0846031159162521,0.0938916280865669,0.3589617908000946,-0.5181062817573547,0.1696393936872482,0.6367870569229126,0.0,0.0,0.9999724626541138,0.9821338653564452
0.0882975608110427,0.0829148888587951,0.3395112156867981,-0.4915538132190704,0.1996859759092331,0.6009318828582764,0.0,0.0,0.9999492168426514,0.954197883605957
0.0918024033308029,0.0725927427411079,0.3223429918289184,-0.4628072082996368,0.2281074076890945,0.5684289336204529,0.0,0.0,0.9998066425323486,0.892799973487854
0.0952502265572547,0.0627498924732208,0.3180331587791443,-0.441835343837738,0.2552998065948486,0.5438480377197266,0.0,0.0,0.9996438026428224,0.565276026725769
0.0985880866646766,0.0529176332056522,0.3078824877738952,-0.4417175650596618,0.2818030714988708,0.5300657153129578,0.0,0.0,0.9994752407073976,0.7668792009353638
0.101887322962284,0.043243870139122,0.305088460445404,-0.4349468350410461,0.3074139654636383,0.5122178792953491,0.0,0.0,0.9988248348236084,0.6898648738861084
0.1051329597830772,0.0340546220541,0.3004224002361297,-0.4137174487113952,0.3324959278106689,0.5016399025917053,0.0,1.0,0.9993364810943604,0.839800238609314
0.1084904670715332,0.026159344241023,0.3290564119815826,-0.3526172637939453,0.3389462828636169,0.1282260715961456,0.0,1.0,0.9999632835388184,0.3474202156066894
0.1114107146859169,0.0196980815380811,0.3039019703865051,-0.2843925058841705,0.3267340064048767,-0.2439830303192138,0.0,1.0,0.9999873638153076,-0.5596762895584106
0.1139168739318847,0.0146553134545683,0.2791031002998352,-0.217963770031929,0.2972429096698761,-0.5897298455238342,0.0,1.0,0.9992012977600098,-0.985667049884796
0.1161682158708572,0.0108321998268365,0.2677732110023498,-0.1618351936340332,0.253448337316513,-0.8759363293647766,0.0,1.0,0.9916117191314696,-0.9902384281158448
0.1182871833443641,0.0073518729768693,0.2632554173469543,-0.1466887146234512,0.2013264000415802,-1.0425236225128174,0.0,1.0,0.9889565706253052,-0.9578092098236084
0.1201133728027343,0.0041966293938457,0.2347447127103805,-0.1340232491493225,0.14894700050354,-1.0477114915847778,0.0,1.0,0.9691660404205322,-0.9656334519386292
0.1218419075012207,0.001964638242498,0.2219334542751312,-0.095037817955017,0.1000738963484764,-0.9775017499923706,0.0,1.0,0.9731299877166748,-0.973797082901001
0.12339448928833,0.0001374101702822,0.2026327401399612,-0.0787265822291374,0.0531252063810825,-0.9390102624893188,0.0,0.0,0.4341472387313843,-0.9949803352355956
0.1246304512023925,-0.0012577676679939,0.1687633693218231,-0.0610223673284053,0.0084866173565387,-0.8928070068359375,0.0,0.0,-0.1483916640281677,-0.9907866716384888
0.1257236450910568,-0.0032470012083649,0.1523587256669998,-0.0887256637215614,-0.0340308547019958,-0.8503831028938293,1.0,0.0,0.7117290496826172,-0.988283395767212
0.1267917603254318,-0.0040719057433307,0.1326985657215118,-0.0378835946321487,-0.0576535984873771,-0.4699485301971435,1.0,0.0,0.3017226457595825,-0.9342032670974731
0.1279170960187912,-0.0039819623343646,0.1150222793221473,0.0038939458318054,-0.0600904785096645,-0.0486956425011158,1.0,0.0,-0.985573410987854,-0.839102029800415
0.1290869712829589,-0.0040171169675886,0.1027313619852066,-0.001047758385539,-0.0459570623934268,0.2827144861221313,1.0,0.0,-0.9713158011436462,-0.6482061743736267
0.1302533149719238,-0.0044066454283893,0.0930017977952957,-0.0167545694857835,-0.0225679092109203,0.4678443074226379,1.0,0.0,-0.9488466382026672,-0.30573570728302
0.13142891228199,-0.0053540375083684,0.0922202244400978,-0.0419166125357151,0.002506433520466,0.5015526413917542,1.0,0.0,-0.8868500590324402,-0.1860649585723877
0.1325916349887848,-0.0069400812499225,0.0916875451803207,-0.0707140117883682,0.0268134754151105,0.4861877560615539,1.0,1.0,-0.6431934237480164,-0.6917658448219299
0.1335430145263672,-0.0087036518380045,0.0835795849561691,-0.0787339955568313,0.0374139435589313,0.2109684944152832,1.0,1.0,-0.926992893218994,-0.9006521701812744
0.134272962808609,-0.0103000309318304,0.0721202120184898,-0.070973239839077,0.0383016541600227,0.0177911315113306,1.0,1.0,-0.3816866278648376,-0.9040546417236328
0.1348337233066558,-0.011505308561027,0.0565715357661247,-0.0535518378019332,0.0378427095711231,-0.0091363806277513,1.0,1.0,-0.6958961486816406,-0.7115395069122314
0.1352700293064117,-0.0122378729283809,0.0431791841983795,-0.0325712077319622,0.0382761098444461,0.008656014688313,1.0,1.0,-0.7636858224868774,-0.6005178093910217
0.1355837881565094,-0.0125094195827841,0.0300599429756402,-0.012103509157896,0.0395646356046199,0.025760406628251,1.0,1.0,-0.9674227237701416,-0.3727734684944153
0.1358142793178558,-0.0123187685385346,0.0220581013709306,0.0084441052749753,0.0405337139964103,0.0193730369210243,1.0,1.0,-0.9520589113235474,-0.2376586198806762
0.1360134184360504,-0.0117115164175629,0.0189334601163864,0.0269709695130586,0.041484460234642,0.0189875680953264,1.0,1.0,-0.920423150062561,-0.2696067690849304
0.1362259835004806,-0.0107484245672822,0.0205023568123579,0.0427824109792709,0.0422349609434604,0.0150037799030542,1.0,1.0,-0.5839875340461731,-0.0990327000617981
0.1364471465349197,-0.0095031289383769,0.0218608789145946,0.0553414858877658,0.0424739830195903,0.0047760168090462,1.0,1.0,-0.6846686005592346,-0.366449236869812
0.1366769820451736,-0.0080804852768778,0.023088976740837,0.0632346868515014,0.0423766039311885,-0.0019498415058478,1.0,1.0,-0.8702700734138489,-0.6195564270019531
0.136747270822525,-0.0069468761794269,0.0151506140828132,0.0505928322672843,0.0343438759446144,-0.1606529504060745,1.0,1.0,-0.5536585450172424,-0.7973214983940125
0.1367663443088531,-0.0060563110746443,0.0083455014973878,0.0397143848240375,0.0279922764748334,-0.127030611038208,1.0,1.0,-0.7074986696243286,-0.7245029211044312
0.1367586106061935,-0.0054617188870906,0.0035771678667515,0.0265017487108707,0.0236990768462419,-0.0858635380864143,1.0,1.0,-0.8265807032585144,-0.5632429122924805
0.1367313414812088,-0.0051288390532135,-0.000238461929257,0.0148308547213673,0.0212401486933231,-0.0491797663271427,1.0,1.0,-0.8545379638671875,-0.3476593494415283
0.1367263793945312,-0.0049655460752546,0.0008050121250562,0.0072773066349327,0.0199543256312608,-0.025718692690134,1.0,1.0,-0.931407630443573,-0.054945945739746
0.1367368698120117,-0.0048766396939754,0.0018426118185743,0.0039610075764358,0.0191814433783292,-0.0154604390263557,1.0,1.0,-0.8996063470840454,0.0806447267532348
