x_pos,y_pos,x_vel,y_vel,angle,ang_vel,leg_1,leg_2,main_booster,lat_booster
-0.0014214515686035,1.403058409690857,-0.1440757364034652,-0.3494070470333099,0.0017196452245116,0.0339184328913688,0.0,0.0,-0.0688107013702392,0.8734298944473267
-0.0026668547652661,1.394649863243103,-0.1243522018194198,-0.373714417219162,0.0015342632541432,-0.0037072810810059,0.0,0.0,-0.0661536455154419,0.4745460748672485
-0.0038113594055175,1.3856747150421145,-0.1142815351486206,-0.3988942503929138,0.0013617372605949,-0.0034507561940699,0.0,0.0,-0.3453797698020935,0.4935154914855957
-0.0048562050797045,1.3761334419250488,-0.1043172478675842,-0.4240549802780151,0.0012001713039353,-0.0032315694261342,0.0,0.0,-0.4273092746734619,0.2176477909088134
-0.0058023454621434,1.3660261631011963,-0.0944656804203987,-0.4492120742797851,0.0010485112434253,-0.0030334452167153,0.0,0.0,0.1483768224716186,0.4213200807571411
-0.0065560340881347,1.355919361114502,-0.07569370418787,-0.4491951763629913,0.0013613073388114,0.0062567279674112,0.0,0.0,-0.4883853197097778,-0.5304409861564636
-0.0072570801712572,1.3452460765838623,-0.0715236440300941,-0.4743613302707672,0.0027699638158082,0.0281756278127431,0.0,0.0,-0.9199382662773132,-0.7038644552230835
-0.0079050064086914,1.334009051322937,-0.0672897100448608,-0.4994344711303711,0.0052321725524961,0.0492486134171485,0.0,0.0,-0.6077741384506226,-0.5618743300437927
-0.0085050584748387,1.322211742401123,-0.063633993268013,-0.5243399739265442,0.0088325375691056,0.072013534605503,0.0,0.0,-0.3166029453277588,-0.6776620745658875
-0.009066772647202,1.3098522424697876,-0.0611761733889579,-0.5493492484092712,0.0137783121317625,0.0989242419600486,0.0,0.0,-0.1858878135681152,-0.4075806140899658
-0.0095385555177927,1.296926975250244,-0.0521738305687904,-0.5745075345039368,0.0187233947217464,0.0989107936620712,0.0,0.0,-0.4072803258895874,-0.5053440928459167
-0.0099571226164698,1.283434271812439,-0.047747828066349,-0.5997676253318787,0.0245509855449199,0.1165624856948852,0.0,0.0,-0.7820709943771362,-0.4483625292778015
-0.010289192199707,1.2693758010864258,-0.0390920713543891,-0.6249269843101501,0.0303741097450256,0.1164730340242385,0.0,0.0,-0.7355756759643555,0.0682348012924194
-0.0105365756899118,1.254751682281494,-0.0306214652955532,-0.6500866413116455,0.0361914336681366,0.1163568869233131,0.0,0.0,-0.8071844577789307,-0.0201923847198486
-0.0107013704255223,1.2395620346069336,-0.0223453436046838,-0.6752461194992065,0.0420008152723312,0.116198256611824,0.0,0.0,-0.8514140248298645,0.4882609844207763
-0.0107854846864938,1.2238069772720337,-0.0142728667706251,-0.7004056572914124,0.0478002615272998,0.1159992441534996,0.0,0.0,-0.3667760491371155,0.189168095588684
-0.0107911108061671,1.2074861526489258,-0.0064132683910429,-0.725565493106842,0.0535876601934433,0.1157588511705398,0.0,0.0,-0.8595736026763916,0.5965836048126221
-0.0106622697785496,1.1905994415283203,0.0085379993543028,-0.7506895661354065,0.0578968152403831,0.0861906930804252,0.0,0.0,-0.7039982676506042,0.6284277439117432
-0.0104021076112985,1.1731575727462769,0.0231443997472524,-0.7753047943115234,0.0607391409575939,0.0568515881896019,0.0,0.0,-0.5883219838142395,0.4015617370605469
-0.0100703239440917,1.1551496982574463,0.0303182303905487,-0.8004627227783203,0.0635636523365974,0.0564954578876495,0.0,0.0,-0.6534510254859924,0.2833561897277832
-0.0096695898100733,1.1365761756896973,0.0372420996427536,-0.8256204724311829,0.0663675516843795,0.0560829117894172,0.0,0.0,-0.3775519132614136,0.367007851600647
-0.0092023853212594,1.117436408996582,0.0439077578485012,-0.8507785201072693,0.0691488608717918,0.0556314773857593,0.0,0.0,0.2846639156341553,0.1899465322494506
-0.0086000440642237,1.098374843597412,0.0569787994027137,-0.8473361730575562,0.0723747313022613,0.0645232647657394,0.0,0.0,0.2206885814666748,0.5648254156112671
-0.007851886563003,1.079097032546997,0.0726102441549301,-0.8569031953811646,0.0745596140623092,0.0437016859650611,0.0,0.0,0.3461496829986572,-0.0832893848419189
-0.0072000501677393,1.060024619102478,0.0635478869080543,-0.8477468490600586,0.0761793479323387,0.0323975048959255,0.0,0.0,0.3852626085281372,0.4173589944839477
-0.0066587449982762,1.0412336587905884,0.0531053319573402,-0.8352050185203552,0.0772027596831321,0.0204681865870952,0.0,0.0,0.425100564956665,-0.2732464075088501
-0.0061100958846509,1.0228142738342283,0.0538484342396259,-0.8186931014060974,0.0782086923718452,0.0201185643672943,0.0,0.0,0.2441272735595703,0.681991457939148
-0.0056172371841967,1.0047588348388672,0.0498516112565994,-0.8024410009384155,0.0776594430208206,-0.0109851462766528,0.0,0.0,0.4191861152648926,0.2381881475448608
-0.0052414895035326,0.9871193170547484,0.038688451051712,-0.7839233875274658,0.0765556991100311,-0.0220747124403715,0.0,0.0,0.1608378887176513,0.5276634693145752
-0.0048233987763524,0.9694270491600036,0.0440546050667762,-0.786207914352417,0.0743325278162956,-0.0444632992148399,0.0,0.0,0.7649824619293213,-0.1639387011528015
-0.0044127465225756,0.952523946762085,0.0432582087814807,-0.7511376142501831,0.0721629559993743,-0.0433913432061672,0.0,0.0,-0.3234502077102661,-0.3818146586418152
-0.003965473268181,0.935055136680603,0.0469549372792243,-0.7762926816940308,0.0699531957507133,-0.044195007532835,0.0,0.0,0.454256534576416,0.202114462852478
-0.0036067008040845,0.9180683493614196,0.0384880602359771,-0.7548447847366333,0.0673657953739166,-0.0517478361725807,0.0,0.0,-0.4590767621994018,-0.4723950624465942
-0.0032179832924157,0.9005157351493835,0.0415361002087593,-0.7800000309944153,0.064735896885395,-0.0525981895625591,0.0,0.0,-0.1129481792449951,0.2365427017211914
-0.0028023719787597,0.8823971152305603,0.0442581363022327,-0.805155336856842,0.0620624758303165,-0.0534682273864746,0.0,0.0,0.5842585563659668,-0.0801014304161071
-0.0023908615112304,0.8648001551628113,0.0438170060515403,-0.7819836139678955,0.0594253726303577,-0.0527422949671745,0.0,0.0,0.3530021905899048,0.5575575828552246
-0.0019604682456701,0.8471945524215698,0.0469270348548889,-0.7823230624198914,0.0555829145014286,-0.076848916709423,0.0,0.0,0.2364592552185058,-0.2850624322891235
-0.0015161514747887,0.8298786282539368,0.0482228249311447,-0.7694582343101501,0.0518264956772327,-0.0751281976699829,0.0,0.0,-0.0292147397994995,0.360390305519104
-0.0010581016540527,0.8119969367980957,0.0496495589613914,-0.7946141958236694,0.0480239018797874,-0.0760518833994865,0.0,0.0,-0.0028657913208007,-0.1267324686050415
-0.0005895614740438,0.7935493588447571,0.0507587492465972,-0.8197701573371887,0.0441747717559337,-0.0769828557968139,0.0,0.0,0.7210242748260498,-0.7974599599838257
-0.000334835058311,0.7757459282875061,0.0280514024198055,-0.7911943197250366,0.0416310168802738,-0.0508750900626182,0.0,0.0,-0.4173260927200317,0.1876380443572998
-7.572174217784777e-05,0.7573764324188232,0.0285383705049753,-0.8163496851921082,0.039040345698595,-0.0518136397004127,0.0,0.0,-0.0092999935150146,0.2818955183029175
0.0001848220854299,0.7384410500526428,0.0287221111357212,-0.8415050506591797,0.0364026948809623,-0.0527527928352355,0.0,0.0,0.6995220184326172,0.3342964649200439
0.0005260467296466,0.7197604179382324,0.0363598242402076,-0.8301957845687866,0.034190583974123,-0.0442421808838844,0.0,0.0,0.3490184545516968,0.1286756992340088
0.0008213996770791,0.7008726596832275,0.0319732651114463,-0.8394017815589905,0.031778197735548,-0.0482477135956287,0.0,0.0,0.2041349411010742,0.5335133075714111
0.0011806488037109,0.6817824840545654,0.0394132062792778,-0.848382294178009,0.0283326171338558,-0.068911425769329,0.0,0.0,0.720574140548706,-0.0852138400077819
0.0015801429981365,0.6628269553184509,0.0431863218545913,-0.8424093723297119,0.0251346826553344,-0.063958927989006,0.0,0.0,0.473514199256897,-0.76240473985672
0.0017762184143066,0.6444222331047058,0.0215439721941947,-0.8179519176483154,0.0232256297022104,-0.0381811745464801,0.0,0.0,0.6594648361206055,-0.0268620252609252
0.0018054008251056,0.6266342997550964,0.0055197984911501,-0.7905418276786804,0.0206546261906623,-0.0514199249446392,0.0,0.0,0.2541384696960449,0.1069693565368652
0.0017926215659826,0.6088588833808899,0.0014522384153679,-0.7899834513664246,0.0179642774164676,-0.0538070872426033,0.0,0.0,-0.1186719536781311,0.4450726509094238
0.0017596244579181,0.590517520904541,-0.0005299729527905,-0.8151388764381409,0.0152293797582387,-0.0546979904174804,0.0,0.0,0.3493087291717529,-0.3315765857696533
0.0016477585304528,0.572511613368988,-0.0081406328827142,-0.8002335429191589,0.0122328996658325,-0.0599299259483814,0.0,0.0,0.4052178859710693,0.025194764137268
0.0015995979774743,0.5545086860656738,-0.0021780079696327,-0.8001101613044739,0.0096229873597621,-0.0521980114281177,0.0,0.0,0.250974178314209,-0.085332453250885
0.0015211105346679,0.5368459224700928,-0.0051784161478281,-0.784999430179596,0.0069812745787203,-0.0528340823948383,0.0,0.0,0.3164212703704834,0.1635482311248779
0.001529598259367,0.5192011594772339,0.0030114620458334,-0.7842029929161072,0.0048463586717844,-0.0426983758807182,0.0,0.0,0.3197629451751709,-0.2284127473831176
0.0014289856189861,0.5015544891357422,-0.0074960403144359,-0.7842884659767151,0.0023164718877524,-0.0505975671112537,0.0,0.0,0.7580280303955078,-0.5930107235908508
0.0013541221851482,0.4846197366714477,-0.0063601918518543,-0.7526563405990601,0.0012030360521748,-0.0222689248621463,0.0,0.0,0.2374501228332519,-0.4925640821456909
0.0013474464649334,0.4678768217563629,2.061731538560707e-05,-0.7441263794898987,0.0005269458633847,-0.0135218109935522,0.0,0.0,0.3541313409805298,-0.1373713016510009
0.0013654709327965,0.451580286026001,0.0022456631995737,-0.7242909073829651,9.38638040679507e-05,-0.0086616212502121,0.0,0.0,-0.1244643926620483,0.1647439002990722
0.0013458251487463,0.4347177743911743,-0.0014903574483469,-0.749445915222168,-0.0003789628681261,-0.0094564612954854,0.0,0.0,0.8738913536071777,-0.3333964943885803
0.001345157623291,0.4179192781448364,0.0001774559787008,-0.7466011643409729,-0.0006224242970347,-0.0048694424331188,0.0,0.0,0.9151992797851562,-0.7378513216972351
0.0011200904846191,0.4017784595489502,-0.0234173443168401,-0.7173700332641602,0.0002690905239433,0.0178304724395275,0.0,0.0,0.895071268081665,-0.3944301605224609
0.0009945869678631,0.3859615921974182,-0.0140801845118403,-0.7029746174812317,0.0017776601016521,0.0301714036613702,0.0,0.0,0.878018856048584,-0.0259171724319458
0.0008515358204022,0.3706239461898803,-0.0159215293824672,-0.6816768050193787,0.0033722491934895,0.0318919941782951,0.0,0.0,0.97272789478302,0.3725742101669311
0.0006719589000567,0.3554382622241974,-0.0195762775838375,-0.6749210357666016,0.0049725524149835,0.0320061258971691,0.0,0.0,0.801361083984375,0.5031416416168213
0.0003406524774618,0.3406527936458587,-0.0332789346575737,-0.657133162021637,0.0051165083423256,0.0028789513744413,0.0,0.0,0.6350700855255127,0.2604357004165649
-2.002716064453125e-05,0.32657191157341,-0.0362678840756416,-0.6258174777030945,0.0053219646215438,0.0041093472391366,0.0,0.0,0.915647029876709,0.6056602001190186
-0.0002797126653604,0.3124277293682098,-0.0252094306051731,-0.6286318302154541,0.0045628538355231,-0.0151821579784154,0.0,0.0,0.9339909553527832,0.2650558948516845
-0.0005602836608886,0.2992165982723236,-0.0273946970701217,-0.5871570110321045,0.0039140018634498,-0.0129774687811732,0.0,0.0,0.8870447874069214,0.4796798229217529
-0.0009989738464355,0.2862498760223388,-0.0426686704158782,-0.5762948989868164,0.0027320042718201,-0.0236397068947553,0.0,0.0,0.9368088245391846,0.3626989126205444
-0.0015965461498126,0.2739074826240539,-0.0580249428749084,-0.5485492944717407,0.001016361056827,-0.0343128778040409,0.0,0.0,0.930932879447937,0.4574570655822754
-0.0022086142562329,0.2620901763439178,-0.0596058554947376,-0.5252104997634888,-0.0005684405914507,-0.0316959992051124,0.0,0.0,0.6724891662597656,0.6891038417816162
-0.0029580115806311,0.2509972751140594,-0.0715884715318679,-0.4930243492126465,-0.0038689663633704,-0.0660108476877212,0.0,0.0,-0.3324732184410095,-0.6255525350570679
-0.0038013458251953,0.2393386662006378,-0.0820651948451995,-0.518166184425354,-0.0061125364154577,-0.0448713265359401,0.0,0.0,0.4676688909530639,-0.0019134879112243
-0.0047234534285962,0.2276355773210525,-0.0897624865174293,-0.5201486945152283,-0.008529707789421,-0.0483432933688163,0.0,0.0,0.0493444204330444,-0.1826445460319519
-0.0056517599150538,0.2156757265329361,-0.0905504375696182,-0.5315638184547424,-0.0107820564880967,-0.0450469180941581,0.0,0.0,0.7702583074569702,0.6114034652709961
-0.0066155432723462,0.2036891728639602,-0.0927359908819198,-0.5327633023262024,-0.0143782636150717,-0.0719242766499519,0.0,0.0,0.8528261184692383,0.4860051870346069
-0.0076273917220532,0.1924713253974914,-0.0974594354629516,-0.4986138641834259,-0.0180528461933136,-0.0734915435314178,0.0,0.0,-0.3428103327751159,0.0741007328033447
-0.0086907390505075,0.1806876212358474,-0.1025750041007995,-0.5237699747085571,-0.0217623729258775,-0.0741907283663749,0.0,0.0,0.851790189743042,0.0925369262695312
-0.0099112512543797,0.1697161048650741,-0.117677591741085,-0.4876929819583893,-0.0260888300836086,-0.0865290462970733,0.0,0.0,-0.3131688833236694,-0.226447582244873
-0.0111832618713378,0.1581788212060928,-0.1227823346853256,-0.5128495693206787,-0.0304503738880157,-0.0872309952974319,0.0,0.0,0.9061605930328368,0.1024086475372314
-0.0124321933835744,0.1474411785602569,-0.1206578165292739,-0.4773217141628265,-0.0346318855881691,-0.0836303308606147,0.0,0.0,0.7360842227935791,-0.348446249961853
-0.0138175962492823,0.1370499432086944,-0.1337725222110748,-0.4619513750076294,-0.039341315627098,-0.0941886976361274,0.0,0.0,0.7117100954055786,0.1252975463867187
-0.0152829168364405,0.1271489411592483,-0.141457587480545,-0.4401852786540985,-0.0443490669131279,-0.1001549959182739,0.0,0.0,0.9078680276870728,0.4523918628692627
-0.0167765617370605,0.1178933233022689,-0.1441963911056518,-0.4115226566791534,-0.049456525593996,-0.1021491140127182,0.0,0.0,0.6829700469970703,0.9794387817382812
-0.0181135181337595,0.1089471206068992,-0.1266536563634872,-0.3978556096553802,-0.0564202703535556,-0.1392747908830642,0.0,0.0,0.8681497573852539,0.799612283706665
-0.019386101514101,0.0999998450279235,-0.1186296343803405,-0.3980077803134918,-0.0649519562721252,-0.1706336438655853,0.0,0.0,0.9245717525482178,-0.0872213840484619
-0.0205694194883108,0.0911790952086448,-0.1101742014288902,-0.3924112319946289,-0.073020301759243,-0.1613669991493225,0.0,0.0,0.9566653966903688,-0.669543981552124
-0.0216178894042968,0.0827898606657981,-0.0984966531395912,-0.3731764554977417,-0.0793120414018631,-0.1258349418640136,0.0,0.0,0.93441641330719,-0.1407827138900756
-0.0225149150937795,0.0745062679052352,-0.0840760320425033,-0.3684683442115783,-0.0848860144615173,-0.1114792674779892,0.0,0.0,0.9619460105895996,-0.7183820605278015
-0.023447036743164,0.067003808915615,-0.088972583413124,-0.3336893320083618,-0.0890824571251869,-0.0839288085699081,0.0,0.0,0.6188886165618896,-0.0076689720153808
-0.0243291854858398,0.0600420795381069,-0.0840839892625808,-0.309661716222763,-0.0931766778230667,-0.0818844437599182,0.0,0.0,0.9491801261901855,-0.0263790488243103
-0.025037383660674,0.0536695085465908,-0.0673404708504676,-0.283447802066803,-0.0966296717524528,-0.0690596029162406,0.0,0.0,0.2750613689422607,-0.3474990129470825
-0.0256886482238769,0.047095950692892,-0.0619656331837177,-0.292364090681076,-0.0997614115476608,-0.0626350194215774,0.0,0.0,0.8937816619873047,0.0798660516738891
-0.0263854973018169,0.0408368222415447,-0.0662138536572456,-0.2784178853034973,-0.1032110676169395,-0.0689931064844131,0.0,0.0,0.8933752775192261,0.1387462615966797
-0.026927089318633,0.0354722589254379,-0.0510846748948097,-0.2386424988508224,-0.1062517538666725,-0.0608140937983989,0.0,0.0,0.5063865184783936,0.3630887269973755
-0.0274765975773334,0.0303191281855106,-0.0517524369060993,-0.2292553782463073,-0.109430968761444,-0.0635843425989151,0.0,0.0,0.5453770160675049,0.4281589984893799
-0.0281015392392873,0.0257289037108421,-0.0587056949734687,-0.2042937874794006,-0.1131892725825309,-0.075166031718254,0.0,0.0,0.2225732803344726,0.4388543367385864
-0.0286439899355173,0.0213315822184085,-0.0507177226245403,-0.1957060396671295,-0.1166907325387001,-0.0700293034315109,0.0,0.0,0.2696523666381836,0.027278184890747
-0.0291988365352153,0.0172347407788038,-0.051731813699007,-0.1823811084032058,-0.1204241439700126,-0.0746679753065109,0.0,0.0,0.6043305397033691,0.6336163282394409
-0.0297403335571289,0.0136662581935524,-0.0488890670239925,-0.1590344011783599,-0.1256604045629501,-0.1047249287366867,0.0,0.0,0.3656389713287353,0.5587257146835327
-0.0301665309816598,0.0109073733910918,-0.0547634661197662,-0.1216399669647216,-0.1135741248726844,0.2417463511228561,1.0,0.0,0.1321886777877807,0.7652689218521118
-0.03047351911664,0.0088582010939717,-0.0583425983786582,-0.0892173424363136,-0.0860982984304428,0.5495771169662476,1.0,0.0,-0.005262017250061,0.1657654047012329
-0.0307166092097759,0.0066768145188689,-0.0631279200315475,-0.0951797813177108,-0.0476407557725906,0.7692235708236694,1.0,0.0,0.8326106071472168,0.9689040184020996
-0.0307371132075786,0.0050987456925213,-0.0378843806684017,-0.0693751126527786,-0.0122584011405706,0.7076475620269775,1.0,0.0,0.600517749786377,0.9834688901901244
-0.0306080821901559,0.0034953569993376,-0.0210302677005529,-0.0713256448507309,0.0212405230849981,0.6699797511100769,0.0,0.0,0.1309739351272583,0.9238216876983644
-0.0303356163203716,0.0021364425774663,-0.0047758864238858,-0.0611533001065254,0.052873708307743,0.6326643824577332,0.0,1.0,0.4359371662139892,0.9984445571899414
-0.0301344878971576,0.0016725277528166,0.0019768676720559,-0.0216068960726261,0.0697054266929626,0.3352137207984924,0.0,1.0,-0.6455606818199158,0.9786055088043212
-0.0299510955810546,0.0012068962678313,0.0194558203220367,-0.0206601433455944,0.0685509741306305,-0.0231562331318855,0.0,1.0,-0.3969594240188598,0.1504878997802734
-0.0298488624393939,0.0006564712384715,0.0249160677194595,-0.0238606985658407,0.0539883002638816,-0.2912883162498474,0.0,1.0,-0.0613667964935302,-0.0436950325965881
-0.0297976490110158,-0.000145437719766,0.0285570472478866,-0.0349641777575016,0.0308108404278755,-0.4635834693908691,0.0,1.0,-0.1118768453598022,-0.2656662464141845
-0.0297657009214162,-0.0013724231394007,0.0303185284137725,-0.0541978888213634,0.004001694265753,-0.5362199544906616,1.0,1.0,0.2808425426483154,-0.4047911763191223
-0.0295825954526662,-0.0018370890757068,0.0292057953774929,-0.0208141151815652,-0.0061893267557024,-0.2031050622463226,1.0,1.0,-0.0915378332138061,-0.4504425525665283
-0.02936477586627,-0.0020047449506819,0.0207862071692943,-0.0074611362069845,-0.0052114170975983,0.0195532254874706,1.0,1.0,-0.5758676528930664,-0.1802483797073364
-0.0291951186954975,-0.0017763638170436,0.0116959847509861,0.0101525532081723,-5.5857590268715285e-06,0.1041129380464553,1.0,1.0,-0.553958535194397,0.2280771732330322
-0.0290367119014263,-0.0011791968718171,0.010369717143476,0.0265441499650478,0.0053588515147566,0.1072374358773231,1.0,1.0,-0.6797929406166077,0.4101181030273437
-0.0290008541196584,-0.0005642199539579,0.0083489324897527,0.0273393895477056,0.0006665265536867,-0.0938405096530914,1.0,1.0,-0.538069486618042,-0.2942817211151123
-0.0289273262023925,-0.0004346156201791,0.0083983978256583,0.0057556321844458,-0.0003548215318005,-0.0204121656715869,1.0,1.0,-0.6175276637077332,0.0597624778747558
-0.0288857463747262,-0.0004366898501757,0.0041712564416229,-9.464851609664038e-05,-0.0003565166553016,-2.427939762128517e-05,1.0,1.0,-0.5974358320236206,0.1670758724212646
-0.02888660505414,-0.000437619688455,-7.170301250880584e-05,-4.19063690060284e-05,-0.0003555270959623,2.6031450033769943e-05,1.0,1.0,-0.7965909242630005,0.0045698881149291
-0.0289004333317279,-0.0004375481512397,-0.0014121687272563,-5.041920871917682e-07,-0.0003340902330819,0.0004232905921526,1.0,1.0,-0.7330242395401001,0.1699365377426147
