x_pos,y_pos,x_vel,y_vel,angle,ang_vel,leg_1,leg_2,main_booster,lat_booster
-0.0015256882179528,1.4033949375152588,-0.1546103060245514,-0.3344467282295227,0.0018282462842762,0.036068707704544,0.0,0.0,-0.1616596579551696,0.8445898294448853
-0.0029805183876305,1.3956598043441772,-0.145550400018692,-0.343787133693695,0.0018901844741776,0.0012393442448228,0.0,0.0,-0.284787654876709,0.8401913642883301
-0.0043549537658691,1.3876888751983645,-0.135579913854599,-0.3542651832103729,5.493963908520527e-05,-0.0367086045444011,0.0,0.0,0.1617002487182617,0.4692645072937011
-0.0058124540373682,1.380015254020691,-0.1436476558446884,-0.3410438597202301,-0.0020122549030929,-0.0413480699062347,0.0,0.0,0.2249987125396728,0.6053657531738281
-0.0071137426421046,1.372839093208313,-0.1272482275962829,-0.3189483284950256,-0.0048693302087485,-0.0571469292044639,0.0,0.0,-0.2302566766738891,-0.2085996866226196
-0.0084128379821777,1.3654334545135498,-0.1272535771131515,-0.3291486799716949,-0.0074847270734608,-0.0523126944899559,0.0,0.0,-0.4447146654129028,-0.3154383897781372
-0.0097087863832712,1.3577985763549805,-0.1272223740816116,-0.3393426835536957,-0.0098245618864893,-0.0468010082840919,0.0,0.0,-0.3855437636375427,-0.0800788402557373
-0.0110008241608738,1.349934220314026,-0.1271576583385467,-0.3495390117168426,-0.0118559394031763,-0.0406313836574554,0.0,0.0,-0.4897775650024414,-0.2251935601234436
-0.0122886653989553,1.3418405055999756,-0.1270635575056076,-0.359735369682312,-0.0135476179420948,-0.0338366962969303,0.0,0.0,-0.370158314704895,0.6203422546386719
-0.013522719964385,1.3335201740264893,-0.1208187490701675,-0.3698149025440216,-0.0160971023142337,-0.050994623452425,0.0,0.0,-0.7451784610748291,0.6636815071105957
-0.0146913528442382,1.3249696493148804,-0.1131762713193893,-0.3800709843635559,-0.0197515152394771,-0.0730950012803077,0.0,0.0,-0.4583269953727722,0.509584903717041
-0.0158092491328716,1.3161873817443848,-0.107381448149681,-0.3903887569904327,-0.024109847843647,-0.0871746391057968,0.0,0.0,-0.5344066619873047,0.0153204202651977
-0.0169206615537405,1.307175636291504,-0.1071966737508773,-0.4005859494209289,-0.0280187483876943,-0.0781850814819336,0.0,0.0,-0.8643461465835571,0.2612731456756592
-0.0180253982543945,1.2979345321655271,-0.1070019826292991,-0.4107827544212341,-0.031455423682928,-0.068739466369152,0.0,0.0,-0.6988866925239563,0.7147583961486816
-0.0190533641725778,1.2884682416915894,-0.0980612412095069,-0.4208338558673858,-0.0361469872295856,-0.0938396751880645,0.0,0.0,-0.5374515056610107,-0.4236793518066406
-0.0200740806758403,1.2787725925445557,-0.0978532508015632,-0.4310308694839477,-0.0403233282268047,-0.0835342854261398,0.0,0.0,-0.6285614967346191,0.0218822956085205
-0.021087359637022,1.2688472270965576,-0.0976477712392807,-0.4412274360656738,-0.0439668931066989,-0.0728779882192611,0.0,0.0,-0.946547508239746,0.1838581562042236
-0.0220930092036724,1.2586922645568848,-0.0974482595920562,-0.4514234960079193,-0.0470600835978984,-0.0618692450225353,0.0,0.0,-0.9236469268798828,-0.4856971502304077
-0.0230911262333393,1.2483078241348269,-0.0972590073943138,-0.4616190791130066,-0.0495869629085063,-0.0505417175590992,0.0,0.0,-0.9481241106987,0.8763141632080078
-0.0240217205137014,1.237688660621643,-0.089571326971054,-0.4720816016197204,-0.0530412197113037,-0.0690915286540985,0.0,0.0,-0.220244288444519,0.3734786510467529
-0.0249446872621774,1.2268397808074951,-0.0894105732440948,-0.4822770655155182,-0.055900078266859,-0.0571818277239799,0.0,0.0,-0.5459165573120117,-0.7928987145423889
-0.0259217265993356,1.2157617807388306,-0.0969883054494857,-0.4923840165138244,-0.0566069036722183,-0.0141376238316297,0.0,0.0,-0.9339721202850342,-0.2743221521377563
-0.0268914215266704,1.204453706741333,-0.0968822091817855,-0.5025780200958252,-0.0566958598792552,-0.0017794028390198,0.0,0.0,-0.2240419387817382,-0.3466536402702331
-0.0278540607541799,1.192915916442871,-0.096806526184082,-0.5127719044685364,-0.0561555176973342,0.010807710699737,0.0,0.0,-0.4794049263000488,-0.7085413932800293
-0.0288789756596088,1.181156039237976,-0.1054373383522033,-0.5225533843040466,-0.0532336607575416,0.0584422051906585,0.0,0.0,-0.8700523376464844,0.656669020652771
-0.0298585891723632,1.1691453456878662,-0.1005695611238479,-0.5337207913398743,-0.050654362887144,0.0515858046710491,0.0,0.0,-0.6745118498802185,0.6657130718231201
-0.0307787898927927,1.156904935836792,-0.0939481928944587,-0.5439531803131104,-0.0487513057887554,0.0380611456930637,0.0,0.0,-0.6672011017799377,0.7845017910003662
-0.0316442474722862,1.1444393396377563,-0.0879107192158699,-0.5539819002151489,-0.0474053062498569,0.0269201397895813,0.0,0.0,-0.8247556090354919,0.461713433265686
-0.0325042717158794,1.1317440271377563,-0.0880408659577369,-0.5641738772392273,-0.0453884154558181,0.0403378084301948,0.0,0.0,-0.4474897384643554,-0.3752951622009277
-0.0333592407405376,1.118818998336792,-0.0882239192724227,-0.5743662714958191,-0.0426941066980361,0.0538860782980918,0.0,0.0,-0.8938015699386597,0.737994909286499
-0.0341492667794227,1.1056686639785769,-0.0808912068605423,-0.5844045281410217,-0.0408290214836597,0.0373017378151416,0.0,0.0,-0.8302311897277832,0.2112325429916381
-0.0349353775382041,1.0922887325286863,-0.0811918750405311,-0.5945969820022583,-0.0382749699056148,0.0510809309780597,0.0,0.0,-0.8464513421058655,0.4176602363586426
-0.035718061029911,1.0786792039871216,-0.0815571695566177,-0.6047899127006531,-0.0350268445909023,0.0649623498320579,0.0,0.0,-0.6247971653938293,0.6782783269882202
-0.036450196057558,1.064831256866455,-0.0759866386651992,-0.6153976917266846,-0.032287124544382,0.0547945015132427,0.0,0.0,-0.922968566417694,0.9217934608459472
-0.0371053703129291,1.0507521629333496,-0.0670926496386528,-0.6257079839706421,-0.0307270716875791,0.0312008522450923,0.0,0.0,-0.9477577805519104,-0.2879623770713806
-0.0377591140568256,1.0364433526992798,-0.0676740258932113,-0.6359010934829712,-0.0284597780555486,0.0453460030257701,0.0,0.0,-0.1221294403076171,0.3474006652832031
-0.0384122841060161,1.0219049453735352,-0.0683345943689346,-0.6460944414138794,-0.0254814699292182,0.0595666281878948,0.0,0.0,-0.6102805733680725,0.5169355869293213
-0.0390220656991004,1.0071394443511963,-0.0636151805520057,-0.6562041640281677,-0.022881381213665,0.0520018152892589,0.0,0.0,0.2722597122192383,0.2382236719131469
-0.0396483428776264,0.9931184649467468,-0.0658449903130531,-0.6231078505516052,-0.0197036750614643,0.0635542720556259,0.0,0.0,-0.5759316682815552,0.7899696826934814
-0.0402110107243061,0.9788671135902404,-0.0585507154464721,-0.633365273475647,-0.0174498576670885,0.045076411217451,0.0,0.0,-0.5039406418800354,-0.2371686697006225
-0.0407763496041297,0.9643863439559937,-0.059560377150774,-0.6435592770576477,-0.0144723579287529,0.0595501735806465,0.0,0.0,-0.5184416174888611,0.1969454288482666
-0.0413454994559288,0.9496760964393616,-0.0606647059321403,-0.6537536978721619,-0.0107685113325715,0.0740769654512405,0.0,0.0,-0.8102725148200989,0.759438157081604
-0.0418495163321495,0.9347269535064696,-0.0531153008341789,-0.6643849015235901,-0.0080900406464934,0.0535692386329174,0.0,0.0,-0.7846121788024902,0.5644509792327881
-0.0423070900142192,0.9195467829704284,-0.0478886067867279,-0.674666166305542,-0.0059880102053284,0.0420407317578792,0.0,0.0,-0.298866331577301,0.7934706211090088
-0.0427127853035926,0.9041271805763244,-0.041948776692152,-0.6853082776069641,-0.0046242270618677,0.0272753834724426,0.0,0.0,0.3967494964599609,-0.2105079293251037
-0.0430859550833702,0.8889016509056091,-0.0396227836608886,-0.6766811609268188,-0.0023454392794519,0.045575525611639,0.0,0.0,-0.7674134373664856,0.6401859521865845
-0.0434120185673236,0.8734433054924011,-0.0342359915375709,-0.687042772769928,-0.000731453183107,0.0322799012064933,0.0,0.0,-0.6623240113258362,0.0634772777557373
-0.0437477119266986,0.8577554225921631,-0.0359570421278476,-0.6972375512123108,0.0016215989599004,0.0470610633492469,0.0,0.0,-0.5871039628982544,0.2050986289978027
-0.0440941825509071,0.8418383002281189,-0.0377870947122573,-0.707432746887207,0.0047153825871646,0.0618756487965583,0.0,0.0,-0.7586422562599182,0.5957348346710205
-0.0444070808589458,0.8256906867027283,-0.0340192578732967,-0.7176869511604309,0.0074084443040192,0.0538612380623817,0.0,0.0,-0.5775503516197205,0.4911236763000488
-0.0447329506278038,0.8093137145042419,-0.0360706932842731,-0.7278826236724854,0.010845249518752,0.0687362775206565,0.0,0.0,-0.3979802131652832,0.7863433361053467
-0.0450166687369346,0.7927139401435852,-0.0311764385551214,-0.7377947568893433,0.0136126931756734,0.0553490296006202,0.0,0.0,-0.2123281359672546,0.6985719203948975
-0.0452502258121967,0.7758822441101074,-0.0252535846084356,-0.7480893731117249,0.0154852997511625,0.0374520495533943,0.0,0.0,0.5981886386871338,0.743628740310669
-0.0454498305916786,0.7599871158599854,-0.0211241692304611,-0.7064638733863831,0.0166325997561216,0.0229460299015045,0.0,0.0,-0.4772660732269287,-0.1964246034622192
-0.0456668846309185,0.7438628077507019,-0.0236252415925264,-0.7166596055030823,0.0185285117477178,0.0379183590412139,0.0,0.0,-0.3519963026046753,0.5388088226318359
-0.0458665862679481,0.7275079488754272,-0.0217352770268917,-0.7269067168235779,0.0202726498246192,0.0348826870322227,0.0,0.0,-0.0572861433029174,0.9292392730712892
-0.0460010543465614,0.7109348773956299,-0.0138067035004496,-0.7365788817405701,0.0206300169229507,0.007147473283112,0.0,0.0,-0.1284487843513488,0.0451493263244628
-0.0461562164127826,0.6941328048706055,-0.0166436601430177,-0.7467747926712036,0.0217386689037084,0.022173061966896,0.0,0.0,-0.506168782711029,0.1591924428939819
-0.0463332161307334,0.6771015524864197,-0.0195911098271608,-0.7569709420204163,0.0235992949455976,0.0372126325964927,0.0,0.0,0.5501549243927002,0.6772444248199463
-999.0,0.6609519720077515,-0.0253309812396764,-0.7177805304527283,0.024704772979021,0.022109854966402,0.0,0.0,-0.6171727776527405,0.8085277080535889
-0.0467720031738281,0.6445687413215637,-0.0197762008756399,-0.7281453013420105,0.0248192176222801,0.002288803923875,0.0,0.0,-0.1468278169631958,0.7581524848937988
-0.046943761408329,0.6279622316360474,-0.0167813636362552,-0.7380626797676086,0.0244299732148647,-0.0077850827947258,0.0,0.0,0.0901134014129638,0.2621206045150757
-0.0470684990286827,0.6116412281990051,-0.0132250441238284,-0.7253895998001099,0.0251714885234832,0.0148302111774683,0.0,0.0,-0.1092782020568847,0.0934153795242309
-0.047220516949892,0.5950911641120911,-0.0167047791182994,-0.7355859875679016,0.0266670044511556,0.0299100074917078,0.0,0.0,0.2085219621658325,0.975180983543396
-0.0473242774605751,0.5787477493286133,-0.0107030794024467,-0.7263779044151306,0.0269789490848779,0.00623878557235,0.0,0.0,0.6065194606781006,0.7642356157302856
-0.0475451461970806,0.5630345344543457,-0.0213748421519994,-0.6983532309532166,0.02628044039011,-0.0139699112623929,0.0,0.0,-0.4688301086425781,0.9706823825836182
-0.0477167144417762,0.5471066236495972,-0.0151921864598989,-0.7078717350959778,0.0243352614343166,-0.0389036163687706,0.0,0.0,0.5997823476791382,0.1130824089050293
-0.0478468909859657,0.5313772559165955,-0.0121775949373841,-0.6990724205970764,0.0235113650560379,-0.0164778884500265,0.0,0.0,0.4773440361022949,0.9702504873275756
-0.04792270809412,0.5165783762931824,-0.0055826441384851,-0.6576987504959106,0.0215350985527038,-0.0395251475274562,0.0,0.0,-0.7667489647865295,0.9836580753326416
-0.0479657165706157,0.5015482306480408,-0.00138949486427,-0.6679674983024597,0.0186612047255039,-0.0574777908623218,0.0,0.0,-0.0428050756454467,0.3145215511322021
-0.0480424873530864,0.4862889349460602,-0.0055283000692725,-0.6781638860702515,0.0165392663329839,-0.042438980191946,0.0,0.0,-0.2886266708374023,0.9266370534896852
-0.0480769164860248,0.4708043038845062,-8.284281648229808e-05,-0.6881759166717529,0.0132313221693038,-0.066159039735794,0.0,0.0,-0.5776276588439941,0.5749328136444092
-0.0481109619140625,0.4550976455211639,9.523070184513928e-05,-0.6980466842651367,0.0097743021324276,-0.0691403150558471,0.0,0.0,0.827998161315918,0.7822659015655518
-0.0480366721749305,0.4401224851608276,0.0115546081215143,-0.6655415892601013,0.0056967190466821,-0.081551469862461,0.0,0.0,0.365997314453125,0.3407944440841675
-0.0480291359126567,0.4254029393196106,0.0042570657096803,-0.654191255569458,0.0022376293782144,-0.0691820383071899,0.0,0.0,0.8010627031326294,-0.2363135814666748
-0.0479860305786132,0.4109859466552734,0.0067149857059121,-0.6407520174980164,-0.0001327104109805,-0.0474069491028785,0.0,0.0,-0.1720404624938964,0.5391745567321777
-0.0479409210383892,0.3963342905044555,0.0071885413490235,-0.6511865854263306,-0.0027749764267355,-0.0528451092541217,0.0,0.0,0.1622803211212158,0.4964971542358398
-0.0479393005371093,0.3822903931140899,0.0021182941272854,-0.6241798400878906,-0.0047025354579091,-0.0385513678193092,0.0,0.0,-0.1715731024742126,0.8910388946533203
-0.0478974357247352,0.3680254817008972,0.0074153756722807,-0.634010374546051,-0.0078977402299642,-0.063904121518135,0.0,0.0,0.9879250526428224,0.6786668300628662
-0.0479795448482036,0.3550143241882324,-0.0039775781333446,-0.5783017873764038,-0.0120784500613808,-0.083614245057106,0.0,0.0,-0.4233173131942749,-0.2939727306365967
-0.0481026656925678,0.3417738676071167,-0.0088255163282155,-0.5884971618652344,-0.0155249396339058,-0.0689295679330825,0.0,0.0,0.9376825094223022,0.5612833499908447
-0.0481582656502723,0.3296974301338196,-0.0018254844471812,-0.536776602268219,-0.019212257117033,-0.0737462565302848,0.0,0.0,0.6164133548736572,-0.1219452023506164
-0.048344325274229,0.3182388246059418,-0.0151440752670168,-0.5093194246292114,-0.0226306151598691,-0.0683673247694969,0.0,0.0,-0.3682477474212646,-0.7387349009513855
-0.0486368164420127,0.3065559864044189,-0.0281439069658517,-0.5192549824714661,-0.0237221494317054,-0.0218304079025983,0.0,0.0,-0.0057668089866638,0.7690321207046509
-0.0489127151668071,0.2946453988552093,-0.0257051326334476,-0.5293921828269958,-0.0255930162966251,-0.0374171510338783,0.0,0.0,0.1079601049423217,0.8725085258483887
-0.0490849502384662,0.2830852270126343,-0.0143115194514393,-0.5138400793075562,-0.0284651573747396,-0.0574429407715797,0.0,0.0,0.6540358066558838,0.0696734189987182
-0.049267865717411,0.2718082070350647,-0.0162082239985466,-0.5012393593788147,-0.0305177830159664,-0.0410527810454368,0.0,0.0,0.2814853191375732,0.3072290420532226
-0.0494138710200786,0.2607665956020355,-0.0135709941387176,-0.490760862827301,-0.0315334051847457,-0.0203122999519109,0.0,0.0,-0.1853910088539123,0.751815915107727
-0.0495307929813861,0.2494915872812271,-0.0094937710091471,-0.5011579394340515,-0.0337117314338684,-0.0435664057731628,0.0,0.0,0.7963049411773682,-0.1020039319992065
-0.0495272651314735,0.2386221289634704,0.0011518533574417,-0.4831047356128692,-0.0344974398612976,-0.015714056789875,0.0,0.0,0.8569796085357666,0.3366107940673828
-0.0495467185974121,0.2287892252206802,-0.0018089569639414,-0.4370228350162506,-0.0346283614635467,-0.0026184238959103,0.0,0.0,-0.0426809191703796,0.8670425415039062
-0.0495399460196495,0.2187293618917465,0.0019566039554774,-0.4471322000026703,-0.0358953587710857,-0.0253399275243282,0.0,0.0,0.2261673212051391,0.7006447315216064
-0.049402616918087,0.2091761231422424,0.0156156299635767,-0.4246357381343841,-0.0377484671771526,-0.0370623208582401,0.0,0.0,0.0055822134017944,-0.4593617916107178
-0.0492431633174419,0.1996874660253524,0.016870567575097,-0.421739399433136,-0.0386588461697101,-0.018207412213087,0.0,0.0,0.2819976806640625,-0.8647913932800293
-0.0492305755615234,0.1905656605958938,-0.0001811792462831,-0.4053774774074554,-0.0372389703989028,0.0283976402133703,0.0,0.0,-0.2343583106994629,0.4679752588272095
-0.0492652878165245,0.1812141984701156,-0.0055591738782823,-0.415570318698883,-0.0351809822022914,0.0411596335470676,0.0,0.0,-0.2993122339248657,-0.2656773328781128
-0.0493475906550884,0.1716331392526626,-0.0109511017799377,-0.4257634282112121,-0.032496478408575,0.0536899156868457,0.0,0.0,0.2619540691375732,0.8641836643218994
-0.0494986549019813,0.1627433598041534,-0.0166113749146461,-0.3950699269771576,-0.0310005210340023,0.0299191214144229,0.0,0.0,-0.5497949123382568,0.8944175243377686
-0.0496165268123149,0.1536246389150619,-0.0118537563830614,-0.4052728116512298,-0.0309396553784608,0.0012175099691376,0.0,0.0,-0.0525107979774475,0.7198057174682617
-0.0497306808829307,0.1442791074514389,-0.0107519198209047,-0.4153685867786407,-0.0315964259207248,-0.013135296292603,0.0,0.0,0.0776939392089843,0.2428619861602783
-0.049931813031435,0.1354389041662216,-0.019769724458456,-0.3929069340229034,-0.0319319665431976,-0.0067108245566487,0.0,0.0,-0.1657909154891967,0.6884447336196899
-0.0501293167471885,0.1263642460107803,-0.0186462514102458,-0.4033414125442505,-0.0330261439085006,-0.021883450448513,0.0,0.0,0.626753568649292,0.7767964601516724
-0.0504213348031044,0.1179518327116966,-0.0268344916403293,-0.3739398717880249,-0.035360500216484,-0.046687114983797,0.0,0.0,0.2748796939849853,0.1382429599761963
-0.0508638396859169,0.1099219396710395,-0.0418805666267871,-0.3569456338882446,-0.0377136394381523,-0.0470627881586551,0.0,0.0,0.2433415651321411,0.691353440284729
-0.0511910431087017,0.1024689748883247,-0.0295778475701808,-0.3313233554363251,-0.0408160649240016,-0.0620483085513114,0.0,0.0,0.0174120664596557,0.390852689743042
-0.0515203475952148,0.0951247289776802,-0.0304496996104717,-0.3264796435832977,-0.043265875428915,-0.0489962585270404,0.0,0.0,0.078524112701416,0.7106525897979736
-0.0517127998173236,0.0882921814918518,-0.0158971585333347,-0.3037691116333008,-0.0465753898024559,-0.0661901608109474,0.0,0.0,0.4470651149749756,0.3917504549026489
-0.0519429221749305,0.0822499096393585,-0.0200064834207296,-0.2686395347118377,-0.0495447665452957,-0.0593875832855701,0.0,0.0,-0.5038227438926697,0.5239143371582031
-0.0521709434688091,0.0759804844856262,-0.0189082901924848,-0.2787756621837616,-0.0533938705921173,-0.0769820660352706,0.0,0.0,-0.229012131690979,-0.099245548248291
-0.0524483695626258,0.0694815963506698,-0.0242350250482559,-0.2889697253704071,-0.0568594075739383,-0.0693107396364212,0.0,0.0,0.362905740737915,0.207055926322937
-0.0527427680790424,0.0637623369693756,-0.026272352784872,-0.2543121874332428,-0.0599951185286045,-0.0627142712473869,0.0,0.0,-0.1644656658172607,0.5169994831085205
-0.0530414581298828,0.0578140579164028,-0.025885721668601,-0.2645298838615417,-0.063932329416275,-0.0787442252039909,0.0,0.0,0.1813039779663086,0.5653088092803955
-0.0532605163753032,0.0521140433847904,-0.0172105859965086,-0.2535440027713775,-0.0685773566365242,-0.0929007604718208,0.0,0.0,-0.2739323377609253,0.3163514137268066
-0.0535287857055664,0.0461845733225345,-0.0224149338901042,-0.2637388408184051,-0.0729488730430603,-0.0874303728342056,0.0,0.0,0.5085700750350952,0.4674698114395141
-0.0539289489388465,0.0407418347895145,-0.0352946333587169,-0.2421387284994125,-0.0776185616850853,-0.0933936014771461,0.0,0.0,0.4437476396560669,0.4607458114624023
-0.054358672350645,0.0358086451888084,-0.0383832193911075,-0.2194985896348953,-0.0821613073348999,-0.0908548682928085,0.0,0.0,0.231774091720581,0.7228177785873413
-0.0547259338200092,0.0312297195196151,-0.0308984518051147,-0.2038381546735763,-0.0879334583878517,-0.1154430657625198,0.0,0.0,-0.0033501982688903,0.902423620223999
-0.055055808275938,0.0264022443443536,-0.0251070912927389,-0.2150375992059707,-0.0957437381148338,-0.1562056988477707,0.0,0.0,0.7141144275665283,0.6240530014038086
-0.055208396166563,0.0223853681236505,-0.0065114712342619,-0.179108127951622,-0.1044091060757637,-0.1733074784278869,0.0,0.0,0.4626250267028808,-0.8095201849937439
-0.0553729049861431,0.0192190743982791,-0.0094797722995281,-0.1412283629179,-0.1113314852118492,-0.1384477615356445,0.0,0.0,0.0857542753219604,-0.1415022015571594
