x_pos,y_pos,x_vel,y_vel,angle,ang_vel,leg_1,leg_2,main_booster,lat_booster
-0.0014994621742516,1.403499960899353,-0.1522227078676223,-0.3297815918922424,0.0020465569104999,0.0403912439942359,0.0,0.0,-0.3048378825187683,0.6147398948669434
-0.0029221535660326,1.3959758281707764,-0.1432514488697052,-0.3344097137451172,0.0030116490088403,0.0193041693419218,0.0,0.0,-0.1554922461509704,0.6850706338882446
-0.0042549134232103,1.3883219957351685,-0.1328682750463485,-0.3401690423488617,0.002611776581034,-0.0079981628805398,0.0,0.0,-0.1572972536087036,0.556767463684082
-0.0055282590910792,1.3805420398712158,-0.1263350546360016,-0.34577676653862,0.001618091831915,-0.0198752731084823,0.0,0.0,0.1531999111175537,0.6253393888473511
-0.0066287042573094,1.373322606086731,-0.1082415729761123,-0.3208588063716888,-0.0001560792152304,-0.0354866869747638,0.0,0.0,-0.3813273310661316,0.2669200897216797
-0.0077051161788403,1.365978717803955,-0.1061443910002708,-0.3263954818248749,-0.0016398328589275,-0.0296779312193393,0.0,0.0,-0.1306177377700805,0.2351570129394531
-0.008757877163589,1.3585103750228882,-0.1040659099817276,-0.3319246470928192,-0.0028334166854619,-0.0238741002976894,0.0,0.0,-0.826589047908783,0.8156528472900391
-0.0097068790346384,1.3509197235107422,-0.0919573307037353,-0.3373694717884063,-0.0057514593936502,-0.0583660379052162,0.0,0.0,-0.7044992446899414,-0.5715999603271484
-0.0106784822419285,1.3432111740112305,-0.0956717282533645,-0.3426032662391662,-0.0072231017984449,-0.0294353999197483,0.0,0.0,-0.9049368500709534,0.1203159093856811
-0.0116271022707223,1.3353782892227173,-0.0936569049954414,-0.3481346666812897,-0.0084051229059696,-0.0236431472003459,0.0,0.0,-0.2792543172836303,-0.0942525267601013
-0.0125528331845998,1.327420949935913,-0.0916676372289657,-0.3536659181118011,-0.0092964218929409,-0.0178275629878044,0.0,0.0,-0.8539727330207825,0.3338721990585327
-0.0134558677673339,1.319339156150818,-0.0897065699100494,-0.3591971099376678,-0.0098972702398896,-0.0120178014039993,0.0,0.0,-0.8916414976119995,-0.6150633096694946
-0.014374827966094,1.3111364841461182,-0.0925434231758117,-0.3645571172237396,-0.009251601062715,0.0129144918173551,0.0,0.0,-0.8220046162605286,0.6471102237701416
-0.0152149200439453,1.302802562713623,-0.0835179835557937,-0.3704002499580383,-0.0097464919090271,-0.0098983999341726,0.0,0.0,-0.7560562491416931,0.0752381086349487
-0.0160335544496774,1.2943440675735474,-0.0816558450460434,-0.3759314119815826,-0.0099501544609665,-0.0040738070383667,0.0,0.0,-0.707705557346344,0.0268188714981079
-0.0168310161679983,1.2857611179351809,-0.0798336789011955,-0.3814627528190613,-0.0098638143390417,0.0017271498218178,0.0,0.0,-0.6019200086593628,0.5015268325805664
-0.0175590515136718,1.2770589590072632,-0.0719489604234695,-0.3867745101451874,-0.0107097942382097,-0.0169210936874151,0.0,0.0,-0.9185625910758972,-0.0129014253616333
-0.0182667728513479,1.2682321071624756,-0.0702124908566474,-0.3923057913780212,-0.01126488763839,-0.0111027797684073,0.0,0.0,-0.8202921748161316,0.652631402015686
-0.018894862383604,1.2592861652374268,-0.0610135793685913,-0.3976198434829712,-0.0130343055352568,-0.0353916399180889,0.0,0.0,-0.904406487941742,-0.2247065305709839
-0.0195035934448242,1.2502155303955078,-0.0593777373433113,-0.4031516313552856,-0.0145126422867178,-0.0295695960521698,0.0,0.0,-0.9621155858039856,0.2414700984954834
-0.0200936309993267,1.241020441055298,-0.0578011348843574,-0.4086832106113434,-0.0157009195536375,-0.0237677432596683,0.0,0.0,-0.8769322037696838,0.383053183555603
-0.0206655506044626,1.2317008972167969,-0.0562879927456378,-0.4142146408557892,-0.0165988747030496,-0.0179607775062322,0.0,0.0,-0.8805662989616394,-0.1290749311447143
-0.0212202072143554,1.222256779670715,-0.0548429898917675,-0.4197460412979126,-0.0172065496444702,-0.0121548166498541,0.0,0.0,-0.728196918964386,0.4117956161499023
-0.0217580795288085,1.2126882076263428,-0.053470991551876,-0.425277441740036,-0.0175240319222211,-0.0063500688411295,0.0,0.0,-0.981502890586853,0.605412483215332
-0.0222434997558593,1.202995777130127,-0.0475832521915435,-0.4307880997657776,-0.0184712074697017,-0.0189450457692146,0.0,0.0,-0.916238248348236,-0.522952139377594
-0.0227655414491891,1.1931616067886353,-0.0528400316834449,-0.4370703995227813,-0.0178361274302005,0.0127014443278312,0.0,0.0,-0.9953354001045228,0.3670637607574463
-0.0232732780277729,1.1832027435302734,-0.0517158806324005,-0.4425995647907257,-0.0169108398258686,0.0185056217014789,0.0,0.0,-0.8847469091415405,0.0767191648483276
-0.0237678531557321,1.1731195449829102,-0.0506836399435997,-0.4481287598609924,-0.0156952571123838,0.0243116281926631,0.0,0.0,-0.9922895431518556,0.268268346786499
-0.0242500305175781,1.162911891937256,-0.0497482009232044,-0.4536580741405487,-0.0141893168911337,0.0301190223544836,0.0,0.0,-0.9860434532165528,0.3520159721374511
-0.0247209556400775,1.1525797843933103,-0.0489142425358295,-0.4591874480247497,-0.0123929530382156,0.0359271466732025,0.0,0.0,-0.9769490957260132,-0.7206794619560242
-0.0252368934452533,1.1421325206756592,-0.0551122538745403,-0.4642985463142395,-0.0089172683656215,0.0695135742425918,0.0,0.0,-0.9151089191436768,0.4978233575820923
-0.0257436744868755,1.1315609216690063,-0.0544940829277038,-0.4698288142681122,-0.0051512159407138,0.0753208324313163,0.0,0.0,-0.98126620054245,0.7682685852050781
-0.0261899940669536,1.1208717823028564,-0.0474041067063808,-0.475061297416687,-0.0024131175596266,0.0547620728611946,0.0,0.0,-0.9893563389778136,0.6824979782104492
-0.0265812873840332,1.1100521087646484,-0.0409572944045066,-0.4808767437934875,-0.0005984877934679,0.0362923666834831,0.0,0.0,-0.9900904893875122,0.3484463691711426
-0.0269667617976665,1.0991079807281494,-0.0406880155205726,-0.486406534910202,0.0015059855068102,0.0420895144343376,0.0,0.0,-0.9886316061019896,0.7151975631713867
-0.02728958055377,1.0880450010299685,-0.0332237258553504,-0.4916909039020538,0.0024347698781639,0.0185755807906389,0.0,0.0,-0.9617851972579956,0.2494560480117797
-0.0276092533022165,1.076857566833496,-0.0331969410181045,-0.497220516204834,0.0036526399198919,0.0243574045598506,0.0,0.0,-0.9371103048324584,0.4875921010971069
-0.0279269218444824,1.0655457973480225,-0.033292282372713,-0.5027502775192261,0.0051590525545179,0.0301281176507473,0.0,0.0,-0.948945701122284,-0.3330163955688476
-0.0282438285648822,1.0541095733642578,-0.0335093513131141,-0.5082801580429077,0.0069533018395304,0.0358850173652172,0.0,0.0,-0.97890043258667,0.4700497388839721
-0.0285612102597951,1.0425491333007812,-0.0338470339775085,-0.5138100981712341,0.0090345507487654,0.041625041514635,0.0,0.0,-0.9901403188705444,0.8537306785583496
-0.0288247112184762,1.0308723449707031,-0.027333665639162,-0.5189784169197083,0.010004797950387,0.0194048006087541,0.0,0.0,-0.961969554424286,0.1750760078430175
-0.0290910713374614,1.019071102142334,-0.0279064141213893,-0.5245082378387451,0.0112598240375518,0.0251004882156848,0.0,0.0,-0.8821007609367371,0.299896240234375
-0.0293614380061626,1.0071454048156738,-0.0285923816263675,-0.5300381779670715,0.0127982180565595,0.0307679437100887,0.0,0.0,-0.9857014417648317,-0.1866135597229004
-0.0296368598937988,0.9950955510139464,-0.029387941583991,-0.5355682969093323,0.0146183967590332,0.0364033095538616,0.0,0.0,-0.8524040579795837,0.5715169906616211
-0.0298763271421194,0.982915461063385,-0.0249911025166511,-0.5413480401039124,0.0156589150428771,0.0208101850003004,0.0,0.0,-0.7995105981826782,0.522150993347168
-0.0300783161073923,0.9706066250801086,-0.0204081460833549,-0.5470563173294067,0.0158597826957702,0.0040171900764107,0.0,0.0,-0.893409252166748,-0.2259235978126526
-0.0302886012941598,0.9581736326217652,-0.021506717428565,-0.5525862574577332,0.0163358282297849,0.0095211490988731,0.0,0.0,-0.8593848943710327,-0.0939025282859802
-0.0305079463869333,0.9456161856651306,-0.0226967334747314,-0.5581161379814148,0.0170843005180358,0.0149693842977285,0.0,0.0,-0.8378751277923584,-0.1894032955169677
-0.0307374000549316,0.9329344034194946,-0.0239731408655643,-0.5636460781097412,0.0181020535528659,0.0203549899160861,0.0,0.0,-0.8578891158103943,0.1440633535385131
-0.030977725982666,0.9201282858848572,-0.0253308303654193,-0.5691760182380676,0.0193855892866849,0.0256706066429615,0.0,0.0,-0.9500806927680968,-0.4514791965484619
-0.0312296859920024,0.907197892665863,-0.0267646946012973,-0.5747060775756836,0.0209309961646795,0.0309082921594381,0.0,0.0,-0.9139796495437622,0.3856849670410156
-0.0314940437674522,0.8941432237625122,-0.0282697081565856,-0.5802362561225891,0.0227339733392,0.0360595285892486,0.0,0.0,-0.9287278056144714,0.8781439065933228
-0.031689453870058,0.880962073802948,-0.0195336081087589,-0.5858275890350342,0.0227266196161508,-0.0001471314317313,0.0,0.0,-0.9085099101066588,0.2376472949981689
-0.031898595392704,0.8676565885543823,-0.0211663115769624,-0.5913575291633606,0.0229668114334344,0.0048039448447525,0.0,0.0,-0.8720347285270691,-0.199430227279663
-0.0321223251521587,0.8542267680168152,-0.0228558871895074,-0.5968875288963318,0.023448834195733,0.0096402438357472,0.0,0.0,-0.8365327715873718,-0.1458617448806762
-0.0323610305786132,0.8406726717948914,-0.0245979558676481,-0.6024175882339478,0.0241663847118616,0.0143511742353439,0.0,0.0,-0.9340189695358276,0.1382888555526733
-0.0326153747737407,0.8269941210746765,-0.0263883527368307,-0.6079475283622742,0.0251126755028963,0.0189257822930812,0.0,0.0,-0.9692657589912416,0.4174797534942627
-0.0328857414424419,0.813191294670105,-0.0282231513410806,-0.6134776473045349,0.0262802988290786,0.0233526658266782,0.0,0.0,-0.9705656170845032,0.7877435684204102
-0.0331027992069721,0.7992749810218811,-0.0213230121880769,-0.6184931397438049,0.0258993227034807,-0.0076194768771529,0.0,0.0,-0.8392213582992554,-0.6472414135932922
-0.0333947166800498,0.7852377891540527,-0.0304823033511638,-0.623897135257721,0.027172626927495,0.0254662595689296,0.0,0.0,-0.91219162940979,0.3580152988433838
-0.0337040908634662,0.7710763216018677,-0.0324290469288826,-0.6294271349906921,0.0286415293812751,0.0293781645596027,0.0,0.0,-0.9774890542030334,0.611077070236206
-0.0339911468327045,0.756795346736908,-0.0293573047965765,-0.634719729423523,0.0292828138917684,0.0128257777541875,0.0,0.0,-0.969770848751068,-0.2285235524177551
-0.0342965126037597,0.7423900961875916,-0.031363271176815,-0.6402497887611389,0.0300994627177715,0.0163328051567077,0.0,0.0,-0.9093491435050964,-0.330719530582428
-0.0346205718815326,0.7278605699539185,-0.033394880592823,-0.6457797288894653,0.0310804229229688,0.019619008526206,0.0,0.0,-0.8924248814582825,0.9112558364868164
-0.0348903648555278,0.7132033705711365,-0.0262742396444082,-0.6514194011688232,0.0303787011653184,-0.014034311287105,0.0,0.0,-0.5223976969718933,-0.1379677057266235
-0.0351796150207519,0.6984217762947083,-0.0283501800149679,-0.6569492220878601,0.0298174638301134,-0.0112249376252293,0.0,0.0,-0.7904472947120667,-0.6642777919769287
-0.0355393402278423,0.6835212707519531,-0.0368181467056274,-0.6622613072395325,0.03065718524158,0.0167943835258483,0.0,0.0,-0.7372024059295654,0.7926297187805176
-0.0358475670218467,0.6684901714324951,-0.0299719758331775,-0.6680289506912231,0.0298209618777036,-0.0167243555188179,0.0,0.0,-0.6020854711532593,0.5888206958770752
-0.036127470433712,0.6533437967300415,-0.0260064397007226,-0.6731346845626831,0.0278610251843929,-0.0391986258327961,0.0,0.0,-0.5437215566635132,-0.142861008644104
-0.0364279747009277,0.6380730867385864,-0.0281481184065341,-0.6786646246910095,0.0259878430515527,-0.0374637022614479,0.0,0.0,-0.4859933257102966,0.4129661321640014
-0.0367491729557514,0.6226779222488403,-0.030302345752716,-0.6841946840286255,0.0241870023310184,-0.036016546189785,0.0,0.0,-0.900848925113678,0.0962041616439819
-0.0370914451777935,0.6071584820747375,-0.0324678346514701,-0.6897246241569519,0.0224438924342393,-0.0348620638251304,0.0,0.0,-0.4031925201416015,0.7777876853942871
-0.0374069213867187,0.5915250778198242,-0.0285865478217601,-0.6947768926620483,0.0195269826799631,-0.0583385601639747,0.0,0.0,-0.7950197458267212,0.880164623260498
-0.0376657471060752,0.5757697820663452,-0.0209667701274156,-0.7001795172691345,0.0146740386262536,-0.0970589146018028,0.0,0.0,-0.7451099157333374,-0.0339703559875488
-0.0379463210701942,0.5598904490470886,-0.0231593828648328,-0.7057110071182251,0.0098342010751366,-0.0967965275049209,0.0,0.0,-0.6181173920631409,-0.0729137063026428
-0.0382490158081054,0.5438868999481201,-0.0253591835498809,-0.7112424969673157,0.0049926545470952,-0.0968308597803115,0.0,0.0,-0.0009223818778991,-0.1796101331710815
-0.0385738387703895,0.5277592539787292,-0.0275653786957263,-0.7167739868164062,0.0001347099023405,-0.0971589535474777,0.0,0.0,0.0334627628326416,0.2658569812774658
-0.0389264114201068,0.5122518539428711,-0.0302811916917562,-0.6892277598381042,-0.0047783879563212,-0.0982616692781448,0.0,0.0,-0.898445725440979,-0.0011138319969177
-0.0393015854060649,0.4966202974319458,-0.0324980877339839,-0.6947592496871948,-0.009736506268382,-0.0991624444723129,0.0,0.0,-0.1061215996742248,-0.2707922458648681
-0.0396996513009071,0.4808647930622101,-0.0347194150090217,-0.700290858745575,-0.0147534729912877,-0.1003395467996597,0.0,0.0,0.8300306797027588,-0.2837139964103699
-0.0402585044503212,0.4655385911464691,-0.0500610470771789,-0.6812315583229065,-0.0205057151615619,-0.1150447577238082,0.0,0.0,0.3455045223236084,0.2266632318496704
-0.0407944694161415,0.4510529339313507,-0.04783670976758,-0.6438969969749451,-0.0261912103742361,-0.1137099862098693,0.0,0.0,-0.0110874772071838,0.4042186737060547
-0.041353702545166,0.4364433288574219,-0.0500683560967445,-0.6494295001029968,-0.0319743528962135,-0.1156629174947738,0.0,0.0,-0.7738121747970581,0.4701147079467773
-0.0419363975524902,0.4217098653316498,-0.0523025766015052,-0.6549621820449829,-0.0378670804202556,-0.1178543120622634,0.0,0.0,0.8602472543716431,-0.5612972378730774
-0.042571447789669,0.4080387353897095,-0.0585110671818256,-0.6077395081520081,-0.0428040213882923,-0.0987388342618942,0.0,0.0,0.3074370622634887,-0.338033378124237
-0.0431415550410747,0.3949291706085205,-0.0522063970565795,-0.5827928781509399,-0.0475535430014133,-0.0949906110763549,0.0,0.0,-0.0891225337982177,0.3339462280273437
-0.0437355041503906,0.3816955983638763,-0.0544462092220783,-0.588324785232544,-0.0524450615048408,-0.0978303402662277,0.0,0.0,-0.4322782158851623,0.0622802972793579
-0.0443533882498741,0.3683379888534546,-0.0566872842609882,-0.5938569903373718,-0.0574882254004478,-0.1008633226156234,0.0,0.0,0.7203121185302734,-0.7105521559715271
-0.0448505394160747,0.355737030506134,-0.0462564788758754,-0.5601778626441956,-0.0609149374067783,-0.0685340613126754,0.0,0.0,0.5999429225921631,-0.1840674877166748
-0.0452138893306255,0.3435715436935425,-0.0333293490111827,-0.5408165454864502,-0.0638864338397979,-0.0594299212098121,0.0,0.0,0.4503918886184692,-0.8559477925300598
-0.0456322655081748,0.3322823047637939,-0.0403681471943855,-0.5018073916435242,-0.0653370097279548,-0.0290114618837833,0.0,0.0,-0.779267430305481,0.2049556970596313
-0.0460748672485351,0.3208688199520111,-0.0426114462316036,-0.5073381066322327,-0.0669723525643348,-0.032706968486309,0.0,0.0,-0.2417123913764953,0.0402033329010009
-0.0465418808162212,0.3093310892581939,-0.0448547378182411,-0.5128689408302307,-0.0687994733452797,-0.036541998386383,0.0,0.0,0.1375871896743774,-0.2319767475128173
-0.046948529779911,0.2979984283447265,-0.0389485135674476,-0.5037540197372437,-0.0705036073923111,-0.034082643687725,0.0,0.0,0.2406805753707885,-0.4201847314834595
-0.0473921783268451,0.2871179580688476,-0.0422476455569267,-0.4836774170398712,-0.0725945904850959,-0.0418195500969886,0.0,0.0,-0.2739741802215576,0.399635910987854
-0.0478603355586528,0.2761133313179016,-0.0444895401597023,-0.4892086088657379,-0.0748954638838768,-0.046017300337553,0.0,0.0,-0.3218239545822143,-0.8037101030349731
-0.0484189018607139,0.2649916708469391,-0.0549981221556663,-0.4943389296531677,-0.0757490023970604,-0.0170707814395427,0.0,0.0,0.2570927143096924,0.2310225963592529
-0.0490507110953331,0.25466188788414,-0.0616541020572185,-0.4591774940490722,-0.0772604867815971,-0.0302296634763479,0.0,0.0,-0.5597048997879028,0.8320269584655762
-0.0496318824589252,0.2442035526037216,-0.0544428303837776,-0.4650092422962188,-0.080891840159893,-0.0726271495223045,0.0,0.0,-0.6974977850914001,-0.116810142993927
-0.0502375587821006,0.2336211949586868,-0.0566796772181987,-0.4705414175987243,-0.084751658141613,-0.0771964192390441,0.0,0.0,-0.340986967086792,-0.8161882162094116
-0.0509408004581928,0.2229299843311309,-0.0680665001273155,-0.4752942323684692,-0.0869925543665885,-0.0448178499937057,0.0,0.0,0.3104381561279297,0.1279079914093017
-0.0516541488468647,0.2127075493335724,-0.0687395557761192,-0.4544845223426819,-0.0895605236291885,-0.0513594560325145,0.0,0.0,-0.6331015229225159,0.4936418533325195
-0.0523921959102153,0.2023610174655914,-0.0709698274731636,-0.4600164294242859,-0.0923675149679184,-0.0561399161815643,0.0,0.0,-0.4142756462097168,-0.5682181119918823
-0.0532109253108501,0.1918969750404358,-0.0802273079752922,-0.4651714563369751,-0.0940015390515327,-0.0326805487275123,0.0,0.0,-0.0869671702384948,-0.2508949041366577
-0.0540544502437114,0.1813088953495025,-0.0824517458677291,-0.4707030951976776,-0.0958803221583366,-0.0375757925212383,0.0,0.0,-0.0087026357650756,0.4721033573150635
-0.0549225807189941,0.1705967336893081,-0.0846727862954139,-0.476234883069992,-0.0980064049363136,-0.042521733790636,0.0,0.0,0.2034459114074707,-0.4449720382690429
-0.0556559562683105,0.1605746299028396,-0.0714279636740684,-0.4455532729625702,-0.0998933911323547,-0.0377398952841758,0.0,0.0,-0.274311363697052,-0.4311374425888061
-0.0564139373600482,0.1504284441471099,-0.073641151189804,-0.4510851800441742,-0.1020321622490882,-0.0427754782140255,0.0,0.0,0.4695699214935303,-0.4822747707366943
-0.0569928176701068,0.141273096203804,-0.0560710541903972,-0.4070305526256561,-0.1038376614451408,-0.0361096709966659,0.0,0.0,-0.3122554421424866,-0.4637511968612671
-0.0575963035225868,0.1319937258958816,-0.0582747682929039,-0.4125625789165497,-0.1058987081050872,-0.0412210598587989,0.0,0.0,0.4021123647689819,-0.7568536400794983
-0.0582169517874717,0.1236419752240181,-0.0612363032996654,-0.3712473511695862,-0.1067149937152862,-0.0163258239626884,0.0,0.0,-0.5526379942893982,-0.3218249082565307
-0.0588620193302631,0.1151661276817321,-0.0634286478161811,-0.3767792582511902,-0.1077900528907775,-0.0215011797845363,0.0,0.0,0.2789795398712158,0.5996527671813965
-0.0593781471252441,0.1070739328861236,-0.0491930767893791,-0.3598295450210571,-0.1101940646767616,-0.0480802096426487,0.0,0.0,0.4194376468658447,-0.7865430116653442
-0.0600389465689659,0.0996807664632797,-0.0648139417171478,-0.3286795020103454,-0.1114574670791626,-0.0252679027616977,0.0,0.0,0.0565452575683593,-0.0564491748809814
-0.0607691779732704,0.0926679670810699,-0.0710984021425247,-0.3118215501308441,-0.1133632510900497,-0.0381157211959362,0.0,0.0,0.0516480207443237,-0.3897298574447632
-0.0614965446293354,0.0860683768987655,-0.0704992711544036,-0.2934868037700653,-0.1155961900949478,-0.0446588285267353,0.0,0.0,0.0595144033432006,-0.2828423976898193
-0.0621922500431537,0.0798517316579818,-0.0671296790242195,-0.2764869630336761,-0.1180167868733406,-0.0484119020402431,0.0,0.0,0.2903735637664795,0.1040310859680175
-0.0627776160836219,0.0739114582538604,-0.0563114881515502,-0.2641892731189728,-0.1202311292290687,-0.0442871563136577,0.0,0.0,0.2180055379867553,-0.1515588164329528
-0.0632552132010459,0.0685850232839584,-0.0455974675714969,-0.2369055896997451,-0.1223795115947723,-0.0429676733911037,0.0,0.0,-0.5034100413322449,0.2943106889724731
-0.0637566596269607,0.0631347745656967,-0.0477192625403404,-0.24243825674057,-0.1247950047254562,-0.0483099706470966,0.0,0.0,-0.0122691988945007,0.4332983493804931
