x_pos,y_pos,x_vel,y_vel,angle,ang_vel,leg_1,leg_2,main_booster,lat_booster
-0.0014678954612463,1.4032793045043943,-0.1484108865261078,-0.3395909667015075,0.0014494485221803,0.0285684969276189,0.0,0.0,-0.1327366232872009,0.612370491027832
-0.0028217316139489,1.3953136205673218,-0.1351972818374633,-0.3540299832820892,0.0012609007535502,-0.0037706096190959,0.0,0.0,-0.3207569122314453,0.0025422573089599
-0.0041079521179199,1.3870022296905518,-0.1281470656394958,-0.3693936467170715,0.0007861376507207,-0.0094961132854223,0.0,0.0,0.0665532350540161,-0.0561082363128662
-0.0053985593840479,1.3788293600082395,-0.1279054880142212,-0.3632380366325378,-0.000344440806657,-0.0226136669516563,0.0,0.0,-0.2062954306602478,0.5920615196228027
-0.0065544126555323,1.3703131675720217,-0.1127201914787292,-0.3785021901130676,-0.0031831127125769,-0.0567790679633617,0.0,0.0,-0.1092740893363952,-0.3067091107368469
-0.0076273917220532,1.3614519834518433,-0.1041406542062759,-0.3938412964344024,-0.0063077430240809,-0.0624983720481395,0.0,0.0,-0.0871390104293823,-0.0306881070137023
-0.0086129186674952,1.352245807647705,-0.0951102301478385,-0.4091824293136596,-0.0097185941413044,-0.0682229846715927,0.0,0.0,-0.3974335193634033,0.0433998107910156
-0.0095068933442235,1.3426945209503174,-0.0856566131114959,-0.4245238900184631,-0.0134144471958279,-0.0739235654473304,0.0,0.0,-0.6440158486366272,-0.2299469709396362
-0.0103052137419581,1.3327984809875488,-0.0758076161146164,-0.4398656487464905,-0.017393996939063,-0.0795981734991073,0.0,0.0,-0.7109226584434509,-0.0785378217697143
-0.0110041620209813,1.3225576877593994,-0.0655901134014129,-0.4552077054977417,-0.0216554887592792,-0.0852379724383354,0.0,0.0,-0.780208170413971,-0.7888966202735901
-0.0116536142304539,1.3119741678237915,-0.0617118701338768,-0.4704288244247436,-0.0248567312955856,-0.0640304610133171,0.0,0.0,-0.8880863189697266,-0.6377198696136475
-0.012241649441421,1.3010458946228027,-0.0564055666327476,-0.4857370257377624,-0.0272199772298336,-0.0472693406045436,0.0,0.0,-0.5688544511795044,-0.9477974772453308
-0.0127792358398437,1.2897799015045166,-0.052579253911972,-0.5007301568984985,-0.0283838380128145,-0.0232794526964426,0.0,0.0,-0.4054330587387085,-0.7483669519424438
-0.013257598504424,1.278164267539978,-0.0477148815989494,-0.5162574648857117,-0.028505228459835,-0.0024280729703605,0.0,0.0,-0.3013709783554077,-0.662731945514679
-0.0136617664247751,1.2662121057510376,-0.04104645550251,-0.5311986804008484,-0.0278856661170721,0.0123923672363162,0.0,0.0,-0.8333802819252014,-0.8378258347511292
-0.0140038486570119,1.2539072036743164,-0.0359428524971008,-0.5468512177467346,-0.0261689685285091,0.0343371480703353,0.0,0.0,-0.8210657238960266,-0.6572530269622803
-0.0142672536894679,1.2412667274475098,-0.0288354363292455,-0.5617649555206299,-0.0237023513764143,0.0493369475007057,0.0,0.0,-0.8331677913665771,-0.643520712852478
-0.014449119567871,1.2282769680023191,-0.0214060209691524,-0.5772742033004761,-0.0205115191638469,0.0638222247362136,0.0,0.0,-0.7196326851844788,-0.7398338913917542
-0.014557552523911,1.2149507999420166,-0.0150641202926635,-0.5922217965126038,-0.0163324140012264,0.0835893973708152,0.0,0.0,-0.6880948543548584,0.180812120437622
-0.0145419118925929,1.2012797594070437,-0.0024240443017333,-0.6075643301010132,-0.0123907933011651,0.0788393765687942,0.0,0.0,-0.5136333107948303,-0.3522703647613525
-0.0144007680937647,1.1872637271881104,0.0103658828884363,-0.6229066252708435,-0.0086781671270728,0.0742593333125114,0.0,0.0,-0.9143235683441162,-0.1812716126441955
-0.0141325946897268,1.1729027032852173,0.023292452096939,-0.638248860836029,-0.0051861782558262,0.0698456615209579,0.0,0.0,-0.6649461388587952,-0.2081727981567382
-0.013735962100327,1.1581966876983645,0.0363440513610839,-0.653590977191925,-0.0019056644523516,0.0656160563230514,0.0,0.0,-0.7558911442756653,-0.5571607947349548
-0.013248729519546,1.1431397199630735,0.0446213856339454,-0.6692021489143372,0.0021522094029933,0.0811647325754165,0.0,0.0,-0.85655277967453,0.6453185081481934
-0.0125917438417673,1.1277395486831665,0.0627830103039741,-0.6844581961631775,0.0050377915613353,0.057716779410839,0.0,0.0,-0.8717566132545471,-0.580687403678894
-0.0118598937988281,1.1119756698608398,0.0689935237169265,-0.700640857219696,0.0091778747737407,0.0828012973070144,0.0,0.0,-0.845302939414978,-0.7162840962409973
-0.0110515598207712,1.0958704948425293,0.0753829851746559,-0.715825617313385,0.0145656485110521,0.1077555567026138,0.0,0.0,-0.8053494691848755,-0.1423820257186889
-0.0101093295961618,1.079420566558838,0.0889199003577232,-0.7311667203903198,0.0197989139705896,0.1046653389930725,0.0,0.0,-0.8579258918762207,-0.6909312605857849
-0.0090991016477346,1.0626296997070312,0.0941751152276992,-0.7463642358779907,0.0265623889863491,0.1352694034576416,0.0,0.0,-0.8548217415809631,-0.1640174388885498
-0.0079533578827977,1.0454943180084229,0.1078479066491127,-0.7617066502571106,0.03319838270545,0.1327200233936309,0.0,0.0,-0.7360128164291382,-0.3116437792778015
-0.0066715241409838,1.0280143022537231,0.1215795651078224,-0.7770488858222961,0.0397209003567695,0.1304503232240677,0.0,0.0,-0.8115178346633911,-0.4416950345039367
-0.0052528381347656,1.0101898908615112,0.1353647112846374,-0.7923909425735474,0.0461441278457641,0.1284644305706024,0.0,0.0,-0.7101579904556274,-0.9523410201072692
-0.0037826537154614,0.9920238256454468,0.1384300887584686,-0.807666540145874,0.0546353906393051,0.1698251664638519,0.0,0.0,-0.6527115702629089,-0.5514170527458191
-0.0022223473060876,0.9735048413276672,0.1462804526090622,-0.8234539031982422,0.064270481467247,0.1927015483379364,0.0,0.0,-0.4227835536003113,0.1259390115737915
-0.000523567199707,0.954641819000244,0.160198763012886,-0.8388002514839172,0.0738491714000701,0.191573679447174,0.0,0.0,-0.1195870041847229,-0.5375764966011047
0.0012728690635412,0.9354345202445984,0.1689711958169937,-0.8542225360870361,0.08442272990942,0.2114710360765457,0.0,0.0,0.2338289022445678,-0.1890395283699035
0.0031607628334313,0.916389226913452,0.1782315075397491,-0.8470879197120667,0.0948773622512817,0.2090927064418792,0.0,0.0,0.2159434556961059,0.8135995864868164
0.0052309990860521,0.8978566527366638,0.1981138736009597,-0.8242665529251099,0.1037206426262855,0.1768656373023986,0.0,0.0,-0.1086095571517944,-0.7587400078773499
0.0073774335905909,0.8789784908294678,0.2041166275739669,-0.8397932648658752,0.1141714453697204,0.2090162485837936,0.0,0.0,-0.2030428051948547,-0.198220670223236
0.0096644405275583,0.8597568869590759,0.2181849777698516,-0.8551413416862488,0.1246340125799179,0.2092510163784027,0.0,0.0,0.0435982942581176,0.3512064218521118
0.0119645120576024,0.8409108519554138,0.2197838127613067,-0.8384877443313599,0.1348087936639785,0.2034955769777298,0.0,0.0,-0.3765311241149902,0.2579487562179565
0.0144058223813772,0.8217211365699768,0.2338929623365402,-0.8538355231285095,0.1450198292732238,0.2042203247547149,0.0,0.0,-0.6470898985862732,0.0053991079330444
0.0169888492673635,0.8021878004074097,0.2480193376541137,-0.8691836595535278,0.1552785485982895,0.2051743566989898,0.0,0.0,0.352247953414917,0.6747386455535889
0.0197885520756244,0.7829837203025818,0.2708494663238525,-0.8544914126396179,0.164399653673172,0.1824226528406143,0.0,0.0,-0.606435239315033,0.1984754800796508
0.0227304454892873,0.7634357810020447,0.2850038707256317,-0.8698380589485168,0.1735897660255432,0.1838020980358123,0.0,0.0,-0.5905032157897949,-0.3533313274383545
0.0258145332336425,0.7435441017150879,0.2991697490215301,-0.8851851224899292,0.1828586012125015,0.1853766590356826,0.0,0.0,-0.3769962787628174,0.1242532730102539
0.0290411002933979,0.7233085036277771,0.3133454620838165,-0.9005324244499207,0.1922153532505035,0.1871349364519119,0.0,0.0,0.105655550956726,-0.5170384645462036
0.0321816429495811,0.7035209536552429,0.3037830293178558,-0.8808123469352722,0.2025486975908279,0.2066670209169387,0.0,0.0,0.564096212387085,-0.0711658000946044
0.0351917259395122,0.6844484210014343,0.2912395000457763,-0.8490408062934875,0.2124056816101074,0.1971395462751388,0.0,0.0,0.2824540138244629,0.7944080829620361
0.0383049957454204,0.6656227111816406,0.3030571937561035,-0.8379090428352356,0.2207583636045456,0.1670538783073425,0.0,0.0,-0.152957797050476,-0.2696701288223266
0.0415613166987896,0.6464530229568481,0.3172562420368194,-0.8532558679580688,0.2292302399873733,0.1694376319646835,0.0,0.0,-0.855719268321991,-0.4882111549377441
0.0449607856571674,0.6269398331642151,0.3314576148986816,-0.8686028718948364,0.2378278076648712,0.1719515174627304,0.0,0.0,0.3042861223220825,-0.7368634939193726
0.0484588630497455,0.6076043844223022,0.3396291732788086,-0.861037015914917,0.2481766045093536,0.2069763243198394,0.0,0.0,0.9323520660400392,-0.6439231038093567
0.0518244728446006,0.589270830154419,0.3249990344047546,-0.8168209195137024,0.2599688768386841,0.2358461618423462,0.0,0.0,0.7775063514709473,0.4948610067367553
0.0553531646728515,0.5714169144630432,0.3404852151870727,-0.7957591414451599,0.272645354270935,0.2535292506217956,0.0,0.0,0.8220629692077637,0.7905861139297485
0.0588347427546978,0.5539460778236389,0.3374464511871338,-0.7785171866416931,0.2836370170116424,0.2198339998722076,0.0,0.0,0.3696774244308471,-0.0200810432434082
0.06234922260046,0.537116527557373,0.340283989906311,-0.7501940131187439,0.2951413094997406,0.230086013674736,0.0,0.0,0.5520694255828857,0.4245753288269043
0.0659465789794921,0.5209100842475891,0.3478672802448272,-0.7227374911308289,0.307401567697525,0.2452050000429153,0.0,0.0,0.8201384544372559,0.5589684247970581
0.0695367828011512,0.5057230591773987,0.3479184508323669,-0.6773697733879089,0.3189169466495514,0.2303077280521392,0.0,0.0,0.6581172943115234,0.7655102014541626
0.0729985237121582,0.4913115501403808,0.3366178870201111,-0.6426502466201782,0.3288709819316864,0.1990808993577957,0.0,0.0,0.4479362964630127,0.5014088153839111
0.0765824317932128,0.4770558476448059,0.3495525419712066,-0.6356229782104492,0.3380928337574005,0.1844373047351837,0.0,0.0,0.7252566814422607,0.433334469795227
0.0799674019217491,0.4634411633014679,0.3299898207187652,-0.6071127653121948,0.3470005691051483,0.1781553775072097,0.0,0.0,-0.0853908658027648,0.6495048999786377
0.0835533142089843,0.4495128393173218,0.3514726459980011,-0.6207678914070129,0.3544791936874389,0.1495728641748428,0.0,0.0,0.8164336681365967,0.539827823638916
0.0871133804321289,0.4362261295318603,0.3497229814529419,-0.5920873284339905,0.3611013889312744,0.132443830370903,0.0,0.0,0.6785569190979004,0.2356126308441162
0.0906795486807823,0.4231714010238647,0.3501389622688293,-0.5818563103675842,0.3679384887218475,0.1367417573928833,0.0,0.0,0.6908429861068726,0.6290007829666138
0.0940887480974197,0.4105726182460785,0.3358164727687835,-0.5612680315971375,0.3733417391777038,0.108065128326416,0.0,0.0,0.5452272891998291,0.6686952114105225
0.0974154472351074,0.3987957239151001,0.3286779522895813,-0.5244662165641785,0.3775850534439087,0.0848665386438369,0.0,0.0,0.1012438535690307,0.0588604211807251
0.1008631736040115,0.386976957321167,0.3403641283512115,-0.5264502167701721,0.3822658061981201,0.0936149209737777,0.0,0.0,0.6795101165771484,-0.4668631553649902
0.1041542068123817,0.3760374784469604,0.3244212865829468,-0.4874653220176697,0.3872597515583038,0.0998791307210922,0.0,0.0,0.7434637546539307,0.0973697900772094
0.1073060035705566,0.3653916120529175,0.3107587397098541,-0.4743593335151672,0.3919821083545685,0.0944469422101974,0.0,0.0,0.543522834777832,-0.0494951605796813
0.1102779358625412,0.3552297055721283,0.2929677069187164,-0.4528129398822784,0.3964969515800476,0.0902968794107437,0.0,0.0,0.7835078239440918,0.2872662544250488
0.1131616607308387,0.3456727266311645,0.2838365435600281,-0.4260294735431671,0.4013562500476837,0.09718569368124,0.0,0.0,0.6979424953460693,0.6460847854614258
0.1157593727111816,0.3369226455688476,0.2566264867782593,-0.3897863030433655,0.4047352373600006,0.0675790458917617,0.0,0.0,0.8933160305023193,0.4279475212097168
0.1183137893676757,0.3287908434867859,0.2517518997192383,-0.36247119307518,0.408697247505188,0.079240396618843,0.0,0.0,0.1979469060897827,0.736133337020874
0.1209238991141319,0.3207181692123413,0.2585897445678711,-0.3594914674758911,0.4113089740276336,0.0522346906363964,0.0,0.0,0.6958892345428467,0.3428835868835449
0.1236034408211708,0.3128020763397217,0.2650477290153503,-0.3526740670204162,0.4144396185874939,0.0626129806041717,0.0,0.0,0.5517570972442627,0.1075912714004516
0.1262656152248382,0.3049618899822235,0.2632606029510498,-0.3493250012397766,0.4176301956176758,0.0638113170862197,0.0,0.0,0.2557768821716308,-0.0706517696380615
0.1288149803876876,0.2976004779338836,0.2518275678157806,-0.3280958533287048,0.4209896624088287,0.0671898201107978,0.0,0.0,0.3530209064483642,-0.197242796421051
0.1312879621982574,0.2908500432968139,0.2437298744916916,-0.3010899126529693,0.4248518645763397,0.0772438198328018,0.0,0.0,0.6214275360107422,-0.2055993676185608
0.1334659606218338,0.2847838699817657,0.2145257890224456,-0.2705985307693481,0.428405225276947,0.0710677355527877,0.0,0.0,0.893512487411499,0.1080117225646972
0.1354866027832031,0.2787994742393493,0.1992331892251968,-0.2668386697769165,0.4314744174480438,0.0613835677504539,0.0,0.0,0.8308748006820679,0.5579168796539307
0.1373565644025802,0.2737265229225158,0.1849456131458282,-0.2260964214801788,0.4337078034877777,0.0446676984429359,0.0,0.0,0.9411740303039552,0.4396573305130005
0.1389676034450531,0.2691550254821777,0.159367173910141,-0.2037155330181121,0.4355944395065307,0.0377326309680938,0.0,0.0,0.8284375667572021,-0.4824544191360473
0.1403390914201736,0.2652212679386139,0.1354925334453582,-0.1753478795289993,0.4374054670333862,0.036220371723175,0.0,0.0,0.843079686164856,0.2974050045013428
0.1414989531040191,0.2619951963424682,0.1141919270157814,-0.1439431011676788,0.4393609166145324,0.0391084104776382,0.0,0.0,0.9789941310882568,0.618450403213501
0.1426365822553634,0.2594734132289886,0.1126834005117416,-0.1124175116419792,0.4405312836170196,0.0234073493629694,0.0,0.0,0.9685614109039308,0.764670729637146
0.1438122689723968,0.2572121322154999,0.1176933273673057,-0.1004605218768119,0.440394788980484,-0.0027296333573758,0.0,0.0,-0.2889001369476318,0.7244021892547607
0.1451750695705413,0.2546440660953522,0.1378037184476852,-0.1136584281921386,0.4387330114841461,-0.0332359038293361,0.0,0.0,0.5401670932769775,0.6252912282943726
0.146615594625473,0.2525811195373535,0.1462975442409515,-0.0909899324178695,0.436295598745346,-0.0487482324242591,0.0,0.0,0.5576488971710205,-0.6583367586135864
0.1481064856052398,0.2507334053516388,0.1495910584926605,-0.081960953772068,0.4357387721538543,-0.0111363343894481,0.0,0.0,0.8592164516448975,-0.824962854385376
0.1492942869663238,0.2496515065431594,0.1175421252846717,-0.0484693087637424,0.4370914995670318,0.0270536690950393,0.0,0.0,0.5114850997924805,0.4955521821975708
0.1503322571516037,0.2491868138313293,0.1022375226020813,-0.0211384706199169,0.4387900531291961,0.0339712314307689,0.0,0.0,-0.4513208866119385,0.6257014274597168
0.1515387594699859,0.2484180480241775,0.1203412190079689,-0.0342643857002258,0.4391286075115204,0.0067710792645812,0.0,0.0,0.4659279584884643,-0.5188210010528564
0.1527872085571289,0.2477292567491531,0.1231163516640663,-0.0311524886637926,0.4410068988800049,0.0375665798783302,0.0,0.0,0.7307848930358887,-0.1553385257720947
0.1538681983947754,0.2473850101232528,0.1064073294401168,-0.0158295203000307,0.4428507089614868,0.036876156926155,0.0,0.0,0.3063122034072876,0.2058643102645874
0.1548240631818771,0.247664675116539,0.0934260413050651,0.0117381457239389,0.4452261328697204,0.0475086532533168,0.0,0.0,-0.7325810194015503,-0.4665218591690063
0.1558835953474044,0.2476005852222442,0.1035676226019859,-0.0036092207301408,0.4478257298469543,0.0519917607307434,0.0,0.0,-0.2664662599563598,0.4139423370361328
0.1570426970720291,0.2471926808357238,0.1133380532264709,-0.0189567971974611,0.4506517052650451,0.0565194711089134,0.0,0.0,-0.2429399490356445,0.0109103918075561
0.1582976281642913,0.2464411556720733,0.1227099522948265,-0.0343046002089977,0.4537064433097839,0.0610945522785186,0.0,0.0,0.7726032733917236,0.7271006107330322
0.1592845916748047,0.246432214975357,0.0972217693924903,-0.0008805451798252,0.4553348422050476,0.0325685068964958,0.0,0.0,-0.1106635928153991,0.2461824417114257
0.1603587120771408,0.2460795193910598,0.1057110875844955,-0.0162282139062881,0.4571970999240875,0.0372458770871162,0.0,0.0,-0.5112751126289368,0.7710567712783813
0.1615675985813141,0.2454191297292709,0.1203859448432922,-0.0295156892389059,0.4577539265155792,0.0111363464966416,0.0,0.0,0.5175137519836426,-0.1765773296356201
0.1625134497880935,0.2450874000787735,0.0943041145801544,-0.0148369139060378,0.4580545723438263,0.0060126273892819,0.0,0.0,-0.0947523713111877,0.5863308906555176
0.1635621041059494,0.244433507323265,0.1052138209342956,-0.0289482492953538,0.4576796591281891,-0.0074981031939387,0.0,0.0,0.3782113790512085,0.6667571067810059
0.1645450592041015,0.2443453818559646,0.0995387509465217,-0.0035092972684651,0.4563137292861938,-0.0273190382868051,0.0,0.0,-0.4824062585830688,0.1389371156692505
0.1655880957841873,0.2439136654138565,0.1053205877542495,-0.0188574735075235,0.4551965296268463,-0.0223441086709499,0.0,0.0,-0.3765445947647095,0.2430599927902221
0.1666851043701172,0.2431382536888122,0.1104804724454879,-0.0342057086527347,0.4543313682079315,-0.0173029899597167,0.0,0.0,-0.2862206697463989,0.063502550125122
0.1678294241428375,0.242019236087799,0.1149954050779342,-0.0495540089905262,0.453721672296524,-0.0121937561780214,0.0,0.0,0.4865292310714721,0.6994490623474121
0.1688515692949295,0.2417294085025787,0.1036421507596969,-0.0124168675392866,0.4521452188491821,-0.0315288081765174,0.0,0.0,-0.4629263877868652,0.4588505029678345
0.169907659292221,0.2410959750413894,0.1068086624145507,-0.0277655143290758,0.4508312344551086,-0.0262794159352779,0.0,0.0,0.1246222257614135,0.0704777240753173
0.1707443296909332,0.2408661693334579,0.0846421048045158,-0.0098995277658104,0.4497605860233307,-0.0214129369705915,0.0,0.0,-0.6212847232818604,0.0228570699691772
0.1716010123491287,0.2402928173542022,0.086402840912342,-0.025248285382986,0.4489594995975494,-0.0160214342176914,0.0,0.0,-0.3171398043632507,0.8090707063674927
0.1725365668535232,0.2394191324710846,0.0957807451486587,-0.0381198748946189,0.4465221464633941,-0.0487471669912338,0.0,0.0,-0.0396747589111328,0.7960035800933838
0.1735221892595291,0.2382353097200393,0.1017572879791259,-0.0515989027917385,0.4430357813835144,-0.0697279423475265,0.0,0.0,-0.3186588287353515,0.5303924083709717
0.1745364218950271,0.2367279827594757,0.1051553934812545,-0.0658189728856086,0.438960999250412,-0.0814955681562423,0.0,0.0,-0.2842345237731933,0.7650582790374756
0.1755945235490799,0.2349137365818023,0.1107037886977195,-0.0791089460253715,0.4336329400539398,-0.1065613850951194,0.0,0.0,0.0571447610855102,0.8364145755767822
0.1765710860490799,0.2332733720541,0.103907510638237,-0.0709992423653602,0.426854133605957,-0.1355761587619781,0.0,0.0,0.473351240158081,0.59837806224823
0.1775520294904709,0.2318306267261505,0.1049777641892433,-0.0620502568781375,0.4193971157073974,-0.1491398066282272,0.0,0.0,-0.3353289365768432,0.2846616506576538
0.1785037070512771,0.2300449907779693,0.1018037572503089,-0.0774033069610595,0.4122321903705597,-0.143298789858818,0.0,0.0,0.3284525871276855,-0.3922876119613647
0.1791781485080719,0.2288200408220291,0.073746308684349,-0.052624549716711,0.4054550230503082,-0.1355431079864502,0.0,0.0,0.6700949668884277,0.1905825138092041
0.1797452867031097,0.2277247011661529,0.0624753162264823,-0.0470438711345195,0.3992724120616913,-0.1236524358391761,0.0,0.0,0.3812363147735595,0.1832907199859619
0.1801392585039138,0.2270474284887313,0.0445324070751667,-0.0286666676402091,0.3937680423259735,-0.1100874990224838,0.0,0.0,0.004087209701538,0.8263874053955078
