x_pos,y_pos,x_vel,y_vel,angle,ang_vel,leg_1,leg_2,main_booster,lat_booster
-0.0016097069019451,1.4029890298843384,-0.1626721024513244,-0.3524941205978393,0.0015164960641413,0.0298963822424411,0.0,0.0,-0.3275532092432023,0.6390230442896335
-0.0032514571212232,1.3944425582885742,-0.1639860272407531,-0.3798416256904602,0.0013264181325212,-0.0038013085722923,0.0,0.0,-0.6855687360012834,-0.7936058244943587
-0.0050278664566576,1.3852542638778689,-0.1784005761146545,-0.4083704054355621,0.0020804943051189,0.0150829423218965,0.0,0.0,0.963675798479846,-0.7033303035396821
-0.0070990561507642,1.376318097114563,-0.2086123973131179,-0.3971596360206604,0.0035589677281677,0.0295720808207988,0.0,0.0,-0.9697692663274512,-0.911904058295038
-0.009311961941421,1.3667491674423218,-0.2239797115325927,-0.4253009259700775,0.0062127108685672,0.0530797019600868,0.0,0.0,-0.4041265701282606,0.9782970504792294
-0.0115155223757028,1.3565441370010376,-0.2204035222530365,-0.4535549581050873,0.0062638367526233,0.0010226849699392,0.0,0.0,0.3265581279214027,-0.9626407894800192
-0.0139031410217285,1.3463982343673706,-0.2405230104923248,-0.4509354531764984,0.0079994117841124,0.0347145162522792,0.0,0.0,0.377317766263316,-0.6325928060116386
-0.0162922851741313,1.3364287614822388,-0.242024689912796,-0.4431092143058777,0.0110807940363883,0.0616332180798053,0.0,0.0,0.7852099290281582,-0.8911068333735227
-0.01885986328125,1.327188491821289,-0.2614566087722778,-0.4107242822647095,0.0157290343195199,0.0929733216762542,0.0,0.0,0.993460551568478,-0.619883606415237
-0.0215744972229003,1.3186299800872805,-0.2772404253482818,-0.380447506904602,0.0214502606540918,0.1144348010420799,0.0,0.0,-0.1663806199196487,-0.7029179695908979
-0.0244193077087402,1.3094353675842283,-0.291344940662384,-0.4087617099285126,0.0282324682921171,0.1356563121080398,0.0,0.0,0.2108010511691196,-0.9013723352984262
-0.0273682586848735,1.3001842498779297,-0.3034826219081878,-0.4113423228263855,0.0367234535515308,0.1698356866836547,0.0,0.0,0.5129012114051368,-0.7318511428482068
-0.0303485877811908,1.2912667989730835,-0.3082415759563446,-0.3966169953346252,0.0468200705945491,0.2019508183002472,0.0,0.0,0.6154587170551618,-0.624939813407309
-0.0334024429321289,1.2822312116622925,-0.3169382214546203,-0.4019775390625,0.0582574941217899,0.2287692129611969,0.0,0.0,0.952020314349554,-0.6712090166382403
-0.036467932164669,1.274038791656494,-0.3198667764663696,-0.364679753780365,0.0714415833353996,0.2637060284614563,0.0,0.0,-0.548589237523486,-0.9394474778318436
-0.0396735183894634,1.2651957273483276,-0.3353577852249145,-0.3937989771366119,0.0861157402396202,0.2935095727443695,0.0,0.0,0.1980857870500165,-0.820007597061803
-0.0429625511169433,1.25666344165802,-0.3454035818576813,-0.3802423477172851,0.1024929508566856,0.3275743126869201,0.0,0.0,-0.2624636211748676,0.7930078660204165
-0.0462528243660926,1.2475038766860962,-0.3435366749763489,-0.4081525504589081,0.1169178038835525,0.288523256778717,0.0,0.0,0.1691027870871633,-0.8549488215343467
-0.0496757514774799,1.2385681867599487,-0.3585443496704101,-0.3984879553318023,0.1331067234277725,0.3238079249858856,0.0,0.0,0.9859889729514032,0.8217562346012611
-0.0533062927424907,1.2300031185150146,-0.3774251341819763,-0.3820181488990783,0.1474541276693344,0.2869742810726166,0.0,0.0,0.2663080388668857,-0.9622846315871754
-0.0570605285465717,1.221675992012024,-0.3917863667011261,-0.3717992007732391,0.1638211756944656,0.3273703753948211,0.0,0.0,-0.023531738886821,-0.6562944822270882
-0.0609395019710063,1.2127009630203247,-0.4055630564689636,-0.4009299874305725,0.1815432757139206,0.3544742465019226,0.0,0.0,0.320545255002058,0.6985780550587879
-0.0648028403520584,1.2037819623947144,-0.4028170704841614,-0.3985041379928589,0.1981292217969894,0.3317488431930542,0.0,0.0,0.5874622761105901,0.6479998022109565
-0.0686750411987304,1.1947015523910522,-0.4026232659816742,-0.4057098925113678,0.2136789709329605,0.3110228776931762,0.0,0.0,0.7835058692368642,-0.6826059480793263
-0.0729809775948524,1.1859395503997805,-0.4470345973968506,-0.3918860256671905,0.2303282469511032,0.3330152630805969,0.0,0.0,0.5743979137841053,0.679575533414426
-0.0776027664542198,1.1774744987487793,-0.4770426154136657,-0.3786235451698303,0.2454237639904022,0.3019104599952698,0.0,0.0,-0.2615024038404137,0.657593502071128
-0.0822423920035362,1.1684001684188845,-0.4776019155979156,-0.4056451022624969,0.2593240737915039,0.2780062556266784,0.0,0.0,0.5368245344217129,0.6063796898279302
-0.0872274413704872,1.1597797870635986,-0.5107472538948059,-0.3853413462638855,0.2718537151813507,0.250592827796936,0.0,0.0,0.5674134559779647,0.982499193048594
-0.0925362557172775,1.1515705585479736,-0.5411707758903503,-0.3668031692504883,0.2824137508869171,0.2112008333206176,0.0,0.0,0.0849748794479485,0.660067225615537
-0.097960852086544,1.1432019472122192,-0.5515956282615662,-0.3737319111824035,0.291801780462265,0.187760055065155,0.0,0.0,-0.3075208228544048,0.6768949918300229
-0.1033945083618164,1.134230613708496,-0.5512658357620239,-0.4003306031227112,0.299957275390625,0.1631099879741668,0.0,0.0,-0.4766259813768037,0.6782560651403307
-0.108840562403202,1.124642252922058,-0.5515329837799072,-0.4275951087474823,0.3071191608905792,0.1432375311851501,0.0,0.0,-0.8748998084123119,-0.8127772633347521
-0.114412784576416,1.1143944263458252,-0.5661572217941284,-0.4573736488819122,0.3163691759109497,0.1850011795759201,0.0,0.0,-0.619200466008829,0.8643242066222854
-0.1199784278869628,1.1035339832305908,-0.5641645193099976,-0.4843674600124359,0.3242746293544769,0.1581089794635772,0.0,0.0,-0.7080976156561067,-0.8686225671488353
-0.1256575584411621,1.0920101404190063,-0.5773617029190063,-0.5143280625343323,0.3341356217861175,0.1972200721502304,0.0,0.0,-0.7601509803057331,0.7015149805897956
-0.1313311606645584,1.0798858404159546,-0.575602114200592,-0.5407931804656982,0.3427523672580719,0.1723352074623108,0.0,0.0,0.5644459867118305,0.7007894585039458
-0.1371665000915527,1.0677475929260254,-0.5905733704566956,-0.5411656498908997,0.3501326739788055,0.1476061195135116,0.0,0.0,-0.5617364945255441,0.9469674327890676
-0.1429698914289474,1.055023193359375,-0.5856213569641113,-0.5668265223503113,0.3556936979293823,0.1112202182412147,0.0,0.0,-0.9356468965754154,-0.6614770165293097
-0.1488639861345291,1.041643142700195,-0.5962933301925659,-0.5963979363441467,0.3629521131515503,0.145168274641037,0.0,0.0,0.5449480780786902,-0.8024422882518176
-0.1550250053405761,1.028409719467163,-0.6248223185539246,-0.590384840965271,0.3721682727336883,0.1843233704566955,0.0,0.0,-0.8995350358030789,-0.9965822183807668
-0.1613038033246994,1.0145009756088257,-0.6390808820724487,-0.6211203932762146,0.3840588629245758,0.2378120720386505,0.0,0.0,-0.847329318523407,0.9751520156860352
-0.1675223410129547,1.0000097751617432,-0.630994439125061,-0.6465558409690857,0.3938030898571014,0.1948841512203216,0.0,0.0,-0.7635246515274048,0.9608991146087646
-0.1736788749694824,0.9849260449409484,-0.6228693723678589,-0.6724132895469666,0.4015333652496338,0.1546052396297454,0.0,0.0,-0.8580688238143921,0.9442877769470216
-0.1797725707292556,0.969257652759552,-0.614721417427063,-0.6978995203971863,0.4072714447975158,0.1147620528936386,0.0,0.0,-0.7099971771240234,0.9067542552947998
-0.1858153343200683,0.9529851675033568,-0.6082549691200256,-0.7243732213973999,0.4115562736988067,0.0856958329677581,0.0,0.0,-0.4953069686889648,0.9417295455932616
-0.1917908638715744,0.9361178278923036,-0.5998572111129761,-0.7503308653831482,0.4140388369560241,0.0496509745717048,0.0,0.0,-0.6080005764961243,0.8940110206604004
-0.1976981163024902,0.91865873336792,-0.5914087295532227,-0.7761573195457458,0.4147737324237823,0.0146978944540023,0.0,0.0,-0.3932578563690185,0.9994015693664552
-0.2035492956638336,0.9006141424179077,-0.5844894647598267,-0.8018010258674622,0.4140970408916473,-0.0135340141132473,0.0,0.0,0.0068997144699096,0.9999479055404664
-0.2096089422702789,0.8825912475585938,-0.6037463545799255,-0.8003652691841125,0.4117071628570556,-0.0477975197136402,0.0,0.0,0.0574902296066284,0.9940168857574464
-0.2157317101955413,0.864416778087616,-0.6084271669387817,-0.8066443204879761,0.4075602293014526,-0.0829385370016098,0.0,0.0,-0.2759088277816772,0.9995903968811036
-0.2217511236667633,0.8456660509109497,-0.595960259437561,-0.8316571712493896,0.401139885187149,-0.1284071505069732,0.0,0.0,-0.3536405563354492,0.9977543354034424
-0.2276885956525802,0.8263298273086548,-0.586268961429596,-0.8573042750358582,0.3931333720684051,-0.1601303666830063,0.0,0.0,0.3165479898452759,0.9970589876174928
-0.2335717231035232,0.8069493770599365,-0.5791742205619812,-0.8588610887527466,0.3833918869495392,-0.1948303282260894,0.0,0.0,0.1730310916900634,0.9996495246887208
-0.2395668476819992,0.7877780795097351,-0.5886643528938293,-0.8491770029067993,0.3718641996383667,-0.230553463101387,0.0,0.0,0.119646668434143,0.986485242843628
-0.2454662322998047,0.7685408592224121,-0.5773528218269348,-0.8517749905586243,0.3585616052150726,-0.2660525441169739,0.0,0.0,0.4776628017425537,0.9888066053390504
-0.2514966428279876,0.749249279499054,-0.5886661410331726,-0.853884756565094,0.3434449136257171,-0.3023339211940765,0.0,0.0,0.807745099067688,0.9426102638244628
-0.2576070427894592,0.7306618094444275,-0.595158040523529,-0.8224146366119385,0.3268441259860992,-0.3320157825946808,0.0,0.0,0.8076779842376709,0.9987614154815674
-0.263679027557373,0.7126151919364929,-0.5897587537765503,-0.7982314825057983,0.3087093234062195,-0.3626963496208191,0.0,0.0,0.7326760292053223,0.9843699932098388
-0.2698129713535309,0.6952580809593201,-0.5942727327346802,-0.7674932479858398,0.2889494597911834,-0.3951970338821411,0.0,0.0,0.6933701038360596,0.979133367538452
-0.2761403620243072,0.6784335374832153,-0.6117149591445923,-0.743739902973175,0.2673571705818176,-0.4318459630012512,0.0,0.0,0.8048675060272217,0.985038995742798
-0.2823870182037353,0.661613404750824,-0.6019149422645569,-0.7435715198516846,0.2441383451223373,-0.4643765091896057,0.0,0.0,0.8105714321136475,0.9699113368988036
-0.288811445236206,0.6452732682228088,-0.6177071332931519,-0.7223120331764221,0.2190427184104919,-0.5019127726554871,0.0,0.0,0.8712978363037109,0.891472578048706
-0.2950872778892517,0.6292358040809631,-0.6014673709869385,-0.7091113924980164,0.1926976442337036,-0.52690190076828,0.0,0.0,0.9597861766815186,0.9401837587356568
-0.3013407588005066,0.6136754155158997,-0.5975199341773987,-0.6881988644599915,0.1647803485393524,-0.5583466291427612,0.0,0.0,0.8872513771057129,0.9885925054550172
-0.3075206279754638,0.5981829166412354,-0.588323175907135,-0.6855354905128479,0.135160282254219,-0.5924016237258911,0.0,0.0,0.8719336986541748,0.960006833076477
-0.3138068616390228,0.5830475091934204,-0.5969047546386719,-0.670113205909729,0.1036205515265464,-0.6307954788208008,0.0,0.0,0.9078669548034668,0.992255926132202
-0.3200253546237945,0.5687934160232544,-0.5883215069770813,-0.6315300464630127,0.0703909024596214,-0.6645935773849487,0.0,0.0,0.3701541423797607,0.9977984428405762
-0.326035737991333,0.5542870759963989,-0.5657088160514832,-0.6434330344200134,0.0354664176702499,-0.6984905004501343,0.0,0.0,0.702988862991333,0.9929194450378418
-0.3318984508514404,0.5404990315437317,-0.5491817593574524,-0.6123340725898743,-0.0011541445273905,-0.7324119806289673,0.0,0.0,0.8038381338119507,0.9741590023040771
-0.3377272188663482,0.5268652439117432,-0.5438829660415649,-0.6064212918281555,-0.0396484956145286,-0.7698879241943359,0.0,0.0,0.5011062622070312,0.9933688640594482
-0.343475192785263,0.5135439038276672,-0.5340200066566467,-0.5936307907104492,-0.0799716860055923,-0.8064647912979126,0.0,0.0,0.3799128532409668,0.994365930557251
-0.3489986956119537,0.5003755688667297,-0.5099440217018127,-0.5880647301673889,-0.1220307871699333,-0.8411827087402344,0.0,0.0,-0.0659825205802917,0.9916430711746216
-0.3543831706047058,0.4865952730178833,-0.4949370324611664,-0.616590678691864,-0.1654193103313446,-0.8677718043327332,0.0,0.0,0.7422420978546143,0.9968714714050292
-0.3594251275062561,0.4730647206306457,-0.459334522485733,-0.6069728136062622,-0.2104728072881698,-0.901071071624756,0.0,0.0,0.7185056209564209,0.8791713714599609
-0.3642725348472595,0.4595059752464294,-0.4387193322181701,-0.6098382472991943,-0.2571509778499603,-0.9335644841194152,0.0,0.0,0.9576184749603271,-0.4421635866165161
-0.3688616156578064,0.4458668231964111,-0.4140023291110992,-0.6147223711013794,-0.3032492995262146,-0.921967387199402,0.0,0.0,0.9920473098754884,0.4325783252716064
-0.3732808530330658,0.4322213232517242,-0.3976796865463257,-0.6163690090179443,-0.349322497844696,-0.921465277671814,0.0,0.0,0.9890823364257812,-0.1091207861900329
-0.3772971630096435,0.4193170368671417,-0.35826376080513,-0.5847368240356445,-0.3952468633651733,-0.9184886813163756,0.0,0.0,0.9549808502197266,-0.5894871354103088
-0.3808033466339111,0.4071114957332611,-0.3096105456352234,-0.5545178651809692,-0.4394799172878265,-0.8846624493598938,0.0,0.0,0.994416356086731,-0.9971843957901
-0.3840059340000152,0.3957856893539428,-0.2819234430789947,-0.515975832939148,-0.481677383184433,-0.8439496755599976,0.0,0.0,0.9799818992614746,-0.9980261325836182
-0.3871616423130035,0.3845357298851013,-0.2798230648040771,-0.51301109790802,-0.5218828916549683,-0.8041113615036011,0.0,0.0,0.9929523468017578,-0.9948009848594666
-0.3897716403007507,0.3739320039749145,-0.2281077206134796,-0.4843883514404297,-0.5597133040428162,-0.7566086053848267,0.0,0.0,0.9917144775390624,-0.9996476769447328
-0.3921059966087341,0.3637584149837494,-0.2030655145645141,-0.4653014540672302,-0.5954508185386658,-0.7147505879402161,0.0,0.0,0.9787962436676024,-0.9998358488082886
-0.3940200209617615,0.3540995121002197,-0.163572072982788,-0.4422657787799835,-0.6289798021316528,-0.6705809831619263,0.0,0.0,0.9598844051361084,-0.9998663067817688
-0.3954317569732666,0.3449078500270843,-0.1158533096313476,-0.4211657643318176,-0.6602041125297546,-0.6244861483573914,0.0,0.0,0.9843403100967408,-0.9999825358390808
-0.3962969779968261,0.3358815312385559,-0.0637684911489486,-0.4132647514343261,-0.6889331936836243,-0.5745821595191956,0.0,0.0,0.9860879182815552,-0.9998416304588318
-0.3968531489372253,0.3267389833927154,-0.0352070480585098,-0.4178152084350586,-0.7153002023696899,-0.527340292930603,0.0,0.0,0.993506669998169,-0.9989454746246338
-0.3969721794128418,0.3174651265144348,0.0061821797862648,-0.4228765070438385,-0.7391648888587952,-0.4772936701774597,0.0,0.0,0.9474995136260986,-0.9949277639389038
-0.3964661955833435,0.3081888258457184,0.0663805305957794,-0.4220536649227142,-0.7604349255561829,-0.4254010617733001,0.0,0.0,0.8648546934127808,-0.9999924302101136
-0.3955000936985016,0.2986568212509155,0.1102465614676475,-0.4324364066123962,-0.7791599035263062,-0.3744990229606628,0.0,0.0,0.780306339263916,-0.9999041557312012
-0.3939357399940491,0.289448618888855,0.168150246143341,-0.4170807003974914,-0.7955271005630493,-0.3273439705371856,0.0,0.0,0.5482605695724487,-0.9997171759605408
-0.391805499792099,0.2804045081138611,0.2228777110576629,-0.4087448716163635,-0.8095102906227112,-0.279663622379303,0.0,0.0,0.80078125,-0.9999701380729676
-0.389010488986969,0.2713991403579712,0.2874689996242523,-0.4058696329593658,-0.8209750652313232,-0.2292959690093994,0.0,0.0,0.542515754699707,-0.9750874042510986
-0.3858912587165832,0.262028306722641,0.3181993365287781,-0.4210111200809479,-0.8300996422767639,-0.1824919283390045,0.0,0.0,0.9584786891937256,-0.996235728263855
-0.3823414742946625,0.2527917027473449,0.3596616089344024,-0.4139511883258819,-0.8369805812835693,-0.1376186609268188,0.0,0.0,0.963388204574585,-0.9917842745780944
-0.3779163956642151,0.2439178079366684,0.4454818367958069,-0.3966016471385956,-0.8413684368133545,-0.0877571702003479,0.0,0.0,0.9738759994506836,-0.9854074716567992
-0.3729710578918457,0.2352062761783599,0.4959668517112732,-0.3882514536380768,-0.8434944152832031,-0.0425194948911666,0.0,0.0,0.9927239418029784,-0.8921356201171875
-0.3673751950263977,0.2270814031362533,0.5597866177558899,-0.3612548112869262,-0.8437944650650024,-0.0060009555891156,0.0,0.0,0.985257625579834,-0.9019482135772704
-0.3610360026359558,0.2191086560487747,0.6325789093971252,-0.3533402979373932,-0.8418012857437134,0.0398630835115909,0.0,0.0,0.986907958984375,-0.8668410181999207
-0.3540272712707519,0.2115587145090103,0.6982386708259583,-0.3335970342159271,-0.8379086852073669,0.0778523012995719,0.0,0.0,0.9629876613616944,-0.9196258783340454
-0.3463888764381408,0.204469233751297,0.7598593235015869,-0.3121542036533355,-0.8320500254631042,0.1171734184026718,0.0,0.0,0.9526087045669556,-0.8709267377853394
-0.3382987976074219,0.1974466443061828,0.8036704063415527,-0.308229386806488,-0.8242514729499817,0.155971422791481,0.0,0.0,0.9324525594711304,-0.9848932027816772
-0.3297608494758606,0.1907560676336288,0.8469823002815247,-0.2924995720386505,-0.8144017457962036,0.1969939768314361,0.0,0.0,0.9392517805099488,-0.9804620742797852
-0.3208775520324707,0.1843576729297638,0.880071759223938,-0.2786034345626831,-0.8025934100151062,0.2361669838428497,0.0,0.0,0.9467370510101318,-0.9719594120979308
-0.3112532198429107,0.1781434565782547,0.9523795247077942,-0.2693299353122711,-0.7883934378623962,0.2839994728565216,0.0,0.0,0.8738040924072266,-0.9924371242523192
-0.3012496829032898,0.1717315465211868,0.988477349281311,-0.2771262526512146,-0.7718931436538696,0.3300053477287292,0.0,0.0,0.9244207143783568,-0.990950882434845
-0.2904569506645202,0.1655317842960357,1.0653952360153198,-0.2666910290718078,-0.7529311180114746,0.3792409598827362,0.0,0.0,0.973886013031006,-0.9983261227607728
-0.2790179848670959,0.1598312705755233,1.1281369924545288,-0.2436925619840622,-0.731793999671936,0.4227429032325744,0.0,0.0,0.9866666793823242,-0.9675304293632508
-0.266714870929718,0.1545405238866806,1.2123847007751465,-0.2246392220258712,-0.7082383036613464,0.4711138308048248,0.0,0.0,0.9891018867492676,-0.9697932004928588
-0.2538502216339111,0.1493901759386062,1.2664072513580322,-0.2177221477031707,-0.6824285387992859,0.5161951780319214,0.0,0.0,0.9935574531555176,-0.9873640537261964
-0.2403387576341629,0.1448479443788528,1.3289631605148315,-0.190167024731636,-0.654495894908905,0.5586527585983276,0.0,0.0,0.9967777729034424,-0.9878973960876464
-0.2261523306369781,0.1408149152994156,1.3941473960876465,-0.1670601665973663,-0.6243265271186829,0.6033872365951538,0.0,0.0,0.9984557628631592,-0.9900716543197632
-0.2115298807621002,0.136801391839981,1.435331106185913,-0.1658417135477066,-0.5919191837310791,0.6481466293334961,0.0,0.0,0.998738169670105,-0.9987732768058776
-0.1966007202863693,0.1332997828722,1.4638341665267944,-0.1430189460515976,-0.5576767325401306,0.6848493218421936,0.0,0.0,0.9994690418243408,-0.999672532081604
-0.1814655363559723,0.1301661878824234,1.4822280406951904,-0.1267265975475311,-0.5216423869132996,0.7206882834434509,0.0,0.0,0.9994664192199708,-0.9996638894081116
-0.1659939736127853,0.1273801177740097,1.5134270191192627,-0.1114085614681243,-0.4836169183254242,0.760510265827179,0.0,0.0,0.999746322631836,-0.999945342540741
-0.1501719504594802,0.1248632743954658,1.5459120273590088,-0.0997036471962928,-0.443524569272995,0.8018476366996765,0.0,0.0,0.9997947216033936,-0.9999658465385436
-0.1339892446994781,0.1222512349486351,1.579181432723999,-0.104309931397438,-0.4011735320091247,0.8470204472541809,0.0,0.0,0.9998546838760376,-0.999984323978424
-0.117344856262207,0.1201438754796981,1.6225601434707642,-0.0824713632464408,-0.3566349148750305,0.890773594379425,0.0,0.0,0.999931812286377,-0.999996304512024
-0.1003106087446212,0.118832379579544,1.6589014530181885,-0.0479276552796363,-0.3100793957710266,0.9311110377311708,0.0,0.0,0.9999516010284424,-0.9999993443489076
-0.08306884765625,0.1174404248595237,1.6769622564315796,-0.0525269322097301,-0.2614631950855255,0.9723249673843384,0.0,0.0,0.9999620914459229,-0.9999991655349731
