x_pos,y_pos,x_vel,y_vel,angle,ang_vel,leg_1,leg_2,main_booster,lat_booster
-0.0015156746376305,1.4032979011535645,-0.1536996811628341,-0.3387621343135834,0.0019115303875878,0.0377176403999328,0.0,0.0,-0.4786869883537292,0.5314996242523193
-0.0029757500160485,1.3953700065612793,-0.1468941867351532,-0.3523539304733276,0.0027840337716042,0.0174523033201694,0.0,0.0,-0.1383566856384277,0.8994802236557007
-0.0043369294144213,1.3871089220046997,-0.1349581480026245,-0.3671590387821197,0.0016400218009948,-0.0228821225464344,0.0,0.0,0.0752829313278198,0.4348353147506714
-0.0057613374665379,1.3790087699890137,-0.1410693824291229,-0.3600029051303863,0.0002859717060346,-0.0270836390554904,0.0,0.0,0.2827392816543579,-0.1676865220069885
-0.007068729493767,1.3713417053222656,-0.1300282478332519,-0.3407626748085022,-0.0004229300830047,-0.0141790686175227,0.0,0.0,-0.3476486802101135,0.5893702507019043
-0.0083003994077444,1.3633469343185425,-0.121170625090599,-0.355318158864975,-0.0023937181103974,-0.0394198112189769,0.0,0.0,-0.0967210531234741,0.6292177438735962
-0.0094634052366018,1.3550257682800293,-0.1132808774709701,-0.3698363304138183,-0.0053885132074356,-0.0599014945328235,0.0,0.0,-0.5439403057098389,0.1373525857925415
-0.0106038097292184,1.346378207206726,-0.1111907139420509,-0.3843483328819275,-0.008205228485167,-0.0563390478491783,0.0,0.0,-0.2024369239807129,-0.1144201755523681
-0.011719798669219,1.3374043703079224,-0.1089327186346054,-0.3988601565361023,-0.0108411628752946,-0.0527232512831687,0.0,0.0,-0.0995576977729797,0.1860331296920776
-0.0128097534179687,1.3281038999557495,-0.1065161675214767,-0.4133720397949219,-0.0132932299748063,-0.0490461252629756,0.0,0.0,-0.0662521719932556,0.3959267139434814
-0.0138722416013479,1.3184771537780762,-0.1039508208632469,-0.427883893251419,-0.0155589310452342,-0.0453184768557548,0.0,0.0,-0.414309561252594,0.308167815208435
-0.0149056436493992,1.308523654937744,-0.1012460961937904,-0.4423956573009491,-0.0176360476762056,-0.0415458716452121,0.0,0.0,-0.9027220010757446,0.7406394481658936
-0.0158377643674612,1.2982457876205444,-0.0895002260804176,-0.4568438529968261,-0.0213079247623682,-0.0734444037079811,0.0,0.0,-0.3860387802124023,-0.2129852771759033
-0.0167383197695016,1.2876414060592651,-0.0865391194820404,-0.4713562428951263,-0.0247863959521055,-0.0695753097534179,0.0,0.0,-0.964893102645874,-0.1713484525680542
-0.0176061633974313,1.2767107486724854,-0.0834661573171615,-0.4858685433864593,-0.0280709620565176,-0.0656974092125892,0.0,0.0,-0.9187199473381042,-0.1347463130950927
-0.0184402465820312,1.2654534578323364,-0.0802890732884407,-0.5003806948661804,-0.0311599187552928,-0.0617845840752124,0.0,0.0,-0.5812780261039734,-0.8965023756027222
-0.01929397508502,1.2538827657699585,-0.0838397294282913,-0.5142868161201477,-0.0326781310141086,-0.0303669776767492,0.0,0.0,-0.8397846817970276,-0.2167149782180786
-0.020112132653594,1.241985559463501,-0.0804825276136398,-0.5287985801696777,-0.0339991822838783,-0.0264235083013772,0.0,0.0,0.0877444744110107,-0.8438381552696228
-0.0208677295595407,1.2305614948272705,-0.0761481747031211,-0.5077214241027832,-0.0334152989089489,0.0116790197789669,0.0,0.0,-0.770691454410553,-0.6343914866447449
-0.0216429717838764,1.218813180923462,-0.079766146838665,-0.5220938324928284,-0.0312042124569416,0.0442256703972816,0.0,0.0,-0.548804521560669,0.335410475730896
-0.0223804470151662,1.2067387104034424,-0.0761927515268325,-0.5366021394729614,-0.0287936236709356,0.0482163503766059,0.0,0.0,-0.8364765048027039,0.3783010244369507
-0.0230795852839946,1.1943376064300537,-0.0725563168525695,-0.5511124134063721,-0.0261824317276477,0.0522286109626293,0.0,0.0,-0.9081199169158936,-0.2240087985992431
-0.0237398147583007,1.181610107421875,-0.0688622966408729,-0.5656242370605469,-0.0233704596757888,0.0562443956732749,0.0,0.0,-0.9106193780899048,0.4494056701660156
-0.0243605617433786,1.1685559749603271,-0.0651155635714531,-0.580136239528656,-0.0203573107719421,0.0602680444717407,0.0,0.0,-0.9220924377441406,-0.1582685112953186
-0.02494134940207,1.1551753282546997,-0.0613207034766674,-0.5946483612060547,-0.0171426702290773,0.0642984136939048,0.0,0.0,-0.8345498442649841,0.5297119617462158
-0.0254500396549701,1.141448974609375,-0.0535163804888725,-0.6100350022315979,-0.0145242037251591,0.052369225770235,0.0,0.0,-0.9164190888404846,0.1160004138946533
-0.0259177200496196,1.1273962259292605,-0.0496274456381797,-0.6245449781417847,-0.0117028597742319,0.0564266741275787,0.0,0.0,-0.9363170862197876,0.2966041564941406
-0.026344109326601,1.1130170822143557,-0.0457010827958583,-0.6390551924705505,-0.0086781522259116,0.0604943521320819,0.0,0.0,-0.9479707479476928,0.2339940071105957
-0.0267288200557231,1.098311424255371,-0.0417405404150486,-0.6535655856132507,-0.005449584685266,0.0645713806152343,0.0,0.0,-0.4302414655685425,0.4767991304397583
-0.027071475982666,1.0832796096801758,-0.0377487763762474,-0.6680760979652405,-0.0020167399197816,0.0686568245291709,0.0,0.0,-0.9494875073432922,0.8096523284912109
-0.0273057930171489,1.0679302215576172,-0.0254377331584692,-0.6821919679641724,-3.930222010239959e-05,0.0395489670336246,0.0,0.0,-0.9396641254425048,-0.1511285901069641
-0.0274975784122943,1.052254319190979,-0.0213914439082145,-0.6967019438743591,0.0021431308705359,0.043648712337017,0.0,0.0,-0.5734977722167969,0.2992027997970581
-0.0276466365903615,1.03625226020813,-0.0173214189708232,-0.7112120389938354,0.0045308470726013,0.0477544777095317,0.0,0.0,-0.6633513569831848,0.2863550186157226
-0.0277525894343853,1.0199236869812012,-0.013229745440185,-0.7257223129272461,0.0071241194382309,0.0518656000494957,0.0,0.0,-0.538210391998291,0.6632299423217773
-0.0277615543454885,1.0032707452774048,-0.0023555341176688,-0.7401391863822937,0.0085686268284916,0.0288900677114725,0.0,0.0,-0.6919795274734497,0.3774698972702026
-0.0277270320802927,0.9862913489341736,0.0017738543683663,-0.7546492218971252,0.0102191185578703,0.0330100022256374,0.0,0.0,-0.3676145076751709,0.500761866569519
-0.0276110656559467,0.9689835906028748,0.0106768477708101,-0.7692407965660095,0.0111234486103057,0.0180866494774818,0.0,0.0,-0.5453541874885559,0.2946498394012451
-0.0274514202028512,0.9513494968414308,0.0148374959826469,-0.7837508320808411,0.0122340880334377,0.0222130361944437,0.0,0.0,0.1878334283828735,0.7550463676452637
-0.0272279735654592,0.934306263923645,0.0225764028728008,-0.7574689984321594,0.0120164640247821,-0.0043526934459805,0.0,0.0,-0.3257564306259155,0.2739663124084472
-0.0269604679197073,0.916936695575714,0.0267628543078899,-0.7719789743423462,0.0120053580030798,-0.0002221077156718,0.0,0.0,-0.2579421997070312,0.4537591934204101
-0.0266489032655954,0.8992408514022827,0.0309604294598102,-0.7864888310432434,0.0122008537873625,0.0039098635315895,0.0,0.0,-0.0256282687187194,0.3675720691680908
-0.0262930877506732,0.8812183737754822,0.0351680517196655,-0.8009987473487854,0.0126029876992106,0.0080426707863807,0.0,0.0,0.0587630271911621,0.6432961225509644
-0.0257741920650005,0.8631662130355835,0.0524897389113903,-0.8023149967193604,0.0120144393295049,-0.0117709431797266,0.0,0.0,-0.6190815567970276,0.4921128749847412
-0.0252108573913574,0.8447877168655396,0.0567145459353923,-0.8168250322341919,0.0116325393319129,-0.0076378909870982,0.0,0.0,-0.4027174115180969,0.5536224842071533
-0.0245622638612985,0.8260767459869385,0.0660775750875473,-0.831587016582489,0.0104308864101767,-0.0240328423678874,0.0,0.0,-0.3521009683609009,0.5282516479492188
-0.0238241199404001,0.8070347905158997,0.0759650319814682,-0.8462971448898315,0.0083053838461637,-0.042510025203228,0.0,0.0,-0.3636125326156616,-0.4272691011428833
-0.0230414383113384,0.7876664996147156,0.0802092924714088,-0.8608073592185974,0.006386362016201,-0.038380317389965,0.0,0.0,0.238673448562622,-0.5645911693572998
-0.0223553664982318,0.7689141035079956,0.0693751126527786,-0.8334367871284485,0.0056159147061407,-0.0154086323454976,0.0,0.0,-0.0918546915054321,0.7246668338775635
-0.0215801242738962,0.7498422265052795,0.0792368128895759,-0.8476413488388062,0.0039279568009078,-0.0337587259709835,0.0,0.0,0.2196137905120849,-0.2519850730895996
-0.0207772254943847,0.7310068011283875,0.0818587690591812,-0.837123692035675,0.0023738124873489,-0.0310828387737274,0.0,0.0,-0.2589545845985412,-0.7139631509780884
-0.0199727062135934,0.7118446826934814,0.0807187110185623,-0.8516508340835571,0.0021070763468742,-0.0053346240893006,0.0,0.0,-0.4486851692199707,0.2207742929458618
-0.0191235542297363,0.6923561096191406,0.0849814563989639,-0.8661605715751648,0.0020460346713662,-0.0012209361884742,0.0,0.0,-0.2174739837646484,0.1494003534317016
-0.018229579553008,0.672541081905365,0.0892460942268371,-0.8806703686714172,0.0021904283203184,0.0028877763543277,0.0,0.0,0.2206748723983764,-0.1874138712882995
-0.0172898285090923,0.6532835364341736,0.0936100035905838,-0.8558884859085083,0.0025508820544928,0.0072092162445187,0.0,0.0,-0.149275541305542,-0.4578684568405151
-0.0163053516298532,0.6336995959281921,0.0978767573833465,-0.870398223400116,0.0031161969527602,0.0113062486052513,0.0,0.0,0.8918957710266113,-0.7767869234085083
-0.0154583929106593,0.6145942211151123,0.0826122760772705,-0.849130392074585,0.0051695592701435,0.041067361831665,0.0,0.0,-0.0451309084892272,-0.2478998303413391
-0.0145667074248194,0.5951625108718872,0.086878977715969,-0.8636404871940613,0.0074270446784794,0.0451498180627822,0.0,0.0,0.5354745388031006,-0.3707598447799682
-0.0135067943483591,0.5763461589813232,0.1029062047600746,-0.8363034129142761,0.0104815335944294,0.0610894449055194,0.0,0.0,-0.1439451575279235,-0.5168177485466003
-0.0124379154294729,0.557208240032196,0.1026725023984909,-0.8506088256835938,0.0146392025053501,0.0831534042954444,0.0,0.0,0.8414396047592163,-0.0527341365814209
-0.011422062292695,0.5390558838844299,0.0975656658411026,-0.8068169355392456,0.0186068657785654,0.079353429377079,0.0,0.0,0.4946978092193603,-0.3294572830200195
-0.010321426205337,0.5210810303688049,0.1056172847747802,-0.7989424467086792,0.0229909121990203,0.087681159377098,0.0,0.0,0.4354856014251709,0.0739641189575195
-0.00927734375,0.5036909580230713,0.1001731976866722,-0.7729622721672058,0.0271734483540058,0.0836506634950637,0.0,0.0,0.3883155584335327,0.0539990663528442
-0.008096694946289,0.4866306185722351,0.1131362095475196,-0.7583326697349548,0.0320369638502597,0.0972703844308853,0.0,0.0,0.5217206478118896,-0.1515305042266845
-0.0068679810501635,0.4700917601585388,0.1176467686891555,-0.7351825833320618,0.0372010357677936,0.1032814532518386,0.0,0.0,-0.0597407817840576,0.1537864208221435
-0.0055948258377611,0.4532268941402435,0.1218911781907081,-0.7496951222419739,0.0425644963979721,0.1072690710425376,0.0,0.0,0.7479714155197144,0.4307206869125366
-0.0044346810318529,0.4369646906852722,0.1109989732503891,-0.7229127287864685,0.0475205667316913,0.099121481180191,0.0,0.0,0.3224787712097168,0.2232565879821777
-0.0032456398475915,0.4214042425155639,0.113615795969963,-0.6917554140090942,0.0527536980807781,0.1046624928712844,0.0,0.0,-0.014307677745819,0.5250159502029419
-0.0019649504683911,0.4055151045322418,0.1237790361046791,-0.7063384652137756,0.0569974146783351,0.0848741456866264,0.0,0.0,0.6185710430145264,-0.2072974443435669
-0.0006612777942791,0.3905547559261322,0.1257552802562713,-0.6650893092155457,0.0615590400993824,0.0912322700023651,0.0,0.0,0.0608000755310058,0.0564543008804321
0.0006074905395507,0.3757176995277405,0.1223473101854324,-0.6596142053604126,0.0660354197025299,0.0895277708768844,0.0,0.0,0.0725713968276977,0.2590627670288086
0.0018316268688067,0.3612067401409149,0.1179780587553978,-0.6451343894004822,0.0704290345311164,0.087872102856636,0.0,0.0,-0.0419360995292663,0.4185985326766968
0.0030996322166174,0.3463697433471679,0.1221673861145973,-0.6596468687057495,0.0750142633914947,0.0917044132947921,0.0,0.0,0.9134082794189452,0.1379746198654174
0.0041893003508448,0.3326530158519745,0.1048380732536315,-0.6098471879959106,0.0790993645787239,0.0817023962736129,0.0,0.0,0.3672183752059936,0.5893535614013672
0.0053975107148289,0.3193380832672119,0.1175524443387985,-0.5919488072395325,0.0823370590806007,0.0647538304328918,0.0,0.0,-0.1757239699363708,0.0332549810409545
0.0066491127945482,0.3056970834732055,0.1217040047049522,-0.6064607501029968,0.0857614427804946,0.0684874653816223,0.0,0.0,0.2416282892227172,0.1273591518402099
0.007973956875503,0.2921017408370971,0.1286020576953888,-0.6044681072235107,0.0896069630980491,0.0769104212522506,0.0,0.0,0.911705493927002,0.399083137512207
0.0092702861875295,0.2787621319293976,0.1257378756999969,-0.5931094288825989,0.0934659987688064,0.0771806538105011,0.0,0.0,0.4577023983001709,0.2444368600845337
0.0105368616059422,0.2661406695842743,0.1226104646921157,-0.5612127184867859,0.0974712371826171,0.0801049023866653,0.0,0.0,0.5687925815582275,-0.4720618724822998
0.011846256442368,0.2543606758117676,0.1263676285743713,-0.5238587856292725,0.1020059958100318,0.0906955301761627,0.0,0.0,-0.0301801562309265,-0.2429033517837524
0.0131980897858738,0.242254763841629,0.1304299235343933,-0.538371741771698,0.1067161634564399,0.094203345477581,0.0,0.0,0.3665716648101806,0.0374058485031127
0.0144563671201467,0.2302144318819046,0.1214092746376991,-0.5354479551315308,0.111103817820549,0.087753027677536,0.0,0.0,0.5370035171508789,-0.125811755657196
0.0157122611999511,0.2189507335424423,0.1208275780081749,-0.5009711980819702,0.1158345788717269,0.0946153625845909,0.0,0.0,0.7915732860565186,-0.2703461647033691
0.016828441992402,0.2082718908786773,0.1072016730904579,-0.4749645888805389,0.1202233135700225,0.0877748057246208,0.0,0.0,0.8335713148117065,-0.2773659229278564
0.0178353302180767,0.1983764022588729,0.0963836759328842,-0.4401526749134063,0.1244933828711509,0.0854014456272125,0.0,0.0,0.6651123762130737,-0.5610098838806152
0.0187383648008108,0.1891960948705673,0.0847605243325233,-0.4084841012954712,0.1300077885389328,0.1102879792451858,0.0,0.0,0.9074152708053588,-0.3373509645462036
0.0196946151554584,0.1807087212800979,0.0894621312618255,-0.377766489982605,0.1361428946256637,0.122702457010746,0.0,0.0,0.7952934503555298,-0.3058205842971802
0.0206658355891704,0.1724536716938018,0.0907031074166297,-0.3674906492233276,0.1425479501485824,0.1281011700630188,0.0,0.0,0.7059413194656372,-0.4240293502807617
0.0217123981565237,0.1645108312368393,0.0976512283086776,-0.353704571723938,0.1495423465967178,0.1398877650499344,0.0,0.0,0.6247035264968872,-0.4380914568901062
0.0228575710207223,0.157107725739479,0.1066958755254745,-0.3298303484916687,0.1573473811149597,0.1561008095741272,0.0,0.0,0.7049052715301514,-0.2220597267150879
0.0241195671260356,0.1500160247087478,0.1175879389047622,-0.3161169588565826,0.165954127907753,0.1721350252628326,0.0,0.0,0.3454252481460571,-0.2615201473236084
0.0253139492124319,0.1435031294822693,0.1107254177331924,-0.2904567718505859,0.1746703535318374,0.1743247061967849,0.0,0.0,0.437237024307251,0.7360210418701172
0.0265170093625783,0.1376682072877884,0.1129124015569686,-0.2602192759513855,0.1820815801620483,0.1482246369123459,0.0,0.0,0.7712256908416748,-0.92634254693985
0.0277009960263967,0.1325868964195251,0.1088249906897544,-0.2270389646291732,0.1917010396718979,0.1923891901969909,0.0,0.0,-0.4691981673240661,-0.1044368743896484
0.0289209373295307,0.1271806359291076,0.1123252734541893,-0.241558089852333,0.2014332860708236,0.1946449726819992,0.0,0.0,-0.4238417148590088,0.3331482410430908
0.0301759727299213,0.1214494332671165,0.1157579571008682,-0.256077378988266,0.2112717181444168,0.1967684775590896,0.0,0.0,-0.6310884356498718,0.1438299417495727
0.0314655303955078,0.1153933629393577,0.1191181167960167,-0.2705968022346496,0.2212094217538833,0.1987540423870086,0.0,0.0,-0.5028238892555237,0.4475491046905517
0.0327885635197162,0.1090123504400253,0.1224006041884422,-0.2851162850856781,0.2312392443418502,0.2005962431430816,0.0,0.0,-0.1561775207519531,0.2122598886489868
0.0341441147029399,0.1023064702749252,0.1256000995635986,-0.2996357977390289,0.2413537204265594,0.2022898644208908,0.0,0.0,-0.4128650426864624,0.4511188268661499
0.0355313308537006,0.0952757224440574,0.1287110149860382,-0.3141553699970245,0.2515452206134796,0.2038300782442093,0.0,0.0,0.255164623260498,0.0595209598541259
0.0367678627371788,0.0887329205870628,0.1137874945998191,-0.2925138771533966,0.2616176605224609,0.2014491260051727,0.0,0.0,0.0015437602996826,0.5196967124938965
0.0379017814993858,0.0825205668807029,0.1045852676033973,-0.2776967585086822,0.2706084549427032,0.1798162311315536,0.0,0.0,-0.2677296996116638,0.3131020069122314
0.0390639305114746,0.0759829878807067,0.1073945760726928,-0.2922141849994659,0.2796520888805389,0.1808726191520691,0.0,0.0,0.3176023960113525,0.5781480073928833
0.0400667190551757,0.0697887241840362,0.0927713364362716,-0.2767531275749206,0.2873634696006775,0.1542284786701202,0.0,0.0,0.1693365573883056,0.6047810316085815
0.0409227386116981,0.0637707114219665,0.079456478357315,-0.2686929702758789,0.2936981916427612,0.1266945153474807,0.0,0.0,0.3884954452514648,0.7007709741592407
0.0417752265930175,0.058364663273096,0.0803058519959449,-0.2412732988595962,0.2987928986549377,0.1018943041563034,0.0,0.0,-0.0015550851821899,0.558091402053833
0.0426981933414936,0.0526491962373256,0.0885611698031425,-0.2547937631607055,0.3026604950428009,0.0773519128561019,0.0,0.0,0.2570817470550537,0.0853292942047119
0.0435754768550396,0.0474880561232566,0.0834865719079971,-0.2302736192941665,0.3070488274097442,0.087766058743,0.0,0.0,-0.028471291065216,0.4418354034423828
0.0444730743765831,0.0420006848871707,0.0855287984013557,-0.2447849065065384,0.3114387989044189,0.087798848748207,0.0,0.0,0.5760287046432495,0.4457273483276367
0.0452693924307823,0.0374136082828044,0.0747974142432212,-0.2049166858196258,0.3164515197277069,0.1002537012100219,0.0,0.0,0.2299127578735351,0.2000700235366821
0.046002484858036,0.0331418849527835,0.0682579725980758,-0.1909672766923904,0.3217116892337799,0.1052031368017196,0.0,1.0,0.9620044231414796,0.9617382287979126
0.0464403145015239,0.0309750884771347,0.0574175901710987,-0.0936516895890235,0.3067303299903869,-0.3008324205875397,0.0,1.0,0.9114198684692384,0.4873222112655639
0.046584703028202,0.0304226260632276,0.0412802062928676,-0.0191437862813472,0.2789894640445709,-0.5548871755599976,0.0,1.0,0.5585029125213623,-0.187331736087799
0.0467102043330669,0.03018051199615,0.0379150472581386,-0.0061293509788811,0.2530275881290436,-0.5192381143569946,0.0,1.0,0.2094342708587646,-0.2652512788772583
0.0466341972351074,0.0302443839609622,0.0183453783392906,0.0070967567153275,0.2266526222229004,-0.5274995565414429,0.0,0.0,-0.9996006488800048,0.5345818996429443
0.0466050133109092,0.0300009101629257,0.0240428205579519,-0.0069040316157042,0.1994086056947708,-0.5448809266090393,0.0,0.0,-0.9994168281555176,0.1065404415130615
0.0465882308781147,0.0294406507164239,0.0254853274673223,-0.0214740894734859,0.1721340864896774,-0.5454906225204468,0.0,0.0,-0.9980640411376952,0.0231250524520874
0.0465826019644737,0.0285635329782962,0.0267602894455194,-0.0360445864498615,0.144821211695671,-0.5462580919265747,0.0,0.0,-0.9925082325935364,0.2516853809356689
0.0465865135192871,0.0273697711527347,0.02786460891366,-0.0506155490875244,0.1174622848629951,-0.5471787452697754,0.0,0.0,-0.980148196220398,-0.1454612612724304
0.0465982444584369,0.0258593652397394,0.028795788064599,-0.0651870146393776,0.0900499746203422,-0.5482471585273743,0.0,0.0,-0.9397616982460022,-0.2264182567596435
0.0466162674129009,0.024032387882471,0.0295519866049289,-0.0797589868307113,0.0625770911574363,-0.5494579076766968,0.0,0.0,-0.6202313899993896,-0.628058671951294
0.0465949065983295,0.0218773931264877,0.0245945118367671,-0.0948741137981414,0.0361564718186855,-0.5284125208854675,0.0,0.0,-0.0140595436096191,-0.8521772027015686
