x_pos,y_pos,x_vel,y_vel,angle,ang_vel,leg_1,leg_2,main_booster,lat_booster
-0.0016278267139568,1.4030851125717163,-0.1651258766651153,-0.348221480846405,0.0021021014545112,0.0414908900856971,0.0,0.0,-0.4122246030116143,0.917235935161966
-0.0032820701599121,1.3947298526763916,-0.1657711118459701,-0.3713493943214416,0.0024424195289611,0.0068078031763434,0.0,0.0,0.6301115377757172,-0.684418512595513
-0.0049517629668116,1.3864279985427856,-0.1692826747894287,-0.3689787685871124,0.0047302329912781,0.045760441571474,0.0,0.0,0.7475857130525791,-0.6036007179436114
-0.0069109918549656,1.3783762454986572,-0.1993331015110016,-0.3578721582889557,0.0081016002222895,0.0674334540963172,0.0,0.0,-0.4228433506955764,-0.8793775413860014
-0.0090286256745457,1.3697874546051023,-0.2168161571025848,-0.3817627727985382,0.0131011214107275,0.0999996215105056,0.0,0.0,0.4492003811601164,-0.8801584462318024
-0.0111893657594919,1.3613743782043457,-0.2233290672302246,-0.373990386724472,0.0202805753797292,0.1436024010181427,0.0,0.0,-0.4970720945542874,0.6079413842681249
-0.0134075162932276,1.3524240255355835,-0.2281625568866729,-0.3978928625583648,0.0265586785972118,0.1255734711885452,0.0,0.0,-0.9081735549964732,-0.951310630600884
-0.0157852172851562,1.3429356813430786,-0.2458058893680572,-0.4218664169311523,0.0345123782753944,0.1590882986783981,0.0,0.0,0.7251893816613559,0.6968773891548005
-0.0182547569274902,1.334228515625,-0.2538315057754516,-0.3871580362319946,0.0413068421185016,0.1359023153781891,0.0,0.0,-0.7564159518617934,-0.868080913405284
-0.0208952911198139,1.324983835220337,-0.2729189991950989,-0.4111402332782745,0.0500787422060966,0.1754538714885711,0.0,0.0,-0.0994155184295326,-0.754907082333174
-0.023688793182373,1.3151979446411133,-0.2897595763206482,-0.4353026747703552,0.060384914278984,0.2061424702405929,0.0,0.0,0.1376857208437336,0.9416011280389672
-0.0264742858707904,1.3054288625717163,-0.2873355448246002,-0.4345576167106628,0.0690849795937538,0.1740175783634185,0.0,0.0,-0.947528369600628,0.7113755554984378
-0.0292928703129291,1.2951321601867676,-0.2891546487808227,-0.4579856991767883,0.0763161778450012,0.1446370482444763,0.0,0.0,-0.9996384410294488,0.7709109715537239
-0.0321438796818256,1.2842974662780762,-0.2909145951271057,-0.4818477630615234,0.0820891261100769,0.1154693216085434,0.0,0.0,-0.8995794438345295,-0.8476707870969892
-0.0351459495723247,1.272926926612854,-0.3075670301914215,-0.5057864189147949,0.0893931090831756,0.1460929214954376,0.0,0.0,0.6688523139773814,-0.9472171860179196
-0.0382236465811729,1.2614622116088867,-0.3174473941326141,-0.5101475715637207,0.0990008637309074,0.1921725422143936,0.0,0.0,-0.9299417218945608,0.9914528763243392
-0.0413047783076763,1.2494850158691406,-0.3155714869499206,-0.5328274369239807,0.1064155995845794,0.1483083218336105,0.0,0.0,0.2998831171453362,-0.7054963700239596
-0.0444448478519916,1.2374144792556765,-0.3233084976673126,-0.537148654460907,0.1156640201807022,0.1849853992462158,0.0,0.0,0.6013963007255598,0.6012566326047061
-0.0476233474910259,1.2259968519210815,-0.3264141380786896,-0.5081344842910767,0.1241853535175323,0.1704420298337936,0.0,0.0,-0.2689548237613586,0.7953046823736066
-0.0508432388305664,1.214050531387329,-0.3293921649456024,-0.5315759181976318,0.1315564066171646,0.1474342197179794,0.0,0.0,-0.130208060095113,0.8160666693476342
-0.0540805831551551,1.2015873193740845,-0.3293657004833221,-0.5544307827949524,0.1371694058179855,0.1122700199484825,0.0,0.0,0.5143022989065371,-0.9578232981078098
-0.0575287826359272,1.1891696453094482,-0.3525875210762024,-0.5526196956634521,0.144923061132431,0.1550871431827545,0.0,0.0,0.368121706006566,-0.8530685877505482
-0.0610797889530658,1.1768940687179563,-0.3649027943611145,-0.5465654730796814,0.1547191888093948,0.1959402859210968,0.0,0.0,0.5509769620748766,-0.867683155389391
-0.064760684967041,1.164506912231445,-0.3799070417881012,-0.5518133640289307,0.1665580123662948,0.2367975711822509,0.0,0.0,0.688887870238234,0.7406444425110608
-0.0687391310930252,1.1525324583053589,-0.4080297350883484,-0.5333675742149353,0.1767804771661758,0.2044674605131149,0.0,0.0,0.965862219437912,0.6289346507428709
-0.0730834975838661,1.1412038803100586,-0.4430716037750244,-0.5045492053031921,0.1854295432567596,0.1729814410209655,0.0,0.0,0.1281262515159607,-0.8003691902902225
-0.0776646584272384,1.1300570964813232,-0.4684950709342956,-0.4967465102672577,0.1958609521389007,0.2086285054683685,0.0,0.0,-0.7846343207764861,0.8644705828305901
-0.0822780579328537,1.1183969974517822,-0.4705148637294769,-0.5194637179374695,0.2050956934690475,0.1846947968006134,0.0,0.0,0.2699875320810483,-0.7239679290200564
-0.0872613936662674,1.1070277690887451,-0.5089291334152222,-0.506804883480072,0.2157925814390182,0.2139378041028976,0.0,0.0,0.768653552430645,-0.8285320931267026
-0.092523381114006,1.0958541631698608,-0.5385212898254395,-0.4984525144100189,0.2282634079456329,0.2494163960218429,0.0,0.0,-0.0434668887661102,-0.6460316051465687
-0.0979116410017013,1.0841343402862549,-0.5524846315383911,-0.5230594873428345,0.2421295791864395,0.2773238718509674,0.0,0.0,-0.4024551931827327,0.9515993116217436
-0.1033098250627517,1.0718958377838137,-0.5519331693649292,-0.5459707379341125,0.2544563710689544,0.2465360462665558,0.0,0.0,-0.8935319824743131,0.9450452605993808
-0.108719065785408,1.0591530799865725,-0.5514822602272034,-0.5682132840156555,0.2652442455291748,0.2157567739486694,0.0,0.0,0.9372263456811316,0.9650572683900238
-0.1143124550580978,1.046473741531372,-0.5679522752761841,-0.565109133720398,0.2740533351898193,0.1761819571256637,0.0,0.0,-0.4402377497899061,0.8743426968109645
-0.1199034675955772,1.0332868099212646,-0.5660041570663452,-0.5873991250991821,0.2811345756053924,0.1416255086660385,0.0,0.0,0.3898625527680117,0.6201633324022578
-0.1256708204746246,1.020509958267212,-0.5825003981590271,-0.5689784288406372,0.2870675027370453,0.1186581030488014,0.0,0.0,-0.1786595903093724,0.6472296028927376
-0.1314490288496017,1.0072121620178225,-0.5824278593063354,-0.591932475566864,0.2918155491352081,0.0949607044458389,0.0,0.0,0.2009724719971,0.7681223561823053
-0.1373538970947265,0.994215488433838,-0.5936564803123474,-0.5782611966133118,0.2950817346572876,0.0653240457177162,0.0,0.0,0.6016649257952726,0.6575045105496883
-0.1435383856296539,0.9818637371063232,-0.6202691793441772,-0.5493384003639221,0.2969567477703094,0.0375004969537258,0.0,0.0,-0.4421707243172768,-0.6311288363855259
-0.1498146057128906,0.9689528346061708,-0.6306452751159668,-0.5744403004646301,0.3000824153423309,0.0625129714608192,0.0,0.0,-0.6669821673022618,-0.8797857401983327
-0.1562120467424392,0.9554738402366638,-0.6448103189468384,-0.6001235246658325,0.3053216636180877,0.1047854870557785,0.0,0.0,-0.207261323928833,0.9752728939056396
-0.1625578850507736,0.9414952993392944,-0.6373426914215088,-0.6218485236167908,0.3081698715686798,0.0569641515612602,0.0,0.0,-0.1296658515930175,0.9894801378250122
-0.1688476502895355,0.9270082116127014,-0.6294612288475037,-0.6439728140830994,0.3086734116077423,0.010070813819766,0.0,0.0,0.1124559640884399,0.9930812120437622
-0.1751220673322677,0.9125606417655944,-0.6259167790412903,-0.641800582408905,0.3071012496948242,-0.0314424932003021,0.0,0.0,0.2684450149536133,0.9974658489227296
-0.181444451212883,0.8979044556617737,-0.6287179589271545,-0.6506387591362,0.303457111120224,-0.0728828907012939,0.0,0.0,0.0110601186752319,0.9908262491226196
-0.1877359449863433,0.883042573928833,-0.6235959529876709,,0.2977217733860016,-0.1147071495652198,0.0,0.0,-0.1583858728408813,0.992224931716919
-0.1939557045698166,0.8676744699478149,-0.6141952276229858,-0.6814591288566589,0.2896930873394012,-0.1605731397867202,0.0,0.0,-0.2317379117012024,0.9996042251586914
-0.2001226395368576,0.8518053889274597,-0.6071798205375671,-0.7034353017807007,0.2799102365970611,-0.1956571191549301,0.0,0.0,-0.2801967859268188,0.9980027675628662
-0.2062332183122635,0.8354318737983704,-0.5998674631118774,-0.7256092429161072,0.2684329748153686,-0.2295447289943695,0.0,0.0,-0.3531767129898071,0.9988601207733154
-0.2122654914855957,0.8185481429100037,-0.5899726152420044,-0.7480170130729675,0.2548836171627044,-0.2709873616695404,0.0,0.0,-0.3194315433502197,0.9921181201934814
-0.2181940525770187,0.8011638522148132,-0.5769776105880737,-0.7699583172798157,0.2387126684188842,-0.3234190046787262,0.0,0.0,0.3380889892578125,0.9935495853424072
-0.2242259979248047,0.7841283082962036,-0.5850865244865417,-0.7543030977249146,0.2203541696071624,-0.3671701550483703,0.0,0.0,-0.4294800162315368,0.9976974725723268
-0.2301457375288009,0.7665830850601196,-0.5712743997573853,-0.7768315672874451,0.199458360671997,-0.4179162383079529,0.0,0.0,0.1942377090454101,0.9577337503433228
-0.2360783517360687,0.7493840456008911,-0.5703685879707336,-0.7614776492118835,0.176450029015541,-0.4601669907569885,0.0,0.0,0.5835493803024292,0.9978399276733398
-0.2418241947889328,0.7324028611183167,-0.5495633482933044,-0.7519405484199524,0.1514125317335128,-0.5007502436637878,0.0,0.0,-0.1908404231071472,0.9987996816635132
-0.2474679052829742,0.7149013876914978,-0.537355899810791,-0.7753151059150696,0.1244857534766197,-0.5385358333587646,0.0,0.0,-0.4367866516113281,0.995826244354248
-0.2529811263084411,0.6968968510627747,-0.521669328212738,-0.7979916334152222,0.0950319766998291,-0.5890759825706482,0.0,0.0,0.5702273845672607,0.9974815845489502
-0.2582826018333435,0.6793588995933533,-0.4983071684837341,-0.7777496576309204,0.0635024011135101,-0.6305920481681824,0.0,0.0,0.8251651525497437,0.8916721343994141
-0.263430118560791,0.6626815795898438,-0.480964183807373,-0.7401237487792969,0.0301074627786874,-0.6678991317749023,0.0,0.0,0.4745950698852539,0.999163031578064
-0.2685428261756897,0.6465409994125366,-0.4750967621803283,-0.7170189023017883,-0.0056006200611591,-0.7141623497009277,0.0,0.0,0.9292502403259276,0.9836547374725342
-0.2734492719173431,0.6305182576179504,-0.4523360133171081,-0.7127074599266052,-0.0434277653694152,-0.7565438747406006,0.0,0.0,0.9957783222198486,0.9745512008666992
-0.2783115804195404,0.6152549982070923,-0.4454979002475738,-0.6800370812416077,-0.0837143585085868,-0.8057325482368469,0.0,0.0,0.9813560247421264,0.9587619304656982
-0.282815158367157,0.6003699898719788,-0.4078337550163269,-0.6644741892814636,-0.1259123086929321,-0.843960165977478,0.0,0.0,0.9699509143829346,0.8037501573562622
-0.2870608270168304,0.5860418677330017,-0.3804263174533844,-0.6411231160163879,-0.169950932264328,-0.8807735443115234,0.0,0.0,0.8943133354187012,-0.4760199785232544
-0.2911432385444641,0.5718779563903809,-0.3641582131385803,-0.6351548433303833,-0.2142601907253265,-0.8861861228942871,0.0,0.0,0.9729435443878174,0.7725228071212769
-0.2950919270515442,0.5582690834999084,-0.3490048944950104,-0.6121631860733032,-0.2608088254928589,-0.9309736490249634,0.0,0.0,0.9903080463409424,-0.8184921741485596
-0.2987236082553863,0.5456664562225342,-0.3192267715930938,-0.5685752034187317,-0.3059603869915008,-0.9030324220657348,0.0,0.0,0.8792389631271362,-0.697528064250946
-0.3021255135536194,0.5329980850219727,-0.2981130182743072,-0.5725096464157104,-0.3497985005378723,-0.8767626881599426,0.0,0.0,0.8623819351196289,-0.9978209137916564
-0.3051461577415466,0.5212047100067139,-0.2623136937618255,-0.5343901515007019,-0.3918723165988922,-0.8414770364761353,0.0,0.0,0.9716167449951172,-0.9972388744354248
-0.3080469667911529,0.5097901225090027,-0.2523829936981201,-0.5182403922080994,-0.4324406683444977,-0.8113676905632019,0.0,0.0,0.7918827533721924,-0.9986679553985596
-0.3107160031795501,0.4989804327487945,-0.2313354760408401,-0.4918796122074127,-0.4714263379573822,-0.7797141671180725,0.0,0.0,0.9004496335983276,-0.9781357645988464
-0.312995433807373,0.4886344671249389,-0.1946288645267486,-0.471612274646759,-0.5086628198623657,-0.7447298765182495,0.0,0.0,0.8313113451004028,-0.9998074173927308
-0.3149240612983703,0.4791766405105591,-0.1615692377090454,-0.4324207007884979,-0.5443463921546936,-0.7136728763580322,0.0,0.0,0.8789443969726562,-0.999173939228058
-0.316399335861206,0.4700266718864441,-0.1185074225068092,-0.418781578540802,-0.5781493186950684,-0.6760581731796265,0.0,0.0,0.8277390003204346,-0.999798059463501
-0.3176397383213043,0.4609871208667755,-0.0970640257000923,-0.4138630628585815,-0.6102505922317505,-0.6420263648033142,0.0,0.0,0.2891445159912109,-0.9985272288322448
-0.3186492919921875,0.4517386555671692,-0.076009526848793,-0.4230153262615204,-0.6405924558639526,-0.6068376302719116,0.0,0.0,0.6401791572570801,-0.9999816417694092
-0.3194486200809479,0.4424617290496826,-0.0569297857582569,-0.4240471422672272,-0.6691921353340149,-0.5719941854476929,0.0,0.0,0.5815490484237671,-0.9969701766967772
-0.3197363913059234,0.4336371719837188,-0.0076922276057302,-0.4035972356796264,-0.6959879398345947,-0.5359162092208862,0.0,0.0,-0.1896846294403076,-0.9995710849761964
-0.3199661672115326,0.4243555963039398,-0.0035257083363831,-0.4236045181751251,-0.7212475538253784,-0.5051918029785156,0.0,0.0,-0.4238297343254089,-0.99908846616745
-0.3201544284820556,0.4146418571472168,-0.0014834977919235,-0.442104160785675,-0.7442554831504822,-0.460158497095108,0.0,0.0,-0.342926025390625,-0.999985933303833
-0.3203103542327881,0.4044845700263977,-0.0002858838415704,-0.461002916097641,-0.7649707198143005,-0.4143048226833343,0.0,0.0,-0.5577440857887268,-0.9996435642242432
-0.3204073905944824,0.3938764035701751,0.0040738764218986,-0.4804453551769256,-0.7839800715446472,-0.3801867365837097,0.0,0.0,-0.6044542193412781,-0.9998922944068908
-0.3204612731933594,0.3828306198120117,0.0065600699745118,-0.4989843964576721,-0.8007625341415405,-0.3356497883796692,0.0,0.0,0.1891331672668457,-0.9999887347221376
-0.3201415538787842,0.371896743774414,0.0424044243991375,-0.4932203292846679,-0.8156589865684509,-0.2979290783405304,0.0,0.0,-0.5703132748603821,-0.9995350241661072
-0.3197654783725738,0.3605180084705353,0.0465615279972553,-0.5121400952339172,-0.8286409378051758,-0.259639173746109,0.0,0.0,-0.5812626481056213,-0.9978983998298644
-0.3193258643150329,0.3486777544021606,0.0517559759318828,-0.5319600105285645,-0.8400896191596985,-0.2289731800556183,0.0,0.0,-0.4858629703521728,-0.9994768500328064
-0.3188323378562927,0.3363790512084961,0.0558706447482109,-0.5515045523643494,-0.8497760891914368,-0.1937291920185089,0.0,0.0,-0.4858231544494629,-0.9708918333053588
-0.3182756900787353,0.3236118853092193,0.0611506104469299,-0.5716150999069214,-0.8580093383789062,-0.1646641939878463,0.0,0.0,-0.176615297794342,-0.9974928498268129
-0.317648321390152,0.310375452041626,0.0673084929585456,-0.5918325781822205,-0.8649295568466187,-0.1384046375751495,0.0,0.0,0.4722156524658203,-0.940363883972168
-0.3166036009788513,0.2968629002571106,0.1078240275382995,-0.6031939387321472,-0.8700449466705322,-0.1023083180189132,0.0,0.0,0.3269252777099609,-0.9685916304588318
-0.3150360584259033,0.2834942042827606,0.1589035540819168,-0.5958645343780518,-0.8733394145965576,-0.0658890604972839,0.0,0.0,0.4145562648773193,-0.9490219950675964
-0.3128848075866699,0.2702693939208984,0.2161080539226532,-0.5885513424873352,-0.8748466372489929,-0.0301445126533508,0.0,0.0,0.7547241449356079,-0.819560706615448
-0.3100256025791168,0.2570976912975311,0.2857959866523742,-0.5853139758110046,-0.8746605515480042,0.0037215934135019,0.0,0.0,0.9630365371704102,-0.943520188331604
-0.306725800037384,0.2436889261007309,0.3286111056804657,-0.5948503613471985,-0.872551679611206,0.0421773344278335,0.0,0.0,0.9879627227783204,-0.7643467783927917
-0.3029290735721588,0.2304804474115371,0.3775160908699035,-0.5853413939476013,-0.8692501783370972,0.0660305470228195,0.0,0.0,0.9947383403778076,-0.8742042779922485
-0.2981919348239898,0.2177006751298904,0.4703729748725891,-0.5653641819953918,-0.8641544580459595,0.1019146889448165,0.0,0.0,0.9947664737701416,-0.8545511364936829
-0.292883962392807,0.2051648199558258,0.5264551043510437,-0.5537804365158081,-0.8575767874717712,0.1315528601408004,0.0,0.0,0.997343897819519,-0.8814905881881714
-0.2868852615356445,0.193306103348732,0.594612717628479,-0.5230222344398499,-0.8496690392494202,0.158155158162117,0.0,0.0,0.992923378944397,-0.9734488725662231
-0.2801132202148437,0.181703582406044,0.6705628633499146,-0.5106813907623291,-0.8397889733314514,0.1975999772548675,0.0,0.0,0.9888186454772948,-0.9903435111045836
-0.2726516723632812,0.1706400662660598,0.7382480502128601,-0.4858893156051636,-0.8281614780426025,0.2325503826141357,0.0,0.0,0.975024938583374,-0.9948674440383912
-0.2645405828952789,0.1601607203483581,0.8019169569015503,-0.459156185388565,-0.8148326873779297,0.2665759027004242,0.0,0.0,0.9662790298461914,-0.986968457698822
-0.2559619545936584,0.1498739123344421,0.8473024368286133,-0.4498229324817657,-0.799745500087738,0.301744133234024,0.0,0.0,0.9307534694671632,-0.9981022477149964
-0.246924877166748,0.1400347054004669,0.8918153047561646,-0.4292594790458679,-0.7830252051353455,0.3344064056873321,0.0,0.0,0.8666131496429443,-0.9995908737182616
-0.2375469207763672,0.1305722296237945,0.9245389699935912,-0.4119070470333099,-0.764714777469635,0.3662085235118866,0.0,0.0,0.8206267356872559,-0.9993517994880676
-0.2274660170078277,0.1213837713003158,0.9931427240371704,-0.3989864587783813,-0.7444413900375366,0.4054679870605469,0.0,0.0,0.9113136529922484,-0.9935306310653688
-0.2169845104217529,0.1121267899870872,1.0315101146697998,-0.4014024138450622,-0.7222995758056641,0.4428361356258392,0.0,0.0,0.9372973442077636,-0.9988639950752258
-0.2057099789381027,0.1032414510846138,1.1088902950286863,-0.3842378556728363,-0.6981108784675598,0.4837740063667297,0.0,0.0,0.9732871055603028,-0.9963058233261108
-0.1938035935163498,0.0950015634298324,1.1703331470489502,-0.3551217913627624,-0.6721895337104797,0.5184274911880493,0.0,0.0,0.9904532432556152,-0.9961758852005004
-0.1810475289821624,0.0873450338840484,1.2532105445861816,-0.3287142515182495,-0.6442248821258545,0.5592933893203735,0.0,0.0,0.9978384971618652,-0.9973592758178712
-0.1677354872226715,0.0799800455570221,1.3067952394485474,-0.315444141626358,-0.6143760681152344,0.5969765782356262,0.0,0.0,0.9986076354980468,-0.9994372725486756
-0.1538056433200836,0.0733833909034729,1.3665939569473269,-0.2811391055583954,-0.5828038454055786,0.631445050239563,0.0,0.0,0.9989447593688964,-0.9961286783218384
-0.1392288208007812,0.0674600005149841,1.4291369915008545,-0.2511301636695862,-0.5493964552879333,0.6681482791900635,0.0,0.0,0.9995737075805664,-0.998022198677063
-0.1242222785949707,0.0616956800222396,1.4699046611785889,-0.2440801560878753,-0.5141472220420837,0.7049859762191772,0.0,0.0,0.9997611045837402,-0.9986847639083862
-0.1089416518807411,0.0565673671662807,1.4954400062561035,-0.2161045670509338,-0.4774828851222992,0.7332874536514282,0.0,0.0,0.999850869178772,-0.9997267723083496
-0.0934814438223838,0.0519192069768905,1.5114896297454834,-0.1951687783002853,-0.4394406080245971,0.7608453631401062,0.0,0.0,0.9998741149902344,-0.999828279018402
-0.0777122527360916,0.0477466210722923,1.5402929782867432,-0.1744924038648605,-0.3998092412948608,0.7926276922225952,0.0,0.0,0.999934196472168,-0.9999797940254213
-0.0616165176033973,0.0439731441438198,1.5707275867462158,-0.1573276668787002,-0.3585044145584106,0.8260971307754517,0.0,0.0,0.999953269958496,-0.9999818205833436
-0.0451643951237201,0.0402369350194931,1.6039516925811768,-0.156353011727333,-0.3153209388256073,0.8636699914932251,0.0,0.0,0.999969482421875,-0.9999867081642152
-0.0282901767641305,0.0371483191847801,1.643821358680725,-0.128435730934143,-0.2703284025192261,0.8998512029647827,0.0,0.0,0.9999854564666748,-0.9999974370002748
-0.0110822673887014,0.0349877439439296,1.675006866455078,-0.088252916932106,-0.2236957103013992,0.9326545596122742,0.0,0.0,0.9999876022338868,-0.9999986886978148
0.0063278200104832,0.0328578576445579,1.6930415630340576,-0.0881134122610092,-0.1753649413585662,0.9666165113449096,0.0,0.0,0.9999895095825196,-0.9999988675117492
