x_pos,y_pos,x_vel,y_vel,angle,ang_vel,leg_1,leg_2,main_booster,lat_booster
-0.0015278815990313,1.403196096420288,-0.1549989283084869,-0.3432901501655578,0.0019822400063276,0.0391177982091903,0.0,0.0,0.6099874483703089,-0.9473945480243318
-0.0030799866653978,1.395736575126648,-0.1593355387449264,-0.3315450251102447,0.0060743233188986,0.0818498730659484,0.0,0.0,-0.7389601964587358,0.9298540237837774
-0.0045497892424464,1.3878421783447266,-0.1490550190210342,-0.3508701026439667,0.0081199211999773,0.0409155823290348,0.0,0.0,0.9317737441797276,-0.6900044736895468
-0.0062372209504246,1.380391240119934,-0.1719891875982284,-0.3311813175678253,0.0113307414576411,0.0642226785421371,0.0,0.0,0.2439098259852532,0.9642759091811464
-0.0077511789277195,1.373254418373108,-0.1529669761657714,-0.3172078728675842,0.0128845842555165,0.0310793872922658,0.0,0.0,0.6454197981351266,-0.5271842057588902
-0.0091791152954101,1.3665015697479248,-0.1460245847702026,-0.3001502156257629,0.0160897728055715,0.0641095861792564,0.0,0.0,-0.2661258058099738,0.5865924377351939
-0.0105755804106593,1.3593215942382812,-0.141955018043518,-0.3191348314285278,0.0183627493679523,0.0454636476933956,0.0,0.0,-0.2362587678018259,0.9442551513379758
-0.0118941310793161,1.351718783378601,-0.1319776624441146,-0.3379076421260834,0.0184864085167646,0.0024735298939049,0.0,0.0,0.7039425645562809,0.890527977754506
-0.0131886480376124,1.3449931144714355,-0.1279439777135849,-0.2988980710506439,0.0170005448162555,-0.0297200493514537,0.0,0.0,-0.0276979618219039,0.6664371432512239
-0.014448451809585,1.3378444910049438,-0.1233139783143997,-0.3176897168159485,0.0143695902079343,-0.0526241548359394,0.0,0.0,0.2090676249816827,0.6035105595791407
-0.0156161310151219,1.330923080444336,-0.1132041811943054,-0.3075832426548004,0.0108391027897596,-0.0706162601709365,0.0,0.0,-0.9773167744774997,0.7462584294403244
-0.0167387966066598,1.323573112487793,-0.1071961298584938,-0.3266383111476898,0.0058183697983622,-0.1004235967993736,0.0,0.0,-0.079107608244906,-0.7793921130229396
-0.0179319381713867,1.3157986402511597,-0.1156228557229042,-0.3455240130424499,0.0021653410512953,-0.0730674415826797,0.0,0.0,0.4573328092262694,0.5921094435973231
-0.0190366748720407,1.308060646057129,-0.1058929190039634,-0.3439075648784637,-0.0023610161151736,-0.0905355960130691,0.0,0.0,0.9284645046054768,-0.6036247309639875
-0.0200362205505371,1.3013436794281006,-0.097232662141323,-0.2985410094261169,-0.0050526657141745,-0.05383787676692,0.0,0.0,0.0695776701904324,0.8095143499878775
-0.0209152214229106,1.2944762706756592,-0.0837354585528373,-0.3052388429641723,-0.0091769443824887,-0.0824927166104316,0.0,0.0,-0.4166684804207601,-0.7488339982001575
-0.0218683239072561,1.2871899604797363,-0.0924160107970237,-0.3238543570041656,-0.0120288971811532,-0.0570440404117107,0.0,0.0,-0.6759204808611983,-0.5905754191619315
-0.0228869430720806,1.2794710397720337,-0.0999977439641952,-0.3430814146995544,-0.0138710271567106,-0.0368461981415748,0.0,0.0,0.2448901415231332,-0.9586080462037362
-0.0239189155399799,1.2722398042678833,-0.1033939123153686,-0.3213901221752167,-0.013667931780219,0.0040621468797326,0.0,0.0,-0.5771844593238662,0.8237724989980815
-0.0249274261295795,1.264578342437744,-0.0997135117650032,-0.3405197262763977,-0.014787002466619,-0.0223836097866296,0.0,0.0,-0.1233584144043533,-0.7271920002740233
-0.0260153766721487,1.2564948797225952,-0.1089078783988952,-0.3592645525932312,-0.0146805373951792,0.0021296159829944,0.0,0.0,-0.8351134317951654,-0.6283622626895555
-0.0271878242492675,1.2479804754257202,-0.1186702698469162,-0.3784032464027405,-0.0132760601118206,0.0280923303216695,0.0,0.0,0.6706493336100767,-0.9064918836450904
-0.0283151622861623,1.2398608922958374,-0.1162614673376083,-0.3608458340167999,-0.0097845830023288,0.0698357373476028,0.0,0.0,-0.7101095064461256,0.7384988873075279
-0.0294157974421978,1.231303572654724,-0.1119916588068008,-0.3803119659423828,-0.0078804465010762,0.0380862243473529,0.0,0.0,0.6850632036835018,-0.8526798928443693
-0.0307792667299509,1.223307728767395,-0.1397515088319778,-0.3553572297096252,-0.0045103998854756,0.0674069374799728,0.0,0.0,-0.183507080966214,0.805589969180929
-0.0321353897452354,1.214866042137146,-0.1378222703933715,-0.3751844465732574,-0.0023252661339938,0.0437023714184761,0.0,0.0,0.7314796679732198,-0.8342082718440283
-0.0335933677852153,1.2071435451507568,-0.149717316031456,-0.3432236015796661,0.001544669852592,0.0773985385894775,0.0,0.0,-0.3810769297644107,-0.8250101389200755
-0.0351739898324012,1.1990013122558594,-0.1640157997608184,-0.3618926107883453,0.0074173300527036,0.1174533367156982,0.0,0.0,-0.0684250744247541,0.6229467091294367
-0.036760427057743,1.1904367208480835,-0.1635986864566803,-0.3806810677051544,0.0123141137883067,0.0979352667927742,0.0,0.0,0.3893161414747097,-0.6992327343758546
-0.0384720787405967,1.182055115699768,-0.177485778927803,-0.372578889131546,0.0185513626784086,0.1247448548674583,0.0,0.0,0.3864815686500134,0.7197632208030049
-0.0401689521968364,1.1743212938308716,-0.1745520979166031,-0.3437913358211517,0.0233565792441368,0.0961044505238533,0.0,0.0,-0.959577202796936,0.8899285793304443
-0.0418517105281353,1.16615629196167,-0.1715377271175384,-0.3629422783851623,0.0265818294137716,0.0645051971077919,0.0,0.0,-0.920876443386078,0.9860291481018066
-0.043515395373106,1.157575011253357,-0.1678713858127594,-0.3814200460910797,0.0280641689896583,0.0296467933803796,0.0,0.0,-0.96173095703125,0.9584736824035645
-0.0451601035892963,1.1485595703125,-0.1641826927661895,-0.4006858766078949,0.027782866731286,-0.0056262081488966,0.0,0.0,-0.8027448654174805,0.9426474571228028
-0.0467779152095317,1.1391206979751587,-0.1594760715961456,-0.4194585382938385,0.0255060270428657,-0.0455365628004074,0.0,0.0,-0.1990876793861389,0.6274058818817139
-0.0483950600028038,1.1292603015899658,-0.1580264866352081,-0.4381789267063141,0.0218640882521867,-0.0728385895490646,0.0,0.0,-0.830585777759552,0.9951103925704956
-0.04998779296875,1.118969440460205,-0.1535828113555908,-0.4573066830635071,0.0162417031824588,-0.1124475449323654,0.0,0.0,-0.6649957895278931,0.2657356262207031
-0.0516321174800396,1.108250379562378,-0.158642292022705,-0.4763473868370056,0.0105229401960968,-0.1143753901124,0.0,0.0,-0.990212619304657,0.5181629657745361
-0.053290270268917,1.0971099138259888,-0.1589382737874984,-0.4950986802577972,0.0037364894524216,-0.1357288956642151,0.0,0.0,-0.9412259459495544,0.3997688293457031
-0.0550008788704872,1.0855417251586914,-0.1640742421150207,-0.5141407251358032,-0.0031617386266589,-0.137964442372322,0.0,0.0,-0.8718938231468201,0.8319876194000244
-0.0567101463675498,1.0735528469085691,-0.1624407470226287,-0.5328854918479919,-0.0115398177877068,-0.1675615012645721,0.0,0.0,-0.7992285490036011,0.531801700592041
-0.0584218017756938,1.0611345767974854,-0.1612662971019745,-0.5520321130752563,-0.0213175434619188,-0.1955546289682388,0.0,0.0,-0.8167207837104797,0.0989207029342651
-0.0601869598031044,1.0482892990112305,-0.1664692759513855,-0.5710785388946533,-0.0312266647815704,-0.1981824487447738,0.0,0.0,-0.9563738703727722,-0.0426112413406372
-0.0620054230093956,1.0350167751312256,-0.1716814488172531,-0.5901252627372742,-0.0412728749215602,-0.2009243071079254,0.0,0.0,-0.967039942741394,0.3542428016662597
-0.063877485692501,1.021317481994629,-0.1768960058689117,-0.6091724038124084,-0.0514614954590797,-0.2037725150585174,0.0,0.0,-0.9917058944702148,-0.4977543354034424
-0.065803050994873,1.00719153881073,-0.1821060478687286,-0.6282198429107666,-0.0617974922060966,-0.2067198008298874,0.0,0.0,-0.8387020230293274,-0.5562298893928528
-0.0678217858076095,0.9926392436027528,-0.1922711282968521,-0.647198498249054,-0.0712911337614059,-0.1898729056119918,0.0,0.0,-0.981740951538086,-0.8609942197799683
-0.0699739456176757,0.9776773452758788,-0.2075261771678924,-0.665353536605835,-0.0789043977856636,-0.1522653102874755,0.0,0.0,-0.9787538051605223,-0.0755373835563659
-0.0721792206168174,0.9622883200645448,-0.2126794755458831,-0.6843976378440857,-0.0866780132055282,-0.1554722487926483,0.0,0.0,-0.973943531513214,-0.9369003176689148
-0.0745140090584755,0.9464789032936096,-0.2274087220430374,-0.7030060291290283,-0.0926842465996742,-0.1201248988509178,0.0,0.0,-0.8917883634567261,0.3176440000534057
-0.0769010558724403,0.9302417635917664,-0.2324871271848678,-0.7220485806465149,-0.0988581031560897,-0.1234772205352783,0.0,0.0,-0.9708723425865172,-0.4168614149093628
-0.079340174794197,0.9135770201683044,-0.2375167608261108,-0.7410913705825806,-0.1052028685808181,-0.1268951892852783,0.0,0.0,-0.7928605079650879,-0.4977396726608276
-0.081830695271492,0.8964846730232239,-0.2424897700548172,-0.7601345181465149,-0.1117216274142265,-0.1303749978542328,0.0,0.0,-0.9010784029960632,-0.122353971004486
-0.0843721404671669,0.878964900970459,-0.247398167848587,-0.7791779041290283,-0.1184172704815864,-0.133913055062294,0.0,0.0,-0.3200081586837768,0.2231296300888061
-0.0869636535644531,0.8610175848007202,-0.2522337436676025,-0.7982216477394104,-0.1252925843000412,-0.137506365776062,0.0,0.0,0.3860796689987182,-0.431174099445343
-0.0896345153450965,0.843246340751648,-0.2596278786659241,-0.7904813289642334,-0.1327210366725921,-0.1485693752765655,0.0,0.0,-0.5945348143577576,-0.4047380089759826
-0.092353917658329,0.8250477910041809,-0.2642929553985595,-0.8095260858535767,-0.1403342932462692,-0.1522650867700576,0.0,0.0,0.3619126081466675,-0.293889045715332
-0.0949302688241005,0.8072237372398376,-0.2503449022769928,-0.7928825616836548,-0.147608533501625,-0.1454849243164062,0.0,0.0,-0.6937848925590515,0.0711814165115356
-0.0975530594587326,0.7889724373817444,-0.2548048794269562,-0.8119274377822876,-0.1550722867250442,-0.149275004863739,0.0,0.0,0.6845250129699707,-0.5450804829597473
-0.100221537053585,0.7715151906013489,-0.2600604593753814,-0.7766019105911255,-0.1618557572364807,-0.1356692612171173,0.0,0.0,0.2398697137832641,-0.6002646088600159
-0.1028946861624717,0.7540379166603088,-0.2616248726844787,-0.777397871017456,-0.1675587892532348,-0.114060640335083,0.0,0.0,-0.3559853434562683,-0.1218827366828918
-0.1056107506155967,0.736133337020874,-0.2657094597816467,-0.7964414358139038,-0.173457846045494,-0.1179813146591186,0.0,0.0,0.5995516777038574,-0.7625885605812073
-0.1082112342119216,0.7185203433036804,-0.2557323575019836,-0.7833088040351868,-0.1777882426977157,-0.0866076871752739,0.0,0.0,0.8991367816925049,-0.5555912852287292
-0.1107416152954101,0.7015246748924255,-0.2497243136167526,-0.7557631134986877,-0.1811226904392242,-0.0666888207197189,0.0,0.0,-0.656181812286377,-0.0247379541397094
-0.1133104339241981,0.6841015219688416,-0.2533493638038635,-0.7748053073883057,-0.1846592873334884,-0.0707316547632217,0.0,0.0,0.7816503047943115,-0.1371904611587524
-0.1159298866987228,0.667227029800415,-0.2576054632663727,-0.7505226135253906,-0.1890175491571426,-0.0871654525399208,0.0,0.0,-0.1153992414474487,-0.3250820636749267
-0.1185840591788292,0.6499249935150146,-0.2608765363693237,-0.7695656418800354,-0.1935819387435913,-0.0912874490022659,0.0,0.0,0.8343331813812256,-0.0192750692367553
-0.1211191192269325,0.6326469779014587,-0.2491840422153473,-0.7684810757637024,-0.1979328393936157,-0.0870180204510688,0.0,0.0,0.986530303955078,-0.507734477519989
-0.1234879493713378,0.6164584755897522,-0.2334819734096527,-0.7199482321739197,-0.2013652622699737,-0.068648487329483,0.0,0.0,0.8427255153656006,-0.1894838213920593
-0.1258828192949295,0.600649893283844,-0.2353892773389816,-0.7031708359718323,-0.2054952830076217,-0.0826002806425094,0.0,0.0,0.6221134662628174,-0.7606985569000244
-0.1283241212368011,0.5854417085647583,-0.2411603480577469,-0.6763341426849365,-0.2084916234016418,-0.0599266216158866,0.0,0.0,-0.1053395271301269,-0.0835864543914794
-0.1307896673679351,0.569805920124054,-0.2433744370937347,-0.6953769326210022,-0.2117039710283279,-0.0642469003796577,0.0,0.0,0.9207072257995604,-0.2815659046173095
-0.1332171410322189,0.5552296042442322,-0.2386701852083206,-0.6484271883964539,-0.2158271372318267,-0.0824634581804275,0.0,0.0,0.1124247312545776,-0.4075705409049988
-0.1355324685573578,0.5407794713973999,-0.2274597585201263,-0.6428238749504089,-0.2199415266513824,-0.0822880715131759,0.0,0.0,0.4538942575454712,-0.3312867879867553
-0.1378184258937835,0.5264155864715576,-0.2241749465465545,-0.6390647888183594,-0.2244153320789337,-0.0894758254289627,0.0,0.0,0.8760044574737549,-0.5908873081207275
-0.1400023400783538,0.5121458768844604,-0.2151493728160858,-0.6347090005874634,-0.2277051359415054,-0.0657959952950477,0.0,0.0,0.8876607418060303,-0.3733959197998047
-0.142145350575447,0.498027503490448,-0.2106661349534988,-0.628047525882721,-0.2313882410526275,-0.073662132024765,0.0,0.0,0.7357616424560547,-0.7358172535896301
-0.1441706717014312,0.4847279787063598,-0.2001151293516159,-0.5914672613143921,-0.2338309735059738,-0.0488546639680862,0.0,0.0,0.8224754333496094,-0.8080183267593384
-0.1459595710039138,0.472310334444046,-0.178063154220581,-0.5520276427268982,-0.2346763759851455,-0.016908012330532,0.0,0.0,0.9234235286712646,0.5853056907653809
-0.1476195305585861,0.4608914852142334,-0.1633954495191574,-0.5079221129417419,-0.2373145818710327,-0.0527642667293548,0.0,0.0,0.6516299247741699,-0.4799706935882568
-0.1493269950151443,0.4495735168457031,-0.1673283874988556,-0.5035770535469055,-0.2407859563827514,-0.0694274604320526,0.0,0.0,0.7402868270874023,0.6266376972198486
-0.1507389992475509,0.4390124082565307,-0.1364195346832275,-0.4701694548130035,-0.2456427216529846,-0.0971352010965347,0.0,0.0,-0.1555483341217041,-0.7456813454627991
-0.1522109061479568,0.4280490279197693,-0.1439179331064224,-0.4878143072128296,-0.2489792704582214,-0.0667310878634452,0.0,0.0,0.823889970779419,0.3208760023117065
-0.1535471975803375,0.4177683591842651,-0.1298468112945556,-0.4575639069080353,-0.2528370916843414,-0.0771561488509178,0.0,0.0,0.6368646621704102,0.5281326770782471
-0.1546686142683029,0.4080583453178406,-0.1070360168814659,-0.4324432909488678,-0.258037269115448,-0.1040038615465164,0.0,0.0,0.7006101608276367,-0.2899012565612793
-0.1555337905883789,0.3987553715705871,-0.0816009640693664,-0.4143416583538055,-0.2630679309368133,-0.1006124839186668,0.0,0.0,0.8648768663406372,-0.6128546595573425
-0.1562989205121994,0.3895865678787231,-0.0726280063390731,-0.4082025587558746,-0.2670364081859588,-0.0793694630265235,0.0,0.0,0.7625280618667603,-0.8199483752250671
-0.1568860113620758,0.3805886507034302,-0.0563958659768104,-0.4003310799598694,-0.2693977952003479,-0.0472277365624904,0.0,0.0,0.961761474609375,-0.40426766872406
-0.157097727060318,0.3720740377902984,-0.0194101370871067,-0.3787563443183899,-0.2712030708789825,-0.0361053086817264,0.0,0.0,0.6073310375213623,-0.91914302110672
-0.1571011543273925,0.3636474609375,-0.0003390088968444,-0.3745135366916656,-0.2712103426456451,-0.0001451467251172,0.0,0.0,0.1878225803375244,-0.2021280527114868
-0.1569307297468185,0.3555757403373718,0.0173169579356908,-0.3587959110736847,-0.2714925408363342,-0.0056436951272189,0.0,0.0,-0.7042807340621948,-0.8539264798164368
-0.156784251332283,0.3471084833145141,0.0135724795982241,-0.3761237859725952,-0.2703852951526642,0.0221449565142393,0.0,0.0,-0.4897773265838623,-0.609881579875946
-0.1566343307495117,0.3382312953472137,0.0132061913609504,-0.3942141532897949,-0.2685558199882507,0.0365895479917526,0.0,0.0,-0.5894203186035156,-0.6117753982543945
-0.1564812660217285,0.3289364576339721,0.0127670792862772,-0.4126394093036651,-0.265962541103363,0.0518653579056263,0.0,0.0,-0.3715956807136535,-0.574145495891571
-0.1563298255205154,0.3192322254180908,0.0116314487531781,-0.4306678473949432,-0.2623705267906189,0.0718401819467544,0.0,0.0,0.6301437616348267,-0.0439819693565368
-0.1558274328708648,0.3103014826774597,0.0465966202318668,-0.3962786793708801,-0.2586578130722046,0.0742540508508682,0.0,0.0,-0.8504189848899841,-0.4665486812591553
-0.1552725732326507,0.300943374633789,0.0521048083901405,-0.4153237342834472,-0.2552123963832855,0.068909004330635,0.0,0.0,-0.4245361685752868,-0.6576728820800781
-0.1547217369079589,0.2911875545978546,0.0503929927945137,-0.4327834546566009,-0.2504259049892425,0.095729574561119,0.0,0.0,0.0872091054916381,-0.8352349996566772
-0.153996855020523,0.2816757261753082,0.066372200846672,-0.4217171370983124,-0.2441974580287933,0.1245693117380142,0.0,0.0,-0.0905619859695434,-0.4188000559806824
-0.1532104462385177,0.2717368900775909,0.0727792307734489,-0.4407639801502228,-0.2382409274578094,0.1191303133964538,0.0,0.0,-0.0858741402626037,-0.4078841209411621
-0.1523597687482834,0.2613710463047027,0.0794709473848342,-0.4598104357719421,-0.2325577437877655,0.1136636883020401,0.0,0.0,0.3359107971191406,-0.5656608939170837
-0.1514143943786621,0.2511870861053467,0.088132843375206,-0.4516235291957855,-0.2260560244321823,0.1300341337919235,0.0,0.0,0.3931241035461426,-0.6834052801132202
-0.1504439413547516,0.2413728535175323,0.0897113606333732,-0.4350813627243042,-0.2186408936977386,0.1483027637004852,0.0,0.0,0.1429692506790161,-0.6181245446205139
-0.1494839638471603,0.2317148298025131,0.0878676995635032,-0.4280644059181213,-0.210429847240448,0.1642209738492965,0.0,0.0,0.5160443782806396,-0.3092913031578064
-0.1482164412736892,0.2225668579339981,0.1184460073709487,-0.4054117202758789,-0.2020470201969146,0.1676565557718277,0.0,0.0,-0.6974868774414062,0.0014742612838745
-0.1468716561794281,0.2129922211170196,0.126427561044693,-0.4244603812694549,-0.1939427703619003,0.1620848923921585,0.0,0.0,0.0658802986145019,-0.6383408308029175
-0.1452976167201995,0.2037041932344436,0.1482205539941787,-0.4116217494010925,-0.1847084909677505,0.1846852749586105,0.0,0.0,-0.6248197555541992,-0.0615394711494445
-0.1436419486999511,0.1939896643161773,0.1566525548696518,-0.4306713044643402,-0.1757539957761764,0.1790898144245147,0.0,0.0,0.1553997993469238,-0.4583454132080078
-0.1416997015476226,0.1847049295902252,0.1851111501455307,-0.4116038084030151,-0.1666180938482284,0.1827179938554763,0.0,0.0,-0.7099708914756775,-0.829862654209137
-0.1397279798984527,0.1750079989433288,0.1868590265512466,-0.4298537969589233,-0.156310886144638,0.2061440646648407,0.0,0.0,0.2248235940933227,-0.1757310628890991
-0.1375796347856521,0.1657827049493789,0.2048171311616897,-0.4089903533458709,-0.1463088393211364,0.2000411748886108,0.0,0.0,-0.4855580329895019,-0.6606183052062988
-0.1353876143693924,0.1561471372842788,0.2082563191652298,-0.427211195230484,-0.1353960484266281,0.2182559520006179,0.0,0.0,0.3136175870895386,-0.5987976789474487
-0.1330325156450271,0.1466195732355117,0.2234912663698196,-0.4223997890949249,-0.1234319359064102,0.2392825186252594,0.0,0.0,0.3834420442581177,-0.8224937319755554
-0.1306998282670974,0.1374716609716415,0.2199965715408325,-0.4055289328098297,-0.110244795680046,0.2637427449226379,0.0,0.0,0.1430228948593139,-0.637717604637146
-0.1283826828002929,0.1284523606300354,0.217568039894104,-0.3998757302761078,-0.0962045043706893,0.2808058559894562,0.0,0.0,0.5624284744262695,-0.7778557538986206
-0.1260020285844802,0.1198154985904693,0.2226535081863403,-0.3829392194747925,-0.0809303894639015,0.3054821789264679,0.0,0.0,0.3634909391403198,-0.8426381349563599
-0.1235305815935134,0.1114157512784004,0.2302622348070144,-0.3724924921989441,-0.0642281845211982,0.3340441286563873,0.0,0.0,0.7225251197814941,-0.7557291984558105
-0.1208475083112716,0.1031377390027046,0.2498597204685211,-0.3672224879264831,-0.0459949076175689,0.3646658062934875,0.0,0.0,0.8153347969055176,-0.8246232271194458
-0.1179775223135948,0.0955621823668479,0.2669262588024139,-0.3361941576004028,-0.0261642020195722,0.3966138958930969,0.0,0.0,0.826769232749939,-0.4348424673080444
-0.1149553284049034,0.0888999328017234,0.2822769284248352,-0.2958723604679107,-0.0064771766774356,0.3937406241893768,0.0,0.0,0.742375373840332,-0.7954028248786926
