x_pos,y_pos,x_vel,y_vel,angle,ang_vel,leg_1,leg_2,main_booster,lat_booster
-0.0014888762962073,1.4031180143356323,-0.150700643658638,-0.3467631340026855,0.0016179935773834,0.0319056920707225,0.0,0.0,-0.3575838453227724,-0.1487815426487395
-0.0029428482521325,1.3948324918746948,-0.1468609273433685,-0.3682481348514557,0.0030595050193369,0.0288336426019668,0.0,0.0,-0.906944483492923,0.7962088428710362
-0.0042852400802075,1.386034607887268,-0.1336101591587066,-0.3910219967365265,0.0024384350981563,-0.012422407977283,0.0,0.0,-0.169886930647596,-0.3600549036865396
-0.0055922507308423,1.376729965209961,-0.1299249082803726,-0.4135381281375885,0.0016754338284954,-0.0152614545077085,0.0,0.0,-0.2171514906949769,0.2737058596049011
-0.0068637849763035,1.3669188022613523,-0.1262255609035492,-0.4360513687133789,0.0007656491943635,-0.0181974470615386,0.0,0.0,0.3169802162895037,0.5701996347101056
-0.0079355239868164,1.3572498559951782,-0.1052259355783462,-0.4297298789024353,-0.0011557524558156,-0.0384319201111793,0.0,0.0,0.0068637819017256,0.6814596865667236
-0.0089331623166799,1.347602128982544,-0.0962913557887077,-0.4287899434566498,-0.0045937015675008,-0.0687655583024025,0.0,0.0,0.0181926883486991,-0.8229089910251883
-0.0098498342558741,1.338048219680786,-0.0897156149148941,-0.4246257841587066,-0.0065213250927627,-0.0385556891560554,0.0,0.0,-0.8222932585858569,-0.6348146471761811
-0.010781574063003,1.3279951810836792,-0.0923662856221199,-0.4468071162700653,-0.007325408514589,-0.0160831324756145,0.0,0.0,-0.9721269257843884,0.7448293837097932
-0.0116189001128077,1.3174395561218262,-0.0812670886516571,-0.4691473543643951,-0.0097635565325617,-0.0487672463059425,0.0,0.0,-0.7618248388692601,0.8220853940589445
-0.0123462677001953,1.3063771724700928,-0.0682239606976509,-0.4916951954364776,-0.0142248850315809,-0.0892350599169731,0.0,0.0,-0.0051628331947028,-0.3114435522159845
-0.0130375865846872,1.2948087453842163,-0.0644599124789238,-0.5142095685005188,-0.0188497938215732,-0.0925066918134689,0.0,0.0,-0.8846233675205677,-0.4885419275101657
-0.0136929508298635,1.282733917236328,-0.0606947652995586,-0.5367242097854614,-0.0236410442739725,-0.0958333238959312,0.0,0.0,-0.9206158448688,0.4853233409295446
-0.0143124582245945,1.2701530456542969,-0.0569299645721912,-0.5592391490936279,-0.0285998322069644,-0.0991849154233932,0.0,0.0,0.5569571163998879,0.9240745213905732
-0.0146507266908884,1.2582309246063232,-0.026987612247467,-0.5300140976905823,-0.0353626459836959,-0.1352687031030655,0.0,0.0,-0.4233705556434595,-0.928850750780086
-0.0150132179260253,1.2457950115203855,-0.030768534168601,-0.5528483986854553,-0.0407884791493415,-0.1085263043642044,0.0,0.0,-0.6407870253747312,-0.722039701234565
-0.0153835294768214,1.2328641414642334,-0.0325033590197563,-0.5748364329338074,-0.045279998332262,-0.0898385271430015,0.0,0.0,-0.15119781247801,-0.1877733930939226
-0.0157182700932025,1.2194271087646484,-0.0287601444870233,-0.5973520874977112,-0.0499448850750923,-0.0933058783411979,0.0,0.0,-0.9051398544019752,0.0386652220646203
-0.0160174369812011,1.2054839134216309,-0.0250261332839727,-0.6198678612709045,-0.054783783853054,-0.0967867895960807,0.0,0.0,0.973065182188684,-0.8281920157039664
-0.0164142604917287,1.192060470581055,-0.0360595844686031,-0.5967327952384949,-0.0583819858729839,-0.071970447897911,0.0,0.0,-0.7701033561557367,-0.2244347762586542
-0.0167759899049997,1.1781306266784668,-0.0323549881577491,-0.6192560195922852,-0.0621569342911243,-0.0755056515336036,0.0,0.0,-0.014026877863376,0.1607876680108882
-0.0171025283634662,1.1636946201324463,-0.028664480894804,-0.6417691707611084,-0.0661089345812797,-0.0790473148226738,0.0,0.0,0.5807485514980224,0.0382203523374851
-0.0172356609255075,1.1495198011398315,-0.0097385877743363,-0.6301524043083191,-0.0696614012122154,-0.071055382490158,0.0,0.0,-0.1525050083923691,-0.0088576045838972
-0.0173340793699026,1.1348388195037842,-0.0060882098041474,-0.6526743769645691,-0.0733930915594101,-0.0746401399374008,0.0,0.0,-0.9620642809405526,0.5906070317503758
-0.0173624046146869,1.1196491718292236,0.0020174956880509,-0.6753336787223816,-0.0782020613551139,-0.0961877107620239,0.0,0.0,-0.3445342035684651,0.8499863432532847
-0.0173066146671772,1.1039308309555054,0.0119148902595043,-0.6989348530769348,-0.0844729244709014,-0.1254173219203949,0.0,0.0,-0.3756783165234076,-0.9477389781705248
-0.0172907821834087,1.0877221822738647,0.0061960620805621,-0.720662534236908,-0.0890465378761291,-0.0914719104766845,0.0,0.0,-0.295606722406555,0.5818777988301819
-0.0172051433473825,1.0710084438323977,0.0142735792323946,-0.7431774139404297,-0.0947069525718689,-0.1132082939147949,0.0,0.0,-0.2815876813645277,0.4254152796692514
-0.0170862190425395,1.0537890195846558,0.0177755579352378,,-0.1005483046174049,-0.1168268173933029,0.0,0.0,-0.0579031090828527,-0.4670416133838828
-0.0169344898313283,1.03606379032135,0.021241245791316,-0.7882079482078552,-0.106570616364479,-0.120446428656578,0.0,0.0,0.2930794898331794,-0.562778320472241
-0.0167076103389263,1.0188319683074951,0.0277666840702295,-0.7662331461906433,-0.1116162165999412,-0.100911721587181,0.0,0.0,-0.987269937992096,-0.9995490908622742
-0.016537856310606,1.001103162765503,0.0199693888425827,-0.7881734371185303,-0.114593356847763,-0.0595427155494689,0.0,0.0,-0.9046330451965332,-0.9981771111488342
-0.0164250377565622,0.9828928709030152,0.0121814981102943,-0.8094138503074646,-0.115482710301876,-0.0177871845662593,0.0,0.0,-0.6348355412483215,-0.8864368200302124
-0.016358757391572,0.9641817808151244,0.0057392385788261,-0.8315345644950867,-0.1146000176668167,0.0176539532840251,0.0,0.0,-0.4170634150505066,-0.8879008889198303
-0.0163296703249216,0.9449781775474548,0.0004660917911678,-0.8533117175102234,-0.1121732741594314,0.0485347136855125,0.0,0.0,-0.3114543557167053,-0.8909795880317688
-0.0163380615413188,0.925286591053009,-0.0048327515833079,-0.8748897314071655,-0.1082002893090248,0.0794598162174224,0.0,0.0,-0.7042015194892883,0.1032037734985351
-0.0163169857114553,0.9050889015197754,-0.0017164364689961,-0.8974037170410156,-0.1044072955846786,0.0758595317602157,0.0,0.0,-0.5099597573280334,0.4936487674713135
-0.016267204657197,0.8843851089477539,0.0013341008452698,-0.9199175238609314,-0.1007940098643302,0.0722659155726432,0.0,0.0,-0.2091864943504333,-0.0252573490142822
-0.0161894802004098,0.8631752133369446,0.0043143001385033,-0.9424312710762024,-0.0973600074648857,0.0686800330877304,0.0,0.0,0.7293274402618408,0.111584186553955
-0.0159931182861328,0.8424047827720642,0.0162125192582607,-0.9229103326797484,-0.0939680188894271,0.0678396448493003,0.0,0.0,0.2789481878280639,0.4353151321411133
-0.0157960895448923,0.8220401406288147,0.0168514270335435,-0.9049252271652222,-0.0911367684602737,0.0566250495612621,0.0,0.0,0.2062971591949463,0.4751554727554321
-0.0154488561674952,0.8017277121543884,0.0316248387098312,-0.9025833010673524,-0.088066466152668,0.0614058971405029,0.0,0.0,-0.0203822255134582,0.7094171047210693
-0.0150124551728367,0.7808929085731506,0.0423777624964714,-0.9259234070777892,-0.0868175327777862,0.0249787382781505,0.0,0.0,-0.090772807598114,-0.5458967089653015
-0.0145882610231637,0.7595552802085876,0.0404146239161491,-0.9482237100601196,-0.0848371684551239,0.0396076068282127,0.0,0.0,0.5405149459838867,-0.6985426545143127
-0.0142151834443211,0.7381259202957153,0.0341697819530963,-0.952240228652954,-0.0817248299717903,0.0622468292713165,0.0,0.0,0.7861192226409912,-0.6150901913642883
-0.0137865068390965,0.7167237401008606,0.038524754345417,-0.950978696346283,-0.0774278491735458,0.0859396606683731,0.0,0.0,0.7518811225891113,-0.2709744572639465
-0.0132361408323049,0.6955167055130005,0.0505684129893779,-0.9423138499259948,-0.0730058327317237,0.0884399861097335,0.0,0.0,0.8136088848114014,-0.6031093001365662
-0.0127788539975881,0.6751989722251892,0.0405727066099643,-0.902767777442932,-0.0679010674357414,0.1020951643586158,0.0,0.0,0.0748429298400878,0.3924393653869629
-0.0123547557741403,0.6551512479782104,0.0378291010856628,-0.8908053636550903,-0.0633679330348968,0.0906628891825676,0.0,0.0,0.0026348829269409,0.2781381607055664
-0.0119071006774902,0.6350608468055725,0.0404149331152439,-0.8927304148674011,-0.0590655133128166,0.0860485136508941,0.0,0.0,0.8312299251556396,0.0127017498016357
-0.0112479208037257,0.6153980493545532,0.0609949417412281,-0.8737171292304993,-0.0541978329420089,0.097353845834732,0.0,0.0,0.3129333257675171,-0.1900166273117065
-0.0105887409299612,0.5961097478866577,0.0613826029002666,-0.8571012020111084,-0.0497108474373817,0.0897394865751266,0.0,0.0,0.4733890295028686,-0.5103462934494019
-0.0098329540342092,0.5769016742706299,0.0699023455381393,-0.8535124063491821,-0.044110108166933,0.1120147854089737,0.0,0.0,0.6879410743713379,-0.6408983469009399
-0.0090772630646824,0.5584180951118469,0.0687662810087204,-0.8213083148002625,-0.0373916067183017,0.1343700885772705,0.0,0.0,0.1932339668273925,0.5164713859558105
-0.0081406589597463,0.539945662021637,0.08782359957695,-0.8208653330802917,-0.0316223837435245,0.1153844594955444,0.0,0.0,0.231943130493164,-0.4719043970108032
-0.0072563169524073,0.5214972496032715,0.0830827206373214,-0.8198242783546448,-0.026346530765295,0.1055171489715576,0.0,0.0,0.5576883554458618,-0.6474595069885254
-0.0063007352873682,0.5036738514900208,0.0888614729046821,-0.7920486330986023,-0.0197356976568698,0.1322168111801147,0.0,0.0,0.2472736835479736,0.068076491355896
-0.0052267075516283,0.4861051142215729,0.1003841981291771,-0.7807563543319702,-0.0128036253154277,0.1386413425207138,0.0,0.0,0.4095944166183471,0.0505183935165405
-0.0040774345397949,0.4690829515457153,0.1077698022127151,-0.7564963698387146,-0.0057357759214937,0.1413568407297134,0.0,0.0,-0.2292441129684448,-0.1841813921928405
-0.0029274940025061,0.4515549838542938,0.1079949960112571,-0.7790117263793945,0.0011745935771614,0.1382074654102325,0.0,0.0,0.7116565704345703,-0.3373453021049499
-0.0017261505126953,0.4340967237949371,0.1130461916327476,-0.775945782661438,0.008174555376172,0.1399993598461151,0.0,0.0,0.7145733833312988,-0.1800704002380371
-0.0006378173711709,0.4172230660915375,0.1023873537778854,-0.7499873638153076,0.0145391561090946,0.1272920221090316,0.0,0.0,0.829967737197876,-0.3362252712249756
0.0005741119384765,0.4007056653499603,0.1142583042383194,-0.7341898083686829,0.0213844403624534,0.1369057446718216,0.0,0.0,0.7792010307312012,-0.4753579497337341
0.0017906188732013,0.3846730589866638,0.1147420182824134,-0.7126741409301758,0.0281968507915735,0.136248379945755,0.0,0.0,0.6189693212509155,-0.4761276245117187
0.0029949187301099,0.3687237799167633,0.1136518567800521,-0.708998441696167,0.0348964445292949,0.1339917480945587,0.0,0.0,0.83298659324646,-0.399224579334259
0.0040286062285304,0.3532442152500152,0.0973812788724899,-0.6881293058395386,0.0408143922686576,0.1183588728308677,0.0,0.0,0.8176028728485107,0.1287589073181152
0.0050352094694972,0.3386711776256561,0.0947037041187286,-0.647865891456604,0.046697299927473,0.1176581159234047,0.0,0.0,0.4993622303009033,0.3408923149108886
0.0060895918868482,0.3239948451519012,0.0992864668369293,-0.6524839997291565,0.0527826435863971,0.1217069178819656,0.0,0.0,0.7911614179611206,0.4803696870803833
0.0071084974333643,0.3102011382579803,0.095743641257286,-0.6132838726043701,0.0588635131716728,0.1216170787811279,0.0,0.0,0.7221192121505737,0.4839285612106323
0.0079828258603811,0.2966314554214477,0.0818799287080764,-0.6033270955085754,0.0643527656793594,0.1097853332757949,0.0,0.0,0.5549972057342529,0.502655029296875
0.0087441448122262,0.2835064232349396,0.0719741582870483,-0.5835192203521729,0.0684581026434898,0.0821065455675125,0.0,0.0,0.5701978206634521,0.2498809099197387
0.009473037905991,0.2707631587982178,0.0687415227293968,-0.5665637254714966,0.0725654363632202,0.0821467265486717,0.0,0.0,0.8384524583816528,0.6860110759735107
0.010010433383286,0.2589160203933716,0.0514773316681385,-0.5266497731208801,0.0748029053211212,0.0447494536638259,0.0,0.0,0.3440110683441162,0.7368149757385254
0.0106133464723825,0.247278943657875,0.0595490224659442,-0.5172367691993713,0.075542040169239,0.0147824939340353,0.0,0.0,0.4769847393035888,0.201554536819458
0.0111342426389455,0.2356548905372619,0.0516095086932182,-0.5166493654251099,0.076015830039978,0.0094758234918117,0.0,0.0,0.6984158754348755,0.2063255310058593
0.0116724967956542,0.2240319848060608,0.053135722875595,-0.516608476638794,0.0766896829009056,0.0134773310273885,0.0,0.0,0.8671550750732422,-0.3300790786743164
0.0121172908693552,0.2124720215797424,0.0440858006477355,-0.5137941241264343,0.0770777389407157,0.0077614127658307,0.0,0.0,0.9563254117965698,-0.0194976925849914
0.0124501232057809,0.2018090635538101,0.0330660082399845,-0.4739229083061218,0.0773021504282951,0.0044881450012326,0.0,0.0,0.8657448291778564,0.6979856491088867
0.0128332134336233,0.1920418888330459,0.0393645651638507,-0.4340433478355407,0.0762527734041214,-0.020987682044506,0.0,0.0,0.916740894317627,-0.6523460745811462
0.01292085647583,0.1831709295511245,0.0089853070676326,-0.3942514061927795,0.0760286599397659,-0.0044821766205132,0.0,0.0,0.8554332256317139,0.2968735694885254
0.0128021240234375,0.1743332296609878,-0.0108503894880414,-0.3927357494831085,0.0750236213207244,-0.0201010443270206,0.0,0.0,0.4435701370239258,0.6778212785720825
0.0126894954591989,0.1660385429859161,-0.0088492967188358,-0.3685336709022522,0.0726341158151626,-0.0477898679673671,0.0,0.0,0.6759419441223145,0.6937229633331299
0.0124424938112497,0.1581044942140579,-0.0205447059124708,-0.3524263203144073,0.0685180574655532,-0.0823209807276725,0.0,0.0,0.4422059059143066,0.3337870836257934
0.0120712276548147,0.1505447477102279,-0.0326404199004173,-0.3357928097248077,0.0640821829438209,-0.0887174606323242,0.0,0.0,0.1068414449691772,0.4625444412231445
0.0116250989958643,0.1431791186332702,-0.0399836972355842,-0.3271701037883758,0.0595145486295223,-0.0913530141115188,0.0,0.0,-0.1290901899337768,0.6584599018096924
0.0112010957673192,0.1353127360343933,-0.0361753925681114,-0.3493803441524505,0.0533556938171386,-0.1231772080063819,0.0,0.0,0.5261557102203369,-0.2907143831253052
0.0107438089326024,0.1274156719446182,-0.0395151562988758,-0.3507698178291321,0.047211468219757,-0.1228843182325363,0.0,0.0,0.1799033880233764,0.3163843154907226
0.0103001594543457,0.119448147714138,-0.0383723005652427,-0.3539358973503113,0.0412913970649242,-0.1184015646576881,0.0,0.0,0.6445367336273193,-0.021058440208435
0.0099398614838719,0.1118354648351669,-0.0306438896805048,-0.3382030129432678,0.035970963537693,-0.10640849173069,0.0,0.0,-0.0606281757354736,-0.1666179895401001
0.0095395091921091,0.1037166714668273,-0.0345787182450294,-0.360716164112091,0.0305774789303541,-0.1078696995973587,0.0,0.0,0.3309476375579834,-0.0828324556350708
0.0090753557160496,0.0959988459944725,-0.0408533290028572,-0.3429096341133117,0.025094760581851,-0.1096544861793518,0.0,0.0,0.5781034231185913,-0.3376699686050415
0.0085816383361816,0.0888625979423523,-0.0438964888453483,-0.3170870840549469,0.0196857713162899,-0.1081797331571579,0.0,0.0,0.4951121807098388,-0.1229097843170166
0.0081472396850585,0.0821288228034973,-0.0384348146617412,-0.2992226481437683,0.0147405387833714,-0.098904825747013,0.0,0.0,0.2373272180557251,-0.6696347594261169
0.0076987268403172,0.0752490609884262,-0.041261039674282,-0.30573570728302,0.0112016554921865,-0.0707776620984077,0.0,0.0,0.4901447296142578,-0.1896858215332031
0.0071555138565599,0.0685510486364364,-0.0504700057208538,-0.2976628839969635,0.0073972614482045,-0.0760879218578338,0.0,0.0,0.3428237438201904,-0.5169157981872559
0.0065980912186205,0.0624051429331302,-0.0530612953007221,-0.2731409072875976,0.0047540068626403,-0.052865095436573,0.0,0.0,0.4817285537719726,0.1409816741943359
0.0059744836762547,0.0565183013677597,-0.0595486350357532,-0.2616303563117981,0.001979864668101,-0.0554829314351081,0.0,0.0,0.5458078384399414,0.4220528602600097
0.0051898956298828,0.0512412153184413,-0.0750771835446357,-0.2345360368490219,-0.0013607582077383,-0.0668120235204696,0.0,0.0,0.5507439374923706,0.8412283658981323
0.0045207976363599,0.0464443527162075,-0.0619544982910156,-0.2132071107625961,-0.0062595102936029,-0.0979748517274856,0.0,0.0,-0.2325654029846191,0.3445179462432861
0.0038080215454101,0.0411413051187992,-0.0662994459271431,-0.2357201427221298,-0.011173065751791,-0.0982712656259536,0.0,0.0,0.593203067779541,-0.5488110184669495
0.0029304504860192,0.0364211909472942,-0.0836594253778457,-0.2098193764686584,-0.0152224283665418,-0.0809870958328247,0.0,0.0,0.5773627758026123,0.7121033668518066
0.0020463943947106,0.0319049209356308,-0.0828166455030441,-0.200790986418724,-0.020740820094943,-0.1103679165244102,0.0,0.0,0.4492372274398803,0.1718512773513794
0.0010268210899084,0.0276769027113914,-0.0958900898694992,-0.188007652759552,-0.0267271418124437,-0.1197266429662704,0.0,0.0,0.1619871854782104,0.2186934947967529
-0.0001328468351857,0.023499522358179,-0.109426237642765,-0.185792863368988,-0.0331907719373703,-0.1292724907398224,0.0,0.0,0.5335483551025391,0.9056649208068848
-0.0011322021018713,0.0198126658797264,-0.0917197614908218,-0.1640662252902984,-0.0412982143461704,-0.1621490120887756,0.0,0.0,0.1290862560272216,0.2635178565979004
-0.0021236420143395,0.0159953460097312,-0.0911593288183212,-0.169896200299263,-0.0491857603192329,-0.1577511131763458,0.0,0.0,0.00640070438385,0.5339338779449463
-0.0029958724044263,0.0123625611886382,-0.0783667415380477,-0.1617749780416488,-0.0579495131969451,-0.1752751767635345,0.0,0.0,-0.0495924949645996,0.5762515068054199
-0.003868866013363,0.0082253077998757,-0.0773577690124511,-0.1842920631170272,-0.0677762329578399,-0.196534588932991,0.0,0.0,0.7203047275543213,0.2373778820037841
-0.0045780180953443,0.0048992251977324,-0.0617188699543476,-0.1482692062854766,-0.0768696591258049,-0.1818687617778778,1.0,0.0,0.6147005558013916,0.5173498392105103
-0.0050828931853175,0.0023260570596903,-0.05030008405447,-0.1146988645195961,-0.0758640393614769,0.0216805152595043,1.0,0.0,0.5658811330795288,0.5902411937713623
-0.0053894994780421,0.0008749818662181,-0.0440449938178062,-0.0638787001371383,-0.0625743120908737,0.2658543586730957,1.0,0.0,-0.4629064798355102,0.4333071708679199
-0.005632019136101,-0.0006980443140491,-0.048365619033575,-0.0690864771604538,-0.0386858955025672,0.4778191149234772,1.0,0.0,0.0997211933135986,0.4546729326248169
-0.0057750702835619,-0.0021217607427388,-0.0441869348287582,-0.0627777948975563,-0.0091402223333716,0.5909634232521057,1.0,0.0,0.1232733726501464,0.9214475154876708
-0.0060113905929028,-0.0025997662451118,-0.0359023138880729,-0.0212212484329938,0.0029850983992218,0.2425209730863571,1.0,1.0,-0.5778161287307739,0.9992165565490724
-0.0062146186828613,-0.002718033734709,-0.0198244899511337,-0.0052584153600037,0.002514895517379,-0.009377603419125,1.0,1.0,-0.9159055948257446,0.6333491802215576
-0.0063239098526537,-0.002399279968813,-0.0052861939184367,0.0141688156872987,-0.0030239173211157,-0.1107340902090072,1.0,1.0,-0.2472999095916748,-0.2057030200958252
-0.0064286231063306,-0.0016921781934797,-0.0052185747772455,0.031405996531248,-0.0081876190379261,-0.1032494306564331,1.0,1.0,-0.3992527723312378,-0.3164726495742798
-0.0064039230346679,-0.0009708071011118,-0.0030456234235316,0.0320806391537189,-0.00274348561652,0.1088904738426208,1.0,1.0,-0.0982549786567688,0.8390600681304932
-0.0063255308195948,-0.0007431054254993,0.0060534109361469,0.0101215662434697,-0.0009772205958142,0.0353255048394203,1.0,1.0,-0.6556326746940613,0.0185375213623046
-0.0062889098189771,-0.0007448935648426,0.0036649834364652,-7.832714618416503e-05,-0.0009781813714653,-1.879166848084424e-05,1.0,1.0,-0.6944180727005005,-0.1265749335289001
-0.0062830923125147,-0.0007465386297553,0.000593701377511,-7.329470827244222e-05,-0.0009866295149549,-0.0001641526905586,1.0,1.0,-0.6947312951087952,0.0200653076171875
