x_pos,y_pos,x_vel,y_vel,angle,ang_vel,leg_1,leg_2,main_booster,lat_booster
-0.0015530586242675,1.402941346168518,-0.1567559093236923,-0.3546142280101776,0.0012971429387107,0.0255526956170797,0.0,0.0,0.5153105517355097,-0.9966916957963252
-0.003159713698551,1.3949323892593384,-0.1634996682405471,-0.355964332818985,0.0041012964211404,0.0560890547931194,0.0,0.0,0.8522619043093034,-0.9597981303978764
-0.0047056199982762,1.3869125843048096,-0.1591479629278183,-0.3564526736736297,0.0086161671206355,0.0903055369853973,0.0,0.0,-0.2512587512943287,-0.8289516339186827
-0.0063570975326001,1.3782061338424685,-0.1712098121643066,-0.3870003521442413,0.0146120255813002,0.119928203523159,0.0,0.0,-0.1782986537418283,-0.7009514799609535
-0.0080788610503077,1.368818283081055,-0.178858071565628,-0.4173184633255005,0.0212209280580282,0.1321901381015777,0.0,0.0,-0.9242875274250836,-0.9600405998699518
-0.0098850252106785,1.3587443828582764,-0.1883126348257064,-0.4478495419025421,0.0288257673382759,0.1521105468273162,0.0,0.0,-0.6399000494698988,0.7965059150355251
-0.011656379327178,1.3479905128479004,-0.1828105747699737,-0.4780710339546203,0.0344448760151863,0.1123927608132362,0.0,0.0,0.3775889809245618,0.7712538181204981
-0.0132704731076955,1.337374925613403,-0.1653047502040863,-0.4719037711620331,0.0382916331291198,0.0769423022866249,0.0,0.0,0.3558770544941789,0.8640435897990639
-0.0148779870942235,1.327117681503296,-0.1624394953250885,-0.4559170603752136,0.0399580299854278,0.0333309471607208,0.0,0.0,0.9027669706307944,-0.6259386521081642
-0.0165920257568359,1.3174316883087158,-0.173880249261856,-0.4305511713027954,0.0424154326319694,0.0491527393460273,0.0,0.0,0.3228602669975278,-0.643041155046406
-0.018322467803955,1.307777762413025,-0.1765134632587433,-0.4291641414165497,0.0458525158464908,0.0687478333711624,0.0,0.0,-0.4027281093060837,-0.6288334322007252
-0.0201174728572368,1.297436237335205,-0.1836524158716201,-0.4597536325454712,0.0499590374529361,0.0821381658315658,0.0,0.0,0.1756875253293539,0.6483631929051619
-0.021802807226777,1.2871721982955933,-0.1711204499006271,-0.4562709033489227,0.0525168739259243,0.0511614494025707,0.0,0.0,-0.6479285135430148,-0.7173857448088152
-0.0235569961369037,1.2762141227722168,-0.1788661777973175,-0.4871568381786346,0.055925041437149,0.0681695789098739,0.0,0.0,-0.4327602697150201,0.6423681678336487
-0.025267219170928,1.2645843029022217,-0.1724715083837509,-0.5169302225112915,0.0573561340570449,0.0286242421716451,0.0,0.0,0.1557781024286055,-0.920618796929119
-0.0269889831542968,1.2525734901428225,-0.1750981658697128,-0.5339376926422119,0.0602570846676826,0.0580244585871696,0.0,0.0,0.916255887050208,0.6158213211634189
-0.0285676959902048,1.24139142036438,-0.1596688330173492,-0.4970459043979645,0.0620254576206207,0.0353707298636436,0.0,0.0,0.756691191922745,-0.757009253951647
-0.0300806052982807,1.2301256656646729,-0.1545842736959457,-0.5008361339569092,0.0652906745672226,0.0653103440999984,0.0,0.0,0.8678727527248788,-0.9405624203459958
-0.0316201224923133,1.2195488214492798,-0.1589848697185516,-0.4703142940998077,0.0702852606773376,0.0999004989862442,0.0,0.0,0.9874728980992332,-0.6102425810568775
-0.0333720222115516,1.2092909812927246,-0.1808302402496338,-0.456175833940506,0.0758673846721649,0.1116526275873184,0.0,0.0,0.6145320619497334,-0.733227675328139
-0.0351137146353721,1.1994633674621582,-0.1812164932489395,-0.4371519386768341,0.0828619748353958,0.1399044543504715,0.0,0.0,0.8731180203514217,0.6387808415238759
-0.0368436798453331,1.1897071599960327,-0.1784974187612533,-0.4339285790920257,0.0883218720555305,0.109207846224308,0.0,0.0,-0.4052992341784007,0.858828450736991
-0.0385018363595008,1.1792771816253662,-0.1689379811286926,-0.4637391865253448,0.0914226770401001,0.0620216950774192,0.0,0.0,-0.6375639246171843,0.6084163013580098
-0.0401154533028602,1.1681644916534424,-0.1628669202327728,-0.4939892590045929,0.0929121896624565,0.0297927055507898,0.0,0.0,0.3362096271651484,-0.8673078883466778
-0.0419848449528217,1.1571204662322998,-0.1898050457239151,-0.4910291135311126,0.0957640260457992,0.0570419356226921,0.0,0.0,-0.3141281400385141,0.785060157306588
-0.0438136085867881,1.1453824043273926,-0.1843401193618774,-0.521784245967865,0.0972092226147651,0.0289040897041559,0.0,0.0,0.8769380538759852,-0.9293665324967648
-0.0457977280020713,1.134188890457153,-0.2015475034713745,-0.4976944327354431,0.1003175973892211,0.0621674060821533,0.0,0.0,0.0383938496748148,0.818099403405666
-0.047871209681034,1.1230897903442385,-0.2086337357759475,-0.4933711886405945,0.1015935912728309,0.0255197025835514,0.0,0.0,-0.2806868507649673,0.8012396785278761
-0.049900434911251,1.1113216876983645,-0.2027856409549713,-0.5230180621147156,0.1014678925275802,-0.0025142659433186,0.0,0.0,0.7315140094309496,0.9295472887638836
-0.0519360527396202,1.0996369123458862,-0.2014023065567016,-0.5191819667816162,0.0993300527334213,-0.0427569188177585,0.0,0.0,-0.7480617726163592,0.8302364582907118
-0.0539076812565326,1.0872883796691897,-0.1931817978620529,-0.548567533493042,0.0953850373625755,-0.0789005234837532,0.0,0.0,0.940878111370683,-0.8813645572684975
-0.0560991279780864,1.0749958753585815,-0.2166749984025955,-0.546172559261322,0.0929317697882652,-0.0490655377507209,0.0,0.0,-0.7625912221386937,-0.9980719071321204
-0.0583817474544048,1.0620173215866089,-0.2280092537403106,-0.5768171548843384,0.0926925987005233,-0.0047836294397711,0.0,0.0,0.9789346441231545,0.7678364298008196
-0.0607258789241313,1.0489907264709473,-0.2324214726686477,-0.578838586807251,0.0907160863280296,-0.0395303182303905,0.0,0.0,-0.3555115069334009,-0.8041095682464539
-0.0631311386823654,1.0352742671966553,-0.2401142418384552,-0.6095960736274719,0.0903066247701644,-0.0081892320886254,0.0,0.0,-0.090088621426094,0.6075656736686772
-0.0654860511422157,1.020885944366455,-0.2338462769985199,-0.63938307762146,0.0886832252144813,-0.0324684828519821,0.0,0.0,-0.7147597575303284,0.997827950821412
-0.0677632316946983,1.0058196783065796,-0.2242240160703659,-0.6694123148918152,0.0852207317948341,-0.0692497044801712,0.0,0.0,-0.2351224419896014,0.6187352857282925
-0.0699859634041786,0.9900819063186646,-0.2175445109605789,-0.6991943120956421,0.0805328339338302,-0.0937577784061431,0.0,0.0,-0.7849837924312557,-0.7284667242362575
-0.0722669586539268,0.9736620783805848,-0.2250296771526336,-0.7296136617660522,0.0775003656744957,-0.0606494918465614,0.0,0.0,0.6562505651553925,-0.7722670971989307
-0.0746207237243652,0.9574679732322692,-0.2340681552886963,-0.7196677923202515,0.0762010365724563,-0.0259864330291748,0.0,0.0,-0.5051336197473588,-0.8117029715872519
-0.0770455375313758,0.9405890703201294,-0.2432524263858795,-0.750209391117096,0.0769632384181022,0.0152440993115305,0.0,0.0,-0.9757879376411438,0.9829180240631104
-0.0793715491890907,0.9230359792709352,-0.2311721742153167,-0.7800682783126831,0.0755504295229911,-0.0282563921064138,0.0,0.0,-0.7814294099807739,0.9737601280212402
-0.0816019997000694,0.9047994017601012,-0.2195502817630767,-0.8103438019752502,0.0720936954021453,-0.0691350698471069,0.0,0.0,-0.1773273944854736,0.9020681381225586
-0.0837431922554969,0.8858871459960938,-0.2087391912937164,-0.8402889370918274,0.0667713657021522,-0.1064464002847671,0.0,0.0,0.7356472015380859,0.9094083309173584
-0.085873506963253,0.8667474985122681,-0.2059978544712066,-0.8503599762916565,0.0598123297095298,-0.1391807198524475,0.0,0.0,0.4271397590637207,0.5766382217407227
-0.0879251509904861,0.8473597764968872,-0.1973389238119125,-0.8613831996917725,0.0520684570074081,-0.1548772752285003,0.0,0.0,0.8257330656051636,0.77846360206604
-0.0898600593209266,0.8280361294746399,-0.1845287978649139,-0.8585437536239624,0.0432149469852447,-0.1770703494548797,0.0,0.0,-0.0156828761100769,-0.0323542356491088
-0.0917874351143837,0.8080305457115173,-0.1840738356113433,-0.8889134526252747,0.0346622392535209,-0.1710539609193802,0.0,0.0,0.9678888320922852,-0.3429999947547912
-0.0938974395394325,0.7887420058250427,-0.201917365193367,-0.8570832014083862,0.0256954375654459,-0.179336279630661,0.0,0.0,0.7010877132415771,0.7947685718536377
-0.0959738716483116,0.7695561051368713,-0.1972598731517791,-0.8525574207305908,0.0154348174110054,-0.2052126228809356,0.0,0.0,-0.2361798882484436,0.9410631656646729
-0.0979501754045486,0.7496908903121948,-0.1852316558361053,-0.8828209042549133,0.0032030285801738,-0.2446358948945999,0.0,0.0,0.9362523555755616,-0.0061822533607482
-0.0999884605407714,0.7304393649101257,-0.1914849579334259,-0.8556503057479858,-0.0089815352112054,-0.243691399693489,0.0,0.0,0.9210423231124878,-0.5992252826690674
-0.1019256561994552,0.7112769484519958,-0.1833337843418121,-0.8517554998397827,-0.0192312449216842,-0.2049944102764129,0.0,0.0,0.9579529762268066,0.3497598171234131
-0.1038326248526573,0.6928505301475525,-0.1807252615690231,-0.8191191554069519,-0.029080307111144,-0.1969809830188751,0.0,0.0,0.340435266494751,-0.207966923713684
-0.1055991202592849,0.6743295192718506,-0.1676483154296875,-0.823350727558136,-0.0379763282835483,-0.1779202818870544,0.0,0.0,0.7763241529464722,-0.5008975863456726
-0.1074870079755783,0.6558919548988342,-0.1808878928422927,-0.8196732997894287,-0.0457896068692207,-0.1562652587890625,0.0,0.0,0.9195380210876464,-0.1741249561309814
-0.1092157363891601,0.6381515860557556,-0.1658881604671478,-0.7886888384819031,-0.0526845455169677,-0.1378987729549408,0.0,0.0,0.560066819190979,-0.0467190146446228
-0.1107731834053993,0.6206720471382141,-0.1498025953769683,-0.777090847492218,-0.0585550814867019,-0.1174105852842331,0.0,0.0,0.7837064266204834,-0.0347625613212585
-0.1121907234191894,0.6038332581520081,-0.1366311609745025,-0.7485952377319336,-0.0636229142546653,-0.1013564467430114,0.0,0.0,0.267388105392456,0.5914866924285889
-0.1135802268981933,0.5872206687927246,-0.1329610049724578,-0.7386045455932617,-0.0695514157414436,-0.1185702532529831,0.0,0.0,0.5167021751403809,-0.8667528629302979
-0.1149556189775466,0.5704277157783508,-0.133812204003334,-0.7465343475341797,-0.073241576552391,-0.0738030523061752,0.0,0.0,0.8599200248718262,0.2904911041259765
-0.1163797378540039,0.5541449785232544,-0.1386031061410904,-0.7238681316375732,-0.0770036652684211,-0.0752419680356979,0.0,0.0,0.4136790037155151,0.7218630313873291
-0.1175901442766189,0.5378187298774719,-0.1164436563849449,-0.7258544564247131,-0.0815538763999939,-0.0910041853785514,0.0,0.0,0.7570488452911377,-0.6857963800430298
-0.118769071996212,0.5217878818511963,-0.1152158230543136,-0.7126308679580688,-0.0842135995626449,-0.0531943961977958,0.0,0.0,0.8191664218902588,0.7701001167297363
-0.119836613535881,0.5057187080383301,-0.1030063405632972,-0.7144021987915039,-0.0879226252436637,-0.0741806402802467,0.0,0.0,0.9773836135864258,-0.7172213196754456
-0.1210536956787109,0.4900518357753753,-0.1194849610328674,-0.6964386701583862,-0.0901224762201309,-0.0439971387386322,0.0,0.0,0.906867742538452,-0.366327166557312
-0.1221537590026855,0.4751735031604767,-0.1083826795220375,-0.6613560914993286,-0.0917317345738411,-0.0321851409971714,0.0,0.0,0.4280334711074829,0.2691675424575805
-0.1231573075056076,0.4599792659282684,-0.0995474606752395,-0.6753467917442322,-0.0925326645374298,-0.0160186104476451,0.0,0.0,0.767397403717041,0.3636288642883301
-0.12404565513134,0.4454613626003265,-0.0886533111333847,-0.6452528834342957,-0.0927158743143081,-0.0036640658508986,0.0,0.0,0.8470371961593628,0.8639781475067139
-0.1249314323067665,0.4310528934001922,-0.0869240760803222,-0.6404774785041809,-0.0943522974848747,-0.0327286347746849,0.0,0.0,0.9154969453811646,0.9139468669891356
-0.1257874518632888,0.4171433746814728,-0.0824015960097312,-0.6184085011482239,-0.0975329205393791,-0.0636124089360237,0.0,0.0,0.7061216831207275,0.7733986377716064
-0.1264856308698654,0.4034970998764038,-0.0656267702579498,-0.606781542301178,-0.1016925424337387,-0.0831922814249992,0.0,0.0,-0.0875810384750366,0.4849045276641845
-0.1271851509809494,0.3891671597957611,-0.0662604048848152,-0.6371408104896545,-0.1053550913929939,-0.0732510834932327,0.0,0.0,0.883953332901001,-0.4803231358528137
-0.1277342736721038,0.375122606754303,-0.0521190874278545,-0.6244029402732849,-0.1081302240490913,-0.0555026941001415,0.0,0.0,0.9224903583526612,-0.7966504693031311
-0.1283431053161621,0.3610837757587433,-0.0600981637835502,-0.624004065990448,-0.1089088767766952,-0.0155728366225957,0.0,0.0,0.926062822341919,0.7036373615264893
-0.1287751197814941,0.3468957543373108,-0.0417143851518631,-0.6306869983673096,-0.1103809848427772,-0.0294421669095754,0.0,0.0,0.9157047271728516,-0.0863945484161377
-0.1292053163051605,0.3326167464256286,-0.0418765991926193,-0.6347092390060425,-0.1115154772996902,-0.0226899292320013,0.0,0.0,0.993226170539856,-0.2684422731399536
-0.129545122385025,0.3190820217132568,-0.0333138778805732,-0.6015949249267578,-0.1121874451637268,-0.013439361937344,0.0,0.0,0.9361107349395752,-0.6365604400634766
-0.1297349035739898,0.3062862455844879,-0.0203650463372468,-0.5685977339744568,-0.1108105778694152,0.0275375489145517,0.0,0.0,0.8488955497741699,0.1286003589630127
-0.1299567222595214,0.2941910624504089,-0.0234957281500101,-0.5374688506126404,-0.1095014810562133,0.0261819325387477,0.0,0.0,0.7813301086425781,0.6345698833465576
-0.1302489340305328,0.2819543182849884,-0.0294028110802173,-0.543841540813446,-0.1093193367123603,0.0036428677849471,0.0,0.0,0.4611923694610595,-0.0930620431900024
-0.1304398477077484,0.2700702846050262,-0.0199710913002491,-0.528115451335907,-0.1084556728601455,0.0172731988131999,0.0,0.0,0.8715510368347168,0.3121682405471802
-0.1306861937046051,0.2584931552410126,-0.0254830215126276,-0.5144761204719543,-0.1076049655675888,0.0170141756534576,0.0,0.0,0.8050110340118408,0.6509581804275513
-0.1308785378932953,0.2473413795232772,-0.0191530622541904,-0.4956410825252533,-0.1076910942792892,-0.0017225604970008,0.0,0.0,0.508129358291626,-0.3216514587402344
-0.1310272216796875,0.2364594042301178,-0.0152546688914299,-0.483615905046463,-0.1073070168495178,0.0076814480125904,0.0,0.0,0.0850340127944946,-0.3325350880622864
-0.1310933083295822,0.2254541963338852,-0.0077830264344811,-0.4890365302562713,-0.1061361134052276,0.0234179999679327,0.0,0.0,0.9102398157119752,0.6212043762207031
-0.1310561150312423,0.2143369019031524,0.0031724940054118,-0.4940651357173919,-0.1056055426597595,0.010611861012876,0.0,0.0,0.8668813705444336,0.1687338352203369
-0.1308844536542892,0.2031978666782379,0.0156169775873422,-0.494961678981781,-0.1040660440921783,0.030790090560913,0.0,0.0,0.9762592315673828,0.842341423034668
-0.1304031312465667,0.1923533827066421,0.047340702265501,-0.4819198250770569,-0.1032778918743133,0.0157630499452352,0.0,0.0,0.9594614505767822,-0.3428254127502441
-0.129729077219963,0.1814974397420883,0.0653107240796089,-0.4823430180549621,-0.1011992618441581,0.0415727011859416,0.0,0.0,0.7411372661590576,-0.1764107942581176
-0.1290020942687988,0.1711401790380478,0.0700974315404892,-0.4601503908634186,-0.0986218601465225,0.0515479333698749,0.0,0.0,0.8899030685424805,-0.2942924499511719
-0.1281768828630447,0.1613892465829849,0.0792343765497207,-0.4331635236740112,-0.0953537076711654,0.0653628632426261,0.0,0.0,0.5290181636810303,-0.011051058769226
-0.1272015571594238,0.1518599539995193,0.0931653827428817,-0.4232493638992309,-0.0910249352455139,0.0865755528211593,0.0,0.0,0.512263298034668,-0.2102125883102417
-0.1261318176984787,0.1420810520648956,0.1016433611512184,-0.4343046545982361,-0.0857412666082382,0.1056732758879661,0.0,0.0,0.7900686264038086,-0.5545573234558105
-0.1251448690891266,0.132455289363861,0.0918722450733184,-0.4274355471134186,-0.0789920538663864,0.1349845081567764,0.0,0.0,0.932093620300293,0.7464892864227295
-0.1239389404654502,0.1236442625522613,0.1144859418272972,-0.3912878632545471,-0.0729500353336334,0.1208403334021568,0.0,0.0,0.6275131702423096,0.4233455657958984
-0.1227431297302246,0.1149914562702179,0.1130474433302879,-0.3842659592628479,-0.0664859265089035,0.129282146692276,0.0,0.0,0.904913067817688,-0.2850083708763122
-0.1216588020324707,0.1070426777005195,0.1020455360412597,-0.3530100286006927,-0.0601572282612323,0.1265738010406494,0.0,0.0,0.6792541742324829,0.76454758644104
-0.120404340326786,0.0994623973965644,0.1198570728302002,-0.3366866707801819,-0.0546322725713253,0.1104992404580116,0.0,0.0,0.1469985246658325,-0.237032949924469
-0.1191898360848426,0.091982252895832,0.1154987066984176,-0.3322466015815735,-0.0487515963613987,0.1176135316491127,0.0,0.0,0.7872374057769775,0.768543004989624
-0.1180049926042556,0.085040770471096,0.1137516945600509,-0.3083636462688446,-0.0440759882330894,0.0935123860836029,0.0,0.0,0.4617929458618164,-0.4785265922546386
-0.116856001317501,0.0780778974294662,0.1097278445959091,-0.3093190789222717,-0.0389756672084331,0.1020065546035766,0.0,0.0,0.5747103691101074,0.9621613025665284
-0.1157688125967979,0.0712949112057685,0.1051036342978477,-0.3013779819011688,-0.0354071594774723,0.0713702663779258,0.0,0.0,0.7409384250640869,0.4549837112426758
-0.1148559600114822,0.0646644234657287,0.0878905430436134,-0.2946123480796814,-0.0320473164319992,0.0671966820955276,0.0,0.0,0.8752188682556152,0.8473620414733887
-0.1137539893388748,0.0585688687860965,0.1077033132314682,-0.2708588540554046,-0.0295891482383012,0.0491636134684085,0.0,0.0,0.5565445423126221,0.5141706466674805
-0.1125764846801757,0.0523023717105388,0.1156075745820999,-0.2784742712974548,-0.0274686142802238,0.0424106940627098,0.0,0.0,0.6277351379394531,0.8504127264022827
-0.1111898422241211,0.0464768260717392,0.1374444812536239,-0.2588917911052704,-0.0262643508613109,0.0240850858390331,0.0,0.0,0.5414273738861084,0.1245365142822265
-0.1098444014787674,0.0410544723272323,0.1328979283571243,-0.2409656792879104,-0.0246395990252494,0.032494843006134,0.0,0.0,0.7124027013778687,0.1173595190048217
-0.1083689704537391,0.0362714864313602,0.1446779817342758,-0.2125314027070999,-0.0218133963644504,0.0565240271389484,0.0,0.0,0.6315832138061523,0.6282534599304199
-0.1067902594804763,0.0316594466567039,0.1555608808994293,-0.204946294426918,-0.0195312313735485,0.0456435643136501,0.0,0.0,0.589043378829956,-0.5872983336448669
-0.1052913665771484,0.0275494437664747,0.1458951532840728,-0.182618111371994,-0.0155858481302857,0.0789076164364814,0.0,0.0,0.6525194644927979,0.022245168685913
-0.1037613898515701,0.0239366143941879,0.1481885015964508,-0.1605303287506103,-0.0108494032174348,0.0947288870811462,0.0,0.0,0.1285017728805542,-0.3129405975341797
-0.102215863764286,0.0201096385717391,0.1489867269992828,-0.1700550466775894,-0.005350743420422,0.1099730357527732,0.0,0.0,0.568723201751709,-0.3272613883018493
-0.1008267402648925,0.0164815038442611,0.1333799958229065,-0.1612410247325897,0.0001152457916759,0.1093200072646141,0.0,0.0,0.579003095626831,0.0785140991210937
-0.0996043235063552,0.012908587232232,0.1167673468589782,-0.1588080525398254,0.0055149965919554,0.107994832098484,0.0,0.0,0.8703947067260742,0.6599926948547363
-0.098404124379158,0.0096098994836211,0.1154388189315795,-0.1466290950775146,0.0100340759381651,0.0903815776109695,0.0,0.0,0.5707941055297852,0.838573694229126
-0.0971603393554687,0.006388995796442,0.1209410652518272,-0.1431775540113449,0.0134216109290719,0.0677507817745208,0.0,0.0,0.7247939109802246,0.7452828884124756
-0.0957593917846679,0.0030456399545073,0.1373598277568817,-0.1486214697360992,0.016126163303852,0.0540908873081207,0.0,0.0,0.8068668842315674,0.3814514875411987
-0.0943102836608886,0.0001434898440493,0.1411819159984588,-0.1290276795625686,0.0198087617754936,0.0736521705985069,0.0,0.0,0.3582782745361328,-0.2977099418640136
-0.0931290611624717,-0.001873924746178,0.1337228715419769,-0.089551955461502,0.0043237600475549,-0.3097992241382599,0.0,1.0,0.2935212850570678,-0.0663176774978637
-0.0919642448425293,-0.0031644247937947,0.1265885531902313,-0.0573772452771663,-0.005710566882044,-0.2007585316896438,1.0,1.0,0.6011693477630615,-0.9759641289711
