x_pos,y_pos,x_vel,y_vel,angle,ang_vel,leg_1,leg_2,main_booster,lat_booster
-0.0016004561912268,1.403533697128296,-0.1620238125324249,-0.3282851576805115,0.0017694924026727,0.0349052809178829,0.0,0.0,-0.9276707642646088,-0.6002105568661067
-0.0033218383323401,1.396076798439026,-0.1748957931995391,-0.3314285278320312,0.0045035164803266,0.0546862557530403,0.0,0.0,-0.4046932984879288,0.6173710639214207
-0.0050616264343261,1.3885244131088257,-0.1751382499933242,-0.3356638550758362,0.0056482790969312,0.0228973664343357,0.0,0.0,-0.3049594577636199,0.8385708367564191
-0.0068262098357081,1.3808789253234863,-0.1761578023433685,-0.3397992551326751,0.0053434530273079,-0.0060970047488808,0.0,0.0,-0.7674279639232953,-0.7756867194165491
-0.0087166782468557,1.3731446266174316,-0.1898150742053985,-0.3437474370002746,0.0061050569638609,0.0152334552258253,0.0,0.0,0.3470372546704734,-0.6705191105025574
-0.0106164934113621,1.365983486175537,-0.1921629309654235,-0.3182822465896606,0.0082632200792431,0.043166983872652,0.0,0.0,-0.9673765078111538,-0.9438532444417732
-0.0126711847260594,1.3587307929992676,-0.2094145566225052,-0.3223758339881897,0.0121739348396658,0.0782214552164077,0.0,0.0,0.4684057149299108,-0.8182086489973152
-0.0147260669618844,1.352253794670105,-0.21110300719738,-0.2879177629947662,0.0177286565303802,0.1111044511198997,0.0,0.0,0.6297471519454818,-0.8519319499817924
-0.0169533733278512,1.3469316959381104,-0.2297978401184082,-0.2366413176059723,0.0247171986848115,0.1397837102413177,0.0,0.0,0.0954197418824207,-0.8856111353444702
-0.0193400382995605,1.3422445058822632,-0.2472603023052215,-0.208487406373024,0.0332083143293857,0.1698378622531891,0.0,0.0,0.0275564529612208,0.8469504254874097
-0.0216859821230173,1.3380284309387207,-0.241219088435173,-0.1875409930944442,0.0397617518901824,0.1310807168483734,0.0,0.0,0.0691836958717118,0.9667066101336176
-0.0239909179508686,1.3342400789260864,-0.234867125749588,-0.1684976667165756,0.0440980345010757,0.0867335200309753,0.0,0.0,0.7166424004737977,0.7040895198371652
-0.0262008663266897,1.3314669132232666,-0.2239779978990554,-0.1233415752649307,0.0470618344843387,0.0592812485992908,0.0,0.0,0.7516237236361507,-0.6374456125065882
-0.0284744258970022,1.3291631937026978,-0.2314957827329635,-0.1025286391377449,0.05115782096982,0.0819271951913833,0.0,0.0,-0.5987554651234823,-0.6319852911675017
-0.0308606140315532,1.3267720937728882,-0.2433707416057586,-0.1064372211694717,0.0558585003018379,0.0940219908952713,0.0,0.0,-0.6125185894191916,0.962899795896605
-0.0332303047180175,1.3242864608764648,-0.2390544116497039,-0.1105531081557273,0.0579281859099864,0.0413972958922386,0.0,0.0,0.3227433082820661,0.911432551447617
-0.0355141647160053,1.322763204574585,-0.2283599078655243,-0.0676989927887916,0.0578984208405017,-0.0005953595973551,0.0,0.0,0.6300020439077019,0.6567571931018116
-0.0376866348087787,1.3217144012451172,-0.2158313244581222,-0.0465581566095352,0.0565051920711994,-0.0278670154511928,0.0,0.0,-0.9618606235964706,-0.8926042635165575
-0.0399889945983886,1.32057785987854,-0.2299035787582397,-0.0504972524940967,0.0561697706580162,-0.0067090699449181,0.0,0.0,-0.4772728180103627,0.747103307846634
-0.0423101410269737,1.3193542957305908,-0.2300157099962234,-0.0543042682111263,0.0541019476950168,-0.041360180824995,0.0,0.0,-0.886850134585327,-0.7679984892892617
-0.0447476394474506,1.3180413246154783,-0.2424151003360748,-0.0583048649132251,0.0527751483023166,-0.0265385117381811,0.0,0.0,0.7341455191826736,0.7738638279819146
-0.0472023002803325,1.317334532737732,-0.242123007774353,-0.0312969386577606,0.0494586192071437,-0.0663364455103874,0.0,0.0,0.2733986609286185,-0.8779423035915019
-0.0496984496712684,1.3171675205230713,-0.2476087808609008,-0.0073578590527176,0.0474843271076679,-0.0394892655313015,0.0,0.0,0.512840378634088,0.7705401867631845
-0.0521408095955848,1.3173387050628662,-0.2403029203414917,0.0077240569517016,0.0435879528522491,-0.077934518456459,0.0,0.0,-0.794550467400722,-0.8650874237199733
-0.0547313690185546,1.317415475845337,-0.2567378580570221,0.0034869529772549,0.0412957705557346,-0.0458476021885871,0.0,0.0,-0.0239310828489469,0.7211246179163413
-0.0573405250906944,1.3173867464065552,-0.2569462358951568,-0.0011786953546106,0.0373776108026504,-0.0783632397651672,0.0,0.0,-0.1756627715118022,-0.7855299808118943
-0.0600724220275878,1.3172684907913208,-0.2702347338199615,-0.0051866332069039,0.0344601832330226,-0.0583483204245567,0.0,0.0,-0.3302377682900139,-0.6172804245882204
-0.0629233345389366,1.3170626163482666,-0.2830762267112732,-0.009105410426855,0.0324718169867992,-0.039767600595951,0.0,0.0,-0.803793901823812,0.8432617253386326
-0.0657800659537315,1.3167753219604492,-0.2817444801330566,-0.0126858204603195,0.0285916868597269,-0.0776025801897049,0.0,0.0,-0.131843666866448,-0.8093984160294809
-0.0687594413757324,1.3163914680480957,-0.2950940728187561,-0.0170127376914024,0.0257888045161962,-0.0560576990246772,0.0,0.0,-0.0283075259547451,-0.736850893038647
-0.0718502029776573,1.315922737121582,-0.3070660233497619,-0.0207978077232837,0.0238045305013656,-0.039685271680355,0.0,0.0,0.1599834245353628,-0.9134939769874812
-0.0751375183463096,1.3158143758773804,-0.3279304206371307,-0.0048050922341644,0.0230080224573612,-0.0159300602972507,0.0,0.0,0.2979948955993099,0.8890534716618358
-0.0784952193498611,1.3165676593780518,-0.3324763476848602,0.0335311330854892,0.019763084128499,-0.0648989900946617,0.0,0.0,-0.6630004629942265,-0.7758259153338036
-0.0819704085588455,1.3172212839126587,-0.3453260064125061,0.0290727689862251,0.0175930764526128,-0.0433999374508857,0.0,0.0,-0.0723437734827761,0.8489506523094668
-0.0854248031973838,1.317787766456604,-0.3408321738243103,0.0252204854041337,0.013047850690782,-0.0909047573804855,0.0,0.0,-0.7544066983404256,0.7246226284578469
-0.0888665169477462,1.318270206451416,-0.3374019861221313,0.0214922912418842,0.0063676801510155,-0.133603498339653,0.0,0.0,-0.2016862553753355,0.9637327115952418
-0.092279814183712,1.3186585903167725,-0.3320400416851043,0.0172754656523466,-0.0028039305470883,-0.1834322810173034,0.0,0.0,0.2700179743214841,0.7490925413508016
-0.0956419929862022,1.319840908050537,-0.3247822821140289,0.0524810068309307,-0.0140905873849987,-0.2257331162691116,0.0,0.0,0.5101666092941255,0.7892335131346118
-0.0990117043256759,1.3220980167388916,-0.3232108950614929,0.1001308187842369,-0.0276844557374715,-0.2718774080276489,0.0,0.0,-0.5277905983411795,0.9944894800674472
-0.1023383140563964,1.324265480041504,-0.3161082863807678,0.0959462374448776,-0.0440304465591907,-0.3269197344779968,0.0,0.0,0.6633972736555693,0.7327048009522099
-0.1057271957397461,1.3275316953659058,-0.3199422061443329,0.1444988548755645,-0.0627602413296699,-0.3745960891246795,0.0,0.0,0.00111985206604,-0.8650963306427002
-0.1091113090515136,1.3311829566955566,-0.3205248713493347,0.1614395678043365,-0.0804699808359146,-0.3541945219039917,0.0,0.0,0.0425846576690673,0.3901636600494385
-0.1124521270394325,1.335037112236023,-0.3157872557640075,0.1702135056257248,-0.098596803843975,-0.3625364303588867,0.0,0.0,0.1969406604766845,0.5808768272399902
-0.1156620979309082,1.3393583297729492,-0.3010101020336151,0.1906115412712097,-0.1184468194842338,-0.3970007300376892,0.0,0.0,-0.2880629301071167,0.7957228422164917
-0.1188443154096603,1.3435757160186768,-0.2960823476314544,0.1855416744947433,-0.1404937356710434,-0.4409379363059997,0.0,0.0,0.3547382354736328,-0.8898100256919861
-0.1220441833138465,1.3481135368347168,-0.2989932894706726,0.1995740085840225,-0.1614449173212051,-0.4190233647823334,0.0,0.0,0.1426665782928466,0.1424953937530517
-0.1251786202192306,1.353015661239624,-0.2920158207416534,0.2154013216495514,-0.182922750711441,-0.429556667804718,0.0,0.0,0.0112565755844116,0.773371696472168
-0.1282623261213302,1.358601689338684,-0.2847232222557068,0.245175153017044,-0.2067016810178756,-0.4755786061286926,0.0,0.0,0.3214843273162842,0.7356202602386475
-0.131297305226326,1.3650575876235962,-0.2776394784450531,0.283102422952652,-0.232850506901741,-0.5229769945144653,0.0,0.0,0.2390404939651489,0.5309765338897705
-0.1342408210039138,1.3719812631607056,-0.2668382525444031,0.3031268417835235,-0.2608413398265838,-0.5598164796829224,0.0,0.0,-0.069900631904602,-0.0897802114486694
-0.1372022628784179,1.3788269758224487,-0.2681388258934021,0.2990141808986664,-0.2895698547363281,-0.574569582939148,0.0,0.0,-0.0942487716674804,-0.3392731547355652
-0.1401801109313964,1.385595679283142,-0.2692848145961761,0.2948968112468719,-0.3190393447875976,-0.5893904566764832,0.0,0.0,-0.5125442147254944,-0.9333137273788452
-0.1432306319475174,1.3923109769821167,-0.2775962054729461,0.2921422123908996,-0.3477001488208771,-0.573215901851654,0.0,0.0,-0.4775748252868652,-0.8926911354064941
-0.1463575363159179,1.3989918231964111,-0.2865544855594635,0.2903714179992676,-0.3752788007259369,-0.5515731573104858,0.0,0.0,-0.4374870061874389,-0.9299430847167968
-0.1495479643344879,1.405621886253357,-0.2938161194324493,0.2878101170063019,-0.4021709561347961,-0.5378430485725403,0.0,0.0,-0.6566370129585266,-0.9300251603126526
-0.1528272628784179,1.4122194051742554,-0.3043481707572937,0.2863214313983917,-0.4275917410850525,-0.5084154009819031,0.0,0.0,-0.6078376173973083,-0.9755999445915222
-0.1561713218688964,1.4187860488891602,-0.3119834661483764,0.2848382592201233,-0.4520440101623535,-0.4890462458133697,0.0,0.0,-0.6856078505516052,-0.9636651277542114
-0.1595739424228668,1.4253146648406982,-0.3188220262527466,0.2830393612384796,-0.4756966233253479,-0.4730524122714996,0.0,0.0,-0.7896026372909546,-0.9368339776992798
-0.1630369126796722,1.4318162202835083,-0.3259715437889099,0.2818080186843872,-0.4983721673488617,-0.4535109996795654,0.0,0.0,-0.7649046778678894,-0.9385047554969788
-0.1665747612714767,1.4383037090301514,-0.3350221514701843,0.2813767790794372,-0.51956707239151,-0.4238978326320648,0.0,0.0,-0.8028885722160339,-0.8600093722343445
-0.1701726019382476,1.44474995136261,-0.3420294821262359,0.2795810103416443,-0.539869487285614,-0.4060468077659607,0.0,0.0,-0.7626410722732544,-0.7250211238861084
-0.1738289892673492,1.4511690139770508,-0.3489857614040375,0.2785117924213409,-0.5591303110122681,-0.3852162957191467,0.0,0.0,-0.8157210350036621,-0.6352814435958862
-0.1775217056274414,1.457536697387695,-0.3530770540237427,0.276134043931961,-0.5780796408653259,-0.378986656665802,0.0,0.0,-0.8057159781455994,-0.428766667842865
-0.1812156736850738,1.463823676109314,-0.3527702391147613,0.2720404863357544,-0.5977945327758789,-0.3942974805831909,0.0,0.0,-0.7526083588600159,-0.7618536949157715
-0.1849607527256012,1.4700744152069092,-0.3587865233421325,0.2705439627170563,-0.6166642308235168,-0.377394288778305,0.0,0.0,-0.8598302602767944,-0.4708209633827209
-0.1887054443359375,1.476244330406189,-0.3583387434482574,0.2664491832256317,-0.6363001465797424,-0.3927196264266968,0.0,0.0,-0.7692155241966248,-0.6370494961738586
-0.1924844682216644,1.482381820678711,-0.3624597191810608,0.2650400996208191,-0.6553537845611572,-0.3810723721981048,0.0,0.0,-0.818070650100708,-0.7468223571777344
-0.1963050812482834,1.4884772300720217,-0.3673557639122009,0.2632370591163635,-0.6737803220748901,-0.3685323297977447,0.0,0.0,-0.7914990186691284,-0.4577100872993469
-0.2001235485076904,1.4944918155670166,-0.3667569160461426,0.2591415047645569,-0.6929726004600525,-0.3838465213775635,0.0,0.0,-0.7761287689208984,-0.6096593737602234
-0.2039823979139328,1.5004761219024658,-0.3716400563716888,0.2579413950443268,-0.7113814353942871,-0.3681784272193908,0.0,0.0,-0.7834758162498474,-0.6514661312103271
-0.2078811228275299,1.5064382553100586,-0.3765288293361664,0.2571906447410583,-0.7288882732391357,-0.3501370549201965,0.0,0.0,-0.7364224791526794,-0.3001527786254883
-0.2117766439914703,1.5123194456100464,-0.3758539855480194,0.2530955970287323,-0.7471582293510437,-0.3653993010520935,0.0,0.0,-0.8206014037132263,-0.397529125213623
-0.215668722987175,1.518120288848877,-0.3751744627952575,0.2489983886480331,-0.7661898732185364,-0.3806331157684326,0.0,0.0,-0.7787944674491882,-0.2133195996284485
-0.2195569574832916,1.5238409042358398,-0.3744994401931762,0.2448989897966385,-0.7859815359115601,-0.3958333134651184,0.0,0.0,-0.8042498230934143,-0.5658273100852966
-0.223475843667984,1.5295273065567017,-0.3782527148723602,0.2434659600257873,-0.8051937222480774,-0.3842438757419586,0.0,0.0,-0.799518883228302,-0.4574503898620605
-0.2273907661437988,1.5351336002349854,-0.377609521150589,0.2393654733896255,-0.8251618146896362,-0.3993628919124603,0.0,0.0,-0.7377956509590149,-0.409804105758667
-0.2313017398118972,1.5406602621078491,-0.3769982159137726,0.2352629750967025,-0.8458833694458008,-0.4144318103790283,0.0,0.0,-0.8228219151496887,-0.5593827962875366
-0.2352350205183029,1.546159267425537,-0.3799247741699219,0.2341289669275283,-0.8660514950752258,-0.4033629298210144,0.0,0.0,-0.7752323746681213,-0.5135613083839417
-0.2391843348741531,1.5516208410263062,-0.3820161521434784,0.232428103685379,-0.8859366774559021,-0.3977037072181701,0.0,0.0,-0.8101938366889954,-0.1833923459053039
-0.2431304901838302,1.5570027828216553,-0.3815471231937408,0.2283253818750381,-0.9065661430358888,-0.4125897884368896,0.0,0.0,-0.8167248964309692,-0.2916178703308105
-0.2470737397670745,1.5623054504394531,-0.3811467885971069,0.2242210507392883,-0.9279361963272096,-0.427400529384613,0.0,0.0,-0.6588476896286011,-0.8207693099975586
-0.2510457634925842,1.5676029920578003,-0.3850125074386596,0.2243858724832534,-0.9482489824295044,-0.4062564373016357,0.0,0.0,-0.7541332840919495,-0.4570643901824951
-0.2550161480903625,1.572820782661438,-0.3847697675228119,0.2202823758125305,-0.9692938923835754,-0.4208976626396179,0.0,0.0,-0.6603384613990784,-0.6368830800056458
-0.2590140402317047,1.5780259370803833,-0.3883984684944153,0.2200548648834228,-0.9894311428070068,-0.4027449190616607,0.0,0.0,-0.7800948023796082,-0.5933988094329834
-0.2630356252193451,1.5832104682922363,-0.3914969563484192,0.2193899750709533,-1.008859395980835,-0.3885674476623535,0.0,0.0,-0.6488494277000427,-0.1765215396881103
-0.2670583724975586,1.5883148908615112,-0.3915559351444244,0.2152888774871826,-1.0290039777755735,-0.4028934836387634,0.0,0.0,-0.7701493501663208,-0.6183832287788391
-0.2711099088191986,1.5933942794799805,-0.3951416611671448,0.2144322246313095,-1.0484577417373655,-0.3890747427940368,0.0,0.0,-0.6974826455116272,-0.4336602687835693
-0.2751646935939789,1.598393440246582,-0.395448237657547,0.210331842303276,-1.068614840507507,-0.4031422138214111,0.0,0.0,-0.6535432934761047,-0.4345519542694092
-0.2792235314846039,1.603312849998474,-0.3958944678306579,0.20623080432415,-1.089468002319336,-0.4170630574226379,0.0,0.0,-0.5565513372421265,-0.4750927686691284
-0.2832876145839691,1.6081522703170776,-0.3964889049530029,0.2021292746067047,-1.1110092401504517,-0.4308252930641174,0.0,0.0,-0.8045777082443237,-0.7665055990219116
-0.2873807549476623,1.612992525100708,-0.4003346860408783,0.2027525156736374,-1.1313564777374268,-0.4069458842277527,0.0,0.0,-0.7576791644096375,-0.7291120290756226
-0.2915010452270508,1.617825269699097,-0.403845876455307,0.2029246687889099,-1.15069317817688,-0.3867333829402923,0.0,0.0,-0.5880884528160095,-0.0603942275047302
-0.2956311702728271,1.622577428817749,-0.4049169421195984,0.1988278180360794,-1.1706905364990234,-0.3999464809894562,0.0,0.0,-0.6256573796272278,-0.3704614043235779
-0.299772560596466,1.627249002456665,-0.4061675071716308,0.1947310715913772,-1.191337823867798,-0.4129448533058166,0.0,0.0,-0.5062915682792664,-0.3709278106689453
-0.3039265275001526,1.6318397521972656,-0.4076049923896789,0.1906345784664154,-1.2126233577728271,-0.4257118105888366,0.0,0.0,-0.7162356972694397,-0.4840000867843628
-0.3080946505069732,1.6363500356674194,-0.4092364311218261,0.1865385323762893,-1.2345348596572876,-0.4382297396659851,0.0,0.0,-0.552092969417572,-0.5100895166397095
-0.3122918605804443,1.6408352851867676,-0.4128262400627136,0.185771182179451,-1.255756974220276,-0.4244431555271148,0.0,0.0,-0.6301958560943604,-0.5990262031555176
-0.3165206015110016,1.6453179121017456,-0.4167495667934418,0.1863307952880859,-1.2757903337478638,-0.4006682932376861,0.0,0.0,-0.6982823014259338,-0.4756443500518799
-0.3207693696022033,1.6497187614440918,-0.4189860224723816,0.1822407245635986,-1.296406626701355,-0.4123262465000152,0.0,0.0,-0.4244821667671203,-0.714801549911499
-0.3250527381896972,1.6541231870651243,-0.4232159256935119,0.1832049041986465,-1.315657138824463,-0.3850097954273224,0.0,0.0,-0.4833598136901855,-0.1725769639015197
-0.3293604254722595,1.6584450006484983,-0.4258843064308166,0.1791190654039383,-1.3354562520980835,-0.395982563495636,0.0,0.0,-0.6369730234146118,-0.5883520841598511
-0.3337066769599914,1.6627506017684937,-0.4303350448608398,0.1789830178022384,-1.354263424873352,-0.3761438727378845,0.0,0.0,-0.6184959411621094,-0.69222092628479
-0.3380947709083557,1.667063593864441,-0.4351848661899566,0.1802845597267151,-1.3715214729309082,-0.3451616168022156,0.0,0.0,-0.4782963395118713,-0.5391790270805359
-0.3425253033638,1.6713666915893557,-0.4399444460868835,0.1805963516235351,-1.387587308883667,-0.3213161528110504,0.0,0.0,-0.5452631711959839,-0.5424461960792542
-0.3469939827919006,1.6756353378295898,-0.444126546382904,0.1794754117727279,-1.4029992818832395,-0.3082391023635864,0.0,0.0,-0.5160365104675293,-0.4358989000320434
-0.351499080657959,1.6798195838928225,-0.4479414522647857,0.1754024177789688,-1.4188511371612549,-0.3170377612113952,0.0,0.0,-0.5975600481033325,-0.5698601007461548
-0.3560449481010437,1.6839674711227417,-0.4523622989654541,0.1742107421159744,-1.4340318441390991,-0.3036131858825683,0.0,0.0,-0.3014672398567199,-0.2909901142120361
-0.3606320023536682,1.688030242919922,-0.4566610753536224,0.170142725110054,-1.4495986700057983,-0.3113369643688202,0.0,0.0,-0.2278860807418823,-0.3608389496803283
-0.3652624189853668,1.692007541656494,-0.4612061381340027,0.1660772711038589,-1.465522527694702,-0.3184782266616821,0.0,0.0,-0.479377269744873,-0.3163212537765503
-0.3699385225772857,1.6958986520767212,-0.4659980833530426,0.1620144844055175,-1.4817728996276855,-0.3250079452991485,0.0,0.0,-0.5392974019050598,-0.7393749356269836
-0.3746628165245056,1.699787139892578,-0.4712105691432953,0.1629502177238464,-1.4964369535446167,-0.2932816743850708,0.0,0.0,-0.2803208827972412,-0.0387249588966369
-0.3794379234313965,1.703588366508484,-0.4764890670776367,0.1588937938213348,-1.5113621950149536,-0.2985055148601532,0.0,0.0,-0.6130271553993225,-0.2361590266227722
-0.3842661380767822,1.7073023319244385,-0.4820132851600647,0.1548404544591903,-1.5265140533447266,-0.3030360341072082,0.0,0.0,-0.2738129496574402,-0.5653067827224731
-0.3891516327857971,1.7110040187835691,-0.4880185127258301,0.1553201973438263,-1.540146827697754,-0.2726544141769409,0.0,0.0,-0.4469377994537353,-0.2890757322311401
-0.394095242023468,1.7146170139312744,-0.4940234124660492,0.1512735933065414,-1.5539333820343018,-0.2757313847541809,0.0,0.0,-0.4689082503318786,-0.7807347178459167
-0.3991010189056396,1.718231439590454,-0.500434935092926,0.1526182293891906,-1.5658025741577148,-0.2373842000961303,0.0,0.0,-0.252239465713501,-0.6049732565879822
-0.4041712284088135,1.721820592880249,-0.5070140361785889,0.1524359881877899,-1.5762935876846311,-0.2098196297883987,0.0,0.0,-0.4846696257591247,-0.5773710012435913
-0.4093107283115387,1.7253700494766235,-0.5140463709831238,0.1514142155647277,-1.5856857299804688,-0.1878421902656555,0.0,0.0,-0.3014713525772095,-0.1867783069610595
-0.4145186841487884,1.72882878780365,-0.520979642868042,0.1473813503980636,-1.595076560974121,-0.18781578540802,0.0,0.0,-0.3023459911346435,-0.8022016286849976
-0.4197909832000732,1.732282042503357,-0.5274396538734436,0.1484653949737548,-1.6024938821792605,-0.1483458280563354,0.0,0.0,-0.3446534872055053,-0.406413733959198
