x_pos,y_pos,x_vel,y_vel,angle,ang_vel,leg_1,leg_2,main_booster,lat_booster
-0.0015487670898437,1.4031331539154053,-0.1568411886692047,-0.3460901379585266,0.0017562228022143,0.0346427895128726,0.0,0.0,-0.6368186918765486,0.9792044834027428
-0.0030414580833166,1.3948733806610107,-0.1488403975963592,-0.3671016991138458,0.0013373215915635,-0.0083780493587255,0.0,0.0,-0.8554372644675716,-0.765632831031783
-0.0046101571060717,1.3861160278320312,-0.1576118171215057,-0.3892169892787933,0.0020746027585119,0.0147471250966191,0.0,0.0,-0.3313377277482716,0.7281058301629245
-0.0061639784835278,1.3768649101257324,-0.154945969581604,-0.4111576676368713,0.0016356891719624,-0.0087790032848715,0.0,0.0,0.9083478619853718,0.8055634212363949
-0.0075263977050781,1.368255376815796,-0.1345476657152176,-0.3826433420181274,-3.778682366828434e-05,-0.0334726870059967,0.0,0.0,-0.473499699582131,0.719143677678409
-0.0088544841855764,1.3591532707214355,-0.1293458193540573,-0.4045386612415313,-0.0034674026537686,-0.0685986131429672,0.0,0.0,-0.9565859879947596,0.9541775879001
-0.0101475715637207,1.349560022354126,-0.1239928156137466,-0.4263963997364044,-0.0087191788479685,-0.1050454974174499,0.0,0.0,0.8849317121141962,-0.7985277806536546
-0.0113501548767089,1.3405832052230835,-0.1169755086302757,-0.398987352848053,-0.0119680669158697,-0.0649838075041771,0.0,0.0,0.8079162366040753,0.7248779362943837
-0.0125403404235839,1.3324956893920898,-0.1142539232969284,-0.3594882786273956,-0.0166833829134702,-0.0943148806691169,0.0,0.0,-0.4513485822866301,-0.8333320455625672
-0.0138395307585597,1.3239238262176514,-0.126842588186264,-0.3810137808322906,-0.0197344589978456,-0.0610267221927642,0.0,0.0,-0.7069866397069862,-0.6446660844660685
-0.0152279855683445,1.3148624897003174,-0.1368714570999145,-0.4027564227581024,-0.0216776598244905,-0.038867387920618,0.0,0.0,-0.1641953737581514,-0.786973940015094
-0.0167187694460153,1.305309772491455,-0.1485248059034347,-0.424569308757782,-0.0222257394343614,-0.0109625263139605,0.0,0.0,-0.249051409572478,0.921567609657606
-0.0181708335876464,1.2952675819396973,-0.1424347758293151,-0.4463640451431274,-0.0249731745570898,-0.054953783750534,0.0,0.0,-0.5951279355318637,-0.6971798557768336
-0.0197234153747558,1.2847293615341189,-0.153752788901329,-0.4683915972709656,-0.0264682304114103,-0.0299036800861358,0.0,0.0,0.5437678942743667,0.6998520390007006
-0.0211095809936523,1.274854063987732,-0.1360183805227279,-0.4389455616474151,-0.0290242619812488,-0.0511255972087383,0.0,0.0,0.6995229909784069,-0.7841417232779979
-0.0224805828183889,1.2649340629577637,-0.1363749653100967,-0.4409118294715881,-0.0297412816435098,-0.0143417660146951,0.0,0.0,0.1164969995876938,-0.935151126736492
-0.0238557811826467,1.2553983926773071,-0.1387297809123993,-0.4237781465053558,-0.0285491663962602,0.0238445159047842,0.0,0.0,-0.6926068828197598,-0.7502897427295118
-0.0253361705690622,1.2453669309616089,-0.1504437625408172,-0.4457983076572418,-0.0261768400669097,0.0474511757493019,0.0,0.0,0.6754284232765264,0.9900286274138888
-0.0266676899045705,1.236066818237305,-0.1337535232305526,-0.4133304059505462,-0.0255777891725301,0.0119820414111018,0.0,0.0,0.6586689624045783,0.8025238971216362
-0.0280742645263671,1.2271277904510498,-0.1395393759012222,-0.3973140716552734,-0.0266852844506502,-0.0221521202474832,0.0,0.0,-0.8108704776093392,-0.701496259919163
-0.0295898430049419,1.2177040576934814,-0.1516086161136627,-0.4188307821750641,-0.0266372263431549,0.0009613315341994,0.0,0.0,0.1476443029952805,0.9443245186618772
-0.0310804359614849,1.20824134349823,-0.1472651809453964,-0.4206049144268036,-0.028406424447894,-0.0353873968124389,0.0,0.0,-0.848687645939123,0.818766618194862
-0.0325612053275108,1.1982823610305786,-0.1443582326173782,-0.4426861107349396,-0.0320898070931434,-0.0736744478344917,0.0,0.0,-0.440759498009817,-0.7195056371967401
-0.0341631881892681,1.1878268718719482,-0.1578136831521988,-0.4647459685802459,-0.0344421751797199,-0.0470513775944709,0.0,0.0,0.233957279842208,0.7911371369163079
-0.0358789451420307,1.1776057481765747,-0.1675648689270019,-0.4543676078319549,-0.0384194701910018,-0.0795531496405601,0.0,0.0,0.4230672750053319,-0.6937624910471586
-0.0378395095467567,1.1677957773208618,-0.1932507902383804,-0.4360748529434204,-0.0411892794072628,-0.0553961805999279,0.0,0.0,0.343569366448587,-0.6803083746759315
-0.0399015434086322,1.1583871841430664,-0.2048516720533371,-0.4181970059871673,-0.0425242483615875,-0.0266992505639791,0.0,0.0,0.3512963092903209,0.7776730428924734
-0.0420703887939453,1.149510622024536,-0.2138855755329132,-0.3945986032485962,-0.0454866476356983,-0.05924803763628,0.0,0.0,-0.6231918119593545,0.8447850016816173
-0.044265367090702,1.1401463747024536,-0.2152408808469772,-0.4163263142108917,-0.0496852658689022,-0.0839724540710449,0.0,0.0,0.0336066015482954,0.7591949407158911
-0.0464804656803607,1.130741834640503,-0.2158030271530151,-0.4181808531284332,-0.0553221218287944,-0.1127372607588768,0.0,0.0,0.9753136093203716,0.9759977046874908
-0.0486186034977436,1.1223649978637695,-0.2062791883945465,-0.372599720954895,-0.0627734437584877,-0.1490263789892196,0.0,0.0,0.4218002316128351,-0.74071362350446
-0.0509488098323345,1.114070177078247,-0.226944237947464,-0.3689264357089996,-0.0687864199280738,-0.1202595010399818,0.0,0.0,0.0090124416988528,0.6234118083888204
-0.0533369071781635,1.1060236692428589,-0.2315010577440261,-0.3579705357551574,-0.0760169625282287,-0.1446110606193542,0.0,0.0,0.2033777990704366,-0.6503742865339064
-0.0558935180306434,1.097885251045227,-0.2496751248836517,-0.3620253503322601,-0.0819452330470085,-0.1185652613639831,0.0,0.0,-0.4561803832234052,0.7924949476067739
-0.0584721565246582,1.089249610900879,-0.2503341138362884,-0.3842333853244781,-0.0894072502851486,-0.1492402851581573,0.0,0.0,-0.6600410003233042,-0.8288594628349994
-0.0612011924386024,1.080137848854065,-0.2670817971229553,-0.4053251445293426,-0.0951777547597885,-0.1154102310538292,0.0,0.0,0.3764513495259771,-0.7816316158693621
-0.0640689879655838,1.0711097717285156,-0.2825785279273987,-0.4015229344367981,-0.0993367657065391,-0.0831804424524307,0.0,0.0,-0.7530205671295309,0.6091547898441788
-0.0669748336076736,1.0615875720977783,-0.2851884067058563,-0.4235793054103851,-0.104697048664093,-0.1072060242295265,0.0,0.0,0.3370713745162235,-0.6412803251913954
-0.0699848160147667,1.0526119470596311,-0.2969120740890503,-0.3992077708244324,-0.1087512820959091,-0.0810844600200653,0.0,0.0,-0.1806706868293077,-0.6296318269655349
-0.073133185505867,1.0431537628173828,-0.3120557367801666,-0.4205797016620636,-0.1115201339125633,-0.0553769245743751,0.0,0.0,0.759851188612056,0.7506314750608267
-0.0763454437255859,1.0344573259353638,-0.3167655766010284,-0.3868397772312164,-0.115956999361515,-0.0887372121214866,0.0,0.0,-0.6318717002868652,0.9085826873779296
-0.0795649513602256,1.0252530574798584,-0.3153727650642395,-0.4096077382564544,-0.1224924623966217,-0.1307092756032943,0.0,0.0,-0.699699878692627,0.8739712238311768
-0.0827993378043174,1.015533685684204,-0.3149126768112182,-0.4326955676078796,-0.1309722661972046,-0.1695962846279144,0.0,0.0,-0.8984671831130981,0.9558866024017334
-0.08604097366333,1.0053048133850098,-0.3135021924972534,-0.4555874466896057,-0.1415920853614807,-0.2123969793319702,0.0,0.0,-0.9759828448295592,0.9782127141952516
-0.0893073081970214,0.994559407234192,-0.3142437040805816,-0.4787963926792145,-0.1539574563503265,-0.2473074197769165,0.0,0.0,-0.963841438293457,0.9595816135406494
-0.0925895720720291,0.9832965731620787,-0.313869833946228,-0.5021241903305054,-0.1683123856782913,-0.28709876537323,0.0,0.0,-0.9601739048957824,-0.3138278722763061
-0.0959678664803505,0.9715447425842284,-0.3235886693000793,-0.5239779949188232,-0.1825866997241974,-0.2854862213134765,0.0,0.0,-0.9361289739608764,0.7893524169921875
-0.0993918403983116,0.959298849105835,-0.3269856572151184,-0.5462327599525452,-0.1980648040771484,-0.3095623552799225,0.0,0.0,-0.9665251970291138,0.7877644300460815
-0.102864071726799,0.9465572834014891,-0.3307304680347442,-0.5685862302780151,-0.2146955728530883,-0.3326157927513122,0.0,0.0,-0.7805660367012024,0.7861883640289307
-0.1063753142952919,0.9333067536354064,-0.3332603871822357,-0.5916141271591187,-0.232780635356903,-0.3617016077041626,0.0,0.0,-0.6173418164253235,0.7778360843658447
-0.1099102050065994,0.9195427894592284,-0.3338530361652374,-0.6149577498435974,-0.2527367174625397,-0.3991216421127319,0.0,0.0,-0.7687700986862183,-0.3849554657936096
-0.1135427504777908,0.9052924513816832,-0.3437864482402801,-0.6368265748023987,-0.2726242244243622,-0.3977508544921875,0.0,0.0,0.546356201171875,-0.301098108291626
-0.1170625686645507,0.8911152482032776,-0.3331505358219147,-0.633729875087738,-0.2919731438159942,-0.3869783282279968,0.0,0.0,0.5674200057983398,-0.4549844264984131
-0.1204598397016525,0.8775368332862854,-0.3210733234882355,-0.6073351502418518,-0.3112461566925049,-0.3854606449604034,0.0,0.0,0.1861696243286132,-0.4748292565345764
-0.1237463951110839,0.8639220595359802,-0.3106501698493957,-0.6090673208236694,-0.3299660980701446,-0.3743986189365387,0.0,0.0,0.7915655374526978,-0.6422069668769836
-0.1271199285984039,0.8506214618682861,-0.3205116391181946,-0.5950953960418701,-0.3475933372974396,-0.352544903755188,0.0,0.0,0.6631066799163818,-0.4296134710311889
-0.1302299499511718,0.83791583776474,-0.2947273850440979,-0.5687187910079956,-0.3647324740886688,-0.3427826762199402,0.0,0.0,-0.0039751529693603,0.0096018314361572
-0.1334386765956878,0.8247224688529968,-0.3047606945037842,-0.5905783176422119,-0.3818254470825195,-0.3418595492839813,0.0,0.0,0.6184792518615723,-0.3250696659088135
-0.1363780051469802,0.8121228218078613,-0.2782647013664245,-0.564272940158844,-0.3985380828380584,-0.3342524766921997,0.0,0.0,0.8934813737869263,-0.8103312253952026
-0.1392113715410232,0.8003786206245422,-0.2691910862922668,-0.5260090231895447,-0.4137206375598907,-0.3036512732505798,0.0,0.0,-0.339238166809082,-0.7581288814544678
-0.1421952247619629,0.78817218542099,-0.2857000231742859,-0.5462837219238281,-0.4274410903453827,-0.2744092941284179,0.0,0.0,0.7842926979064941,-0.4363876581192016
-0.1450626403093338,0.7765780687332153,-0.2736929953098297,-0.5193243622779846,-0.4416348338127136,-0.2838748395442962,0.0,0.0,0.5905115604400635,-0.356844425201416
-0.1477085053920745,0.7650936245918274,-0.2521528601646423,-0.5143989324569702,-0.4552558660507202,-0.2724208235740661,0.0,0.0,0.7720880508422852,-0.9562065005302428
-0.15020552277565,0.7540374994277954,-0.2392062246799469,-0.4948569238185882,-0.4668199121952057,-0.231280893087387,0.0,0.0,0.8089077472686768,-0.9539834856987
-0.1526640951633453,0.7431167960166931,-0.2372278273105621,-0.488292783498764,-0.4763695299625397,-0.1909925937652588,0.0,0.0,0.829920768737793,-0.9424515962600708
-0.1551215201616287,0.7327340245246887,-0.2387421131134033,-0.4638852477073669,-0.4841604828834533,-0.1558191925287246,0.0,0.0,0.8164284229278564,-0.7568613886833191
-0.1572659462690353,0.7231407165527344,-0.2089594602584839,-0.4283090531826019,-0.4902927875518799,-0.1226460188627243,0.0,0.0,0.9008982181549072,-0.8793061971664429
-0.1593224555253982,0.7134677767753601,-0.2019733488559723,-0.4312285184860229,-0.4944088160991668,-0.0823198109865188,0.0,0.0,0.916358470916748,-0.9634609222412108
-0.1610385924577713,0.7046493887901306,-0.1698157489299774,-0.3925740420818329,-0.4964330494403839,-0.0404841639101505,0.0,0.0,0.9908552169799804,-0.717058539390564
-0.1627378463745117,0.6962166428565979,-0.1691999584436416,-0.3750491440296173,-0.4972531497478485,-0.0164021793752908,0.0,0.0,0.9423868656158448,-0.8065527677536011
-0.1643114984035492,0.6884744167327881,-0.1579231023788452,-0.3439003229141235,-0.496627539396286,0.0125122908502817,0.0,0.0,0.9938013553619384,-0.6435701251029968
-0.1656320542097091,0.6812400221824646,-0.1338940262794494,-0.3208660781383514,-0.4945661723613739,0.0412265211343765,0.0,0.0,0.9828732013702391,-0.7106150984764099
-0.1667594909667968,0.6750175952911377,-0.1155431270599365,-0.2755413055419922,-0.4914209842681885,0.0629037469625473,0.0,0.0,0.9229426383972168,-0.6248268485069275
-0.1676263809204101,0.6691631078720093,-0.0908559709787368,-0.2587242722511291,-0.4867611229419708,0.0931974276900291,0.0,0.0,0.917913556098938,-0.7453734874725342
-0.1684651374816894,0.6634851098060608,-0.0893312916159629,-0.2504392266273498,-0.4806767106056213,0.1216880828142166,0.0,0.0,0.9658089876174928,-0.8213536739349365
-0.1691989004611969,0.6578069925308228,-0.0805173963308334,-0.249905452132225,-0.4727470874786377,0.1585924923419952,0.0,0.0,0.8891212940216064,-0.6927867531776428
-0.1699323654174804,0.6522144079208374,-0.0816864222288131,-0.2457415014505386,-0.4635176658630371,0.1845884025096893,0.0,0.0,0.9352887868881226,-0.8091690540313721
-0.1704043447971344,0.6474347710609436,-0.0570547692477703,-0.2091813832521438,-0.4526631236076355,0.2170903980731964,0.0,0.0,0.3558368682861328,-0.7514381408691406
-0.170656681060791,0.6430659890174866,-0.0366235449910163,-0.1905312985181808,-0.4401961863040924,0.2493396550416946,0.0,0.0,0.3583543300628662,-0.7439154982566833
-0.1708536148071289,0.639229953289032,-0.0324079059064388,-0.1665636003017425,-0.4263749718666076,0.2764242887496948,0.0,0.0,-0.4594911336898803,-0.7508283257484436
-0.1712037026882171,0.6349429488182068,-0.0494715236127376,-0.1862324625253677,-0.4107424616813659,0.3126505613327026,0.0,0.0,-0.355388879776001,-0.1539437770843505
-0.171638011932373,0.630168080329895,-0.0579129382967948,-0.2080917209386825,-0.3951893746852875,0.3110619187355041,0.0,0.0,0.0303689241409301,0.1227456331253051
-0.1720750778913498,0.6254385113716125,-0.0579261258244514,-0.206321582198143,-0.3800133466720581,0.3035202026367187,0.0,0.0,0.2294886112213134,0.3575749397277832
-0.1724437773227691,0.6209461092948914,-0.0509176030755043,-0.1959900557994842,-0.365116149187088,0.2979433238506317,0.0,0.0,-0.5408823490142822,-0.1265803575515747
-0.1728915274143219,0.6159655451774597,-0.0588176436722278,-0.2178481072187423,-0.3503144681453705,0.2960337996482849,0.0,0.0,-0.4326956272125244,0.7845818996429443
-0.1733501404523849,0.6104603409767151,-0.0581254251301288,-0.2417423576116562,-0.3374552726745605,0.2571838498115539,0.0,0.0,-0.683171272277832,0.6298558712005615
-0.1738367974758148,0.6044346690177917,-0.0595973916351795,-0.2652925848960876,-0.326048880815506,0.2281277924776077,0.0,0.0,-0.4848793745040893,-0.1012982130050659
-0.1743965148925781,0.5979197025299072,-0.0668379366397857,-0.287143737077713,-0.3147540688514709,0.2258960902690887,0.0,0.0,-0.7302555441856384,-0.1738983988761901
-0.1750269830226898,0.5909155607223511,-0.0738318189978599,-0.3089947700500488,-0.3035763204097748,0.2235557585954666,0.0,0.0,0.1317827701568603,-0.531919002532959
-0.1755852699279785,0.5837767720222473,-0.0677573829889297,-0.3148355782032013,-0.2912514209747314,0.2464982569217682,0.0,0.0,-0.1585342288017273,-0.3458288908004761
-0.1762087792158126,0.5761491060256958,-0.0742138847708702,-0.3366886973381042,-0.2790544033050537,0.2439403980970382,0.0,0.0,-0.7842559814453125,0.2942436933517456
-0.1768948584794998,0.568032443523407,-0.0803776830434799,-0.3585416078567505,-0.2669906914234161,0.2412744462490081,0.0,0.0,-0.8973408937454224,0.2551754713058471
-0.1776404380798339,0.5594267249107361,-0.0862327590584755,-0.38039430975914,-0.2550656795501709,0.2385003864765167,0.0,0.0,-0.4706811904907226,0.7457828521728516
-0.1783774346113205,0.5502980947494507,-0.0835243612527847,-0.4040390849113464,-0.245052307844162,0.2002673894166946,0.0,0.0,-0.0082793831825256,0.0664577484130859
-0.1791674643754959,0.5406798720359802,-0.0887118130922317,-0.4258881211280823,-0.2351884394884109,0.1972775608301162,0.0,0.0,0.3864452838897705,0.54024338722229
-0.1797210723161697,0.5315925478935242,-0.0640317648649215,-0.4025205373764038,-0.226388618350029,0.1759960055351257,0.0,0.0,-0.6297228336334229,0.2347927093505859
-0.1803206503391266,0.5220151543617249,-0.068486787378788,-0.4243677258491516,-0.2177491188049316,0.1727897822856903,0.0,0.0,0.4002926349639892,0.7667772769927979
-0.1808715760707855,0.5129608511924744,-0.0617985241115093,-0.4014450907707214,-0.2109825909137725,0.1353304535150528,0.0,0.0,-0.9901541471481324,0.1453936100006103
-0.1814608573913574,0.5034161806106567,-0.0654565393924713,-0.4232897162437439,-0.2043872028589248,0.131908044219017,0.0,0.0,0.6644189357757568,0.0495527982711792
-0.181983470916748,0.4945077300071716,-0.0583832375705242,-0.3950977921485901,-0.1982178390026092,0.123387336730957,0.0,0.0,-0.7917516231536865,0.4735655784606933
-0.1825358420610427,0.4851088523864746,-0.061184138059616,-0.4169418215751648,-0.1922303736209869,0.1197492852807045,0.0,0.0,0.0276559591293334,-0.1409853100776672
-0.183069422841072,0.4756800532341003,-0.0590644255280494,-0.4183284640312195,-0.1865017414093017,0.1145725026726722,0.0,0.0,-0.7385533452033997,0.0930818319320678
-0.1836237907409668,0.4657608270645141,-0.0609537959098815,-0.440172016620636,-0.180965706706047,0.1107205599546432,0.0,0.0,0.8685908317565918,0.43135666847229
-0.1842550337314605,0.4562710225582123,-0.0676632598042488,-0.4212226271629333,-0.1764147728681564,0.0910185426473617,0.0,0.0,-0.5185473561286926,0.7759685516357422
-0.1848260909318924,0.4462760388851166,-0.0596202984452247,-0.4439246952533722,-0.1738934367895126,0.0504263155162334,0.0,0.0,0.7755934000015259,-0.0611968636512756
-0.1852700263261795,0.4363589286804199,-0.0470087677240371,-0.4404532015323639,-0.1712755262851715,0.0523581318557262,0.0,0.0,0.5319404602050781,-0.1807652115821838
-0.185462474822998,0.4269623458385467,-0.0222587957978248,-0.4172804653644562,-0.168249025940895,0.0605298988521099,0.0,0.0,0.1255480051040649,0.0295609235763549
-0.1855781525373459,0.4178607761859894,-0.0143069326877594,-0.404208779335022,-0.1655132621526718,0.0547156818211078,0.0,0.0,-0.8369905948638916,0.0781855583190918
-0.1856854408979416,0.4082684218883514,-0.0132387857884168,-0.4260503351688385,-0.1630010455846786,0.0502444580197334,0.0,0.0,-0.1433137059211731,-0.0530443787574768
-0.185779184103012,0.3981851637363434,-0.0116631379351019,-0.4478918313980102,-0.1607172638177871,0.0456753857433795,0.0,0.0,0.8326288461685181,0.8219579458236694
-0.1856532096862793,0.3889468610286712,0.0122117633000016,-0.410551369190216,-0.1603249907493591,0.0078454073518514,0.0,0.0,0.6554386615753174,0.2167098522186279
-0.1853177100419998,0.3803715705871582,0.0331174917519092,-0.38107430934906,-0.1598895192146301,0.0087094381451606,0.0,0.0,0.1958352327346801,0.5807666778564453
-0.1847922354936599,0.3717677593231201,0.0533999502658844,-0.3824852705001831,-0.160746619105339,-0.0171423517167568,0.0,0.0,-0.1019511222839355,0.0591107606887817
-0.1842335760593414,0.3626731634140014,0.0569758489727973,-0.4043265283107757,-0.1618505418300628,-0.0220787189900875,0.0,0.0,-0.0746452212333679,-0.4749222993850708
-0.1836367547512054,0.3530877232551574,0.0610346309840679,-0.4261678457260132,-0.1632055193185806,-0.0270996149629354,0.0,0.0,0.6120121479034424,-0.5312203168869019
-0.182971566915512,0.3438409566879272,0.0671335458755493,-0.4110324084758758,-0.1638112515211105,-0.0121145509183406,0.0,0.0,0.4459114074707031,-0.4326680898666382
-0.1821603775024414,0.3347887694835663,0.081877514719963,-0.4024020731449127,-0.1645708978176117,-0.0151928458362817,0.0,0.0,-0.2965589761734009,-0.6462631821632385
-0.1813376396894455,0.3252498209476471,0.08229411393404,-0.4239534139633178,-0.1645831614732742,-0.000245166622335,0.0,0.0,0.1884379386901855,-0.6775694489479065
-0.1803528815507888,0.3159447014331817,0.0972875505685806,-0.41342893242836,-0.1633983552455902,0.0236958526074886,0.0,0.0,0.3616318702697754,-0.2039476037025451
-0.179179385304451,0.3071277439594269,0.1163352504372596,-0.3917545080184936,-0.1623876392841339,0.0202141758054494,0.0,0.0,-0.7158312201499939,-0.3334587216377258
