x_pos,y_pos,x_vel,y_vel,angle,ang_vel,leg_1,leg_2,main_booster,lat_booster
-0.0016483307117596,1.4034886360168457,-0.1669956743717193,-0.3302859365940094,0.001940919086337,0.0382996425032615,0.0,0.0,-0.330651341592705,0.9493674718174728
-0.0033418654929846,1.3959403038024902,-0.1692944318056106,-0.3354860246181488,0.0018804988358169,-0.0012076726416125,0.0,0.0,0.6210381693732281,-0.8430317540375334
-0.0050834654830396,1.3888441324234009,-0.1761358678340912,-0.3153836131095886,0.0038344974163919,0.0390834845602512,0.0,0.0,-0.5190834623127951,-0.8914626515410886
-0.0070364000275731,1.3816088438034058,-0.1994919180870056,-0.3215839564800262,0.0079844715073704,0.0830073580145835,0.0,0.0,-0.8375801456020706,-0.7603663437108085
-0.0091644283384084,1.3742400407791138,-0.218285247683525,-0.3275437653064728,0.0134032536298036,0.1083855256438255,0.0,0.0,-0.5127423222361966,0.8059976039085122
-0.0113432882353663,1.3667361736297607,-0.2214681357145309,-0.3335454165935516,0.0169504843652248,0.0709508880972862,0.0,0.0,-0.9162425134983584,0.6270627969883252
-0.0136035922914743,1.3590977191925049,-0.2284956872463226,-0.3395143449306488,0.0193905737251043,0.0488062277436256,0.0,0.0,0.2339307680121531,0.921990159938724
-0.0158004760742187,1.3520567417144775,-0.2204817831516266,-0.3129395544528961,0.0201716572046279,0.0156232584267854,0.0,0.0,0.459584755899654,-0.6087087274435878
-0.0182016380131244,1.3459935188293457,-0.2421859204769134,-0.269506961107254,0.0222190972417593,0.0409524403512477,0.0,0.0,0.3872339885258056,0.7300484628220151
-0.0206896774470806,1.3407155275344849,-0.2495014667510986,-0.2345894426107406,0.0229050610214471,0.0137205440551042,0.0,0.0,-0.5516820127350537,-0.9056622589573644
-0.0233691222965717,1.3353002071380615,-0.2702935636043548,-0.2407166063785553,0.0252179149538278,0.0462615191936492,0.0,0.0,0.6680675774063898,0.6859805459926636
-0.0260609630495309,1.3305528163909912,-0.2704130113124847,-0.2110251784324646,0.0264361463487148,0.0243669860064983,0.0,0.0,-0.2326128922414343,0.8455158637024006
-0.0288025848567485,1.3256769180297852,-0.2734229564666748,-0.2166962921619415,0.0257036387920379,-0.0146514307707548,0.0,0.0,-0.324950122142738,0.8462284828877841
-0.0316006653010845,1.3206602334976196,-0.277263343334198,-0.2229198515415191,0.0231899768114089,-0.0502777509391307,0.0,0.0,0.6299133589669437,0.8101754117670507
-0.0343306548893451,1.3167436122894287,-0.2692082524299621,-0.1740195900201797,0.0194365791976451,-0.0750752538442611,0.0,0.0,0.1045848675730674,-0.8770887118973067
-0.0371789932250976,1.312979221343994,-0.2829039692878723,-0.1672782003879547,0.0175406988710165,-0.0379209034144878,0.0,0.0,-0.6787176585389623,0.7032962054398374
-0.0400902740657329,1.309089183807373,-0.2875732779502868,-0.1728476881980896,0.0140163851901888,-0.0704926997423172,0.0,0.0,-0.0915257601834917,0.8322361794737858
-0.0430516228079795,1.3050585985183716,-0.2905913591384887,-0.1791022419929504,0.0085393050685524,-0.1095514670014381,0.0,0.0,-0.6963240552353729,0.9246116275173748
-0.0460594184696674,1.3009026050567627,-0.29317107796669,-0.1846914589405059,0.001019108807668,-0.1504175215959549,0.0,0.0,0.6774115359580013,0.7690432516216665
-0.0492281913757324,1.2974729537963867,-0.3076353669166565,-0.15243960916996,-0.0081177363172173,-0.1827532947063446,0.0,0.0,-0.9549510672992354,0.7561146504452729
-0.0524556152522563,1.29391348361969,-0.3117482960224151,-0.1582923382520675,-0.0189852863550186,-0.2173706293106079,0.0,0.0,0.3710697886543177,-0.9250217689222022
-0.0558691024780273,1.2907668352127075,-0.3323131501674652,-0.1399896889925003,-0.0279166400432586,-0.1786430776119232,0.0,0.0,-0.3773178230702951,0.83697895498375
-0.0593331344425678,1.2874810695648191,-0.3354135751724243,-0.1462756991386413,-0.0387831479310989,-0.2173498421907425,0.0,0.0,0.9906516629513792,0.7062786854420539
-0.0627669319510459,1.2846084833145142,-0.3313102126121521,-0.1280216723680496,-0.050737764686346,-0.239113762974739,0.0,0.0,0.421947493126326,0.6016440124547483
-0.0663889870047569,1.282440185546875,-0.348724901676178,-0.0968800038099289,-0.0640852004289627,-0.2669726014137268,0.0,0.0,-0.9450725231840688,-0.6721889355654422
-0.070208266377449,1.280126690864563,-0.370204359292984,-0.1033724993467331,-0.0756822302937507,-0.2319405376911163,0.0,0.0,0.3045187445763622,-0.8099262311893833
-0.0741747841238975,1.2785484790802002,-0.3866692781448364,-0.0706738755106926,-0.085575982928276,-0.1978749930858612,0.0,0.0,-0.2743823302820303,-0.8088080510284771
-0.0783488303422927,1.2768540382385254,-0.4094827771186828,-0.0757863521575927,-0.0934220626950264,-0.1569213569164276,0.0,0.0,-0.7797443094485954,-0.8051926024953766
-0.082729622721672,1.2750418186187744,-0.4322222173213959,-0.080925278365612,-0.0992305651307106,-0.1161700263619422,0.0,0.0,-0.4984448889814823,0.9831841110458556
-0.0871657356619834,1.273079514503479,-0.435933917760849,-0.0877472311258316,-0.106850616633892,-0.1524012684822082,0.0,0.0,0.3917180709972803,-0.7957939890761344
-0.0916996002197265,1.2720617055892944,-0.4474115967750549,-0.0456766225397586,-0.1127760931849479,-0.1185096502304077,0.0,0.0,-0.6001548556667229,-0.6297724792284203
-0.0964185744524002,1.2709141969680786,-0.4674475789070129,-0.0513450354337692,-0.1172049865126609,-0.0885777696967125,0.0,0.0,0.5810909642822994,-0.9504320488195755
-0.1013392433524131,1.2708114385604858,-0.489493191242218,-0.0047694682143628,-0.1197607889771461,-0.0511160418391227,0.0,0.0,-0.031363188406702,-0.6278594623023128
-0.1064431220293045,1.2705771923065186,-0.50928795337677,-0.0105055356398224,-0.1208561584353447,-0.021907452493906,0.0,0.0,0.3115207181628319,-0.878146246780005
-0.1116688698530197,1.270959973335266,-0.5233242511749268,0.017077000811696,-0.1201096028089523,0.0149308843538165,0.0,0.0,0.570422334749247,0.7656678551909256
-0.1168560981750488,1.2722690105438232,-0.5180500745773315,0.0581234581768512,-0.1207804158329963,-0.0134159224107861,0.0,0.0,-0.9598357392862564,0.995123135235101
-0.1220957785844802,1.273423433303833,-0.5214501023292542,0.0511065050959587,-0.1232795938849449,-0.0499834381043911,0.0,0.0,-0.2064065433650104,-0.7017787097340803
-0.1275125443935394,1.2744569778442385,-0.5405639410018921,0.0458464883267879,-0.1243912577629089,-0.0222333241254091,0.0,0.0,-0.4810222413445948,0.917931466072958
-0.1329864561557769,1.2753523588180542,-0.5446367263793945,0.0395585149526596,-0.1271398961544037,-0.0549726672470569,0.0,0.0,0.4553949101560339,0.7918523591760459
-0.1384274512529373,1.2768925428390503,-0.5398546457290649,0.0680835768580436,-0.1313580423593521,-0.0843629166483879,0.0,0.0,-0.7569396819154144,0.7454544736543374
-0.143943503499031,1.2782937288284302,-0.5462215542793274,0.061794240027666,-0.1367290019989013,-0.107419267296791,0.0,0.0,-0.0628612041473388,-0.9321280121803284
-0.1496409475803375,1.279569387435913,-0.5659064650535583,0.0563347600400447,-0.1405519098043441,-0.0764582753181457,0.0,0.0,-0.6278098225593567,0.0675837993621826
-0.1554605513811111,1.2807092666625977,-0.5781912207603455,0.0503006502985954,-0.1443077623844146,-0.0751168429851532,0.0,0.0,-0.5674303770065308,-0.6903905272483826
-0.1614465713500976,1.281721830368042,-0.5960589051246643,0.0447532907128334,-0.1468456387519836,-0.0507579632103443,0.0,0.0,-0.3206925988197326,-0.1947960257530212
-0.1675527542829513,1.282598614692688,-0.60814368724823,0.038719855248928,-0.1493187695741653,-0.0494625344872474,0.0,0.0,-0.7414166927337646,0.4217324256896972
-0.1737780570983886,1.283339500427246,-0.6201183199882507,0.0326864533126354,-0.1517283022403717,-0.0481903180480003,0.0,0.0,-0.2287338972091674,0.7101523876190186
-0.1800605803728103,1.2839268445968628,-0.6243365406990051,0.0256996918469667,-0.1556421369314193,-0.0782767608761787,0.0,0.0,-0.1977998614311218,0.2895667552947998
-0.1864598244428634,1.2843784093856812,-0.6360689401626587,0.0196655299514532,-0.1594947725534439,-0.0770525783300399,0.0,0.0,-0.7592669725418091,0.4288768768310547
-0.1929744780063629,1.2846944332122805,-0.6476685404777527,0.0136314099654555,-0.1632874459028244,-0.0758533254265785,0.0,0.0,-0.2567675113677978,-0.2867765426635742
-0.1996029913425445,1.284874677658081,-0.6591270565986633,0.007597332354635,-0.1670214384794235,-0.0746795982122421,0.0,0.0,-0.4561874866485595,0.5371925830841064
-0.2062922418117523,1.2849061489105225,-0.6639233827590942,0.0008248256635852,-0.172030508518219,-0.1001812815666198,0.0,0.0,-0.8626518249511719,0.4668742418289184
-0.2130923718214035,1.284801959991455,-0.6750739216804504,-0.005210131406784,-0.1769835501909256,-0.0990606620907783,0.0,0.0,-0.7035364508628845,0.6955678462982178
-0.2199383229017257,1.2845414876937866,-0.6780670881271362,-0.0123725645244121,-0.1835320442914962,-0.130970299243927,0.0,0.0,-0.4856116771697998,0.6319825649261475
-0.2268415987491607,1.284137725830078,-0.6825982332229614,-0.018921822309494,-0.1912981420755386,-0.1553220748901367,0.0,0.0,-0.5728273391723633,0.0061068534851074
-0.2338504344224929,1.283598780632019,-0.6932176351547241,-0.0249596517533063,-0.1990125328302383,-0.1542879492044448,0.0,0.0,-0.6974064111709595,0.3226625919342041
-0.2409628927707672,1.2829248905181885,-0.7036398649215698,-0.0309974011033773,-0.2066767811775207,-0.153284877538681,0.0,0.0,-0.0711622834205627,0.3040947914123535
-0.2481768578290939,1.282115817070007,-0.7138547301292419,-0.0370350740849971,-0.2142924815416336,-0.1523137092590332,0.0,0.0,0.3083935976028442,0.7802636623382568
-0.2551953792572021,1.2818987369537354,-0.692959725856781,-0.0109691256657242,-0.223283365368843,-0.179817646741867,0.0,0.0,-0.6414557099342346,0.0800355672836303
-0.2623109221458435,1.281546711921692,-0.7027289271354675,-0.0170085821300745,-0.2322290241718292,-0.1789131462574005,0.0,0.0,0.2470111846923828,0.4826521873474121
-0.2694406509399414,1.2819455862045288,-0.7039390802383423,0.0162712708115577,-0.2413971424102783,-0.1833627820014953,0.0,0.0,0.1202681064605712,0.4129660129547119
-0.276568740606308,1.2825628519058228,-0.7040029168128967,0.0259586703032255,-0.2503630816936493,-0.1793185323476791,0.0,0.0,-0.4816407561302185,0.4668420553207397
-0.2837864756584167,1.2830451726913452,-0.713021993637085,0.0199192762374877,-0.2592891752719879,-0.1785224378108978,0.0,0.0,-0.0757715702056884,0.1197991371154785
-0.2910911440849304,1.2833926677703855,-0.7217693328857422,0.0138799399137496,-0.2681774199008941,-0.1777643263339996,0.0,0.0,0.0438235998153686,0.646392822265625
-0.2983116209506988,1.2841395139694214,-0.7121520638465881,0.031346783041954,-0.2783204913139343,-0.2028612643480301,0.0,0.0,0.1678612232208252,0.785621166229248
-0.3054707646369934,1.2851269245147705,-0.7045363187789917,0.0416755117475986,-0.2900237441062927,-0.234065368771553,0.0,0.0,-0.3182355165481567,0.4361428022384643
-0.3127079606056213,1.285980224609375,-0.7124074101448059,0.0356315709650516,-0.3016950786113739,-0.2334266006946563,0.0,0.0,-0.0765872597694397,0.656785249710083
-0.3199672698974609,1.2866828441619873,-0.7133617401123047,0.0285742171108722,-0.3147129714488983,-0.2603578269481659,0.0,0.0,-0.1134164929389953,0.5259898900985718
-0.3272547125816345,1.2872244119644165,-0.7150806784629822,0.0210365485399961,-0.328928530216217,-0.2843111157417297,0.0,0.0,0.4345638751983642,0.6638888120651245
-0.3342951834201813,1.2886545658111572,-0.6892353296279907,0.0601121522486209,-0.3444190919399261,-0.3098114132881164,0.0,0.0,-0.2201662063598632,-0.237183928489685
-0.3414002954959869,1.2899518013000488,-0.6958040595054626,0.0540601387619972,-0.3598863184452057,-0.3093445599079132,0.0,0.0,-0.1114873886108398,0.5365395545959473
-0.3485325872898102,1.2910996675491333,-0.6977432370185852,0.0470405220985412,-0.3762637674808502,-0.3275487720966339,0.0,0.0,-0.2572228908538818,0.1759368181228637
-0.3557223677635193,1.2921150922775269,-0.7036108374595642,0.0409864298999309,-0.3926223814487457,-0.3271723985671997,0.0,0.0,0.0069817304611206,0.0605347156524658
-0.3628415465354919,1.293756127357483,-0.6963351964950562,0.068546138703823,-0.4093277156352997,-0.3341068029403686,0.0,0.0,-0.0353137254714965,0.0343595743179321
-0.3700109124183655,1.2952650785446167,-0.7014755010604858,0.062491375952959,-0.4260188341140747,-0.3338220715522766,0.0,0.0,-0.367858350276947,-0.1461089849472046
-0.3772266805171966,1.2966413497924805,-0.706244170665741,0.056436751037836,-0.4426980018615722,-0.3335831761360168,0.0,0.0,0.0332289934158325,-0.1760170459747314
-0.38435959815979,1.2981334924697876,-0.6982656121253967,0.0614707693457603,-0.459170788526535,-0.3294556140899658,0.0,0.0,0.116451621055603,-0.3369534015655517
-0.3914487957954407,1.2998155355453491,-0.6939381957054138,0.0697257295250892,-0.4757349491119385,-0.3312830626964569,0.0,0.0,0.0809161663055419,-0.5156022906303406
-0.3983751833438873,1.3020927906036377,-0.6787469387054443,0.0963568538427352,-0.491215169429779,-0.3096045255661011,0.0,0.0,-0.0647171139717102,-0.0465978980064392
-0.4053328931331634,1.3042371273040771,-0.6819984912872314,0.0903054922819137,-0.5066923499107361,-0.3095441162586212,0.0,0.0,0.0254205465316772,-0.3971999883651733
-0.4121328294277191,1.3069645166397097,-0.6660536527633667,0.1159714609384536,-0.5224908590316772,-0.3159701228141784,0.0,0.0,-0.3550187349319458,-0.2850826978683471
-0.418956458568573,1.309558987617493,-0.668544590473175,0.1099195033311843,-0.5382904410362244,-0.3159923851490021,0.0,0.0,-0.3715180158615112,-0.5548825860023499
-0.4258328378200531,1.3120557069778442,-0.6749101877212524,0.1058168932795524,-0.5529841780662537,-0.2938756048679352,0.0,0.0,-0.1172046661376953,-0.3787645697593689
-0.4327255189418793,1.3144190311431885,-0.6766456365585327,0.0997675135731697,-0.5676830410957336,-0.2939767241477966,0.0,0.0,-0.0507258176803588,-0.3758619427680969
-0.4396306574344635,1.316649079322815,-0.6780097484588623,0.0937181562185287,-0.5823887586593628,-0.2941144704818725,0.0,0.0,0.1339930295944214,-0.422564148902893
-0.4462875425815582,1.3193538188934326,-0.6532605290412903,0.1146780550479888,-0.5971411466598511,-0.2950475215911865,0.0,0.0,0.1322944164276123,-0.2169880867004394
-0.452675998210907,1.3223693370819092,-0.626765251159668,0.1284753978252411,-0.611627459526062,-0.2897260785102844,0.0,0.0,-0.0339857339859008,-0.6874902248382568
-0.4591109156608581,1.3252902030944824,-0.6326856017112732,0.1246953308582305,-0.6247093677520752,-0.2616383731365204,0.0,0.0,-0.2041605114936828,-0.4865335822105407
-0.4655442237854004,1.3280770778656006,-0.6326166391372681,0.1186492890119552,-0.6378047466278076,-0.2619077861309051,0.0,0.0,-0.1172248125076294,-0.605789303779602
-0.472001165151596,1.3307616710662842,-0.63587486743927,0.1144059747457504,-0.6499196290969849,-0.2422972172498703,0.0,0.0,-0.0529453158378601,-0.5194463133811951
-0.4784762859344482,1.3333369493484497,-0.6384562253952026,0.1098231896758079,-0.6611868739128113,-0.2253465205430984,0.0,0.0,0.1936876773834228,-0.4623286724090576
-0.484609991312027,1.3364243507385254,-0.604365885257721,0.1324999183416366,-0.672490656375885,-0.2260760366916656,0.0,0.0,-0.1214247345924377,-0.2463661432266235
-0.4907291829586029,1.3393772840499878,-0.6029862761497498,0.1264568269252777,-0.6838131546974182,-0.2264486849308014,0.0,0.0,0.0898395776748657,-0.589323103427887
-0.4965163171291351,1.3426657915115356,-0.570947527885437,0.1418917328119278,-0.6937438249588013,-0.1986118257045745,0.0,0.0,-0.2449578046798706,-0.5356660485267639
-0.5023122429847717,1.3458482027053833,-0.5726218819618225,0.1375501453876495,-0.702722430229187,-0.1795721799135208,0.0,0.0,-0.2288883924484253,-0.5293475985527039
-0.5081198811531067,1.3489378690719604,-0.5747966766357422,0.1339277327060699,-0.7104544043540955,-0.1546398252248764,0.0,0.0,-0.2213577628135681,-0.5246050357818604
-0.5139254331588745,1.3519312143325806,-0.5753911733627319,0.1300528347492218,-0.7172002196311951,-0.1349159330129623,0.0,0.0,-0.2358442544937133,-0.5067006349563599
-0.5197336077690125,1.3548293113708496,-0.5765489339828491,0.1263055503368377,-0.7228033542633057,-0.1120631322264671,0.0,0.0,-0.3172729611396789,-0.2501099109649658
-0.5255112051963806,1.357591986656189,-0.5734973549842834,0.1202685609459877,-0.7284305095672607,-0.1125427037477493,0.0,0.0,-0.2492183446884155,-0.3761284947395324
-0.5312559008598328,1.3602195978164673,-0.5702064037322998,0.1142315119504928,-0.7340822815895081,-0.1130351275205612,0.0,0.0,-0.1613673567771911,-0.6000829339027405
-0.537000834941864,1.362765550613403,-0.571325421333313,0.1112444624304771,-0.7382977604866028,-0.0843100845813751,0.0,0.0,-0.1821014285087585,-0.2639265060424804
-0.5427084565162659,1.3651763200759888,-0.5675877332687378,0.1052082255482673,-0.7425389885902405,-0.0848248153924942,0.0,0.0,0.0030940771102905,-0.3460745811462402
-0.5481833219528198,1.3678009510040283,-0.5442605018615723,0.1146705672144889,-0.7468762993812561,-0.0867465212941169,0.0,0.0,-0.3471582531929016,-0.3932132720947265
-0.5536169409751892,1.3702905178070068,-0.5401219129562378,0.1086342185735702,-0.7512402534484863,-0.0872787684202194,0.0,0.0,-0.2064799666404724,-0.6995096206665039
-0.559057354927063,1.372712254524231,-0.5422350168228149,0.1065090000629425,-0.7536811232566833,-0.0488177016377449,0.0,0.0,-0.4275505542755127,-0.5596297979354858
-0.5644773244857788,1.375037431716919,-0.5409371256828308,0.1026766151189804,-0.7551126480102539,-0.0286303870379924,0.0,0.0,-0.2084484100341797,-0.2750216722488403
-0.5698508620262146,1.377226948738098,-0.5362773537635803,0.096641220152378,-0.7565717697143555,-0.029182618483901,0.0,0.0,-0.1151431798934936,-0.4735407829284668
-0.575176477432251,1.3792811632156372,-0.5314655900001526,0.0906058102846145,-0.7580587863922119,-0.0297402385622262,0.0,0.0,0.1568729877471923,-0.6027858257293701
-0.5801233053207397,1.3818613290786743,-0.4945575594902038,0.1145947203040123,-0.758239209651947,-0.0036087862681597,0.0,0.0,-0.3633577823638916,-0.338211178779602
-0.5850196480751038,1.3843060731887815,-0.4894731938838959,0.1085593998432159,-0.7584479451179504,-0.0041748331859707,0.0,0.0,-0.45401132106781,-0.3226858973503113
-0.5898640155792236,1.386615514755249,-0.4842677712440491,0.1025240793824195,-0.7586851716041565,-0.0047440500929951,0.0,0.0,-0.3475091457366943,-0.4987382292747497
-0.594655454158783,1.388789176940918,-0.4789512157440185,0.096488744020462,-0.75895094871521,-0.0053158649243414,0.0,0.0,-0.544802725315094,-0.5399742126464844
-0.5994178652763367,1.390869379043579,-0.4768254160881042,0.092826060950756,-0.7581502795219421,0.0160130895674228,0.0,0.0,-0.5798283219337463,-0.1580066680908203
-0.6041253209114075,1.392814040184021,-0.4713160991668701,0.0867906808853149,-0.7573783993721008,0.01543749589473,0.0,0.0,-0.3835545182228088,-0.4550344944000244
-0.6087771058082581,1.3946233987808228,-0.4657245278358459,0.0807553008198738,-0.7566353678703308,0.0148608041927218,0.0,0.0,-0.5245822072029114,-0.3882719278335571
-0.6133724451065063,1.3962970972061155,-0.4600599408149719,0.074719913303852,-0.7559211850166321,0.0142834680154919,0.0,0.0,-0.5373492240905762,-0.4712149500846863
-0.6179106831550598,1.3978352546691897,-0.454331487417221,0.0686845406889915,-0.7552358508110046,0.0137061029672622,0.0,0.0,-0.4414350986480713,-0.2631472945213318
-0.6223913431167603,1.399238109588623,-0.4485481679439544,0.062649168074131,-0.7545793652534485,0.0131295723840594,0.0,0.0,-0.4439289569854736,-0.3832437396049499
-0.6268138885498047,1.400505542755127,-0.4427187442779541,0.0566138066351413,-0.7539516687393188,0.0125541118904948,0.0,0.0,-0.6088674068450928,-0.2837111949920654
-0.6311780214309692,0.0,-0.4368517994880676,0.0505784526467323,-0.7533526420593262,0.0119806658476591,0.0,0.0,-0.64508056640625,-0.2731275558471679
-0.6354833245277405,1.402633547782898,-0.430955708026886,0.0445430986583232,-0.7527821660041809,0.0114090582355856,0.0,0.0,-0.5578264594078064,-0.1934295892715454
