x_pos,y_pos,x_vel,y_vel,angle,ang_vel,leg_1,leg_2,main_booster,lat_booster
-0.0015173911815509,1.403164982795715,-0.153731569647789,-0.3446713984012604,0.0017911753384396,0.0353343077003955,0.0,0.0,-0.7119957522207847,0.5429517383054046
-0.0029821395874023,1.3949710130691528,-0.1470808088779449,-0.3641753494739532,0.0023910012096166,0.011998338624835,0.0,0.0,0.898586308824946,0.5412896749530647
-0.0042360303923487,1.3870103359222412,-0.125441089272499,-0.3538098633289337,0.0024370427709072,0.0009211145224981,0.0,0.0,-0.0324100109666321,-0.6804734216086762
-0.0055475234985351,1.3785876035690308,-0.1328407227993011,-0.3743519783020019,0.0041073835454881,0.0334096774458885,0.0,0.0,0.0172709589030326,-0.969854400861902
-0.0068348883651196,1.3703107833862305,-0.132338285446167,-0.3678671717643738,0.007675303146243,0.0713651031255722,0.0,0.0,0.6153460556899255,0.9457808739112928
-0.0078942300751805,1.3623725175857544,-0.1078826338052749,-0.3528305888175964,0.0095919258892536,0.0383360721170902,0.0,0.0,-0.8963860210534105,0.9534408288347288
-0.0088749881833791,1.353975534439087,-0.0981775820255279,-0.3731978833675384,0.0096942568197846,0.0020465753041207,0.0,0.0,0.1163303331131873,-0.9312512546209176
-0.0098076816648244,1.345778226852417,-0.0952594131231308,-0.3643358945846557,0.0116635765880346,0.0393901653587818,0.0,0.0,-0.2938062066463316,-0.5018185361508182
-0.0107743265107274,1.3371262550354004,-0.0996701195836067,-0.384559690952301,0.0146388448774814,0.0595107190310955,0.0,0.0,-0.3030485359393762,0.634364336204964
-0.0116846086457371,1.328020095825195,-0.0927634686231613,-0.4047417938709259,0.0163483899086713,0.0341942086815834,0.0,0.0,0.4559954334428002,-0.5336961779632576
-0.0125572206452488,1.3192415237426758,-0.0902502983808517,-0.3901949226856231,0.0193110778927803,0.059259295463562,0.0,0.0,0.0499091915781231,0.675524751903522
-0.0133253093808889,1.3105084896087646,-0.078500211238861,-0.3881583213806152,0.0209710355848073,0.033202089369297,0.0,0.0,0.3132706427392742,0.6597090063182431
-0.0139320371672511,1.302158236503601,-0.0612129345536232,-0.3711224198341369,0.0215078126639127,0.0107367420569062,0.0,0.0,-0.3363294745333605,-0.8492568563451008
-0.014591502957046,1.2933388948440552,-0.0679728686809539,-0.3920066058635711,0.0235099699348211,0.0400468781590461,0.0,0.0,0.0964114976336949,-0.9969943752069608
-0.0152243617922067,1.2848920822143557,-0.0672516226768493,-0.3754821121692657,0.0274353511631488,0.0785147994756698,0.0,0.0,-0.5676400516371682,0.6652827147847231
-0.0157887451350688,1.2759804725646973,-0.058795791119337,-0.3961158692836761,0.0297648888081312,0.0465948060154914,0.0,0.0,0.714494607888368,0.5812701804568845
-0.016174029558897,1.2679561376571655,-0.0400963686406612,-0.3566667139530182,0.0313089378178119,0.0308839231729507,0.0,0.0,-0.704468686898081,-0.5992744389400867
-0.0165890697389841,1.2594653367996216,-0.0439467206597328,-0.3774195909500122,0.033717930316925,0.0481844395399093,0.0,0.0,-0.5624640868716295,0.905584514525322
-0.0169151313602924,1.2505279779434204,-0.0328841693699359,-0.3972221612930298,0.0339886918663978,0.0054158074781298,0.0,0.0,0.3991874678597766,0.8831040955185987
-0.0172591209411621,1.241848707199097,-0.0327625088393688,-0.3857012391090393,0.0323694348335266,-0.0323878452181816,0.0,0.0,-0.8092318510817169,0.6845390079178104
-0.017531394958496,1.2327183485031128,-0.02387211099267,-0.4057283997535705,0.0290456730872392,-0.066481314599514,0.0,0.0,-0.3848762593319172,0.621079992660293
-0.0177473071962595,1.2231272459030151,-0.0169030539691448,-0.4261821806430816,0.0244039595127105,-0.0928422957658767,0.0,0.0,-0.9368927129335198,0.9271578933236646
-0.0178679469972848,1.2130793333053589,-0.0050352765247225,-0.4464803040027618,0.0174583941698074,-0.1389235854148864,0.0,0.0,0.7833209412713826,0.8713807927789179
-0.0178356170654296,1.203072190284729,0.0119184991344809,-0.4446798861026764,0.0088631091639399,-0.1719209849834442,0.0,0.0,0.3496857849238706,0.556472293360632
-0.0178841594606637,1.193395733833313,0.005313002038747,-0.4300330877304077,-0.0011871885508298,-0.201024129986763,0.0,0.0,-0.3781013402852811,-0.9859398385619224
-0.0180234909057617,1.1832448244094849,-0.0061455690301954,-0.4511756598949432,-0.0088783930987119,-0.1538236141204834,0.0,0.0,-0.207647605440016,-0.5322468808103503
-0.0181987769901752,1.1726391315460205,-0.0107240267097949,-0.4714212119579315,-0.0155983259901404,-0.1343984901905059,0.0,0.0,0.633610194153049,0.8065417564807555
-0.0184346195310354,1.1628090143203735,-0.0148158343508839,-0.4370134174823761,-0.0242556612938642,-0.1731469929218292,0.0,0.0,0.5179116609163659,0.8616593152076911
-0.0187137611210346,1.153597354888916,-0.0171343311667442,-0.409616082906723,-0.0348971597850322,-0.2128301858901977,0.0,0.0,0.754612609154109,-0.8199700537405261
-0.0190585143864154,1.1447055339813232,-0.0252157114446163,-0.3954364359378814,-0.0440455079078674,-0.1829669028520584,0.0,0.0,0.3885649777604663,-0.9197413357439392
-0.0194207187741994,1.1364355087280271,-0.0287330895662307,-0.3677950501441955,-0.051441054791212,-0.1479109674692154,0.0,0.0,-0.984764814376831,-0.8696629405021667
-0.0198551174253225,1.1277077198028564,-0.0378323532640934,-0.3881103098392486,-0.0569812096655368,-0.1108033210039138,0.0,0.0,-0.9331045150756836,0.2682006359100342
-0.0202839858829975,1.118520736694336,-0.0371804013848304,-0.4085326194763183,-0.0626222416758537,-0.1128208041191101,0.0,0.0,-0.8819205164909363,-0.6297779679298401
-0.0207626335322856,1.1088744401931765,-0.0434585809707641,-0.4289203882217407,-0.0669821202754974,-0.0871976166963577,0.0,0.0,-0.935064136981964,-0.3978821039199829
-0.0212359428405761,1.098768949508667,-0.042816188186407,-0.4493418633937835,-0.0714487135410308,-0.0893319621682167,0.0,0.0,-0.8794538974761963,-0.6595579385757446
-0.0217542648315429,1.088214635848999,-0.0484910570085048,-0.4692420661449432,-0.0747498720884323,-0.0660233125090599,0.0,0.0,-0.7630791068077087,-0.4887015223503113
-0.0222674366086721,1.0772013664245603,-0.0478602424263954,-0.4896629452705383,-0.0781630873680114,-0.0682644769549369,0.0,0.0,-0.7235358953475952,-0.7393912672996521
-0.0228297226130962,1.0657408237457275,-0.0540633201599121,-0.5094736814498901,-0.0803097337484359,-0.0429329052567482,0.0,0.0,-0.7296842932701111,-0.4606420993804931
-0.023387050256133,1.053821086883545,-0.053446315228939,-0.5298940539360046,-0.0825732797384262,-0.0452711135149002,0.0,0.0,-0.9322211146354676,-0.3247195482254028
-0.0239394195377826,1.0414419174194336,-0.0528371557593345,-0.5503146648406982,-0.0849559977650642,-0.0476541742682457,0.0,0.0,-0.9095450639724731,-0.9303677082061768
-0.0245729442685842,1.0286223888397217,-0.0630293861031532,-0.5697727799415588,-0.0852754265069961,-0.0063884584233164,0.0,0.0,-0.8626152873039246,-0.73210209608078
-0.0252477638423442,1.0153478384017944,-0.0682057738304138,-0.5899381637573242,-0.0845590233802795,0.0143280401825904,0.0,0.0,-0.9681054949760436,-0.5409150719642639
-0.0259541515260934,1.001612663269043,-0.0721460655331611,-0.6103696823120117,-0.08306585252285,0.029863441362977,0.0,0.0,-0.9505631923675536,0.5557136535644531
-0.0266051292419433,0.9874105453491212,-0.0651752799749374,-0.6311959624290466,-0.0829896107316017,0.0015249305870383,0.0,0.0,-0.9444027543067932,-0.7398315668106079
-0.027314567938447,0.9727483987808228,-0.0724790543317794,-0.6515713930130005,-0.0814713388681411,0.030365714803338,0.0,0.0,-0.9582468271255492,-0.434503972530365
-0.028019905090332,0.9576268792152404,-0.0719317197799682,-0.6719917058944702,-0.0800832509994506,0.0277615282684564,0.0,0.0,-0.7703294157981873,0.0712462663650512
-0.0287212375551462,0.9420461654663086,-0.0713975057005882,-0.6924120783805847,-0.0788268446922302,0.0251279920339584,0.0,0.0,-0.6779671907424927,0.2098129987716674
-0.029418658465147,0.926006019115448,-0.0708773285150528,-0.7128323316574097,-0.0777035057544708,0.0224669445306062,0.0,0.0,-0.5713944435119629,-0.3272824883460998
-0.0301123615354299,0.909506618976593,-0.0703721195459365,-0.7332525253295898,-0.0767144858837127,0.0197803415358066,0.0,0.0,-0.5032066702842712,-0.5271556377410889
-0.0308457370847463,0.8925514817237854,-0.075293019413948,-0.7534633278846741,-0.074774645268917,0.038796704262495,0.0,0.0,-0.4909570813179016,-0.0295174121856689
-0.0315757766366004,0.8751370310783386,-0.0748207494616508,-0.7738837003707886,-0.0729714408516883,0.03606428951025,0.0,0.0,-0.2058549523353576,-0.1015132665634155
-0.0323025695979595,0.8572635054588318,-0.0743664801120758,-0.7943040132522583,-0.0713058486580848,0.0333116129040718,0.0,0.0,0.2153106927871704,0.2519470453262329
-0.0329229347407817,0.8394111394882202,-0.0639549046754837,-0.7933419942855835,-0.0694068595767021,0.0379796549677848,0.0,0.0,0.1970515251159668,0.0892654657363891
-0.0334980972111225,0.8219643235206604,-0.0593095421791076,-0.7753344178199768,-0.0676366314291954,0.0354046709835529,0.0,0.0,0.0151515007019042,0.0156686305999755
-0.0339591987431049,0.8044971823692322,-0.0481834970414638,-0.7762210965156555,-0.0655831024050712,0.0410704500973224,0.0,0.0,-0.1029966473579406,0.4115753173828125
-0.0344179160892963,0.7865709066390991,-0.0478122010827064,-0.7966414093971252,-0.0636705234646797,0.0382517911493778,0.0,0.0,0.4763764142990112,0.4679540395736694
-0.0347455032169818,0.7692435383796692,-0.0349388569593429,-0.7700174450874329,-0.0615109056234359,0.0431920401751995,0.0,0.0,-0.1771302223205566,0.6566436290740967
-0.0350073799490928,0.7514535784721375,-0.0266053024679422,-0.7906477451324463,-0.0610995143651962,0.008227689191699,0.0,0.0,0.151542067527771,0.2092823982238769
-0.0351806655526161,0.734058678150177,-0.0178473107516765,-0.7730836868286133,-0.060589924454689,0.0101920934394001,0.0,0.0,0.4642610549926758,-0.0918933153152465
-0.0353779792785644,0.7172533273696899,-0.0197795219719409,-0.7469004988670349,-0.0605356991291046,0.0010843026684597,0.0,0.0,-0.0798445343971252,-0.2589045763015747
-0.0355742461979389,0.6999887824058533,-0.0195370633155107,-0.7673205733299255,-0.0606250315904617,-0.0017865048721432,0.0,0.0,-0.3858461380004883,-0.6705574989318848
-0.0358315482735633,0.6822738647460938,-0.0270622279495,-0.7872723340988159,-0.0593005642294883,0.0264891684055328,0.0,0.0,0.2338559627532959,-0.4028299450874328
-0.0359733588993549,0.6646698713302612,-0.0158118139952421,-0.7823358774185181,-0.057693637907505,0.0321387015283107,0.0,0.0,-0.318662166595459,0.3090802431106567
-0.0361151695251464,0.6466066241264343,-0.0156589820981025,-0.8027560710906982,-0.0562311299145221,0.0292498655617237,0.0,0.0,0.0202492475509643,-0.207602858543396
-0.0362384803593158,0.628454327583313,-0.013686029240489,-0.8067169189453125,-0.0548909306526184,0.0268038008362054,0.0,0.0,0.148405909538269,-0.011535108089447
-0.0364256873726844,0.6104650497436523,-0.0195310711860656,-0.799490213394165,-0.0540936030447483,0.0159465279430151,0.0,0.0,0.281848669052124,-0.4381256103515625
-0.0365612991154193,0.5930097699165344,-0.0142973465844988,-0.7757657170295715,-0.0533641688525676,0.0145888058468699,0.0,0.0,0.1024975776672363,-0.5680122971534729
-0.0366720184683799,0.5753794312477112,-0.0129075739532709,-0.7835075855255127,-0.0515513941645622,0.0362555831670761,0.0,0.0,0.1039179563522338,0.3844050168991089
-0.0367368683218956,0.5581428408622742,-0.0082579581066966,-0.7660101652145386,-0.0498001351952552,0.0350251421332359,0.0,0.0,0.0925056934356689,-0.3997660875320434
-0.0368501655757427,0.5409205555915833,-0.0126674473285675,-0.7653915286064148,-0.0484817959368228,0.0263668932020664,0.0,0.0,0.4430447816848755,-0.284895658493042
-0.0370171554386615,0.5241308212280273,-0.0175134949386119,-0.7461825609207153,-0.0476794950664043,0.0160461943596601,0.0,0.0,0.7142179012298584,-0.4031736850738525
-0.0371241569519043,0.507847011089325,-0.011507049202919,-0.7236988544464111,-0.0468744859099388,0.0161000397056341,0.0,0.0,0.1171334981918335,-0.3301515579223633
-0.0372941978275775,0.491965651512146,-0.0172685142606496,-0.7058311104774475,-0.0466173142194747,0.0051435818895697,0.0,0.0,0.0500639677047729,-0.3423157930374145
-0.0374037735164165,0.4761716425418854,-0.0112895527854561,-0.7019471526145935,-0.0462888069450855,0.0065698400139808,0.0,0.0,0.6046966314315796,0.2037935256958007
-0.0375321395695209,0.4604897499084472,-0.0128605468198657,-0.6969738006591797,-0.0462563633918762,0.0006487007485702,0.0,0.0,0.8869543075561523,-0.8495710492134094
-0.0376294143497943,0.4448945224285126,-0.0114944092929363,-0.6930654644966125,-0.0445110946893692,0.0349052250385284,0.0,0.0,0.5334692001342773,-0.0560472011566162
-0.0377461425960063,0.4293140172958374,-0.0131597993895411,-0.6924200654029846,-0.043045699596405,0.0293080918490886,0.0,0.0,0.7320265769958496,-0.0569690465927124
-0.0378403663635253,0.4145210385322571,-0.0107201132923364,-0.6574307680130005,-0.0417648293077945,0.0256174691021442,0.0,0.0,0.822990894317627,0.2649952173233032
-0.0378135666251182,0.4006121754646301,0.0011160348076373,-0.6181283593177795,-0.0402191169559955,0.0309142023324966,0.0,0.0,0.4228845834732055,-0.3165645599365234
-0.0378601066768169,0.3873048424720764,-0.0056200460530817,-0.5914113521575928,-0.0392638817429542,0.0191047489643096,0.0,0.0,-0.3175239562988281,-0.1920909881591797
-0.0379119887948036,0.3735381662845611,-0.0060120159760117,-0.6118311285972595,-0.0384517163038253,0.0162434671074152,0.0,0.0,0.5533382892608643,0.4666013717651367
-0.0379030220210552,0.3604240417480469,4.1660157876322046e-05,-0.5828317999839783,-0.0376068465411663,0.0168974045664072,0.0,0.0,0.3584396839141845,0.515984058380127
-0.0379314422607421,0.3475625216960907,-0.002298385836184,-0.5716367959976196,-0.0381435044109821,-0.0107331937178969,0.0,0.0,0.1569328308105468,-0.0847516059875488
-0.0379861816763877,0.3349552750587463,-0.0046108295209705,-0.5603430271148682,-0.0389997325837612,-0.0171243865042924,0.0,0.0,0.6815152168273926,0.2465373277664184
-0.0380316749215126,0.3229561448097229,-0.0034837531857192,-0.5333217978477478,-0.0400538183748722,-0.0210815612226724,0.0,0.0,0.4533827304840088,0.1943044662475586
-0.0379865653812885,0.3112601339817047,0.0053605567663908,-0.5198435187339783,-0.0408941619098186,-0.0168065633624792,0.0,0.0,0.5241751670837402,-0.8553281426429749
-0.0379786491394043,0.2995723485946655,2.758027767413296e-05,-0.5194370150566101,-0.040140576660633,0.0150717329233884,0.0,0.0,0.3338416814804077,0.6170237064361572
-0.0378335937857627,0.2878999710083008,0.0149667579680681,-0.5187835693359375,-0.0405978523194789,-0.0091456267982721,0.0,0.0,0.3657186031341553,-0.3730064034461975
-0.0375550277531147,0.2764683961868286,0.0278965234756469,-0.5080729722976685,-0.0406319871544837,-0.0006828758632764,0.0,0.0,0.091088056564331,-0.7919096946716309
-0.0372294411063194,0.2649589776992798,0.0310813784599304,-0.5114868879318237,-0.0391693115234375,0.0292535759508609,0.0,0.0,0.3304238319396972,-0.6887416243553162
-0.0369469635188579,0.2539056539535522,0.0255295690149068,-0.4911918640136719,-0.0364822708070278,0.0537409782409668,0.0,0.0,0.249802827835083,-0.3325892686843872
-0.0366275794804096,0.2432519048452377,0.0292356424033641,-0.4734367728233337,-0.0338244624435901,0.0531565472483634,0.0,0.0,0.1889668703079223,-0.2501019835472107
-0.0362102501094341,0.2328540235757827,0.0387662090361118,-0.4620639681816101,-0.0308887362480163,0.0587142892181873,0.0,0.0,-0.2117562294006347,-0.2878687381744385
-0.0358006469905376,0.221996858716011,0.0381209924817085,-0.4824843406677246,-0.0280888732522726,0.0559969171881675,0.0,0.0,0.6282837390899658,-0.2582104206085205
-0.0354367271065712,0.2114351093769073,0.0339407809078693,-0.4693662524223327,-0.0256635826081037,0.048505961894989,0.0,0.0,0.1482346057891845,-0.5287940502166748
-0.0350424759089946,0.2013187557458877,0.0359175875782966,-0.4495616853237152,-0.022195803001523,0.069355733692646,0.0,0.0,0.0943609476089477,-0.6242882013320923
-0.0347146019339561,0.1913104653358459,0.0281674526631832,-0.4447484612464905,-0.0176428761333227,0.0910585075616836,0.0,0.0,-0.2021560668945312,0.6741831302642822
-0.0343525893986225,0.1808481365442276,0.0327965393662452,-0.4649583995342254,-0.0142851760610938,0.0671539977192878,0.0,0.0,0.35286545753479,0.1638698577880859
-0.0339195244014263,0.1707820445299148,0.0397099554538726,-0.4473514258861542,-0.0107284486293792,0.071134515106678,0.0,0.0,0.7584884166717529,-0.6387010216712952
-0.0335981361567974,0.1614609062671661,0.027530763298273,-0.4142433106899261,-0.0061815390363335,0.0909381508827209,0.0,0.0,0.3421962261199951,-0.2228868007659912
-0.0333485603332519,0.1525938063859939,0.0207893066108226,-0.3940839767456054,-0.0020735098514705,0.0821606591343879,0.0,0.0,0.162705659866333,-0.4479706287384033
-0.0331243500113487,0.1437931656837463,0.0184739734977483,-0.391138881444931,0.0018271326553076,0.0780127272009849,0.0,0.0,0.2613708972930908,-0.2711951732635498
-0.0329985618591308,0.1352217495441436,0.0091746561229228,-0.3809591829776764,0.0051909554749727,0.0672764629125595,0.0,0.0,0.199209451675415,-0.1132538318634033
-0.0329924598336219,0.1267604231834411,-0.0021654593292623,-0.3760711550712585,0.0079265069216489,0.0547110624611377,0.0,0.0,0.1620724201202392,0.6506762504577637
-0.0328639037907123,0.1186033561825752,0.0113930711522698,-0.3625461161136627,0.0093639642000198,0.0287490244954824,0.0,0.0,0.5039510726928711,0.2166769504547119
-0.0326913818717002,0.1104914247989654,0.0156579278409481,-0.3605411648750305,0.0109407482668757,0.0315355882048606,0.0,0.0,0.4194235801696777,0.4241385459899902
-0.0324099548161029,0.1029052808880806,0.0260712765157222,-0.3371791243553161,0.0129772406071424,0.0407298393547534,0.0,0.0,0.1666622161865234,-0.1113195419311523
-0.0321605689823627,0.0956813395023346,0.023068431764841,-0.3210821747779846,0.014824666082859,0.0369485504925251,0.0,0.0,0.2293366193771362,-0.5580925941467285
-0.0318569168448448,0.0889597237110138,0.0272544920444488,-0.2987716794013977,0.0178979486227035,0.0614657290279865,0.0,0.0,-0.2210122346878051,0.1442869901657104
-0.0315619483590126,0.081778846681118,0.0264925546944141,-0.319191575050354,0.020862340927124,0.0592877082526683,0.0,0.0,0.5533599853515625,0.5775747299194336
-0.0312534347176551,0.0752967000007629,0.0291394852101802,-0.2881182432174682,0.0225540790706872,0.0338346846401691,0.0,0.0,-0.2018415927886963,0.248441457748413
-0.0309536941349506,0.0683551430702209,0.0283704455941915,-0.3085375428199768,0.0241431836038827,0.0317822210490703,0.0,0.0,0.6932408809661865,0.0663034915924072
-0.0305913928896188,0.0616617761552333,0.0343341454863548,-0.2975133061408996,0.0260151345282793,0.0374389067292213,0.0,0.0,0.4232218265533447,0.8725904226303101
-0.0303019527345895,0.0553072318434715,0.0290354490280151,-0.2824234664440155,0.0259210634976625,-0.0018811939517036,0.0,0.0,0.4941098690032959,0.873612642288208
-0.0300949104130268,0.049186572432518,0.0228187143802642,-0.2719931006431579,0.0238316152244806,-0.0417888537049293,0.0,0.0,0.5460000038146973,0.4473910331726074
-0.0299292560666799,0.0433968640863895,0.0188624411821365,-0.2572855949401855,0.0215617958456277,-0.0453962944447994,0.0,0.0,0.3728151321411133,0.9497466087341307
-0.0296817775815725,0.0378140769898891,0.0290188286453485,-0.248068168759346,0.0173390042036771,-0.0844556987285614,0.0,0.0,0.2523047924041748,-0.2895598411560058
-0.0293487552553415,0.0321834422647953,0.0371954850852489,-0.2502110600471496,0.0134964156895875,-0.0768518596887588,0.0,0.0,0.6559607982635498,-0.6837026476860046
-0.0289813037961721,0.0271255113184452,0.0391038060188293,-0.2247770875692367,0.0111725023016333,-0.0464784279465675,0.0,0.0,0.4619131088256836,-0.6303219795227051
-0.0286561008542776,0.0226843450218439,0.033630147576332,-0.197375476360321,0.0100849885493516,-0.0217504817992448,0.0,0.0,-0.1361240148544311,0.5807526111602783
-0.028288459405303,0.0177781917154788,0.0392186269164085,-0.2180390208959579,0.0076592648401856,-0.0485144406557083,0.0,0.0,0.4694968461990356,-0.2790687084197998
