x_pos,y_pos,x_vel,y_vel,angle,ang_vel,leg_1,leg_2,main_booster,lat_booster
-0.0015292167663574,1.4031319618225098,-0.1546006053686142,-0.3461387455463409,0.0014997597318142,0.0295649524778127,0.0,0.0,-0.9187988998551556,0.619620959198148
-0.0030112266540527,1.3948715925216677,-0.1480807363986969,-0.3671266436576843,0.0013702715514227,-0.0025893792044371,0.0,0.0,0.1077017855464341,0.8155805895375831
-0.0043313978239893,1.386518955230713,-0.1300754249095916,-0.371226966381073,-0.000542571186088,-0.0382604748010635,0.0,0.0,-0.7230431320375208,-0.6443463558183353
-0.0057174684479832,1.377671718597412,-0.1379857361316681,-0.3932127058506012,-0.0011559404665604,-0.012268416583538,0.0,0.0,-0.9782686386398398,-0.9472188804799132
-0.0071673393249511,1.3683350086212158,-0.1456483304500579,-0.414961963891983,-0.000505466829054,0.0130107402801513,0.0,0.0,0.5773905064410549,-0.9024063002228064
-0.0085458755493164,1.3592822551727295,-0.1403557211160659,-0.4023409485816955,0.0019605883862823,0.0493260361254215,0.0,0.0,-0.474012430919541,0.686977474954703
-0.0098774908110499,1.3497371673583984,-0.1341617852449417,-0.4242275357246399,0.0029459102079272,0.0197083055973052,0.0,0.0,0.4098775559968202,-0.6929918884091706
-0.0111290933564305,1.340530276298523,-0.1276718974113464,-0.4092024564743042,0.0054223332554101,0.0495333336293697,0.0,0.0,0.3207921432467044,-0.6858490512805749
-0.0124539379030466,1.3318413496017456,-0.1362136602401733,-0.3861959278583526,0.0091081475839018,0.0737228989601135,0.0,0.0,-0.1413852729207259,0.7018719294837856
-0.0137282367795705,1.3226649761199951,-0.1296459585428238,-0.4078534245491028,0.0112982159480452,0.0438055656850338,0.0,0.0,-0.5671193145458899,0.8455212124899544
-0.0149307250976562,1.3129982948303225,-0.120451882481575,-0.4296392202377319,0.0114904139190912,0.0038445573300123,0.0,0.0,-0.6290234960999581,0.8254382145146513
-0.0160648338496685,1.3028384447097778,-0.1116883754730224,-0.4515333473682403,0.0097950687631964,-0.0339100398123264,0.0,0.0,0.8842117488131529,-0.8604985574887039
-0.0171152111142873,1.2933884859085083,-0.1053481474518776,-0.4199972748756408,0.0101033532992005,0.0061660152859985,0.0,0.0,0.753578072174929,-0.8555171389433244
-0.0181594844907522,1.2840036153793335,-0.1066041737794876,-0.4171243011951446,0.0122457146644592,0.0428511649370193,0.0,0.0,0.1364204093045504,0.7474458241247657
-0.0190446861088275,1.2749876976013184,-0.0893101841211319,-0.4007172584533691,0.0130259552970528,0.0156064378097653,0.0,0.0,0.5178650586326206,0.7992529604186577
-0.0197614673525095,1.2658827304840088,-0.0710889250040054,-0.4046575129032135,0.0124421790242195,-0.0116767259314656,0.0,0.0,-0.5433098601222084,0.9386778519672508
-0.0203904155641794,1.2562980651855469,-0.0600528009235858,-0.425965279340744,0.0096283592283725,-0.0562814176082611,0.0,0.0,0.6351413741203913,0.8946021335951753
-0.0207974426448345,1.2467730045318604,-0.036389734596014,-0.4233132004737854,0.0053637707605957,-0.085299402475357,0.0,0.0,0.2970979931764352,-0.9876220094002528
-0.0211997032165527,1.2377102375030518,-0.0380425974726676,-0.4027813673019409,0.0032063331454992,-0.0431522727012634,0.0,0.0,-0.7535111852615901,0.8979628360729854
-0.0215429309755563,1.2281550168991089,-0.0307118240743875,-0.4246785342693329,-0.0003690501616802,-0.071514144539833,0.0,0.0,0.1989930063042453,0.9750380050763294
-0.0217021945863962,1.2189329862594604,-0.0105285448953509,-0.4098754525184631,-0.005708610638976,-0.1068008169531822,0.0,0.0,0.3491161466664805,0.7760001233609659
-0.0217893607914447,1.2097558975219729,-0.001937684835866,-0.4079135656356811,-0.0124044436961412,-0.133928433060646,0.0,0.0,0.0876825331528174,-0.7040371261447549
-0.02183198928833,1.20062255859375,0.0008026004070416,-0.4059769809246063,-0.0174139272421598,-0.1001988053321838,0.0,0.0,0.97744870341555,-0.670097139462819
-0.021833037957549,1.1915487051010132,0.003160799620673,-0.403319388628006,-0.0206493623554706,-0.0647145211696624,0.0,0.0,0.978941282272742,-0.7382184835010639
-0.0220620147883892,1.1831481456756592,-0.0208901111036539,-0.3733896613121032,-0.0226319245994091,-0.0396544858813285,0.0,0.0,-0.4355874168739739,-0.6119232265727013
-0.0223527904599905,1.174238681793213,-0.0288454443216323,-0.3959761261940002,-0.0228577498346567,-0.0045167170464992,0.0,0.0,0.8748217785209442,-0.7478993190189953
-0.0226802825927734,1.1660795211791992,-0.0343041643500328,-0.3626050949096679,-0.0213246811181306,0.0306617226451635,0.0,0.0,-0.4963558386377824,-0.7200385973761256
-0.02307815477252,1.1574375629425049,-0.0433793887495994,-0.3840354681015014,-0.0177726112306118,0.0710410103201866,0.0,0.0,0.4931355525262362,-0.6177648761279593
-0.0236417762935161,1.1493632793426514,-0.0612134151160717,-0.3588117063045501,-0.0129812005907297,0.0958283841609954,0.0,0.0,0.9744732783825508,-0.8460649711314296
-0.0242929458618164,1.1416696310043335,-0.0719260051846504,-0.3419016599655151,-0.0062617906369268,0.1343881487846374,0.0,0.0,0.8750316177131234,-0.7873710506211633
-0.0249777790158987,1.134934663772583,-0.0772484540939331,-0.2993181049823761,0.0023884251713752,0.1730044335126876,0.0,0.0,-0.7718764387609922,0.8385946312181398
-0.025605296716094,1.1277035474777222,-0.0703731402754783,-0.321416825056076,0.0099132703617215,0.1504969745874405,0.0,0.0,-0.4750439200299767,-0.7463761649241363
-0.0263003353029489,1.119986891746521,-0.0791773200035095,-0.3430525660514831,0.019462851807475,0.1909913569688797,0.0,0.0,-0.245481585886665,0.8614803811255405
-0.0269344337284564,1.1117730140686035,-0.0718888044357299,-0.3651958405971527,0.0278280377388,0.1673037111759185,0.0,0.0,-0.5214967064575471,0.957625702663799
-0.0274909026920795,1.1030728816986084,-0.0624947175383567,-0.3868192136287689,0.0345928184688091,0.1352955102920532,0.0,0.0,-0.7807829704173033,-0.7616149422630134
-0.0281057357788085,1.093883991241455,-0.0701968297362327,-0.4086261987686157,0.0431902632117271,0.1719486117362976,0.0,0.0,0.3588134233680846,-0.6182075151860942
-0.0288091655820608,1.0847573280334473,-0.0806128680706024,-0.4059630334377289,0.0533436015248298,0.203066736459732,0.0,0.0,-0.2307535076967215,0.818820818108971
-0.0294436458498239,1.075151443481445,-0.0723509192466735,-0.4272727966308594,0.0621418096125125,0.1759642660617828,0.0,0.0,-0.831212890081642,0.7006686370488847
-0.0300263408571481,1.0650668144226074,-0.0662349164485931,-0.4485532343387604,0.0700196176767349,0.1575563848018646,0.0,0.0,-0.6429612016134041,-0.8789169486313548
-0.030674647539854,1.054485559463501,-0.0748737677931785,-0.4707856178283691,0.0799558162689209,0.198723703622818,0.0,0.0,-0.5786677540467073,0.8533495652358449
-0.0312674529850482,1.0434271097183228,-0.0682919323444366,-0.491993099451065,0.0888875424861908,0.1786345243453979,0.0,0.0,-0.9651579260826112,0.9618644714355468
-0.0317679420113563,1.0318875312805176,-0.0571381524205207,-0.5133044719696045,0.095911331474781,0.1404760181903839,0.0,0.0,-0.9776602983474731,0.9152636528015136
-0.0321831703186035,1.0198585987091064,-0.0468832403421402,-0.5349721908569336,0.1012251302599906,0.1062762290239334,0.0,0.0,-0.9828727841377258,0.9577152729034424
-0.0325095169246196,1.0073496103286743,-0.036157052963972,-0.5562048554420471,0.1047245860099792,0.0699893906712532,0.0,0.0,-0.9619861245155334,0.8624048233032227
-0.0327706336975097,0.9943485260009766,-0.0284453872591257,-0.5779914855957031,0.1070372015237808,0.0462521128356456,0.0,0.0,-0.8741133213043213,0.821231484413147
-0.0329604148864746,0.9808585047721864,-0.0199527125805616,-0.5996271371841431,0.1080065071582794,0.0193863995373249,0.0,0.0,-0.98175847530365,0.7586987018585205
-999.0,0.9668833017349244,-0.011959658935666,-0.6211046576499939,0.1077302768826484,-0.0055246497504413,0.0,0.0,-0.977817714214325,0.0816426277160644
-0.0332036986947059,0.9524161219596864,-0.0122371967881917,-0.6429949402809143,0.1078763380646705,0.0029210178181529,0.0,0.0,-0.5916607975959778,0.8240225315093994
-0.0332730300724506,0.9374725222587584,-0.0062149716541171,-0.6641058325767517,0.1071627810597419,-0.0142709268257021,0.0,0.0,-0.8848459720611572,0.873360276222229
-0.03327427059412,0.922045350074768,0.0018623502692207,-0.6855108737945557,0.1051965206861496,-0.0393253304064273,0.0,0.0,0.3711893558502197,0.4809296131134033
-0.0332050323486328,0.9068520069122314,0.0079199615865945,-0.67518550157547,0.1042101606726646,-0.0197274219244718,0.0,0.0,-0.322806715965271,0.7860198020935059
-0.033078383654356,0.8911809325218201,0.0146615924313664,-0.6963545083999634,0.1022352203726768,-0.0394988693296909,0.0,0.0,-0.305333137512207,0.0283465385437011
-0.0329496376216411,0.8750181198120117,0.0144271161407232,-0.7182449102401733,0.1006930768489837,-0.0308427400887012,0.0,0.0,-0.4977604746818542,0.6070066690444946
-0.0327712073922157,0.8583762645721436,0.0201934725046157,-0.739481508731842,0.0983665212988853,-0.0465311668813228,0.0,0.0,0.1434566974639892,-0.1630630493164062
-0.0325209610164165,0.841761589050293,0.0264458507299423,-0.7383402585983276,0.0969527661800384,-0.0282747857272624,0.0,0.0,0.5301164388656616,0.7474615573883057
-0.0323490127921104,0.8252975344657898,0.0198568049818277,-0.7315624356269836,0.0943142473697662,-0.0527703054249286,0.0,0.0,-0.372378945350647,0.590545654296875
-0.0321211814880371,0.8083548545837402,0.0263740420341491,-0.7527868747711182,0.0907511934638023,-0.0712609365582466,0.0,0.0,0.0424721240997314,0.6627707481384277
-0.0317787155508995,0.7915794253349304,0.0386351682245731,-0.7453140616416931,0.0864057764410972,-0.0869083032011985,0.0,0.0,-0.2176712155342102,0.0505529642105102
-0.0314335823059082,0.7743122577667236,0.0384544059634208,-0.7672054171562195,0.0825005397200584,-0.0781046450138092,0.0,0.0,0.1335662603378296,-0.0212308764457702
-0.0311821941286325,0.7573528289794922,0.0288774315267801,-0.753548800945282,0.0787946209311485,-0.0741184651851654,0.0,0.0,-0.1861072778701782,-0.3318991661071777
-0.0309280399233102,0.7399017214775085,0.0287142060697078,-0.775439441204071,0.075530469417572,-0.0652831718325614,0.0,0.0,-0.1340712308883667,0.7130751609802246
-0.0306242946535348,0.7219675779342651,0.0344262644648551,-0.796868622303009,0.0715240240097045,-0.0801288560032844,0.0,0.0,0.2329306602478027,-0.0051627159118652
-0.0302531234920024,0.7041290998458862,0.0402862653136253,-0.7926763892173767,0.0683869570493698,-0.0627415403723716,0.0,0.0,0.0878044366836547,0.557296633720398
-0.0298452377319335,0.6864096522331238,0.0446010157465934,-0.7873578667640686,0.0646119341254234,-0.0755004361271858,0.0,0.0,0.4777307510375976,-0.0967487096786499
-0.0294504165649414,0.6687358021736145,0.0428232550621032,-0.7853665947914124,0.0613132417201995,-0.0659738630056381,0.0,0.0,-0.2365862131118774,0.7038037776947021
-0.0290081016719341,0.6505744457244873,0.0482420548796653,-0.8070117831230164,0.0573457889258861,-0.0793488845229148,0.0,0.0,0.8072206974029541,0.0280792713165283
-0.0285925865173339,0.6333250403404236,0.0450008586049079,-0.7665093541145325,0.053931575268507,-0.0682840272784233,0.0,0.0,-0.0322284698486328,-0.0542753338813781
-0.0281736366450786,0.6155838370323181,0.0448950305581092,-0.7883988618850708,0.0509622544050216,-0.0593860857188701,0.0,0.0,0.3979661464691162,0.6558665037155151
-0.0277112014591693,0.5984460711479187,0.0500672869384288,-0.7615518569946289,0.0471786968410015,-0.0756712406873703,0.0,0.0,0.2736271619796753,0.2974182367324829
-0.0273348800837993,0.5813578963279724,0.0413491390645504,-0.7593584656715393,0.0435047931969165,-0.0734781473875045,0.0,0.0,0.4728004932403564,0.557685375213623
-0.0270256996154785,0.564681887626648,0.035528864711523,-0.7410310506820679,0.0389568135142326,-0.0909596532583236,0.0,0.0,0.1116893291473388,-0.3611090183258056
-0.0267083160579204,0.5481427311897278,0.0357931144535541,-0.7349727749824524,0.0349499620497226,-0.0801369473338127,0.0,0.0,0.6111977100372314,0.1826757192611694
-0.0265415199100971,0.5323396921157837,0.0208796504884958,-0.7022672891616821,0.0308073535561561,-0.0828521326184272,0.0,0.0,-0.4473203420639038,0.5561147928237915
-0.0263214111328125,0.516046941280365,0.0270073469728231,-0.7240292429924011,0.0258689299225807,-0.0987686514854431,0.0,0.0,0.7290089130401611,-0.7795121073722839
-0.0262083057314157,0.4998657703399658,0.0143681345507502,-0.719111442565918,0.022850178182125,-0.0603749938309192,0.0,0.0,0.2970755100250244,-0.3826940059661865
-0.026043701916933,0.4835769832134247,0.0188189502805471,-0.72391277551651,0.0205234158784151,-0.0465352237224578,0.0,0.0,0.3787050247192383,0.1511367559432983
-0.0259072296321392,0.4672199487686157,0.0156765058636665,-0.7269553542137146,0.0185194946825504,-0.0400785095989704,0.0,0.0,0.7521047592163086,0.153449535369873
-0.0257911682128906,0.4516318738460541,0.0132313668727874,-0.6927835941314697,0.0169190764427185,-0.0320084616541862,0.0,0.0,0.1204531192779541,0.5009963512420654
-0.025581169873476,0.43638876080513,0.0230598375201225,-0.6774491667747498,0.0148848863318562,-0.0406837314367294,0.0,0.0,0.1310451030731201,0.3129981756210327
-0.0254522319883108,0.4214908480644226,0.0148710487410426,-0.6621105074882507,0.0129392119124531,-0.0389134809374809,0.0,0.0,0.6297080516815186,0.5040755271911621
-0.0254194252192974,0.4065836369991302,0.0061868065968155,-0.6625198125839233,0.0100597692653536,-0.0575887970626354,0.0,0.0,0.6573526859283447,0.3082329034805298
-0.0253499988466501,0.3923742175102234,0.0092193884775042,-0.6315180063247681,0.0078105297870934,-0.0449847094714641,0.0,0.0,-0.3500140905380249,0.2253119945526123
-0.0252763740718364,0.3776723444461822,0.0091927982866764,-0.6534052491188049,0.006003703456372,-0.0361364260315895,0.0,0.0,0.9658313989639282,0.2058156728744506
-0.0252685546875,0.3636873066425323,0.0024700772482901,-0.6215503215789795,0.0043369489721953,-0.0333350524306297,0.0,0.0,0.924734354019165,0.4623401165008545
-0.0252738948911428,0.3504317700862884,0.0007690892671234,-0.5891317129135132,0.0030469049233943,-0.0258011557161808,0.0,0.0,0.2648433446884155,0.6899652481079102
-0.0251471512019634,0.3373527526855469,0.0148203922435641,-0.5812898278236389,0.0009352903580293,-0.0422324836254119,0.0,0.0,0.8013761043548584,0.0145295858383178
-0.0249905586242675,0.3243410885334015,0.0172305386513471,-0.57829350233078,-0.0006172830471768,-0.0310511644929647,0.0,0.0,0.834113597869873,-0.0461853146553039
-0.024726390838623,0.3115075528621673,0.0270568337291479,-0.5703846216201782,-0.0012548583326861,-0.0127514479681849,0.0,0.0,0.875638484954834,-0.219951331615448
-0.0242901798337698,0.2991535067558288,0.0430424064397811,-0.5490645170211792,-0.0006821815040893,0.0114532485604286,0.0,0.0,0.3041861057281494,-0.4243154525756836
-0.0237394329160451,0.286774069070816,0.0535349063575267,-0.5502005219459534,0.0008360042702406,0.0303636584430933,0.0,0.0,0.5799307823181152,-0.5062490105628967
-0.0232309345155954,0.2749834358692169,0.0478674061596393,-0.5240311026573181,0.0037804981693625,0.0588899068534374,0.0,0.0,0.4256260395050049,0.0529868602752685
-0.0226940158754587,0.2636825442314148,0.0501469559967517,-0.5022755265235901,0.0072824750095605,0.0700394213199615,0.0,0.0,0.0576622486114501,0.5604238510131836
-0.0220228191465139,0.252533495426178,0.0641295760869979,-0.4955314993858337,0.0102407485246658,0.0591654106974601,0.0,0.0,0.0398588180541992,-0.3110239505767822
-0.0212861057370901,0.2412013411521911,0.0699466690421104,-0.5036811828613281,0.0139235677197575,0.0736562758684158,0.0,0.0,0.1749002933502197,0.3810842037200928
-0.0205876342952251,0.2299193888902664,0.0658568292856216,-0.5014621019363403,0.0178627166897058,0.0787831246852874,0.0,0.0,0.2298798561096191,-0.3851746916770935
-0.0198335647583007,0.2191103100776672,0.0706879496574401,-0.4804677665233612,0.0225205980241298,0.0931577011942863,0.0,0.0,0.2929301261901855,-0.6282341480255127
-0.0191554073244333,0.2084747403860092,0.0614389851689338,-0.4728046059608459,0.0288171172142028,0.1259303987026214,0.0,0.0,-0.0085233449935913,-0.4012864828109741
-0.0184733383357524,0.1973473578691482,0.0614042282104492,-0.4946954846382141,0.0355366580188274,0.1343908458948135,0.0,0.0,0.4656188488006592,0.3648185729980469
-0.0177322383970022,0.1866605132818222,0.0665231347084045,-0.4751677215099334,0.0430339686572551,0.1499460935592651,0.0,0.0,0.3429019451141357,-0.2164859771728515
-0.0170569419860839,0.176393374800682,0.059714812785387,-0.4565609097480774,0.0507479347288608,0.154279425740242,0.0,0.0,0.4982558488845825,0.3587990999221802
-0.0164874084293842,0.1666464358568191,0.0490830913186073,-0.4334840476512909,0.0585299581289291,0.1556405425071716,0.0,0.0,0.5811384916305542,0.7035113573074341
-0.0159124378114938,0.1571220308542251,0.0506739616394043,-0.4235917031764984,0.0652718916535377,0.1348388493061065,0.0,0.0,0.8057799339294434,-0.5667257905006409
-0.0155575750395655,0.1480728983879089,0.0274965967983007,-0.4025508165359497,0.0731792077422142,0.1581461429595947,0.0,0.0,0.1586853265762329,-0.5222095847129822
-0.0153828617185354,0.1390638202428817,0.0082578416913747,-0.4008808135986328,0.0823032930493354,0.1824814975261688,0.0,0.0,0.4714524745941162,0.4160466194152832
-0.0151634216308593,0.1305323243141174,0.0118895666673779,-0.3797601461410522,0.0922646522521972,0.1992271691560745,0.0,0.0,0.4605516195297241,0.884436845779419
-0.0148395542055368,0.1220076903700828,0.0236391685903072,-0.3794346153736114,0.1009336933493614,0.1733810901641845,0.0,0.0,0.4460313320159912,0.9352970123291016
-0.0143629070371389,0.1140287965536117,0.0402862839400768,-0.3551321029663086,0.1082651242613792,0.1466283947229385,0.0,0.0,0.5051593780517578,0.4363607168197632
-0.0139802936464548,0.1066097319126129,0.0305825918912887,-0.3303130269050598,0.1158869266510009,0.1524363309144973,0.0,0.0,0.4256625175476074,0.8098524808883667
-0.0134799005463719,0.0998424887657165,0.0434262081980705,-0.3012929856777191,0.1224565878510475,0.1313933432102203,0.0,0.0,0.3274340629577636,0.1051634550094604
-0.0129729267209768,0.0932886004447937,0.0434304773807525,-0.2918969690799713,0.1296851933002472,0.144572228193283,0.0,0.0,0.0851712226867675,0.7478160858154297
-0.0124802589416503,0.0870590806007385,0.0431453958153724,-0.277415782213211,0.1357815563678741,0.1219273954629898,0.0,0.0,0.1119680404663086,0.6782289743423462
-0.0119585990905761,0.0811520665884018,0.0469953939318656,-0.26301309466362,0.1409341692924499,0.1030521988868713,0.0,0.0,0.0391136407852172,-0.1114336252212524
-0.0114251133054494,0.0751926302909851,0.0475943461060524,-0.2654199600219726,0.1466758251190185,0.1148332804441452,0.0,0.0,0.0755066871643066,0.483946681022644
-0.0110271451994776,0.0693216621875763,0.0340622402727603,-0.2615071833133697,0.1523957699537277,0.1143992766737937,0.0,0.0,0.143446683883667,0.9000393152236938
-0.0107136722654104,0.0634775981307029,0.0271085761487483,-0.2601737678050995,0.156627207994461,0.0846286118030548,0.0,0.0,0.5710257291793823,0.9453529119491576
-0.0104311946779489,0.0579477399587631,0.025606220588088,-0.2460521310567855,0.1592686623334884,0.0528292842209339,0.0,0.0,0.5738047361373901,0.8482198715209961
-0.0101341251283884,0.0526997670531272,0.0283969547599554,-0.2333852797746658,0.1605732142925262,0.0260913129895925,0.0,0.0,0.5143237113952637,0.8988367319107056
-0.0096840858459472,0.0474893413484096,0.0450183823704719,-0.2315713465213775,0.1605549603700637,-0.0003650083090178,0.0,0.0,0.735175371170044,0.1780101060867309
-0.0092467311769723,0.0428750850260257,0.042979247868061,-0.2051612436771392,0.1613075733184814,0.0150524377822875,0.0,0.0,0.7289190292358398,0.2443897724151611
-0.0089181903749704,0.0390250049531459,0.0316892340779304,-0.1712392121553421,0.1624669879674911,0.0231887362897396,0.0,0.0,0.0185132026672363,-0.0830927491188049
-0.0085814474150538,0.0349773727357387,0.0320580787956714,-0.1800732910633087,0.1640809476375579,0.0322794318199157,0.0,0.0,0.5575377941131592,0.4379373788833618
