x_pos,y_pos,x_vel,y_vel,angle,ang_vel,leg_1,leg_2,main_booster,lat_booster
-0.0015044212341308,1.403203010559082,-0.1526024043560028,-0.3429766297340393,0.0019428632222115,0.0383378528058528,0.0,0.0,-0.383263885974884,0.7349481582641602
-0.002927207853645,1.3950843811035156,-0.1427890360355377,-0.3608243763446808,0.0024510698858648,0.0101655554026365,0.0,0.0,-0.1743826270103454,0.6081349849700928
-0.0042728423140943,1.3865398168563845,-0.1338047683238983,-0.379758208990097,0.0016919617773965,-0.0151835111901164,0.0,0.0,-0.0191709995269775,0.7945032119750977
-0.0055502890609204,1.3775713443756104,-0.1259028613567352,-0.3985962271690368,-0.0001179212049464,-0.036201074719429,0.0,0.0,0.2457318305969238,0.4262498617172241
-0.0067124366760253,1.3689192533493042,-0.1150840148329734,-0.3845434188842773,-0.0012424800079315,-0.0224931202828884,0.0,0.0,-0.3957093954086303,0.6327629089355469
-0.0077963829971849,1.359844446182251,-0.1059211492538452,-0.4033226370811462,-0.0036764198448508,-0.0486836209893226,0.0,0.0,0.1749908924102783,-0.2952392101287842
-0.0088779451325535,1.350964903831482,-0.1058538556098938,-0.3946623802185058,-0.0059493584558367,-0.0454633012413978,0.0,0.0,-0.553808867931366,0.1815413236618042
-0.0099431034177541,1.3416637182235718,-0.1044695526361465,-0.4133939146995544,-0.0079774428158998,-0.0405653975903987,0.0,0.0,-0.108855664730072,0.2396744489669799
-0.0109926220029592,1.3319413661956787,-0.1031455025076866,-0.432118684053421,-0.0097524318844079,-0.0355032794177532,0.0,0.0,-0.4912174940109253,0.3740499019622803
-0.0120267868041992,1.321797490119934,-0.1018826141953468,-0.4508442878723144,-0.0112665686756372,-0.030285432934761,0.0,0.0,-0.7416021823883057,0.3631021976470947
-0.0130461696535348,1.3112324476242063,-0.1006810888648033,-0.4695706665515899,-0.0125123718753457,-0.0249183531850576,0.0,0.0,-0.1438971757888794,0.0275295972824096
-0.0140514373779296,1.300246000289917,-0.0995418578386306,-0.4882969856262207,-0.0134826619178056,-0.0194077435880899,0.0,0.0,-0.3318128585815429,0.3560388088226318
-0.0150430677458643,1.288838028907776,-0.0984649956226348,-0.507023274898529,-0.0141705926507711,-0.0137598533183336,0.0,0.0,0.6095319986343384,0.2314646244049072
-0.0159494392573833,1.2775263786315918,-0.0905532985925674,-0.5027464628219604,-0.0142521355301141,-0.0016308836638927,0.0,0.0,-0.5423464179039001,0.2839773893356323
-0.0168433189392089,1.2657930850982666,-0.0896027907729148,-0.5214771032333374,-0.0140387397259473,0.0042681177146732,0.0,0.0,-0.4683624505996704,0.235531210899353
-0.0177252776920795,1.2536382675170898,-0.0887144282460212,-0.5402029156684875,-0.0135241253301501,0.0102932322770357,0.0,0.0,-0.5759462714195251,-0.0951477289199829
-0.018595790490508,1.2410622835159302,-0.0878883674740791,-0.5589277744293213,-0.0127028161659836,0.0164275150746107,0.0,0.0,0.2004557847976684,0.0870273113250732
-0.0193485263735055,1.2284711599349976,-0.0769183784723281,-0.5595893859863281,-0.011084409430623,0.03237134963274,0.0,0.0,-0.2644970417022705,-0.5127476453781128
-0.0201251022517681,1.2154641151428225,-0.0804750472307205,-0.5780723094940186,-0.008295570500195,0.0557819008827209,0.0,0.0,-0.2418898344039917,-0.1222763061523437
-0.0208920482546091,1.202035903930664,-0.0798367410898208,-0.5967980027198792,-0.0051858010701835,0.0622009634971618,0.0,0.0,0.4095405340194702,0.0651079416275024
-0.0215376857668161,1.1891478300094604,-0.0685520768165588,-0.5727959871292114,-0.0012428917689248,0.0788653865456581,0.0,0.0,-0.4655607938766479,0.8182847499847412
-0.0221087448298931,1.1758337020874023,-0.0597611963748931,-0.5917447805404663,0.0013709658524021,0.0522820428013801,0.0,0.0,-0.8986839652061462,-0.0103997588157653
-0.0226719863712787,1.1620982885360718,-0.0592956468462944,-0.6104679703712463,0.0043181646615266,0.0589491501450538,0.0,0.0,-0.916190505027771,0.5488927364349365
-0.0231791492551565,1.1479358673095703,-0.0528070218861103,-0.6294492483139038,0.0063828323036432,0.0412970222532749,0.0,0.0,-0.7394664883613586,-0.1572415828704834
-0.0236793514341115,1.1333521604537964,-0.0524503588676452,-0.6481765508651733,0.0087860757485032,0.0480691976845264,0.0,0.0,-0.4481704235076904,-0.0863484740257263
-0.0241728778928518,1.1183258295059204,-0.0521348491311073,-0.6678579449653625,0.011529553681612,0.0548694729804992,0.0,0.0,-0.8628138303756714,0.5165205001831055
-0.0246192924678325,1.1028822660446167,-0.0467178709805011,-0.6864005327224731,0.0135815786197781,0.0410403124988079,0.0,0.0,-0.7043490409851074,-0.0611493587493896
-0.0250601768493652,1.087017297744751,-0.0465089119970798,-0.7051258683204651,0.0159773360937833,0.0479151457548141,0.0,0.0,-0.5962462425231934,0.2894287109375
-0.0254959110170602,1.0707314014434814,-0.0463475137948989,-0.7238515019416809,0.0187177453190088,0.0548081211745739,0.0,0.0,-0.3685569167137146,0.2427983283996582
-0.0259269718080759,1.0540244579315186,-0.0462317913770675,-0.7425773739814758,0.0218032542616128,0.0617102496325969,0.0,0.0,-0.2300682067871093,0.5439926385879517
-0.0263094902038574,1.036903977394104,-0.0406003072857856,-0.7609498500823975,0.0241178292781114,0.046291597187519,0.0,0.0,0.0439200401306152,0.4731125831604004
-0.0267440788447856,1.019775629043579,-0.0459207855165004,-0.7612961530685425,0.0265496335923671,0.0486357770860195,0.0,0.0,0.5801262855529785,0.6754038333892822
-0.02722854539752,1.0033808946609497,-0.0497129373252391,-0.7286768555641174,0.0277998801320791,0.0250050462782382,0.0,0.0,0.1525236368179321,0.0943096876144409
-0.0277614593505859,0.9869405031204224,-0.0546947419643402,-0.7307138442993164,0.0291865970939397,0.0277342144399881,0.0,0.0,-0.2387282848358154,-0.4289884567260742
-0.0282917972654104,0.9700787663459778,-0.0547759756445884,-0.7494394183158875,0.0309135466814041,0.034538809210062,0.0,0.0,0.4975192546844482,0.1041262149810791
-0.0288244243711233,0.9538246989250184,-0.0554362311959266,-0.7224505543708801,0.0330544374883174,0.0428176335990428,0.0,0.0,-0.0621910095214843,0.8529407978057861
-0.0292905811220407,0.93714839220047,-0.0474744215607643,-0.7411919832229614,0.0339079275727272,0.0170697048306465,0.0,0.0,0.0113728046417236,0.1899764537811279
-0.0297474861145019,0.9207505583763124,-0.0470041446387767,-0.7288201451301575,0.0352004282176494,0.0258499886840581,0.0,0.0,0.6027892827987671,0.4639801979064941
-0.0302700046449899,0.9051550030708312,-0.0537109263241291,-0.6931692957878113,0.0366435125470161,0.028861591592431,0.0,0.0,0.1299357414245605,0.2856194972991943
-0.0307872779667377,0.8897625803947449,-0.0536100454628467,-0.6841527819633484,0.0384985692799091,0.0371012836694717,0.0,0.0,-0.763805627822876,0.7787728309631348
-0.0312532410025596,0.8739585280418396,-0.0475072674453258,-0.7024239301681519,0.039395548403263,0.0179397575557231,0.0,0.0,-0.9024844765663148,0.6741361618041992
-0.0316543579101562,0.8577356934547424,-0.0396982282400131,-0.7210056185722351,0.0389884747564792,-0.0081414934247732,0.0,0.0,-0.8338216543197632,-0.4685144424438476
-0.0320550911128521,0.8410916924476624,-0.0399668291211128,-0.7397312521934509,0.0388867929577827,-0.0020337998867034,0.0,0.0,0.6101675033569336,0.0907486677169799
-0.0323789604008197,0.8248044848442078,-0.0330316498875618,-0.723897397518158,0.0395311787724494,0.0128875849768519,0.0,0.0,-0.2015649080276489,0.4594109058380127
-0.0327026359736919,0.8080959320068359,-0.0333195105195045,-0.7426230907440186,0.0404665246605873,0.0187069475650787,0.0,0.0,-0.3887932300567627,0.849603533744812
-0.0329539291560649,0.7909619808197021,-0.024516912177205,-0.7614886164665222,0.0398668237030506,-0.0119939874857664,0.0,0.0,0.1568241119384765,0.7576858997344971
-0.0331090912222862,0.7738783955574036,-0.0137001555413007,-0.7592257857322693,0.0380793698132038,-0.0357491746544837,0.0,0.0,-0.2453562021255493,0.2258743047714233
-0.0332644470036029,0.7563736438751221,-0.0139948325231671,-0.7779514789581299,0.036556638777256,-0.0304545164108276,0.0,0.0,-0.1676005721092224,-0.0070674419403076
-0.0334200859069824,0.7384477853775024,-0.0142857898026704,-0.7966771721839905,0.0352886319160461,-0.0253600534051656,0.0,0.0,0.3218291997909546,0.7300211191177368
-0.0335516929626464,0.7207106947898865,-0.0106224147602915,-0.7882567048072815,0.0327854640781879,-0.0500632636249065,0.0,0.0,-0.601037859916687,-0.1089354753494262
-0.0336836799979209,0.7025524973869324,-0.0108967665582895,-0.8069825768470764,0.0305150654166936,-0.0454080998897552,0.0,0.0,0.11983323097229,0.1787413358688354
-0.0338702201843261,0.6847200393676758,-0.0163982324302196,-0.7925099730491638,0.0282848682254552,-0.0446038730442523,0.0,0.0,0.3437379598617553,-0.0886685848236084
-0.0339784622192382,0.6670124530792236,-0.0091936718672513,-0.7869796752929688,0.0266741160303354,-0.0322151109576225,0.0,0.0,0.4132685661315918,-0.0835210084915161
-0.034102439880371,0.6499068140983582,-0.0109772328287363,-0.7602259516716003,0.0252708382904529,-0.0280654989182949,0.0,0.0,0.2543672323226928,-0.3460818529129028
-0.034122847020626,0.6329393982887268,-0.0013361831661313,-0.7540983557701111,0.0245717614889144,-0.0139814987778663,0.0,0.0,0.0267941951751709,0.1042079925537109
-0.0342100150883197,0.6159877181053162,-0.0078922817483544,-0.7533988356590271,0.0237642508000135,-0.016150128096342,0.0,0.0,-0.1540620326995849,0.5583200454711914
-0.0342460647225379,0.5986215472221375,-0.0016432183329015,-0.7717940211296082,0.021823514252901,-0.0388145744800567,0.0,0.0,0.0637496709823608,0.5446023941040039
-0.0341496467590332,0.5814924240112305,0.0124010453000664,-0.7612579464912415,0.0190973822027444,-0.0545227341353893,0.0,0.0,0.3345215320587158,-0.583336591720581
-0.0340457931160926,0.5649460554122925,0.0117202410474419,-0.7353789210319519,0.0177846550941467,-0.0262546334415674,0.0,0.0,0.0215145349502563,0.285893440246582
-0.0339970588684082,0.5487058162689209,0.0063228458166122,-0.7217718958854675,0.0163554102182388,-0.0285847727209329,0.0,0.0,0.1789815425872802,0.4629069566726684
-0.0339153297245502,0.5324415564537048,0.0093663586303591,-0.7228439450263977,0.0151787176728248,-0.0235337279736995,0.0,0.0,0.2492361068725586,0.2628488540649414
-0.0339163765311241,0.5165497064590454,0.001373785897158,-0.7062876224517822,0.0137164182960987,-0.0292457304894924,0.0,0.0,-0.2539747953414917,0.6825128793716431
-0.0338510498404502,0.5002362728118896,0.0096248751506209,-0.7250144481658936,0.0106648122891783,-0.0610322654247283,0.0,0.0,0.7378923892974854,0.4684548377990722
-0.0337661728262901,0.4844692647457123,0.0114344796165823,-0.7007414102554321,0.0077546248212456,-0.0582038238644599,0.0,0.0,0.4615387916564941,0.679696798324585
-0.0336207374930381,0.468808650970459,0.0188439227640628,-0.6960117816925049,0.0035141722764819,-0.0848089605569839,0.0,0.0,0.1692135334014892,-0.744652271270752
-0.033633042126894,0.4533538520336151,0.0016737561672925,-0.6868755221366882,0.0006398863042704,-0.0574857294559478,0.0,0.0,0.1951045989990234,-0.1570043563842773
-0.0336276069283485,0.4384064972400665,0.0034133307635784,-0.6643294095993042,-0.0021971282549202,-0.0567401126027107,0.0,0.0,0.2020628452301025,0.3800747394561767
-0.0335590355098247,0.4233568906784057,0.0095104444772005,-0.6688778400421143,-0.0048136562108993,-0.0523306727409362,0.0,0.0,0.691630482673645,-0.0307609438896179
-0.0334551818668842,0.4091969728469848,0.012991894967854,-0.6293395757675171,-0.0073795872740447,-0.0513188056647777,0.0,0.0,0.8759253025054932,0.6285830736160278
-0.0334083549678325,0.3954201340675354,0.0089554144069552,-0.612331748008728,-0.0115939015522599,-0.0842861384153366,0.0,0.0,0.1258682012557983,-0.0615421533584594
-0.0334143638610839,0.3819153904914856,0.0040801991708576,-0.6002518534660339,-0.0162191428244113,-0.0925048738718032,0.0,0.0,0.0818351507186889,-0.7407546639442444
-0.0334445014595985,0.3686031103134155,0.000307326496113,-0.5916973352432251,-0.0194971039891242,-0.065559409558773,0.0,0.0,-0.3923062086105346,0.0531078577041626
-0.0334693901240825,0.3548696339130401,0.0010010416153818,-0.6104231476783752,-0.0229413043707609,-0.0688839331269264,0.0,0.0,0.7482755184173584,-0.5492081642150879
-0.0334348678588867,0.3416301012039184,0.0057948385365307,-0.5884615778923035,-0.0252556763589382,-0.0462871938943862,0.0,0.0,0.5390160083770752,-0.0070640444755554
-0.033416174352169,0.3285169005393982,0.0045662294141948,-0.5828568935394287,-0.0279266741126775,-0.0534198954701423,0.0,0.0,0.9539358615875244,-0.7057392001152039
-0.0333493240177631,0.3155502378940582,0.0079960618168115,-0.5763216018676758,-0.0292150806635618,-0.0257684234529733,0.0,0.0,0.7995669841766357,-0.3370508551597595
-0.0332985892891883,0.3027182817459106,0.0067967311479151,-0.5703457593917847,-0.0309189800173044,-0.0340776890516281,0.0,0.0,0.774869441986084,-0.6764007806777954
-0.033276654779911,0.2907516956329345,0.0028625938575714,-0.5318610668182373,-0.0315782614052295,-0.0131857097148895,0.0,0.0,0.6733899116516113,-0.2120307087898254
-0.0331390388309955,0.2795989215373993,0.0143574383109807,-0.4956922233104706,-0.0321630649268627,-0.0116960881277918,0.0,0.0,0.4383281469345093,-0.5921936631202698
-0.0331224426627159,0.2691051065921783,0.0016239555552601,-0.4663914740085602,-0.0321240313351154,0.000780533067882,0.0,0.0,-0.2259101271629333,-0.1958928108215332
-0.0330960266292095,0.2581900954246521,0.0029494436457753,-0.4851169884204864,-0.0324287042021751,-0.006093377713114,0.0,0.0,0.0359786748886108,-0.2080578804016113
-0.0330179221928119,0.2475958615541458,0.0083773955702781,-0.4708664119243622,-0.0329811349511146,-0.0110488180071115,0.0,0.0,0.3280378580093384,-0.1385858058929443
-0.0329947471618652,0.2372780889272689,0.0036388703156262,-0.4585974812507629,-0.0342958196997642,-0.0262935608625412,0.0,0.0,0.5296170711517334,-0.8391517400741577
-0.0330616012215614,0.2274898141622543,-0.0065408484078943,-0.4350361824035644,-0.0344294346868991,-0.0026722638867795,0.0,0.0,0.1552208662033081,0.1452329158782959
-0.0331074707210063,0.2180139571428299,-0.0039897193200886,-0.4211664497852325,-0.035027127712965,-0.0119539564475417,0.0,0.0,-0.0152029991149902,-0.2025309801101684
-0.0331404693424701,0.2081169635057449,-0.0022418200969696,-0.4398924112319946,-0.036069355905056,-0.0208446886390447,0.0,0.0,0.6257973909378052,-0.7845445275306702
-0.0331841483712196,0.1982980072498321,-0.0044687716290354,-0.4363937079906463,-0.0359687395393848,0.0020123203285038,0.0,0.0,0.0440121889114379,-0.4374770522117615
-0.0331458076834678,0.188436284661293,0.0039475481025874,-0.4383021295070648,-0.0360782034695148,-0.0021891244687139,0.0,0.0,0.1549242734909057,-0.7779711484909058
-0.033021830022335,0.1787486374378204,0.0113517306745052,-0.4305376708507538,-0.0350412316620349,0.0207393839955329,0.0,0.0,0.4188017845153808,-0.710612952709198
-0.0327939987182617,0.1691381782293319,0.0205944124609231,-0.4270804524421692,-0.0328804478049278,0.0432155728340148,0.0,0.0,0.7240450382232666,-0.6677963137626648
-0.0325832366943359,0.1602898985147476,0.0180973187088966,-0.3931959569454193,-0.029937494546175,0.0588589906692504,0.0,0.0,-0.2518081665039062,-0.7248592376708984
-0.0324097648262977,0.1510285437107086,0.013530371710658,-0.411542147397995,-0.0261737052351236,0.0752760469913482,0.0,0.0,0.3092547655105591,0.1611669063568115
-0.032106302678585,0.1421351283788681,0.0266456715762615,-0.3952035903930664,-0.0225157011300325,0.0731600522994995,0.0,0.0,0.2898390293121338,-0.5895592570304871
-0.0317390449345111,0.1331954300403595,0.0322468094527721,-0.3972597122192383,-0.0180944930762052,0.0884241536259651,0.0,0.0,0.3845793008804321,-0.6138936281204224
-0.0314420685172081,0.124475821852684,0.024677699431777,-0.3874877393245697,-0.0131401028484106,0.099087968468666,0.0,0.0,0.457271933555603,0.1229324340820312
-0.0310409553349018,0.1164752542972564,0.0353532768785953,-0.3555470407009125,-0.0084438063204288,0.0939259380102157,0.0,0.0,-0.0637475848197937,-0.3351576924324035
-0.0306198112666606,0.1080536916851997,0.0379854179918766,-0.3742739856243133,-0.0043633175082504,0.081609770655632,0.0,0.0,0.5161212682723999,-0.2876851558685303
-0.0302888862788677,0.1003068313002586,0.0301266573369503,-0.3443012833595276,-0.0014387839473783,0.0584905967116355,0.0,0.0,0.4449310302734375,-0.9305338859558104
-0.0299225803464651,0.0930589288473129,0.0323439426720142,-0.3221291601657867,0.0027818516828119,0.0844129770994186,0.0,0.0,0.1209532022476196,0.4900624752044678
-999.0,0.0861533507704734,0.0315856263041496,-0.3069249987602234,0.0061849085614085,0.0680609866976738,0.0,0.0,0.1167011260986328,-0.4670628309249878
-0.0292585380375385,0.0795851573348045,0.0288549847900867,-0.2919315099716186,0.0086696092039346,0.0496941991150379,0.0,0.0,0.0680359601974487,0.1615023612976074
-0.0289406776428222,0.0730783343315124,0.030019512400031,-0.2892045378684997,0.0104107204824686,0.0348223522305488,0.0,0.0,-0.0169329047203063,0.9366393089294434
-0.0285395625978708,0.0661519393324852,0.0405551418662071,-0.3078350126743316,0.0099717760458588,-0.008778927847743,0.0,0.0,0.35598886013031,-0.723088264465332
-0.0283137317746877,0.0594444125890731,0.0224827099591493,-0.2981127798557281,0.01007198728621,0.0020040445961058,0.0,0.0,0.683207631111145,0.6326190233230591
-0.027903938665986,0.0534199588000774,0.0425739586353302,-0.2677455544471741,0.008497123606503,-0.0314972177147865,0.0,0.0,-0.3210175037384033,0.0677744150161743
-0.0274691581726074,0.0469741448760032,0.0457869470119476,-0.2864698469638824,0.0062199579551815,-0.0455435812473297,0.0,0.0,0.6653041839599609,-0.6194318532943726
-0.0269046779721975,0.0412662588059902,0.0578431412577629,-0.2536763548851013,0.0048445393331348,-0.0275081545114517,0.0,0.0,0.1671309471130371,-0.9395630359649658
-0.0264102928340435,0.0359665714204311,0.0496721863746643,-0.2355427145957946,0.0046173436567187,-0.0045439125970005,0.0,0.0,-0.0821655392646789,-0.4837685823440552
-0.0258893966674804,0.0302455276250839,0.0530410334467887,-0.2542670667171478,0.0036677825264632,-0.0189911853522062,0.0,0.0,0.319083571434021,-0.6839967966079712
-0.0253298766911029,0.0247974246740341,0.0561641678214073,-0.2421381622552871,0.0034595518372952,-0.0041647916659712,0.0,0.0,0.355782151222229,-0.4926964044570923
-0.0247513763606548,0.0199329704046249,0.0588325671851635,-0.2161961942911148,0.0024901712313294,-0.0193874277174472,0.0,0.0,0.3993692398071289,-0.5136570930480957
-0.0241321567445993,0.0156523808836936,0.0624845549464225,-0.1902475655078888,0.0019380452577024,-0.0110425576567649,0.0,0.0,-0.2040909528732299,-0.8314617276191711
-0.023542022332549,0.0109461406245827,0.058880515396595,-0.2091656476259231,0.0020744281355291,0.0027276135515421,0.0,0.0,0.4209504127502441,-0.3852788209915161
-0.0230298042297363,0.0066159460693597,0.0523305758833885,-0.1924515664577484,0.0009760349639691,-0.021967988461256,0.0,0.0,0.6364595890045166,0.3442531824111938
-0.0226166732609272,0.002629110822454,0.0437862537801265,-0.1771922558546066,-0.0014628013595938,-0.0487769916653633,0.0,0.0,0.5830615758895874,-0.2733004093170166
-0.022194480523467,-0.0009685897966846,0.0455579087138175,-0.1599051505327224,-0.0047532427124679,-0.0658086761832237,0.0,0.0,0.5152120590209961,-0.6656009554862976
-0.021666144952178,-0.0035538815427571,0.0361823141574859,-0.114929087460041,0.0116926357150077,0.3289310932159424,1.0,1.0,0.9832214117050172,0.603585958480835
-0.0210037231445312,-0.0048513556830585,0.0498283021152019,-0.0581438727676868,0.0266946796327829,0.2985065579414367,1.0,1.0,0.7548861503601074,0.2645753622055053
-0.0204861648380756,-0.0047970674932003,0.0521440133452415,0.0024106353521347,0.0262822620570659,-0.0082656731829047,1.0,1.0,-0.4386372566223144,-0.5523553490638733
-0.020143698900938,-0.0042353058233857,0.0385111346840858,0.025032915174961,0.0220597088336944,-0.0844665318727493,1.0,1.0,-0.3557996749877929,-0.4877406358718872
-0.0198281295597553,-0.003371741855517,0.0380479469895362,0.0384586974978446,0.0156363397836685,-0.128477543592453,1.0,1.0,-0.2518659830093384,-0.894169807434082
