x_pos,y_pos,x_vel,y_vel,angle,ang_vel,leg_1,leg_2,main_booster,lat_booster
-0.0015174865256994,1.4035040140151978,-0.1540084481239318,-0.3295995593070984,0.0020264226477593,0.0399928577244281,0.0,0.0,0.4926888846084356,-0.8466718443273894
-0.0030447959434241,1.3966119289398191,-0.1567555367946624,-0.3063243627548218,0.0060018016956746,0.079515591263771,0.0,0.0,-0.4657769612346756,-0.9591755596423498
-0.004627323243767,1.3895916938781738,-0.1639909148216247,-0.3120424449443817,0.0116821601986885,0.11361775547266,0.0,0.0,-0.4209984812485294,0.8834796525787869
-0.0061518670991063,1.382449746131897,-0.1569923460483551,-0.3174680769443512,0.0161733292043209,0.0898313224315643,0.0,0.0,0.7551709471291879,0.612347070533851
-0.0074913976714015,1.3762331008911133,-0.1378683000802993,-0.2763347327709198,0.0200494527816772,0.0775294601917266,0.0,0.0,0.2019931827060888,-0.574213153097718
-0.0087745664641261,1.3704901933670044,-0.1337932497262954,-0.255325049161911,0.0254635885357856,0.1082926765084266,0.0,0.0,-0.4032170786363767,-0.712428169655942
-0.0101182935759425,1.3646254539489746,-0.1414891630411148,-0.2608010470867157,0.0325058810412883,0.140858769416809,0.0,0.0,0.3367108033134316,-0.6067238473751015
-0.011398029513657,1.3594317436218262,-0.1367471814155578,-0.2310432344675064,0.0411760509014129,0.1734197288751602,0.0,0.0,-0.8002653750344944,0.6985069691062769
-0.0126298908144235,1.354129433631897,-0.1307126879692077,-0.2358821481466293,0.0486181676387786,0.1488562822341919,0.0,0.0,0.5680441872126325,-0.894348250984601
-0.0139741897583007,1.3497411012649536,-0.1438401788473129,-0.1953674852848053,0.0579435303807258,0.1865243017673492,0.0,0.0,-0.3161836071360733,0.8160109258575287
-0.0152543066069483,1.345240354537964,-0.1356489956378936,-0.2003504484891891,0.0655104666948318,0.1513522863388061,0.0,0.0,0.1156342168309911,0.5458111861826929
-0.0164729114621877,1.3411622047424316,-0.1285872459411621,-0.1815591752529144,0.0721678808331489,0.1331608593463897,0.0,0.0,-0.2229624400220933,0.6046205036783984
-0.0176466945558786,1.3369734287261963,-0.122670367360115,-0.1864302307367324,0.0774179324507713,0.1050106287002563,0.0,0.0,0.5858573791606045,-0.630873568034164
-0.0188387874513864,1.3331714868545532,-0.1259745210409164,-0.1693416088819503,0.0841250717639923,0.1341553181409835,0.0,0.0,0.0650454540858918,0.5887092274004915
-0.0199446678161621,1.3300687074661257,-0.116328440606594,-0.1382370442152023,0.0898256376385688,0.1140217185020446,0.0,0.0,0.8704291655493719,-0.8290264209295808
-0.021027946844697,1.3273485898971558,-0.1160178408026695,-0.1213740035891532,0.0974524766206741,0.152550995349884,0.0,0.0,0.7885511761347397,0.8286148797918418
-0.0219939239323139,1.3259344100952148,-0.1029008030891418,-0.0632808282971382,0.1037180349230766,0.1253226846456527,0.0,0.0,-0.0585967432089471,0.8109045512128858
-0.022902775555849,1.3244051933288574,-0.0951286405324935,-0.0682621374726295,0.1079377382993698,0.0844014137983322,0.0,0.0,-0.8705640104791954,-0.6892257632073571
-0.0238814353942871,1.3227550983428955,-0.1031905561685562,-0.0737316384911537,0.1132313385605812,0.1058814898133277,0.0,0.0,-0.0958349515498324,-0.968852026656002
-0.0249722488224506,1.320969581604004,-0.1164989843964576,-0.079924538731575,0.1206148564815521,0.147683635354042,0.0,0.0,0.997242905663096,-0.8821030560584311
-0.0261022560298442,1.3204426765441897,-0.1224077716469764,-0.0242122914642095,0.1299796104431152,0.187312439084053,0.0,0.0,-0.7698925610601568,0.5421957635897031
-0.0272187236696481,1.3198010921478271,-0.1197860464453697,-0.029241532087326,0.1380978226661682,0.1623790115118026,0.0,0.0,-0.2598399024075462,0.8877906739693864
-0.0282824523746967,1.3190560340881348,-0.1121780425310134,-0.0336627401411533,0.1438958048820495,0.1159698516130447,0.0,0.0,0.992234952341071,0.8148374193543259
-0.0292783733457326,1.3187739849090576,-0.1037788987159729,-0.0129465479403734,0.1480839103460312,0.0837696567177772,0.0,0.0,-0.5367438134120177,0.6931514305137119
-0.0302683822810649,1.3183822631835938,-0.1019252762198448,-0.0176987294107675,0.1510006934404373,0.0583410374820232,0.0,0.0,-0.2599936458436875,0.5923130396811407
-0.0312587730586528,1.3178598880767822,-0.1008228212594986,-0.0234022624790668,0.1527848690748214,0.0356839410960674,0.0,0.0,-0.4329735953517832,0.6272446228246976
-0.0322392471134662,1.3172318935394287,-0.0983099117875099,-0.0279384832829237,0.1530490070581436,0.0052828625775873,0.0,0.0,0.8600569220677237,-0.8456685802654978
-0.0336288437247276,1.317816972732544,-0.1403236091136932,0.0258593205362558,0.1544097512960434,0.0272150989621877,0.0,0.0,0.7479257486424415,0.7601746275015958
-0.0352776534855365,1.3194807767868042,-0.1641065776348114,0.07403264939785,0.1536381542682647,-0.0154323112219572,0.0,0.0,0.912041675105769,-0.5838589638034843
-0.0371281616389751,1.3218414783477783,-0.1850484162569046,0.1049201190471649,0.1536442339420318,0.0001215732627315,0.0,0.0,0.6482536163479413,0.8570267749984886
-0.0390673652291297,1.3253631591796875,-0.191899836063385,0.1567253172397613,0.1516223400831222,-0.040437888354063,0.0,0.0,-0.658931314945221,-0.5337928533554077
-0.0411010757088661,1.3287500143051147,-0.2021916657686233,0.1506426185369491,0.1504467874765396,-0.0235111825168132,0.0,0.0,-0.7111490368843079,0.01381516456604
-0.0431839935481548,1.3320157527923584,-0.2067389488220214,0.1452999860048294,0.148890271782875,-0.031130451709032,0.0,0.0,-0.6645205616950989,-0.6721372604370117
-0.0453752502799034,1.3351413011550903,-0.2186630964279174,0.138958990573883,0.1484234035015106,-0.0093372780829668,0.0,0.0,-0.6896555423736572,-0.2845231890678406
-0.0476189628243446,1.3381456136703491,-0.223480150103569,0.1336168646812439,0.1475376635789871,-0.0177148766815662,0.0,0.0,-0.7405847907066345,-0.1007066369056701
-0.0499164573848247,1.3410288095474243,-0.228425070643425,0.1282748728990554,0.1462150067090988,-0.0264533348381519,0.0,0.0,-0.8533676862716675,0.0476537942886352
-0.0522692687809467,1.3437910079956057,-0.2334928810596466,0.1229329630732536,0.1444380134344101,-0.0355399213731288,0.0,0.0,-0.8013376593589783,-0.42794930934906
-0.0546785369515419,1.346431851387024,-0.238678365945816,0.1175910905003547,0.142189934849739,-0.044961504638195,0.0,0.0,-0.8326119780540466,-0.6335111856460571
-0.057199191302061,1.3489471673965454,-0.250676691532135,0.1119256094098091,0.1408002525568008,-0.0277935359627008,0.0,0.0,-0.7748202681541443,0.1305159330368042
-0.0597789771854877,1.3513412475585938,-0.2560814321041107,0.1065840646624565,0.1389079838991165,-0.0378453694283962,0.0,0.0,-0.8914617300033569,-0.0677652955055236
-0.0624190345406532,1.3536142110824585,-0.2615873217582702,0.1012424677610397,0.1364983469247818,-0.0481923185288906,0.0,0.0,-0.8332301378250122,-0.7233333587646484
-0.0651653259992599,1.3557549715042114,-0.272831380367279,0.0953105837106704,0.1347072124481201,-0.0358223170042037,0.0,0.0,-0.932017743587494,0.052320122718811
-0.0679738968610763,1.3577744960784912,-0.2785218358039856,0.0899691432714462,0.1323712170124054,-0.0467197969555854,0.0,0.0,-0.8654816746711731,-0.4508016109466553
-0.0708459839224815,1.359673023223877,-0.284295380115509,0.0846275612711906,0.1294775903224945,-0.0578730404376983,0.0,0.0,-0.9003486633300781,-0.4318457841873169
-0.0737822502851486,1.3614501953125,-0.2901456952095032,0.0792857334017753,0.1260141283273697,-0.069269374012947,0.0,0.0,-0.9117035269737244,-0.135472297668457
-0.0767836570739746,1.363106369972229,-0.2960662841796875,0.0739435702562332,0.1219693049788475,-0.0808963626623153,0.0,0.0,-0.9459786415100098,-0.7142031192779541
-0.0799007415771484,1.3646283149719238,-0.3083455562591553,0.0679114907979965,0.1186152100563049,-0.0670816153287887,0.0,0.0,-0.9268194437026978,-0.6079279184341431
-0.0831416100263595,1.366025447845459,-0.3215514123439789,0.0622922107577323,0.1160954609513282,-0.0503947809338569,0.0,0.0,-0.976399064064026,0.2970309257507324
-0.0864496231079101,1.3673014640808103,-0.3276435136795044,0.0569503270089626,0.1129632592201232,-0.0626436918973922,0.0,0.0,-0.9358349442481996,-0.371747612953186
-0.08982515335083,1.3684563636779783,-0.3337790369987488,0.0516080819070339,0.1092093586921691,-0.0750779137015342,0.0,0.0,-0.9359135031700134,-0.6045742034912109
-0.0933050140738487,1.3694839477539062,-0.3444958329200744,0.0459258295595645,0.105743758380413,-0.0693121328949928,0.0,0.0,-0.897148072719574,-0.3209128379821777
-0.0968533530831337,1.3703906536102295,-0.3506969809532165,0.040583174675703,0.1016394197940826,-0.0820866748690605,0.0,0.0,-0.9904272556304932,-0.6467570662498474
-0.100511834025383,1.371166467666626,-0.3621250987052917,0.0347251035273075,0.0979453399777412,-0.0738815516233444,0.0,0.0,-0.9952806830406188,-0.5935436487197876
-0.1042861938476562,1.3718196153640747,-0.3742325901985168,0.0292420666664838,0.0947723910212516,-0.0634591728448867,0.0,0.0,-0.990789830684662,-0.5434985160827637
-0.1081617325544357,1.3723453283309937,-0.3845078349113464,0.0235523097217082,0.0917545482516288,-0.0603567883372306,0.0,0.0,-0.985969603061676,-0.3004011511802673
-0.1121064200997352,1.3727498054504397,-0.3907521665096283,0.0182093754410743,0.0880693346261978,-0.0737042650580406,0.0,0.0,-0.9891706109046936,-0.3782296776771545
-0.1161202415823936,1.3730337619781494,-0.3969880938529968,0.0128659112378954,0.0837105736136436,-0.0871751606464386,0.0,0.0,-0.948270857334137,-0.7026601433753967
-0.1202460303902626,1.3731942176818848,-0.4085826873779297,0.0073484084568917,0.079750582575798,-0.0791999548673629,0.0,0.0,-0.9925296902656556,-0.6503534913063049
-0.1244860664010047,1.373235106468201,-0.4204515516757965,0.0020007647108286,0.0762384086847305,-0.0702433884143829,0.0,0.0,-0.9563141465187072,-0.5719484090805054
-0.1288457810878753,1.3731542825698853,-0.4330181181430816,-0.0034467880614101,0.0733179003000259,-0.0584102943539619,0.0,0.0,-0.99076110124588,-0.8095182180404663
-0.1333317756652832,1.372939109802246,-0.4464408457279205,-0.0094612669199705,0.0711792558431625,-0.0427732169628143,0.0,0.0,-0.920051336288452,-0.4724880456924438
-0.137885570526123,1.372602939605713,-0.4525130689144134,-0.0148047767579555,0.0683409795165062,-0.0567654781043529,0.0,0.0,-0.9844065308570862,-0.3324677944183349
-0.1425065994262695,1.3721460103988647,-0.4585270881652832,-0.02014871686697,0.0647986903786659,-0.0708455964922905,0.0,0.0,-0.8278694152832031,-0.7728316783905029
-0.1472530364990234,1.3715636730194092,-0.4718368649482727,-0.0257606375962495,0.0620262175798416,-0.0554493851959705,0.0,0.0,-0.8786212801933289,-0.255847692489624
-0.1520653665065765,1.3708606958389282,-0.4777077138423919,-0.0311048720031976,0.0585416406393051,-0.0696915760636329,0.0,0.0,-0.9542534351348876,-0.2298320531845092
-0.1569427549839019,1.370037078857422,-0.4834931492805481,-0.0364496745169162,0.0543412119150161,-0.0840086638927459,0.0,0.0,-0.8997140526771545,-0.5697616338729858
-0.1619279831647873,1.3690955638885498,-0.4946552813053131,-0.0416978485882282,0.0505134612321853,-0.0765550509095192,0.0,0.0,-0.9315289855003356,0.3816686868667602
-0.1669764518737793,1.3680338859558103,-0.5002414584159851,-0.0470433123409748,0.0459628999233245,-0.0910110622644424,0.0,0.0,-0.9637394547462464,-0.1605268716812133
-0.1720869988203048,1.3668516874313354,-0.5057135224342346,-0.0523895472288131,0.0406863279640674,-0.105531595647335,0.0,0.0,-0.8232398629188538,-0.5038870573043823
-0.1773044615983963,1.365544080734253,-0.5168357491493225,-0.0579912401735782,0.035840019583702,-0.0969261229038238,0.0,0.0,-0.9256120920181274,-0.1434060335159301
-0.1825814247131347,1.3641161918640137,-0.5220491886138916,-0.0633383020758628,0.0302616562694311,-0.1115673035383224,0.0,0.0,-0.8563568592071533,-0.5215307474136353
-0.187955766916275,1.3625673055648804,-0.5320314168930054,-0.0687419325113296,0.0249326061457395,-0.1065810546278953,0.0,0.0,-0.9162883162498474,0.2842700481414795
-0.1933866441249847,1.3608983755111694,-0.5369447469711304,-0.0740900561213493,0.0188659653067588,-0.1213328689336776,0.0,0.0,-0.8385937809944153,-0.2079144716262817
-0.1988725662231445,1.3591091632843018,-0.5416920781135559,-0.0794392749667167,0.0120591484010219,-0.1361366212368011,0.0,0.0,-0.9811641573905944,0.3603725433349609
-0.2044117003679275,1.3572006225585938,-0.5462625026702881,-0.0847897082567215,0.0045096380636096,-0.1509903520345688,0.0,0.0,-0.9753966331481934,0.4684368371963501
-0.2100021839141845,1.3551722764968872,-0.5506450533866882,-0.0901414975523948,-0.0037849622312933,-0.1658921241760254,0.0,0.0,-0.9860643744468688,-0.5535411834716797
-0.2156881839036941,1.3530194759368896,-0.5606147050857544,-0.0957256406545639,-0.01166857406497,-0.1576721966266632,0.0,0.0,-0.8550912737846375,0.3873844146728515
-0.2214215248823166,1.3507474660873413,-0.5645878911018372,-0.101078875362873,-0.0203018318861722,-0.1726651787757873,0.0,0.0,-0.94816654920578,0.311741828918457
-0.2271999418735504,1.3483562469482422,-0.568339467048645,-0.1064336970448494,-0.0296868868172168,-0.1877011954784393,0.0,0.0,-0.9551729559898376,-0.0258368253707885
-0.2330211699008941,1.345846176147461,-0.5718580484390259,-0.111790232360363,-0.0398258231580257,-0.2027787268161773,0.0,0.0,-0.8359619379043579,0.5624597072601318
-0.2388479709625244,1.3432101011276243,-0.570766031742096,-0.1175227910280227,-0.0516000166535377,-0.2354839146137237,0.0,0.0,-0.98023784160614,0.2286939620971679
-0.244712546467781,1.340456247329712,-0.5737848877906799,-0.122884951531887,-0.0641319826245307,-0.2506393790245056,0.0,0.0,-0.9812997579574584,0.5932708978652954
-0.2505732476711273,1.3375811576843262,-0.5716471672058105,-0.1284609735012054,-0.0784059166908264,-0.2854786813259125,0.0,0.0,-0.9290370345115662,-0.0876622200012207
-0.2564662098884582,1.3345893621444702,-0.5741215944290161,-0.1338302940130233,-0.0934411808848381,-0.3007054924964905,0.0,0.0,-0.9486426711082458,-0.1489430665969848
-0.262388527393341,1.3314814567565918,-0.5763072371482849,-0.1392024010419845,-0.1092394739389419,-0.3159657716751098,0.0,0.0,-0.8757606744766235,-0.0141489505767822
-0.2683371007442474,1.32825767993927,-0.5781935453414917,-0.1445774883031845,-0.1258023679256439,-0.3312577605247497,0.0,0.0,-0.967801570892334,0.5769281387329102
-0.2742622792720794,1.324904441833496,-0.5739096403121948,-0.1507044583559036,-0.1443312764167785,-0.370578408241272,0.0,0.0,-0.9495306015014648,-0.4849100112915039
-0.280207097530365,1.321437120437622,-0.5751672983169556,-0.156089499592781,-0.1636275798082351,-0.3859260678291321,0.0,0.0,-0.957935094833374,-0.2942785024642944
-0.2861683368682861,1.3178560733795166,-0.576095700263977,-0.1614781022071838,-0.1836925148963928,-0.4012988209724426,0.0,0.0,-0.978809416294098,-0.72225022315979
-0.2921861708164215,1.3141684532165527,-0.5821728706359863,-0.1664413660764694,-0.2034173309803009,-0.394496738910675,0.0,0.0,-0.9120546579360962,-0.7478334903717041
-0.2982709407806396,1.3103909492492676,-0.589685320854187,-0.170586958527565,-0.2223918437957763,-0.3794904053211212,0.0,0.0,-0.7486214637756348,0.76090407371521
-0.3042988181114197,1.3064855337142944,-0.5817363262176514,-0.1768960952758789,-0.2437449842691421,-0.4270631670951843,0.0,0.0,-0.5634883046150208,-0.4211252927780151
-0.3103284239768982,1.3024682998657229,-0.5812623500823975,-0.1822962015867233,-0.2658703923225403,-0.4425083994865417,0.0,0.0,-0.4774432182312011,-0.7112852334976196
-0.3164023458957672,1.298350811004639,-0.5862262845039368,-0.1869908720254898,-0.2875763177871704,-0.4341190755367279,0.0,0.0,0.3016184568405151,-0.8580442667007446
-0.3224670886993408,1.2947453260421753,-0.5863455533981323,-0.1643527299165725,-0.3083545863628387,-0.4155662655830383,0.0,0.0,-0.0277370810508728,-0.4134622812271118
-0.3285219073295593,1.2910282611846924,-0.5847461819648743,-0.1697543114423751,-0.329906016588211,-0.4310286045074463,0.0,0.0,0.7017492055892944,-0.6467320322990417
-0.3344456553459167,1.2880690097808838,-0.5722564458847046,-0.1362594217061996,-0.3509687483310699,-0.4212546348571777,0.0,0.0,0.1516600847244262,-0.7322912812232971
-0.3403060436248779,1.2858662605285645,-0.5666759014129639,-0.1027626544237136,-0.371385246515274,-0.4083298742771148,0.0,0.0,-0.0211521983146667,-0.5754901766777039
-0.3461798131465912,1.2835756540298462,-0.5684040188789368,-0.1068621575832367,-0.3915566205978393,-0.4034274518489837,0.0,0.0,0.3611358404159546,-0.5820465683937073
-0.3518775105476379,1.282088279724121,-0.5512623190879822,-0.0713315159082412,-0.4113881289958954,-0.3966299295425415,0.0,0.0,0.0346145629882812,-0.7940208315849304
-0.3574685156345367,1.281212568283081,-0.5415689945220947,-0.0441405959427356,-0.430348664522171,-0.3792104423046112,0.0,0.0,0.5858108997344971,-0.5627775192260742
-0.3628903925418854,1.2809184789657593,-0.5251060724258423,-0.01840540766716,-0.4489699900150299,-0.372426688671112,0.0,0.0,-0.1680138111114502,-0.8774233460426331
-0.3683481216430664,1.280566692352295,-0.530138373374939,-0.0207585263997316,-0.4661677479743957,-0.3439549207687378,0.0,0.0,0.332211971282959,-0.5697080492973328
-0.3737329840660095,1.280786395072937,-0.5231375098228455,0.004529898520559,-0.4831983745098114,-0.3406122326850891,0.0,0.0,0.5997765064239502,-0.4480766057968139
-0.3786582350730896,1.2817469835281372,-0.477056086063385,0.0371810421347618,-0.5005124807357788,-0.3462826907634735,0.0,0.0,0.3469818830490112,-0.5922185182571411
-0.3833839893341064,1.2829806804656982,-0.4577741026878357,0.0493408478796482,-0.5172348022460938,-0.3344466686248779,0.0,0.0,0.3717244863510132,-0.6346772313117981
-0.3876697421073913,1.284870982170105,-0.4146366715431213,0.078632541000843,-0.5331215262413025,-0.3177340030670166,0.0,0.0,0.271073579788208,-0.568739116191864
-0.3916482925415039,1.287472367286682,-0.3844301104545593,0.110252596437931,-0.5485718250274658,-0.3090054392814636,0.0,0.0,0.1052558422088623,-0.728083074092865
-0.3952206671237945,1.290658950805664,-0.3447172939777374,0.1364526152610778,-0.5631204843521118,-0.2909728288650512,0.0,0.0,-0.1184688806533813,-0.5061584115028381
-0.3987582325935364,1.2937604188919067,-0.3415236175060272,0.1326241642236709,-0.5774545669555664,-0.2866819500923157,0.0,0.0,-0.0973345041275024,-0.6041913628578186
-0.4022658467292785,1.296792984008789,-0.3391516208648681,0.1296687722206115,-0.5911900997161865,-0.2747099995613098,0.0,0.0,-0.1515217423439026,-0.5975995063781738
-0.4057352542877197,1.2997517585754397,-0.3358166813850403,0.126456156373024,-0.6044749021530151,-0.2656960785388946,0.0,0.0,0.1532487869262695,-0.6266618967056274
-0.4089383482933044,1.3029778003692627,-0.3098784387111664,0.1385185122489929,-0.6170382499694824,-0.2512683570384979,0.0,0.0,-0.1870253682136535,-0.6879273056983948
-0.412116140127182,1.3061469793319702,-0.3083408772945404,0.1363465785980224,-0.6285026669502258,-0.2292878925800323,0.0,0.0,-0.4891242980957031,-0.4967367649078369
-0.4152136445045471,1.309202790260315,-0.2998308539390564,0.1309566348791122,-0.6406501531600952,-0.2429493218660354,0.0,0.0,0.0179663896560668,-0.7272763252258301
-0.4180777072906494,1.312626600265503,-0.2773145139217376,0.1476062089204788,-0.6518905758857727,-0.2248089015483856,0.0,0.0,-0.2219079136848449,-0.2522103786468506
-0.4208555221557617,1.3159369230270386,-0.2682413458824157,0.1422170549631118,-0.6637874841690063,-0.2379383146762848,0.0,0.0,-0.260079562664032,-0.3032605648040771
-0.42354416847229,1.319133758544922,-0.2589049339294433,0.13682721555233,-0.6763255596160889,-0.2507632672786712,0.0,0.0,-0.4883157014846802,-0.5946201086044312
-0.4261698722839355,1.3222551345825195,-0.2530762255191803,0.1335991472005844,-0.6883899569511414,-0.2412874698638916,0.0,0.0,-0.3862323760986328,-0.6026545763015747
-0.4287329614162445,1.3253096342086792,-0.2474424540996551,0.1308446228504181,-0.6997796297073364,-0.2277925014495849,0.0,0.0,-0.2542747259140014,-0.571161150932312
