x_pos,y_pos,x_vel,y_vel,angle,ang_vel,leg_1,leg_2,main_booster,lat_booster
-0.0014872550964355,1.4032800197601318,-0.15043506026268,-0.3395650684833526,0.0015267863636836,0.030099794268608,0.0,0.0,0.5602676465307417,-0.8559512680793415
-0.002951240632683,1.3959676027297974,-0.149483323097229,-0.3249982893466949,0.0045753414742648,0.0609776154160499,0.0,0.0,0.191445024402024,0.8942634908555075
-0.0041979788802564,1.3887418508529663,-0.1258143484592437,-0.3211471140384674,0.0057023931294679,0.0225428566336631,0.0,0.0,-0.3587251369492765,-0.8807308583061356
-0.0054912567138671,1.381168007850647,-0.1323425024747848,-0.3366332054138183,0.0086922654882073,0.0598027408123016,0.0,0.0,0.7035709873026121,-0.9500908461759592
-0.0066797258332371,1.3742622137069702,-0.1237825378775596,-0.3069580793380737,0.0135704530403018,0.0975724384188652,0.0,0.0,0.3609931316973431,0.871142213314207
-0.0076410295441746,1.3676856756210327,-0.0992256253957748,-0.2923216819763183,0.0166456867009401,0.0615102536976337,0.0,0.0,0.5287264647640413,-0.81886600112991
-0.0086626056581735,1.3615639209747314,-0.1066368073225021,-0.2721354067325592,0.0210765898227691,0.0886259004473686,0.0,0.0,0.7619855940500833,0.9839823206955294
-0.0094066616147756,1.356143355369568,-0.0769655928015708,-0.2409553378820419,0.0236063711345195,0.0506005473434925,0.0,0.0,-0.4935353105741906,-0.9773299351906366
-0.0101933479309082,1.3503859043121338,-0.0829870849847793,-0.25595822930336,0.0278817731887102,0.0855158418416976,0.0,0.0,-0.6093094446433909,-0.6553417536593865
-0.0109957698732614,1.3442862033843994,-0.0856499969959259,-0.2712086141109466,0.0332260392606258,0.1068950518965721,0.0,0.0,0.1244404227569035,-0.9258532096571036
-0.01177978515625,1.3384493589401243,-0.0854356363415718,-0.2595874965190887,0.0401905737817287,0.1393034309148788,0.0,0.0,-0.5937409995564593,-0.9307860503718222
-0.0125926975160837,1.3322627544403076,-0.0897469446063041,-0.2752132415771484,0.0485525541007518,0.1672547310590744,0.0,0.0,-0.2319135912277863,-0.611867787075185
-0.013408089056611,1.325732707977295,-0.0907088965177536,-0.2905450165271759,0.0576330982148647,0.1816274374723434,0.0,0.0,-0.0941408404354637,-0.9384862707122286
-0.0142532344907522,1.3188447952270508,-0.0951099470257759,-0.3065694868564605,0.0681320205330848,0.2099976241588592,0.0,0.0,0.0755055208788497,0.7715009659501979
-0.0149334911257028,1.312441349029541,-0.0769138187170028,-0.2850191295146942,0.0769371464848518,0.1761184632778167,0.0,0.0,-0.8573476660871426,-0.7972109728768014
-0.0156295783817768,1.3056788444519043,-0.0795547291636467,-0.3010918796062469,0.0868083015084266,0.1974411904811859,0.0,0.0,0.8807294460667208,-0.750842470497769
-0.0162649154663085,1.3000515699386597,-0.0751428455114364,-0.2508150041103363,0.0983303114771843,0.2304610908031463,0.0,0.0,0.0305057790394058,-0.9824740179132068
-0.0168585777282714,1.2944260835647583,-0.0726449340581893,-0.2509483098983764,0.1115296632051467,0.2640111744403839,0.0,0.0,0.4204207419612265,-0.954147878450449
-0.0174752231687307,1.2894994020462036,-0.0766793042421341,-0.2201498299837112,0.1264752298593521,0.2989381849765777,0.0,0.0,-0.5024462848981752,0.6808745639807484
-0.0180116649717092,1.2842388153076172,-0.0672128647565841,-0.2350126802921295,0.1400090008974075,0.2707000970840454,0.0,0.0,0.9613524634210772,-0.962136276323726
-0.0185487754642963,1.279987931251526,-0.0692427530884742,-0.1904607713222503,0.1555260270833969,0.3103684186935425,0.0,0.0,-0.6152311520691245,0.9858123389498838
-0.0189735405147075,1.2754074335098269,-0.05571910738945,-0.2050220519304275,0.1687998175621032,0.2654995918273926,0.0,0.0,-0.0733400190192063,0.941555059339214
-0.0192755702883005,1.2705050706863403,-0.0409149155020713,-0.2191320061683654,0.1795495301485061,0.2150137424468994,0.0,0.0,-0.5808376769658841,0.6229156287656497
-0.0194894783198833,0.0,-0.0304710306227207,-0.2339378148317337,0.1886764168739318,0.1825538128614425,0.0,0.0,-0.5821779956176034,-0.8274227112932672
-0.0197501182556152,1.2596640586853027,-0.036927044391632,-0.250428557395935,0.1996201127767563,0.218893215060234,0.0,0.0,0.2351200947155789,0.6620160616197234
-0.0201479904353618,1.254453182220459,-0.0489149689674377,-0.232854813337326,0.2088154852390289,0.1839073598384857,0.0,0.0,0.2023021714552761,0.6508482558741356
-0.0205702781677246,1.2496947050094604,-0.0498090051114559,-0.2125795930624008,0.2164717465639114,0.1531254798173904,0.0,0.0,0.4640811963263636,0.982973449332343
-0.0211727134883403,1.245655179023743,-0.065521128475666,-0.1803163588047027,0.2218043059110641,0.1066514030098915,0.0,0.0,-0.3801611512366696,0.6021228914654642
-0.0217079166322946,1.2412878274917605,-0.0576177015900611,-0.1947244256734848,0.2259528040885925,0.0829700604081153,0.0,0.0,0.7040513510464514,-0.9734907973757344
-0.0224226005375385,1.2372732162475586,-0.0772380381822586,-0.1793214827775955,0.2318044006824493,0.1170318126678466,0.0,0.0,-0.2196237864154544,-0.8133186797258556
-0.0231685638427734,1.2329014539718628,-0.0816952437162399,-0.1954345703125,0.2390087693929672,0.1440874636173248,0.0,0.0,0.0586521883896367,-0.6682879652908424
-0.0240566246211528,1.228551983833313,-0.096939206123352,-0.1946597099304199,0.2472808361053466,0.1654417812824249,0.0,0.0,-0.1720251177318659,0.6590286369972737
-0.024872874841094,1.223880410194397,-0.0883860364556312,-0.2087847590446472,0.2541720867156982,0.1378248780965805,0.0,0.0,-0.4844040285323805,-0.6434200273238869
-0.0257136337459087,1.2188373804092407,-0.0920247361063957,-0.2255330383777618,0.2622814178466797,0.1621869802474975,0.0,0.0,0.817155220421486,-0.9079416483058752
-0.0267557147890329,1.2144311666488647,-0.1137422546744346,-0.197568193078041,0.2720353305339813,0.1950777620077133,0.0,0.0,0.0740484136104744,-0.7386505786949666
-0.0279469490051269,1.210378646850586,-0.1298732310533523,-0.1821448504924774,0.2830672264099121,0.2206381112337112,0.0,0.0,0.3266040490189688,0.7063501702462374
-0.0291825290769338,1.2065188884735107,-0.1326422542333603,-0.1733377873897552,0.2924123704433441,0.1869021505117416,0.0,0.0,0.5759409164900222,-0.8272634133427725
-0.0306272506713867,1.2033532857894895,-0.1549903452396392,-0.1428436636924743,0.3032738268375397,0.2172292917966842,0.0,0.0,-0.2571350122924811,0.74522961790239
-0.0319971069693565,1.1998759508132937,-0.145891934633255,-0.1564311683177948,0.3124904334545135,0.1843319982290268,0.0,0.0,0.9629610207171636,0.9041437690430084
-0.0334633812308311,1.1971359252929688,-0.1535768061876297,-0.1232953071594238,0.3197150230407715,0.1444919556379318,0.0,0.0,0.1874475444736516,0.8671401787453363
-0.0351045615971088,1.194845199584961,-0.1691061407327652,-0.1029273346066474,0.3249062001705169,0.1038242354989051,0.0,0.0,-0.9831256866455078,0.9929828643798828
-0.0366351120173931,1.1922519207000732,-0.1554950624704361,-0.1158010959625244,0.3274436891078949,0.0507495328783988,0.0,0.0,-0.9955622553825378,0.995689868927002
-0.0380576141178607,1.1893467903137207,-0.1422198861837387,-0.1291087120771408,0.3274203836917877,-0.0004662532010115,0.0,0.0,-0.979566752910614,0.8711433410644531
-0.0393858924508094,1.1861333847045898,-0.1306157559156417,-0.142329066991806,0.3251175582408905,-0.0460563972592353,0.0,0.0,-0.9970096349716188,0.9659078121185304
-0.0406276695430278,1.1825976371765137,-0.1200237870216369,-0.1562136262655258,0.3207819163799286,-0.0867126211524009,0.0,0.0,-0.9951320290565492,0.98264741897583
-0.0417733192443847,1.1787469387054443,-0.1081302613019943,-0.1697364151477813,0.3140953779220581,-0.1337310671806335,0.0,0.0,-0.997143030166626,0.8762779235839844
-0.0428321845829486,1.1745821237564087,-0.0973644107580185,-0.1832754015922546,0.3052457869052887,-0.1769917905330658,0.0,0.0,-0.9880580902099608,0.6974551677703857
-0.0438386909663677,1.1701005697250366,-0.0907592624425888,-0.1971424221992492,0.2950356304645538,-0.2042033225297927,0.0,0.0,-0.9986282587051392,0.8885321617126465
-0.0447846427559852,1.1653063297271729,-0.0831223800778389,-0.2107907384634018,0.2832143902778625,-0.2364247292280197,0.0,0.0,-0.9982643723487854,0.7347668409347534
-0.0456687919795513,1.160190463066101,-0.0752992630004882,-0.2248886078596115,0.2697648704051971,-0.2689904272556305,0.0,0.0,-0.9806689620018004,0.3474723100662231
-0.0465468391776084,1.1547316312789917,-0.0744635760784149,-0.2402117699384689,0.2561273872852325,-0.2727500796318054,0.0,0.0,-0.995953381061554,0.0631706714630127
-0.0474205985665321,1.1489301919937134,-0.0738181844353675,-0.2555356919765472,0.2423054575920105,-0.2764386236667633,0.0,0.0,-0.9933571219444276,0.2066060304641723
-0.0482922568917274,1.1427860260009766,-0.073365643620491,-0.2708603739738464,0.2283028364181518,-0.2800525426864624,0.0,0.0,-0.9057202935218812,0.0923577547073364
-0.0491634383797645,1.13629949092865,-0.0731075257062912,-0.2861858308315277,0.2141234278678894,-0.2835882604122162,0.0,0.0,-0.93846595287323,0.5807156562805176
-0.0499799735844135,1.129486918449402,-0.0659825354814529,-0.3005877137184143,0.198315218091011,-0.3161644339561462,0.0,0.0,-0.9647294878959656,0.3336105346679687
-0.0508000366389751,1.1223326921463013,-0.0661125481128692,-0.3159182369709015,0.1823385953903198,-0.3195320963859558,0.0,0.0,-0.8432168960571289,-0.2563762664794922
-0.0516253486275672,1.114836812019348,-0.0664354264736175,-0.3312495350837707,0.1661980152130127,-0.3228112459182739,0.0,0.0,-0.8251096606254578,-0.0830690860748291
-0.0524579063057899,1.1069996356964111,-0.06694857776165,-0.3465816080570221,0.1498981118202209,-0.3259984850883484,0.0,0.0,-0.878597617149353,-0.433371365070343
-0.0532994270324707,1.098821043968201,-0.0676484704017639,-0.3619144558906555,0.1334435939788818,-0.329090416431427,0.0,0.0,-0.9006102681159973,0.0610349178314209
-0.0541516318917274,1.090301275253296,-0.0685307085514068,-0.3772480189800262,0.1168393939733505,-0.3320838510990143,0.0,0.0,-0.906913161277771,-0.6854350566864014
-0.0550649650394916,1.081425666809082,-0.0757296979427337,-0.3933291137218475,0.1013447269797325,-0.3098934590816498,0.0,0.0,-0.8599244356155396,-0.6670006513595581
-0.0560536384582519,1.0722020864486694,-0.0846708118915557,-0.4090286493301391,0.0872607380151748,-0.2816796898841858,0.0,0.0,-0.7914315462112427,-0.8034037947654724
-0.0571081154048442,1.0626276731491089,-0.092373251914978,-0.4248154461383819,0.0743157640099525,-0.2588995099067688,0.0,0.0,-0.8730043768882751,0.585303783416748
-0.0581315979361534,1.0527174472808838,-0.0879097804427146,-0.4398038983345032,0.0600307248532772,-0.2857007980346679,0.0,0.0,-0.950061559677124,-0.3155410289764404
-0.0591734871268272,1.042465090751648,-0.0896156579256057,-0.4551331102848053,0.0456228666007518,-0.2881573736667633,0.0,0.0,-0.9693343043327332,-0.371970534324646
-0.0602352134883403,1.03187096118927,-0.0914651304483413,-0.470462828874588,0.0310980360954999,-0.2904970049858093,0.0,0.0,-0.9850571155548096,-0.5634048581123352
-0.0613611228764057,1.020939588546753,-0.0988564193248748,-0.4856129586696625,0.0175420902669429,-0.2711189091205597,0.0,0.0,-0.9918065667152404,0.2783167362213135
-0.0625092536211013,1.0096659660339355,-0.1009708419442176,-0.5009409785270691,0.0038812386337667,-0.2732173502445221,0.0,0.0,-0.985491931438446,-0.2774721980094909
-0.0636806488037109,0.9980502724647522,-0.1032064780592918,-0.5162693858146667,-0.009878302924335,-0.2751907706260681,0.0,0.0,-0.9669311046600342,0.3521243333816528
-0.0648765563964843,0.986092746257782,-0.1055560261011123,-0.5315981507301331,-0.0237301401793956,-0.2770367860794067,0.0,0.0,-0.9873147010803224,-0.8347305655479431
-0.0661738365888595,0.9737992286682128,-0.1175563335418701,-0.5466213226318359,-0.03575424477458,-0.240482360124588,0.0,0.0,-0.9940801858901978,-0.7439703941345215
-0.0675533264875412,0.9611670970916748,-0.1271143108606338,-0.5617173314094543,-0.0464532077312469,-0.2139790803194046,0.0,0.0,0.1023871898651123,-0.9604844450950624
-0.069111444056034,0.9490594267845154,-0.1468601524829864,-0.5384237766265869,-0.0553008317947387,-0.1769525110721588,0.0,0.0,-0.9969790577888488,-0.8178017139434814
-0.0707542449235916,0.9366127848625184,-0.1567141115665435,-0.5534807443618774,-0.0627854466438293,-0.1496923118829727,0.0,0.0,-0.9995920062065125,-0.8576668500900269
-0.0724976509809494,0.9238223433494568,-0.1685331314802169,-0.5687195658683777,-0.0685278177261352,-0.1148474588990211,0.0,0.0,-0.9974831938743592,-0.819266140460968
-0.0743282288312912,0.9106850624084472,-0.1786622554063797,-0.5840902924537659,-0.0728775858879089,-0.0869952961802482,0.0,0.0,-0.9989541172981262,0.0740381479263305
-0.0761887580156326,0.8972035050392151,-0.1816217005252838,-0.5994049906730652,-0.0772726088762283,-0.0879004523158073,0.0,0.0,-0.9848252534866332,0.1845704317092895
-0.0780799835920333,0.8833776116371155,-0.1846453547477722,-0.614719569683075,-0.0817059278488159,-0.0886660516262054,0.0,0.0,-0.9985734224319458,-0.8545700311660767
-0.0800602883100509,0.8692231178283691,-0.1950154304504394,-0.6292559504508972,-0.084692008793354,-0.059721291065216,0.0,0.0,-0.9831966161727904,-0.5669854283332825
-0.0821249037981033,0.8547367453575134,-0.2047766000032425,-0.6439406275749207,-0.0863605588674545,-0.0333712100982666,0.0,0.0,-0.9385274648666382,-0.7613999247550964
-0.084294892847538,0.8399073481559753,-0.217160940170288,-0.6590734720230103,-0.0862059071660041,0.0030931252986192,0.0,0.0,-0.9628072381019592,-0.3526667356491089
-0.0864974036812782,0.8247334957122803,-0.2203962802886963,-0.6743862628936768,-0.0860616415739059,0.0028852405957877,0.0,0.0,-0.7660792469978333,-0.0728305578231811
-0.0887327194213867,0.8092151880264282,-0.2236748188734054,-0.6896989941596985,-0.0859208777546882,0.002815228421241,0.0,0.0,-0.9746682047843932,0.3511025905609131
-0.0910012274980545,0.7933520674705505,-0.2269932031631469,-0.7050116658210754,-0.0857768133282661,0.002881362568587,0.0,0.0,-0.8741213083267212,-0.5374428033828735
-0.0933462157845497,0.777152955532074,-0.235755369067192,-0.7198922038078308,-0.0845298171043396,0.0249399803578853,0.0,0.0,-0.5161760449409485,0.8223860263824463
-0.0956506729125976,0.7606000900268555,-0.2298276722431183,-0.7357246279716492,-0.0851418524980545,-0.0122405309230089,0.0,0.0,-0.3238424062728882,0.898883581161499
-0.0979159325361251,0.7436842918395996,-0.2240536212921142,-0.7519556283950806,-0.0875948294997215,-0.0490596070885658,0.0,0.0,-0.907337486743927,0.1078779697418212
-0.1002154350280761,0.7264240384101868,-0.2275023162364959,-0.7672688364982605,-0.0900182425975799,-0.0484682023525238,0.0,0.0,-0.2336740493774414,0.725796103477478
-0.1024781242012977,0.7088095545768738,-0.2220463454723358,-0.7831279039382935,-0.0942057073116302,-0.0837491229176521,0.0,0.0,-0.4311395287513733,-0.0493661761283874
-0.1047753319144249,0.6908506751060486,-0.2255455702543258,-0.7984417676925659,-0.0983512625098228,-0.0829113572835922,0.0,0.0,0.0340951681137084,0.1193293333053588
-0.1070646271109581,0.6732499003410339,-0.2247845828533172,-0.7825365662574768,-0.1024654731154441,-0.0822838395833969,0.0,0.0,0.5070172548294067,0.8120660781860352
-0.1092222183942794,0.6563286781311035,-0.2100944221019745,-0.7524535059928894,-0.1080958694219589,-0.1126082986593246,0.0,0.0,0.7617658376693726,0.8230792284011841
-0.1111277565360069,0.6400929689407349,-0.1835652887821197,-0.722106397151947,-0.1150330975651741,-0.1387443244457245,0.0,0.0,-0.5305928587913513,0.3925404548645019
-0.1130682975053787,0.6235131621360779,-0.1871428191661834,-0.7374227046966553,-0.1219058260321617,-0.1374542415142059,0.0,0.0,0.5517063140869141,-0.7115476131439209
-0.1150957122445106,0.6073195934295654,-0.1972290128469467,-0.7201756238937378,-0.1273936331272125,-0.1097560748457908,0.0,0.0,-0.5521971583366394,-0.1815438866615295
-0.1171584129333496,0.5907817482948303,-0.2008358240127563,-0.7354901432991028,-0.1328067779541015,-0.1082628965377807,0.0,0.0,-0.2197033166885376,0.4117931127548218
-0.1192565932869911,0.5738995671272278,-0.2044552564620971,-0.750804603099823,-0.1381404548883438,-0.1066739410161972,0.0,0.0,0.957859992980957,-0.5572927594184875
-0.1214584335684776,0.5581201314926147,-0.2155911475419998,-0.7017425894737244,-0.142725870013237,-0.091708168387413,0.0,0.0,-0.3285083770751953,0.8525294065475464
-0.1236190795898437,0.5419842004776001,-0.2095996588468551,-0.7177858352661133,-0.1491714566946029,-0.1289116591215133,0.0,0.0,0.2453519105911255,-0.4009999632835388
-0.1257709562778473,0.5263519883155823,-0.2086470127105713,-0.6954358816146851,-0.1557110995054245,-0.1307927668094635,0.0,0.0,-0.1295176744461059,0.8114453554153442
-0.1279030740261078,0.5103685855865479,-0.2053781449794769,-0.7112138867378235,-0.1635517627000808,-0.1568131446838379,0.0,0.0,-0.4748317003250122,0.7825877666473389
-0.1300127059221267,0.4940242767333984,-0.2017205953598022,-0.7274535894393921,-0.1727959960699081,-0.1848846226930618,0.0,0.0,0.652868390083313,-0.8254587650299072
-0.1322458237409591,0.4782762825489044,-0.2156366556882858,-0.7008250951766968,-0.1805008649826049,-0.1540973633527755,0.0,0.0,-0.0884994864463806,0.7004154920578003
-0.1344740837812423,0.4621715843677521,-0.2141997069120407,-0.7168346643447876,-0.1891531348228454,-0.1730451434850692,0.0,0.0,0.3569245338439941,-0.8625288009643555
-0.1365958154201507,0.4465887546539306,-0.2055086344480514,-0.6934384703636169,-0.1958624124526977,-0.134185716509819,0.0,0.0,0.211641788482666,0.0274765491485595
-0.1386565268039703,0.4310466051101684,-0.1997207850217819,-0.69161456823349,-0.2022500783205032,-0.1277529597282409,0.0,0.0,0.5624558925628662,-0.2327507734298706
-0.1404734551906585,0.4161789417266845,-0.1761047542095184,-0.6615599393844604,-0.2078869044780731,-0.112736701965332,0.0,0.0,0.537351131439209,-0.1996112465858459
-0.1421978026628494,0.4020331799983978,-0.166873961687088,-0.6294904351234436,-0.2135032564401626,-0.112326756119728,0.0,0.0,0.6953405141830444,-0.2923241257667541
-0.1436288803815841,0.3887818455696106,-0.1383441090583801,-0.58964604139328,-0.2183209061622619,-0.0963528901338577,0.0,0.0,-0.1164159774780273,0.5019683837890625
-0.1450520455837249,0.3751715421676636,-0.1365502774715423,-0.6057676076889038,-0.2241534441709518,-0.1166502684354782,0.0,0.0,-0.0154125690460205,-0.8853789567947388
-0.1465784013271331,0.3612487912178039,-0.1487874984741211,-0.6193777918815613,-0.2280481904745102,-0.0778953358530998,0.0,0.0,0.5576776266098022,-0.2312583923339843
-0.147916704416275,0.3480468988418579,-0.1303768157958984,-0.5872902274131775,-0.2315506041049957,-0.0700481906533241,0.0,0.0,0.92087984085083,-0.8249238729476929
-0.1491325348615646,0.3352614641189575,-0.1201092153787612,-0.5684710144996643,-0.2330527603626251,-0.0300430357456207,0.0,0.0,0.9286782741546632,-0.6722392439842224
-0.1504181921482086,0.3232573270797729,-0.128161996603012,-0.533580482006073,-0.2334522008895874,-0.0079889046028256,0.0,0.0,0.7930988073348999,0.7906143665313721
-0.1516981124877929,0.3117528855800628,-0.1258552521467209,-0.5116507411003113,-0.2356195896863937,-0.0433477982878685,0.0,0.0,0.7815444469451904,0.3768758773803711
-0.1528941094875335,0.300798237323761,-0.1174916476011276,-0.4872114956378937,-0.2377602905035019,-0.0428140945732593,0.0,0.0,0.7238554954528809,0.1808098554611206
-0.1539680510759353,0.290300577878952,-0.1055421382188797,-0.4668647050857544,-0.2396403700113296,-0.037601564079523,0.0,0.0,0.8324544429779053,-0.1281326413154602
-0.154841810464859,0.2799875140190124,-0.0863280966877937,-0.4585301578044891,-0.2407141029834747,-0.0214746929705142,0.0,0.0,0.8997237682342529,-0.2378313541412353
-0.1554546356201172,0.2704347670078277,-0.0608663335442543,-0.4246333539485931,-0.2411321550607681,-0.0083609763532876,0.0,0.0,0.6344242095947266,-0.4015368819236755
-0.1558878868818283,0.2616905570030212,-0.0431641265749931,-0.3886598944664001,-0.2412974834442138,-0.0033065669704228,0.0,0.0,0.7153184413909912,-0.5368010997772217
