x_pos,y_pos,x_vel,y_vel,angle,ang_vel,leg_1,leg_2,main_booster,lat_booster
-0.0014763831859454,1.403212308883667,-0.1492843925952911,-0.3425647616386413,0.0014775153249502,0.0291241370141506,0.0,0.0,-0.2785487174987793,0.5290536880493164
-0.002861404325813,1.395113229751587,-0.1385535597801208,-0.3599603474140167,0.0015262298984453,0.0009751025354489,0.0,0.0,0.0501573085784912,0.6957942247390747
-0.0040501593612134,1.386981964111328,-0.1173896938562393,-0.3613860011100769,5.613942994386889e-05,-0.0294046252965927,0.0,0.0,-0.4109272956848144,0.3009591102600097
-0.0051953317597508,1.3784385919570925,-0.1127920597791671,-0.3797068893909454,-0.0016508559929206,-0.0341431535780429,0.0,0.0,-0.3520236015319824,0.3650106191635132
-0.006298542022705,1.3694831132888794,-0.1083583012223243,-0.3980201482772827,-0.0035855709575116,-0.0386977456510067,0.0,0.0,-0.3369125723838806,0.0115946531295776
-0.0073613165877759,1.3601157665252686,-0.1040984541177749,-0.4163337051868438,-0.0057373512536287,-0.0430398359894752,0.0,0.0,-0.5183745622634888,0.3668159246444702
-0.0083854673430323,1.3503364324569702,-0.1000227332115173,-0.4346482455730438,-0.008095066063106,-0.0471586287021636,0.0,0.0,-0.0148435235023498,0.1408015489578247
-0.0093727111816406,1.340145230293274,-0.0961424484848976,-0.4529628753662109,-0.0106467511504888,-0.0510383546352386,0.0,0.0,-0.6160477995872498,0.2032856941223144
-0.0103249549865722,1.329541802406311,-0.0924684330821037,-0.47127765417099,-0.013379655778408,-0.0546634010970592,0.0,0.0,-0.1846622228622436,0.0156171321868896
-0.0112443920224905,1.3185267448425293,-0.089011862874031,-0.4895925521850586,-0.0162803139537572,-0.0580183379352092,0.0,0.0,0.0303065776824951,-0.930106282234192
-0.0121361734345555,1.3076564073562622,-0.0879402309656143,-0.4831366837024688,-0.0174996778368949,-0.0243893526494503,0.0,0.0,-0.4756600856781006,0.1831135749816894
-0.0129994396120309,1.2963740825653076,-0.0849580541253089,-0.5014556646347046,-0.0188586041331291,-0.0271807499229908,0.0,0.0,-0.3064618706703186,-0.4070409536361694
-0.0138367656618356,1.284679651260376,-0.0822260230779647,-0.5197687745094299,-0.0203400235623121,-0.0296310577541589,0.0,0.0,-0.2056319713592529,0.1830263137817382
-0.0146503448486328,1.2725732326507568,-0.0797559320926666,-0.5380826592445374,-0.0219279788434505,-0.031761959195137,0.0,0.0,0.1279990673065185,-0.4421266317367553
-0.0153342243283987,1.260895848274231,-0.0671509355306625,-0.5190166234970093,-0.0231517050415277,-0.0244766809046268,0.0,0.0,-0.7679805755615234,-0.9455553889274596
-0.0160609241575002,1.2487972974777222,-0.072910651564598,-0.5377132296562195,-0.022913733497262,0.0047598620876669,0.0,0.0,-0.7904508709907532,-0.4817737340927124
-0.0167719833552837,1.2362866401672363,-0.0712919980287551,-0.5560242533683777,-0.022730553522706,0.003663970855996,0.0,0.0,-0.7412556409835815,-0.4895310401916504
-0.0174702648073434,1.2233641147613523,-0.0699732080101966,-0.5743373036384583,-0.0225830413401126,0.0029506073333323,0.0,0.0,-0.7421557903289795,-0.4223467111587524
-0.0181585308164358,1.210029363632202,-0.0689622610807418,-0.5926520228385925,-0.0224529430270195,0.0026022889651358,0.0,0.0,-0.5717529058456421,-0.8683747053146362
-0.0189175605773925,1.1962847709655762,-0.0780230313539505,-0.6108389496803284,-0.0203660447150468,0.0417416021227836,0.0,0.0,-0.661202609539032,-0.1763795018196106
-0.0196728706359863,1.1821281909942627,-0.0776530727744102,-0.6291532516479492,-0.0182601269334554,0.0421222522854805,0.0,0.0,-0.6422604322433472,-0.0384098887443542
-0.0204272270202636,1.1675597429275513,-0.0776072591543197,-0.6474680304527283,-0.0161152090877294,0.0429023578763008,0.0,0.0,-0.3478207588195801,-0.2516452670097351
-0.0211837776005268,1.1525789499282837,-0.0778892561793327,-0.6657829284667969,-0.0139131806790828,0.0440446101129055,0.0,0.0,-0.6597200036048889,0.0933486223220825
-0.0219456665217876,1.1371864080429075,-0.0785008892416954,-0.6840978860855103,-0.0116357989609241,0.0455520488321781,0.0,0.0,-0.3214569091796875,-0.1933724880218505
-0.0227160453796386,1.1213816404342651,-0.0794425457715988,-0.7024127840995789,-0.0092651089653372,0.0474179908633232,0.0,0.0,-0.3216949701309204,-0.4551613926887512
-0.023498248308897,1.1051435470581057,-0.0807261317968368,-0.7216814160346985,-0.0067833652719855,0.0496346428990364,0.0,0.0,0.3434922695159912,-0.4354704618453979
-0.0242877956479787,1.0893795490264893,-0.0816176906228065,-0.7006139159202576,-0.0041592568159103,0.0524825751781463,0.0,0.0,0.3854833841323852,0.1850942373275756
-0.0252017974853515,1.074242353439331,-0.0936852097511291,-0.6727588772773743,-0.0018977741710841,0.0452295616269111,0.0,0.0,-0.7053449749946594,0.0005799531936645
-0.026136303320527,1.0586931705474854,-0.0959144085645675,-0.6910716891288757,0.0005235669086687,0.0484270676970481,0.0,0.0,-0.6613491773605347,0.1768157482147216
-0.0270946510136127,1.042732000350952,-0.0984541326761245,-0.7093846201896667,0.0031196647323668,0.0519217737019062,0.0,0.0,0.5642411708831787,-0.298136293888092
-0.0280641559511423,1.0275615453720093,-0.0998558551073074,-0.674254834651947,0.005986544303596,0.0573374256491661,0.0,0.0,-0.6025369763374329,0.5942943096160889
-0.0290220268070697,1.011975884437561,-0.0978527516126632,-0.6927015781402588,0.0080266017466783,0.0408008471131324,0.0,0.0,-0.9099469780921936,0.0885850191116333
-0.0300119407474994,0.99597829580307,-0.101274624466896,-0.7110145092010498,0.0102814799174666,0.0450977422297,0.0,0.0,-0.9116604924201964,-0.08963143825531
-0.0310364719480276,0.979568898677826,-0.1049710884690284,-0.7293274402618408,0.0127630615606904,0.0496317036449909,0.0,0.0,-0.8517505526542664,0.2028629779815673
-0.0320981964468956,0.9627475142478944,-0.1089313030242919,-0.7476406097412109,0.0154824443161487,0.0543876662850379,0.0,0.0,0.3605951070785522,0.1925818920135498
-0.0331942550837993,0.9464489817619324,-0.1126790791749954,-0.7244190573692322,0.0185192823410034,0.0607369169592857,0.0,0.0,-0.2111062407493591,0.0941392183303833
-0.0343321785330772,0.929738461971283,-0.1171324402093887,-0.7427327632904053,0.0218139570206403,0.0658935829997062,0.0,0.0,-0.5142638683319092,0.3976767063140869
-0.0355142578482627,0.91261625289917,-0.1218146532773971,-0.7610465288162231,0.0253754444420337,0.0712298899888992,0.0,0.0,-0.8503108024597168,0.2850065231323242
-0.0367424972355365,0.8950821757316589,-0.1267137676477432,-0.7793606519699097,0.0292120911180973,0.0767328590154647,0.0,0.0,-0.7891682982444763,0.3932737112045288
-0.0380189903080463,0.8771365880966187,-0.1318178027868271,-0.7976750135421753,0.0333315953612327,0.0823900550603866,0.0,0.0,-0.0447487235069274,0.4918575286865234
-0.0393455512821674,0.8587791323661804,-0.1371150016784668,-0.81598961353302,0.0377410873770713,0.0881896764039993,0.0,0.0,0.3721246719360351,0.8834102153778076
-0.0405535697937011,0.8406702876091003,-0.1239022985100746,-0.8049171566963196,0.0408039912581443,0.0612581148743629,0.0,0.0,-0.1219642758369445,0.3072601556777954
-0.0418149009346962,0.8221496939659119,-0.1295513361692428,-0.8232314586639404,0.0441695116460323,0.0673103854060173,0.0,0.0,0.964654803276062,0.9400591850280762
-0.0429545417428016,0.8041710257530212,-0.116022028028965,-0.7991129755973816,0.0462109744548797,0.0408295355737209,0.0,0.0,-0.0520156025886535,0.1214785575866699
-0.0441504493355751,0.785780668258667,-0.1219792142510414,-0.817426860332489,0.0485657639801502,0.047095812857151,0.0,0.0,0.9092698097229004,0.9873834848403932
-0.045285414904356,0.7675569653511047,-0.1143216341733932,-0.8099691271781921,0.0493713393807411,0.0161116849631071,0.0,0.0,0.967952847480774,0.8469972610473633
-0.0463592521846294,0.7497252225875854,-0.1069878488779068,-0.7925115823745728,0.0489801168441772,-0.0078245587646961,0.0,0.0,0.8901643753051758,0.9723178148269652
-0.0476061813533306,0.7329164147377014,-0.1224314793944358,-0.74698805809021,0.0467447973787784,-0.0447063036262989,0.0,0.0,-0.2055174112319946,0.9381651878356934
-0.0488568320870399,0.7157081961631775,-0.1216573491692543,-0.7647082805633545,0.0433825515210628,-0.0672450885176658,0.0,0.0,0.1739819049835205,0.5939815044403076
-0.050154972821474,0.6986302137374878,-0.1255241483449936,-0.7589032649993896,0.039144042879343,-0.0847701206803321,0.0,0.0,0.1596510410308838,0.8736846446990967
-0.0513457283377647,0.6817523241043091,-0.1134219914674758,-0.7499968409538269,0.0335555672645568,-0.1117694824934005,0.0,0.0,-0.3902388215065002,0.3681937456130981
-0.0526004806160926,0.6644627451896667,-0.1201644986867904,-0.7683127522468567,0.0283062327653169,-0.1049865633249282,0.0,0.0,0.3069560527801513,0.7434589862823486
-0.053774069994688,0.6472917199134827,-0.1110163778066635,-0.763055682182312,0.0220519118010997,-0.1250863969326019,0.0,0.0,0.4640235900878906,0.5320526361465454
-0.0549835190176963,0.6307756304740906,-0.1138990968465805,-0.7339589595794678,0.0150905400514602,-0.1392274349927902,0.0,0.0,-0.7479017376899719,0.5264406204223633
-0.0562071800231933,0.6138474941253662,-0.1143455505371093,-0.7522984743118286,0.0071695018559694,-0.1584206670522689,0.0,0.0,-0.4948502779006958,0.2739986181259155
-0.0574976913630962,0.5965083241462708,-0.1213779598474502,-0.7706162929534912,-0.0004033755103591,-0.1514573544263839,0.0,0.0,-0.1871652007102966,0.2571684122085571
-0.0588555335998535,0.5787578225135803,-0.1284692734479904,-0.788933515548706,-0.0076262932270765,-0.1444584429264068,0.0,0.0,0.6502124071121216,0.5753412246704102
-0.0600823387503623,0.5616065263748169,-0.1149372905492782,-0.7623394727706909,-0.015266285277903,-0.1527996361255645,0.0,0.0,0.7216638326644897,0.448752760887146
-0.061286449432373,0.5453288555145264,-0.1133993864059448,-0.7235396504402161,-0.0221930369734764,-0.1385353505611419,0.0,0.0,-0.1266319155693054,0.5951861143112183
-0.0625182166695594,0.5286436080932617,-0.1154715418815612,-0.7417010068893433,-0.0297990534454584,-0.1521201282739639,0.0,0.0,0.7959764003753662,0.5438891649246216
-0.0637049674987793,0.5121412873268127,-0.1104044765233993,-0.7336238026618958,-0.037966288626194,-0.1633447706699371,0.0,0.0,0.5352985858917236,0.163503885269165
-0.0650297179818153,0.496209979057312,-0.1241257637739181,-0.7082922458648682,-0.0462078340351581,-0.1648311018943786,0.0,0.0,-0.1644703149795532,0.528994083404541
-0.0663739219307899,0.4798625707626343,-0.1251641809940338,-0.7268631458282471,-0.0553602874279022,-0.1830490976572036,0.0,0.0,-0.1801046729087829,0.6571149826049805
-0.0677343383431434,0.4631005525588989,-0.1257809698581695,-0.7453877925872803,-0.065512865781784,-0.2030516117811203,0.0,0.0,0.9163668155670166,0.4554592370986938
-0.0691258460283279,0.4466226398944855,-0.1292932480573654,-0.7328136563301086,-0.0752639845013618,-0.1950224339962005,0.0,0.0,-0.158502995967865,0.4484087228775024
-0.0705880150198936,0.4297334551811218,-0.1367412507534027,-0.7511316537857056,-0.0846549347043037,-0.1878187507390976,0.0,0.0,0.9187705516815186,-0.1870893239974975
-0.0720123276114463,0.4139154255390167,-0.1334391087293625,-0.7035587430000305,-0.0935697183012962,-0.1782958954572677,0.0,0.0,-0.3278695344924927,0.3379299640655517
-0.0735080689191818,0.3976859152317047,-0.140935018658638,-0.7218750715255737,-0.1021231338381767,-0.1710683405399322,0.0,0.0,0.9274723529815674,-0.0851004719734191
-0.0749421119689941,0.382526159286499,-0.135305106639862,-0.674344003200531,-0.1101687923073768,-0.1609134078025818,0.0,0.0,0.1852519512176513,0.0461701154708862
-0.0764776244759559,0.3674720823764801,-0.1455021351575851,-0.6696847677230835,-0.1181644648313522,-0.1599133908748626,0.0,0.0,0.5514870882034302,-0.2528719902038574
-0.0780956298112869,0.352968692779541,-0.1537187993526458,-0.645257294178009,-0.1261963546276092,-0.1606380343437194,0.0,0.0,-0.1603891849517822,0.322598934173584
-0.0797855406999588,0.3380534648895263,-0.161287635564804,-0.6635711789131165,-0.1338652819395065,-0.1533785611391067,0.0,0.0,0.4673302173614502,0.3735942840576172
-0.081560805439949,0.3238643109798431,-0.1696648448705673,-0.6313573718070984,-0.1417002081871032,-0.1566987335681915,0.0,0.0,0.322629451751709,-0.4423506259918213
-0.0832847580313682,0.3099371194839477,-0.1651797145605087,-0.6196874976158142,-0.1488995999097824,-0.1439879089593887,0.0,0.0,0.6593537330627441,-0.6074763536453247
-0.0851069465279579,0.2961946427822113,-0.1764970123767852,-0.6113623976707458,-0.154611587524414,-0.1142393350601196,0.0,0.0,0.8087687492370605,0.1172626018524169
-0.08687324821949,0.2825499176979065,-0.1716209948062896,-0.6069589257240295,-0.1596155017614364,-0.1000781655311584,0.0,0.0,0.7222123146057129,0.503078818321228
-0.0886517539620399,0.2690107822418213,-0.1721007972955703,-0.6023692488670349,-0.1653651595115661,-0.1149930134415626,0.0,0.0,0.933680534362793,0.685992956161499
-0.0903061851859092,0.2564281225204468,-0.1586761176586151,-0.5599960684776306,-0.172147586941719,-0.1356485784053802,0.0,0.0,0.4762047529220581,-0.0281556844711303
-0.0918380767107009,0.2444920092821121,-0.1471130549907684,-0.5312105417251587,-0.1782354414463043,-0.1217570677399635,0.0,0.0,0.2785871028900146,0.7783327102661133
-0.093365766108036,0.2330948412418365,-0.1454077064990997,-0.5074427127838135,-0.1856262981891632,-0.1478169113397598,0.0,0.0,-0.367447018623352,-0.3263725042343139
-0.0949662178754806,0.2212854772806167,-0.1530597507953643,-0.5257540345191956,-0.1926536113023758,-0.1405461728572845,0.0,0.0,0.719875693321228,0.3449571132659912
-0.0964407920837402,0.2102631628513336,-0.1410284340381622,-0.4907302558422088,-0.1991232931613922,-0.1293937861919403,0.0,0.0,0.6548594236373901,0.0106455087661743
-0.0979736298322677,0.1997061371803283,-0.1467649936676025,-0.4700935184955597,-0.2056993693113327,-0.1315211206674575,0.0,0.0,0.3182512521743774,0.2291486263275146
-0.0995118170976638,0.189544215798378,-0.1474584490060806,-0.452540248632431,-0.2121148705482483,-0.1283101737499237,0.0,0.0,0.4046006202697754,-0.4040542840957641
-0.101007655262947,0.1798446923494339,-0.1435499489307403,-0.4319688379764557,-0.2182148844003677,-0.1220003515481948,0.0,0.0,0.3052998781204223,-0.172325313091278
-0.1024097427725792,0.1703832894563675,-0.1348484456539154,-0.4213081896305084,-0.2236340492963791,-0.108383297920227,0.0,0.0,0.5305345058441162,-0.7280874848365784
-0.1038479804992675,0.1609769612550735,-0.1403145492076873,-0.4185956120491028,-0.2271866202354431,-0.071051076054573,0.0,0.0,0.931281805038452,0.1835839748382568
-0.1051474586129188,0.151808813214302,-0.1273002922534942,-0.4078823924064636,-0.2298762798309326,-0.0537929758429527,0.0,0.0,0.8817936182022095,-0.2074239253997802
-0.1062086075544357,0.1431203931570053,-0.1045816168189048,-0.3863940834999084,-0.2314299643039703,-0.0310732461512088,0.0,0.0,0.9262936115264891,-0.8500791788101196
-0.1071302443742752,0.1346456110477447,-0.0930219143629074,-0.3765203654766083,-0.2305596619844436,0.0174061302095651,0.0,0.0,0.3860014677047729,-0.5678171515464783
-0.108028694987297,0.1266993433237075,-0.0921868160367012,-0.3528063595294952,-0.2281929105520248,0.0473351962864398,0.0,0.0,0.2972226142883301,-0.5811395645141602
-0.1088833808898925,0.1192211210727691,-0.0893666669726371,-0.3317680060863495,-0.2242401540279388,0.0790551826357841,0.0,0.0,0.1302640438079834,-0.1503161191940307
-0.1096261963248252,0.1119690015912056,-0.0789371058344841,-0.3216170370578766,-0.2195349037647247,0.0941049233078956,0.0,0.0,0.6871480941772461,0.1286113262176513
-0.1102685928344726,0.104758583009243,-0.0697254240512847,-0.3196598589420318,-0.2139956057071685,0.1107862144708633,0.0,0.0,0.5942134857177734,0.2045832872390747
-0.1109288185834884,0.0978718101978302,-0.071632795035839,-0.3052727282047272,-0.2083339989185333,0.1132321134209632,0.0,0.0,0.6861674785614014,0.826416015625
-0.1113206893205642,0.0918245390057563,-0.0436788909137249,-0.2681440711021423,-0.2038052231073379,0.0905754342675209,0.0,0.0,0.3798340559005737,-0.4572585821151733
-0.1117078810930252,0.0860686600208282,-0.0434750691056251,-0.2551689743995666,-0.1990115791559219,0.0958728045225143,0.0,0.0,0.1614006757736206,0.5774393081665039
-0.1121064200997352,0.0807427242398262,-0.0436493456363678,-0.2362032532691955,-0.195185512304306,0.0765217319130897,0.0,0.0,0.0783544778823852,0.3955168724060058
-0.1124330535531044,0.0756577551364898,-0.0370757207274436,-0.2254222184419632,-0.190744012594223,0.0888298228383064,0.0,0.0,0.3675669431686401,0.6423208713531494
-0.1127114295959472,0.0710787624120712,-0.0312398429960012,-0.2030768245458603,-0.1873279362916946,0.068321444094181,0.0,0.0,0.2485408782958984,0.6218891143798828
-0.112975500524044,0.0669309943914413,-0.0288056936115026,-0.1840466856956482,-0.1849249005317688,0.0480610579252243,0.0,0.0,0.1452196836471557,0.6336898803710938
-0.1132180243730545,0.0628686994314193,-0.0256900042295455,-0.1803649812936782,-0.1834736913442611,0.0290242135524749,0.0,0.0,0.1770840883255005,0.7928310632705688
-0.1134858131408691,0.0590352155268192,-0.0269098374992609,-0.170360654592514,-0.1833424121141433,0.0026255953125655,0.0,0.0,0.1907553672790527,-0.5610219836235046
-0.1139173507690429,0.0553891994059085,-0.0445311330258846,-0.1618762463331222,-0.1819625347852707,0.0275973882526159,0.0,0.0,0.3914196491241455,0.651631236076355
-0.114162728190422,0.0521862842142581,-0.0251362323760986,-0.1422778069972992,-0.1813621073961258,0.0120084658265113,0.0,0.0,0.1722689867019653,0.6959550380706787
-0.1143300980329513,0.0489226430654525,-0.0163381546735763,-0.1450983136892318,-0.1817622035741806,-0.0080020297318696,0.0,0.0,0.2151119709014892,0.3855365514755249
-0.1143616661429405,0.0460450984537601,-0.0035862862132489,-0.1278399229049682,-0.1813312172889709,0.00861974991858,0.0,0.0,-0.0374137759208679,0.019837737083435
-0.114463523030281,0.0427546352148056,-0.0109462859109044,-0.1461473107337951,-0.1805653423070907,0.0153174828737974,0.0,0.0,0.3015754222869873,0.2408275604248047
-0.1144038215279579,0.040014561265707,0.0043627768754959,-0.1215881630778312,-0.1789475083351135,0.0323565416038036,0.0,0.0,0.0157022476196289,0.2447741031646728
-0.1143040657043457,0.0373751260340213,0.0078233992680907,-0.1170502230525016,-0.1767839193344116,0.0432714484632015,0.0,0.0,0.1068259477615356,0.8086460828781128
-0.1141187697649002,0.0351231433451175,0.0176597516983747,-0.0999829918146133,-0.1759141385555267,0.0173961948603391,0.0,0.0,-0.0662401914596557,0.5330451726913452
-0.1139559745788574,0.0324509479105472,0.0162629969418048,-0.1187652572989463,-0.1758960634469986,0.0003615643072407,0.0,0.0,0.3204158544540405,0.5292391777038574
-0.113687515258789,0.0298750977963209,0.0274215098470449,-0.1145484149456024,-0.1764671206474304,-0.0114210862666368,0.0,0.0,0.1529083251953125,0.1817196607589721
-0.113494873046875,0.027546152472496,0.0199119783937931,-0.1035860702395439,-0.1771198660135269,-0.0130548225715756,0.0,0.0,0.1448326110839843,-0.0438833236694335
-0.1133939772844314,0.0253546815365552,0.0108405221253633,-0.0974902734160423,-0.17787566781044,-0.0151156680658459,0.0,0.0,0.069108247756958,0.4481201171875
-0.1133086234331131,0.0232926700264215,0.0090474281460046,-0.0917060375213623,-0.178392618894577,-0.0103389453142881,0.0,0.0,-0.1384180188179016,0.7169156074523926
-0.1132309883832931,0.0208009332418441,0.0094770500436425,-0.1109505519270896,-0.1801121234893798,-0.0343900360167026,0.0,0.0,0.5402878522872925,-0.1577939987182617
-0.112965777516365,0.0190780982375144,0.0109455855563282,-0.074755884706974,-0.1645060032606125,0.3121227622032165,1.0,0.0,0.4790108203887939,0.7904539108276367
-0.1124420166015625,0.0178161710500717,0.0382071025669574,-0.0545802749693393,-0.1503335237503051,0.2834497094154358,1.0,0.0,0.2195899486541748,0.3874801397323608
-0.1118104010820388,0.0170237403362989,0.0488663837313652,-0.0338365361094474,-0.1360756903886795,0.2851566970348358,0.0,0.0,-0.4403121471405029,0.7657643556594849
