x_pos,y_pos,x_vel,y_vel,angle,ang_vel,leg_1,leg_2,main_booster,lat_booster
-0.0015516281127929,1.403059005737305,-0.1568548530340194,-0.3493863940238952,0.0015071382513269,0.0297110024839639,0.0,0.0,0.5674519056453904,-0.9700157625119404
-0.0031530379783362,1.395307183265686,-0.1633500009775161,-0.3445331156253814,0.0046788156032562,0.0634402185678482,0.0,0.0,-0.7474451888436608,0.5782399183309738
-0.00472774496302,1.386985421180725,-0.158975139260292,-0.3698633909225464,0.0061619752086699,0.0296658538281917,0.0,0.0,-0.8373631250491074,-0.7852396722375579
-0.0064054490067064,1.3780947923660278,-0.1708506941795349,-0.3951521217823028,0.0092119872570037,0.0610059089958667,0.0,0.0,0.2275362991950378,0.7634552825590745
-0.00794820766896,1.3693702220916748,-0.1556639373302459,-0.3877703845500946,0.0105887800455093,0.0275381170213222,0.0,0.0,-0.6869809961116007,-0.5974653240077241
-0.0095566753298044,1.3600783348083496,-0.1628589332103729,-0.4129826128482818,0.0125795528292655,0.0398193635046482,0.0,0.0,-0.050971840985861,0.9662251503649388
-0.0111215589568018,1.3502224683761597,-0.1563344299793243,-0.4380386471748352,0.0124247465282678,-0.0030962945893406,0.0,0.0,0.8861626052776197,0.8562400666625707
-0.0124707221984863,1.3409161567687988,-0.1331322491168975,-0.4136042892932892,0.0106623014435172,-0.0352522879838943,0.0,0.0,-0.1272866999281663,-0.7367604704900839
-0.0139089580625295,1.3310508728027344,-0.1432368457317352,-0.4384461939334869,0.0100791985169053,-0.0116630708798766,0.0,0.0,0.4972263766693567,-0.6343341687039976
-0.0154347419738769,1.3216108083724976,-0.1529385894536972,-0.4195613265037536,0.0104387290775775,0.0071911374107003,0.0,0.0,0.9962745346125323,0.9692296779032408
-0.0168067924678325,1.3126860857009888,-0.1355268061161041,-0.3966456651687622,0.0087831625714898,-0.0331142544746398,0.0,0.0,0.2527152422705248,-0.5419374794864
-0.0181967727839946,1.3037954568862915,-0.1382123380899429,-0.3951321840286255,0.0080149499699473,-0.015365938656032,0.0,0.0,0.1057646438974622,-0.6617055275849557
-0.0195745471864938,1.2950454950332642,-0.1381391435861587,-0.3888913094997406,0.0083686774596571,0.0070752166211605,0.0,0.0,0.0715606976777918,0.8914549670220593
-0.0208617206662893,1.286068558692932,-0.1269682645797729,-0.3989654183387756,0.0066437060013413,-0.0345026776194572,0.0,0.0,0.4877661457850841,0.8063775673251945
-0.0219788551330566,1.277649998664856,-0.1082545518875122,-0.3741427361965179,0.0032234317623078,-0.0684118866920471,0.0,0.0,0.8184710759349814,0.7685513913138455
-0.0229352954775095,1.269148826599121,-0.0906134918332099,-0.3778316080570221,-0.0017533918144181,-0.0995454490184784,0.0,0.0,-0.7380355999569688,0.7097889245038026
-0.0238536838442087,1.2600905895233154,-0.0847205370664596,-0.4026115834712982,-0.0087838536128401,-0.1406222879886627,0.0,0.0,0.29167957478422,0.6224993343936575
-0.0246280673891305,1.2508994340896606,-0.0689771398901939,-0.4085632264614105,-0.0171435866504907,-0.1672097891569137,0.0,0.0,0.1257446611669719,0.6531860885909676
-0.0252974517643451,1.2419670820236206,-0.0569580867886543,-0.3971330523490906,-0.0270242523401975,-0.197631150484085,0.0,0.0,0.7982247576262995,-0.5147735461176929
-0.0261148456484079,1.2333992719650269,-0.0721836239099502,-0.3809854090213775,-0.0364811792969703,-0.1891554594039917,0.0,0.0,-0.1356487273865489,0.8137466977667682
-0.0268851276487112,1.2242693901062012,-0.0651518478989601,-0.4061078429222107,-0.0482232682406902,-0.2348626405000686,0.0,0.0,0.7659725595695914,-0.8392385517658141
-0.027715777978301,1.2152832746505735,-0.07259501516819,-0.399746686220169,-0.0585975088179111,-0.2075034379959106,0.0,0.0,0.0798973849373818,-0.8131819201315329
-0.0285222046077251,1.2062618732452393,-0.0715180188417434,-0.4013329148292541,-0.0676366910338401,-0.1807996332645416,0.0,0.0,-0.659569155905045,-0.5315257168014396
-0.0293970108032226,1.19667387008667,-0.0789606198668479,-0.4265323877334595,-0.0760702416300773,-0.1686862111091613,0.0,0.0,-0.3396637089586365,0.9367199443944414
-0.0302458759397268,1.1865181922912598,-0.0746295601129531,-0.4519208073616028,-0.0862562134861946,-0.2037375718355178,0.0,0.0,-0.8297653040520854,0.5658815743528613
-0.0310931205749511,1.1757760047912598,-0.0732560008764267,-0.4781316220760345,-0.097623698413372,-0.2273495495319366,0.0,0.0,-0.7485126719775428,-0.8011569551977458
-0.0320338234305381,1.1644845008850098,-0.0838859230279922,-0.5025444626808167,-0.1077313721179962,-0.202153593301773,0.0,0.0,0.3012309734090481,0.6817010691302208
-0.0329956039786338,1.1536157131195068,-0.0841235369443893,-0.4839717447757721,-0.1197059527039527,-0.2394914925098419,0.0,0.0,-0.1131751443344666,-0.5491694036954559
-0.0340405479073524,1.142197608947754,-0.0934721231460571,-0.5083927512168884,-0.1306733936071396,-0.2193491160869598,0.0,0.0,-0.3237954435932404,-0.7663528168173874
-0.0351790413260459,1.1302255392074585,-0.104102149605751,-0.532983660697937,-0.140386164188385,-0.194255381822586,0.0,0.0,0.6158549293922275,-0.5872790174592769
-0.0362586975097656,1.118931531906128,-0.0991155803203582,-0.5028141140937805,-0.1492010951042175,-0.176298514008522,0.0,0.0,0.0935777425765991,-0.9644584059715272
-0.0374628081917762,1.1075286865234375,-0.1132012158632278,-0.5075246095657349,-0.1564057022333145,-0.1440920382738113,0.0,0.0,-0.7635422945022583,-0.7053158283233643
-0.038759995251894,1.095583200454712,-0.1237926259636879,-0.5315493941307068,-0.1623273193836212,-0.1184325069189071,0.0,0.0,-0.6896954774856567,-0.5263926386833191
-0.0401342399418354,1.0830796957015991,-0.1323385685682296,-0.5562778115272522,-0.1674107909202575,-0.1016695499420166,0.0,0.0,0.1814764738082885,-0.8828436136245728
-0.0415199287235736,1.0706908702850342,-0.1349478065967559,-0.5510290265083313,-0.1710419803857803,-0.0726238042116165,0.0,0.0,-0.0834730863571167,-0.7918409705162048
-0.0429957397282123,1.0577586889266968,-0.1451789885759353,-0.5750434398651123,-0.1734525710344314,-0.0482116304337978,0.0,0.0,0.161152958869934,-0.5121309161186218
-0.0445074066519737,1.0447475910186768,-0.1494237929582595,-0.5784717202186584,-0.175198882818222,-0.0349262468516826,0.0,0.0,0.2380315065383911,-0.0130842924118042
-0.0459224693477153,1.032006859779358,-0.1395764052867889,-0.5664818286895752,-0.1771311908960342,-0.0386462099850177,0.0,0.0,0.6034824848175049,-0.6063575148582458
-0.0473112091422081,1.0199390649795532,-0.1377521306276321,-0.536479115486145,-0.1782566159963607,-0.022508181631565,0.0,0.0,-0.3117822408676147,-0.5353145003318787
-0.0487702377140522,1.0073180198669434,-0.1454931646585464,-0.5609893798828125,-0.1786719560623169,-0.0083068748936057,0.0,0.0,-0.8627098798751831,0.4257616996765136
-0.0502599701285362,0.9941321015357972,-0.1482487022876739,-0.5861281752586365,-0.1793979257345199,-0.0145193310454487,0.0,0.0,-0.1500429511070251,-0.936580777168274
-0.0518383979797363,0.9803950190544128,-0.1582980304956436,-0.610480010509491,-0.1789397895336151,0.009162662550807,0.0,0.0,0.0818601846694946,-0.4960356950759887
-0.0533480644226074,0.9663793444633484,-0.1514143049716949,-0.6228659749031067,-0.1784918457269668,0.0089590055868029,0.0,0.0,-0.1911995410919189,-0.6295809149742126
-0.0549291595816612,0.9518086910247804,-0.1592979580163955,-0.6474429965019226,-0.1772914826869964,0.0240068398416042,0.0,0.0,0.7875716686248779,-0.1585111021995544
-0.0565274246037006,0.9371552467346193,-0.1605226099491119,-0.6511796116828918,-0.1765917986631393,0.0139936711639165,0.0,0.0,0.2204232215881347,-0.5924354195594788
-0.0581221580505371,0.9222979545593262,-0.1611295342445373,-0.6601249575614929,-0.174934983253479,0.0331359095871448,0.0,0.0,-0.4977140426635742,-0.5119386911392212
-0.0597828850150108,0.906882643699646,-0.1683563888072967,-0.6848560571670532,-0.1726465076208114,0.0457698330283165,0.0,0.0,-0.0804229378700256,-0.6247960329055786
-0.0615301132202148,0.8909242749214172,-0.1782148033380508,-0.7088575959205627,-0.1691521555185318,0.0698870867490768,0.0,0.0,-0.0749003887176513,0.6978793144226074
-0.0632636994123458,0.8743962645530701,-0.1754851639270782,-0.7343332171440125,-0.1670231819152832,0.0425790324807167,0.0,0.0,-0.6820131540298462,-0.7042627930641174
-0.0650836005806922,0.8573159575462341,-0.1852959543466568,-0.7587582468986511,-0.1637086570262909,0.06629029661417,0.0,0.0,-0.0793007612228393,-0.4276798963546753
-0.0669323951005935,0.8396708965301514,-0.187927171587944,-0.7838970422744751,-0.1606617271900177,0.0609381906688213,0.0,0.0,0.1463333368301391,0.5356431007385254
-0.0687294006347656,0.8222215175628662,-0.181331530213356,-0.7753474712371826,-0.1590287834405899,0.0326588042080402,0.0,0.0,-0.7589868307113647,-0.3799915909767151
-0.0705549269914627,0.8042073845863342,-0.1839208900928497,-0.8004852533340454,-0.1576505303382873,0.0275651570409536,0.0,0.0,0.4431726932525635,-0.1748227477073669
-0.0722963362932205,0.7866597175598145,-0.1752819120883941,-0.7797738313674927,-0.1565069258213043,0.0228717140853405,0.0,0.0,0.0988832712173461,-0.6044904589653015
-0.0739527717232704,0.7690106630325317,-0.1679210811853408,-0.7841678857803345,-0.154235765337944,0.0454233139753341,0.0,0.0,-0.371214747428894,-0.1351319551467895
-0.0756366699934005,0.7507964968681335,-0.1704328954219818,-0.8093054890632629,-0.1521965563297271,0.0407840833067894,0.0,0.0,0.8415203094482422,0.0899183750152587
-0.0771094337105751,0.7333106398582458,-0.1495700180530548,-0.7769139409065247,-0.1498960256576538,0.0460105426609516,0.0,0.0,0.6724439859390259,0.7264770269393921
-0.0782984718680381,0.716228187084198,-0.1198557838797569,-0.7591251134872437,-0.1489483118057251,0.0189540088176727,0.0,0.0,-0.0326224565505981,-0.0170801281929016
-0.079513743519783,0.6985805630683899,-0.1222674846649169,-0.78426194190979,-0.1482054591178894,0.0148569298908114,0.0,0.0,0.7884855270385742,-0.6297242641448975
-0.0807654410600662,0.6816658973693848,-0.1267619729042053,-0.7516024112701416,-0.1466172039508819,0.0317649096250534,0.0,0.0,0.2277095317840576,0.5091243982315063
-0.081921674311161,0.6645722985267639,-0.1160992756485939,-0.7596722841262817,-0.1461441665887832,0.0094607640057802,0.0,0.0,0.1402201652526855,-0.5865058898925781
-0.0831537246704101,0.6476618051528931,-0.1245499402284622,-0.7514461874961853,-0.1447945982217788,0.0269911028444767,0.0,0.0,-0.0105311870574951,-0.4173051118850708
-0.0844096168875694,0.6301860809326172,-0.126783400774002,-0.7765824198722839,-0.1436063796281814,0.023764319717884,0.0,0.0,0.9338570833206176,0.031727910041809
-0.0855587944388389,0.6132044792175293,-0.1160902753472328,-0.7546308636665344,-0.1424396783113479,0.0233339499682188,0.0,0.0,0.9050480127334596,-0.1957317590713501
-0.0866559967398643,0.5963418483734131,-0.1107970252633094,-0.7493459582328796,-0.1413675993680954,0.021441601216793,0.0,0.0,0.9766201972961426,-0.0625281929969787
-0.0878220573067665,0.579995334148407,-0.1168651804327964,-0.726486086845398,-0.1411036849021911,0.0052784038707613,0.0,0.0,0.6809520721435547,0.0053112506866455
-0.0888649001717567,0.5643720030784607,-0.1045449823141098,-0.6943451166152954,-0.1408480256795883,0.0051133050583302,0.0,0.0,0.8069634437561035,-0.235945463180542
-0.0897940620779991,0.5486394166946411,-0.0934977084398269,-0.6991690397262573,-0.1402720510959625,0.0115194618701934,0.0,0.0,0.7926576137542725,-0.4648828506469726
-0.090583898127079,0.5337111949920654,-0.0796137079596519,-0.663418710231781,-0.1396406590938568,0.0126277925446629,0.0,0.0,0.6345434188842773,-0.3351958990097046
-0.0914188399910926,0.518932580947876,-0.0836356282234191,-0.6568132042884827,-0.1395050585269928,0.0027119438163936,0.0,0.0,0.3066786527633667,-0.418939471244812
-0.0922684669494628,0.5043992400169373,-0.0847063139081001,-0.6459507346153259,-0.1397549510002136,-0.0049977800808846,0.0,0.0,0.290524959564209,-0.6129162907600403
-0.0930878669023513,0.4900282323360443,-0.0829421281814575,-0.6386181116104126,-0.1387643218040466,0.0198124498128891,0.0,0.0,-0.2389634251594543,-0.4852771759033203
-0.093922235071659,0.4750916957855224,-0.084409512579441,-0.663752555847168,-0.13779117166996,0.0194630958139896,0.0,0.0,0.890038251876831,-0.0358743667602539
-0.094596192240715,0.4605539739131927,-0.0687573850154876,-0.6459962725639343,-0.1364302188158035,0.0272189266979694,0.0,0.0,0.2307974100112915,-0.2981652021408081
-0.0952676758170127,0.4458887279033661,-0.0684129744768142,-0.6516703963279724,-0.1351699382066726,0.0252057313919067,0.0,0.0,0.8135761022567749,-0.7585160136222839
-0.0958815589547157,0.4311761260032654,-0.0643743723630905,-0.6536251306533813,-0.1321915835142135,0.0595675222575664,0.0,0.0,0.8223801851272583,-0.5505058765411377
-0.0965359658002853,0.4164653122425079,-0.0694876909255981,-0.6534615159034729,-0.1281706392765045,0.0804188996553421,0.0,0.0,0.958289623260498,0.3597532510757446
-0.0970881432294845,0.4025897085666656,-0.0592806711792945,-0.6163515448570251,-0.1241298243403434,0.0808163732290268,0.0,0.0,0.9203081130981444,0.3584005832672119
-0.0974371880292892,0.389542818069458,-0.0394808873534202,-0.5794922709465027,-0.1195762529969215,0.091071106493473,0.0,0.0,0.7597043514251709,0.831596851348877
-0.0977522879838943,0.3772469162940979,-0.0342706218361854,-0.5462647080421448,-0.1168237552046775,0.05504996702075,0.0,0.0,-0.0699922442436218,0.7245228290557861
-0.098026655614376,0.3643701076507568,-0.0291801299899816,-0.5721673965454102,-0.1150944605469703,0.0345859453082084,0.0,0.0,0.540703296661377,0.2931780815124511
-0.0981809645891189,0.3520196378231048,-0.0174676422029733,-0.5487549901008606,-0.1130598708987236,0.0406916178762912,0.0,0.0,0.3311821222305298,0.0755670070648193
-0.0983641594648361,0.3398083448410034,-0.0201378092169761,-0.5425865054130554,-0.1112560108304023,0.0360769256949424,0.0,0.0,0.3567419052124023,0.2505483627319336
-0.0985289588570594,0.3278686702251434,-0.0182431526482105,-0.5305229425430298,-0.1094981729984283,0.0351569503545761,0.0,0.0,0.3214682340621948,0.7919188737869263
-0.0985775962471962,0.3161926865577698,-0.0052185608074069,-0.5189082026481628,-0.1091543138027191,0.0068773687817156,0.0,0.0,0.3471028804779053,-0.5352826118469238
-0.098535344004631,0.304652601480484,0.0024438712280243,-0.512761116027832,-0.1073768362402916,0.035549372434616,0.0,0.0,0.3905781507492065,-0.6291431784629822
-0.0984839424490928,0.2929749190807342,0.0018341016257181,-0.5187780261039734,-0.1040985509753227,0.0655654966831207,0.0,0.0,0.3346805572509765,0.2275285720825195
-0.0983163863420486,0.2812050282955169,0.0128870531916618,-0.522838294506073,-0.1002547666430473,0.0768755376338958,0.0,0.0,0.8370845317840576,-0.2013288140296936
-0.0979129821062088,0.269792765378952,0.0354698672890663,-0.5068933963775635,-0.095422551035881,0.0966441258788108,0.0,0.0,0.8164870738983154,0.6973211765289307
-0.0972374901175499,0.2584254145622253,0.0634503364562988,-0.5049571394920349,-0.0913510248064994,0.0814305022358894,0.0,0.0,0.3091309070587158,-0.0158851146697998
-0.0964995399117469,0.2473823577165603,0.0694424659013748,-0.4905441701412201,-0.087044671177864,0.0861270055174827,0.0,0.0,0.4579713344573974,-0.2849735021591186
-0.0956624001264572,0.2367704659700393,0.0789740532636642,-0.4713710248470306,-0.0823453217744827,0.093986876308918,0.0,0.0,-0.0561942458152771,-0.2312532067298889
-0.0948100090026855,0.2255931049585342,0.0802173763513565,-0.4965051412582397,-0.077368751168251,0.0995312184095382,0.0,0.0,0.572716474533081,0.2382059097290039
-0.0938212424516677,0.2143038660287857,0.0931076779961586,-0.5014567375183105,-0.0716609507799148,0.1141561716794967,0.0,0.0,0.6213078498840332,0.3109800815582275
-0.0928303748369216,0.2032025158405304,0.093264140188694,-0.4931271374225616,-0.0658951252698898,0.1153162494301796,0.0,0.0,0.738126277923584,-0.558150053024292
-0.0917093306779861,0.1928961127996444,0.1045772209763526,-0.4577487707138061,-0.0584555305540561,0.1487918347120285,0.0,0.0,0.7116388082504272,-0.7025543451309204
-0.0906154662370681,0.1829147189855575,0.1001820564270019,-0.4432834386825561,-0.0493616759777069,0.1818769127130508,0.0,0.0,0.3572062253952026,0.627961277961731
-0.0895308479666709,0.1733581125736236,0.1004252582788467,-0.4244973361492157,-0.0414096638560295,0.1590403020381927,0.0,0.0,0.069015622138977,0.3993501663208008
-0.0883489623665809,0.1639098674058914,0.109539046883583,-0.4197068214416504,-0.0328684896230697,0.1708236336708068,0.0,0.0,-0.0031556487083435,0.2321274280548095
-0.0871439948678016,0.153897076845169,0.1115037202835083,-0.4448461830615997,-0.0239918529987335,0.177532285451889,0.0,0.0,0.7212324142456055,-0.2968498468399048
-0.0859826058149337,0.1444925367832183,0.1072090417146682,-0.4178624749183655,-0.0151721481233835,0.1763944327831268,0.0,0.0,0.4328269958496094,0.3589339256286621
-0.0848114043474197,0.1351716816425323,0.1079277843236923,-0.4141938984394073,-0.0061045531183481,0.1813518702983856,0.0,0.0,0.8506767749786377,0.5931622982025146
-0.0837035179138183,0.1262982189655304,0.1028211116790771,-0.3943662047386169,0.0017606314504519,0.1573041379451751,0.0,0.0,0.49079430103302,0.8987126350402832
-0.0826527625322341,0.1175665259361267,0.0987416803836822,-0.3880959451198578,0.0080154417082667,0.1250960230827331,0.0,0.0,0.8321802616119385,0.8420534133911133
-0.0813857093453407,0.1094724759459495,0.1214394196867942,-0.3597731590270996,0.013207389973104,0.103839136660099,0.0,0.0,0.5041800737380981,0.7458912134170532
-0.0799748450517654,0.101312980055809,0.1368483901023864,-0.3626872897148132,0.0173910297453403,0.083672747015953,0.0,0.0,0.2677226066589355,-0.9186975955963136
-0.0784902572631836,0.0934750661253929,0.1419196426868438,-0.3484422564506531,0.0238474328070878,0.1291283071041107,0.0,0.0,0.4198318719863891,-0.244495153427124
-0.0770128220319747,0.0860716700553894,0.1409156620502472,-0.3291625380516052,0.0305881984531879,0.1348153203725814,0.0,0.0,0.4471986293792724,-0.7098701596260071
-0.0754475593566894,0.0792379677295684,0.1476436406373977,-0.3039250373840332,0.0393623486161232,0.1754830032587051,0.0,0.0,-0.1064385175704956,0.9508378505706788
-0.0737683326005935,0.0718448758125305,0.1608110964298248,-0.3287840485572815,0.0463872291147708,0.1404975801706314,0.0,0.0,0.6338306665420532,-0.1331702470779419
-0.0721039772033691,0.0650965049862861,0.1589638292789459,-0.3001741170883178,0.0537641495466232,0.1475384533405304,0.0,0.0,0.6571416854858398,-0.2934610247611999
-0.0703914612531662,0.0589719153940677,0.1631180942058563,-0.2725189924240112,0.0618103146553039,0.160923570394516,0.0,0.0,0.3042770624160766,-0.1634474396705627
-0.0686074271798133,0.052830871194601,0.1695697158575058,-0.2733270525932312,0.0705410540103912,0.1746146380901336,0.0,0.0,0.8178110122680664,-0.1701371669769287
-0.0669750198721885,0.0471293553709983,0.1546432673931121,-0.2538312375545501,0.079041875898838,0.1700168251991272,0.0,0.0,0.7555661201477051,0.5348260402679443
-0.0654578208923339,0.0416678041219711,0.144225388765335,-0.2431486099958419,0.086468793451786,0.1485382169485092,0.0,0.0,0.7783088684082031,-0.8036304116249084
-0.0640505775809288,0.0365369170904159,0.1312632113695144,-0.2286131232976913,0.0958438888192176,0.1875018775463104,0.0,0.0,0.8477106094360352,0.7876298427581787
-0.0625755339860916,0.0317449904978275,0.1391716003417968,-0.213534340262413,0.1041147336363792,0.1654169708490371,0.0,0.0,0.7238359451293945,0.448036789894104
-0.0609725005924701,0.0269700139760971,0.1509395241737365,-0.212899699807167,0.1134162917733192,0.1860311329364776,0.0,0.0,0.865925669670105,0.2659016847610473
-0.0593158714473247,0.022801075130701,0.1553929150104522,-0.1860999912023544,0.1236289739608764,0.2042535841464996,0.0,0.0,0.4369212388992309,-0.174049973487854
-0.0576923377811908,0.0191170796751976,0.1515874564647674,-0.1646623015403747,0.1343458741903305,0.214337557554245,0.0,0.0,0.05226731300354,-0.32829749584198
-0.0560233108699321,0.0151733728125691,0.1555534899234771,-0.1763382107019424,0.145655021071434,0.2261831313371658,0.0,0.0,0.5580637454986572,-0.317345380783081
