x_pos,y_pos,x_vel,y_vel,angle,ang_vel,leg_1,leg_2,main_booster,lat_booster
-0.0015047073829919,1.4030606746673584,-0.15283964574337,-0.3493126630783081,0.0021192007698118,0.0418297164142131,0.0,0.0,0.1514745950698852,0.9047694206237792
-0.0028775215614587,1.3951386213302612,-0.137931153178215,-0.3520915806293487,0.0027606894727796,0.0128320110961794,0.0,0.0,-0.0489372014999389,0.5628974437713623
-0.0041766166687011,1.3866482973098757,-0.1295200884342193,-0.3773504793643951,0.0023707083892077,-0.0078002451919019,0.0,0.0,-0.3208513855934143,0.6760945320129395
-0.0054131508804857,1.3775919675827026,-0.1224931702017784,-0.4025038182735443,0.0012191004352644,-0.0230345521122217,0.0,0.0,0.1284276247024536,0.5473639965057373
-0.0064898491837084,1.3686418533325195,-0.1058993488550186,-0.3977848589420318,-0.0005302831996232,-0.0349907353520393,0.0,0.0,-0.2169493436813354,-0.0474787354469299
-0.0075464248657226,1.359127640724182,-0.1041559353470802,-0.4228524267673492,-0.0020028406288474,-0.0294542275369167,0.0,0.0,-0.4721132516860962,0.1563801765441894
-0.008582592010498,1.3490495681762695,-0.1023837178945541,-0.447912722826004,-0.0032176219392567,-0.0242979824542999,0.0,0.0,-0.3501933813095093,0.696601390838623
-0.0095297815278172,1.3384095430374146,-0.092001587152481,-0.4729032814502716,-0.0059149325825273,-0.0539511628448963,0.0,0.0,-0.3242563605308532,-0.1769551634788513
-0.0104566570371389,1.3272055387496948,-0.0901731476187706,-0.4979662895202636,-0.0083935959264636,-0.0495778732001781,0.0,0.0,-0.329700231552124,-0.4108977317810058
-0.0113629344850778,1.3154377937316897,-0.0883231163024902,-0.5230289101600647,-0.0106761362403631,-0.0456548556685447,0.0,0.0,-0.8075375556945801,-0.5934811234474182
-0.0122888563200831,1.3031071424484253,-0.0914805456995964,-0.5480368733406067,-0.0117763914167881,-0.0220071356743574,0.0,0.0,0.197094440460205,-0.3181228637695312
-0.0131386760622262,1.2907856702804563,-0.0842647925019264,-0.5476228594779968,-0.0124834021553397,-0.0141414850950241,0.0,0.0,-0.6013702154159546,-0.5708698034286499
-0.0140033718198537,1.2779039144515991,-0.0867882966995239,-0.5725234746932983,-0.0121756065636873,0.0061566145159304,0.0,0.0,0.1695088148117065,-0.5604162812232971
-0.014835262671113,1.2648298740386963,-0.0848284512758255,-0.5810553431510925,-0.010550788603723,0.0324995517730712,0.0,0.0,-0.539097249507904,-0.3527344465255737
-0.0156471244990825,1.2511919736862185,-0.082908347249031,-0.6061201691627502,-0.0088487491011619,0.034043725579977,0.0,0.0,-0.5154727697372437,-0.5460575222969055
-0.0164743419736623,1.2369842529296875,-0.0854042097926139,-0.631440281867981,-0.0062081995420157,0.0528159625828266,0.0,0.0,-0.3822530508041382,-0.1435837149620056
-0.0172821041196584,1.2222126722335815,-0.0834680646657943,-0.656502902507782,-0.0035421438515186,0.053326029330492,0.0,0.0,-0.5603111386299133,-0.2206323742866516
-0.0180704109370708,1.2068774700164795,-0.0815252140164375,-0.6815659999847412,-0.0008764205267652,0.0533189661800861,0.0,0.0,-0.0321493744850158,0.5777485370635986
-0.0187864303588867,1.1909836530685425,-0.0729296877980232,-0.7063905000686646,0.000430138898082,0.0261336602270603,0.0,0.0,0.0990145206451416,-0.7387599945068359
-0.0196034424006938,1.175090193748474,-0.0844044685363769,-0.706373393535614,0.0030959756113588,0.0533216670155525,0.0,0.0,-0.2960996627807617,0.3089504241943359
-0.0204018596559762,1.1586328744888306,-0.0824533104896545,-0.7314406037330627,0.0056800348684191,0.0516860075294971,0.0,0.0,0.1506693363189697,-0.2164978981018066
-0.0211753845214843,1.1420741081237793,-0.0798986628651619,-0.7359548807144165,0.0081943264231085,0.0502904541790485,0.0,0.0,0.6872564554214478,0.2466964721679687
-0.021802807226777,1.1257872581481934,-0.0657706037163734,-0.7238836884498596,0.0111902942880988,0.0599246546626091,0.0,0.0,-0.4202542304992676,0.1971136331558227
-0.0224123951047658,1.1089363098144531,-0.0638276413083076,-0.7489517331123352,0.0140244085341691,0.0566872470080852,0.0,0.0,0.194606065750122,0.2994848489761352
-0.02311372756958,1.0922175645828247,-0.0723294466733932,-0.7430823445320129,0.0161951519548892,0.0434189476072788,0.0,0.0,0.1727241277694702,0.6977770328521729
-0.0238673202693462,1.07566499710083,-0.0757945477962493,-0.735672652721405,0.0166225302964448,0.0085476832464337,0.0,0.0,0.3921356201171875,-0.3388848304748535
-0.0246110912412405,1.0594667196273804,-0.074575588107109,-0.7199264764785767,0.0168268699198961,0.0040866062045097,0.0,0.0,0.7019481658935547,-0.440169095993042
-0.0254871360957622,1.0439763069152832,-0.0869167074561119,-0.6884601712226868,0.0161460228264331,-0.0136169465258717,0.0,0.0,0.2698899507522583,-0.2163472771644592
-0.0264569278806448,1.028812289237976,-0.0955325961112976,-0.6739361882209778,0.0147150112316012,-0.0286202784627676,0.0,0.0,-0.9667270183563232,-0.8321828246116638
-0.0274791717529296,1.0130797624588013,-0.1021923571825027,-0.6992197632789612,0.014687662012875,-0.0005469202296808,0.0,0.0,-0.2854088544845581,-0.4924585223197937
-0.0284860618412494,0.9967835545539856,-0.1003220304846763,-0.7242799997329712,0.014329070225358,-0.0071718008257448,0.0,0.0,-0.5964919328689575,0.0267004966735839
-0.0294778831303119,0.9799232482910156,-0.0984704792499542,-0.7493400573730469,0.0136179393157362,-0.014222502708435,0.0,0.0,-0.554777204990387,0.1617989540100097
-0.0304553024470806,0.962498903274536,-0.0966394320130348,-0.7744001150131226,0.0125338910147547,-0.0216808076947927,0.0,0.0,-0.0799043774604797,-0.6967992782592773
-0.0314794555306434,0.9445032477378844,-0.1024758219718933,-0.7998056411743164,0.012590080499649,0.0011241115862503,0.0,0.0,0.7998771667480469,-0.2150592803955078
-0.03248081356287,0.9269689917564392,-0.0998600274324417,-0.7793008685112,0.0123173454776406,-0.0054548690095543,0.0,0.0,0.6208715438842773,-0.3654086589813232
-0.0334601402282714,0.9099839925765992,-0.0973118096590042,-0.7548820376396179,0.0116986548528075,-0.0123739475384354,0.0,0.0,-0.0039308071136474,-0.3546919822692871
-0.0344266891479492,0.8924351930618286,-0.0955794006586074,-0.7799421548843384,0.0106349838897585,-0.0212732013314962,0.0,0.0,0.0384635925292968,0.2343041896820068
-0.0353620536625385,0.8750402927398682,-0.092102512717247,-0.7730907201766968,0.0092213936150074,-0.0282721873372793,0.0,0.0,-0.514853835105896,-0.9032413363456726
-0.0363617911934852,0.8570906519889832,-0.0999890267848968,-0.7977638840675354,0.0092455949634313,0.0004840028996113,0.0,0.0,0.495482325553894,0.2827314138412475
-0.0373294837772846,0.8394028544425964,-0.0964159741997718,-0.7861283421516418,0.0088989920914173,-0.0069322050549089,0.0,0.0,0.0685800313949585,-0.2855962514877319
-0.0383596420288085,0.8219053745269775,-0.1018359437584877,-0.7776553630828857,0.0077308774925768,-0.0233622882515192,0.0,0.0,0.3872301578521728,-0.540202796459198
-0.0393130294978618,0.8045030832290649,-0.0949863642454147,-0.7734379172325134,0.0073821074329316,-0.0069753425195813,0.0,0.0,0.5013428926467896,-0.5283754467964172
-0.0402051918208599,0.7869589924812317,-0.0896392986178398,-0.7797391414642334,0.0077977576293051,0.0083131976425647,0.0,0.0,0.3921971321105957,-0.087958812713623
-0.0410075187683105,0.7695200443267822,-0.0805095136165618,-0.7750619053840637,0.0080646835267543,0.0053382734768092,0.0,0.0,0.8371469974517822,-0.2584525346755981
-0.0418486595153808,0.7520080208778381,-0.0836171582341194,-0.7783145308494568,0.0075770653784275,-0.0097522409632802,0.0,0.0,0.0781557559967041,0.3405890464782715
-0.0426527969539165,0.7342593669891357,-0.0795004814863205,-0.788823127746582,0.0066736913286149,-0.0180674977600574,0.0,0.0,0.2691686153411865,0.428550124168396
-0.0434042923152446,0.716462254524231,-0.0738786160945892,-0.790977418422699,0.0054243109188973,-0.0249876976013183,0.0,0.0,0.3006030321121216,-0.4933804273605346
-0.0442400947213172,0.6990851163864136,-0.0813240110874176,-0.7723107933998108,0.0031950802076607,-0.0445841960608959,0.0,0.0,-0.1735532879829406,0.7848407030105591
-0.045020293444395,0.6811515092849731,-0.0739496052265167,-0.7970506548881531,-0.0008286855299957,-0.0804752632975578,0.0,0.0,0.7112162113189697,0.3493443727493286
-0.0458153709769248,0.6634443402290344,-0.0747372284531593,-0.7869898676872253,-0.0055380039848387,-0.0941864550113678,0.0,0.0,0.5267788171768188,0.0309813022613525
-0.0464688315987587,0.6459642052650452,-0.0605962201952934,-0.7769184112548828,-0.0102242864668369,-0.0937257260084152,0.0,0.0,0.060443639755249,-0.1872274875640869
-0.0471487045288085,0.6286305785179138,-0.0624658986926078,-0.7704350352287292,-0.0156772527843713,-0.1090592890977859,0.0,0.0,0.5219964981079102,-0.6235731840133667
-0.0477567687630653,0.6113426685333252,-0.0561725907027721,-0.7684004306793213,-0.0202504135668277,-0.0914634466171264,0.0,0.0,0.0407766103744506,-0.5206489562988281
-0.0483889579772949,0.5942511558532715,-0.0590191408991813,-0.7596895098686218,-0.0243895221501588,-0.0827823281288147,0.0,0.0,0.6308610439300537,-0.4429621696472168
-0.0488581657409668,0.5773124098777771,-0.0427975915372371,-0.752903938293457,-0.0284580457955598,-0.0813705399632453,0.0,0.0,0.7644588947296143,-0.3291217088699341
-0.0494113937020301,0.5605692267417908,-0.0501019358634948,-0.7442474961280823,-0.0336123406887054,-0.1030861288309097,0.0,0.0,0.7294666767120361,-0.8134081363677979
-0.0498890876770019,0.544518768787384,-0.0437765903770923,-0.7134489417076111,-0.0375625193119049,-0.0790034011006355,0.0,0.0,0.5693181753158569,-0.6629446148872375
-0.0502494797110557,0.5288628339767456,-0.0330544784665107,-0.6959001421928406,-0.0405100136995315,-0.0589499473571777,0.0,0.0,0.5018782615661621,-0.4064028263092041
-0.0505095496773719,0.513761043548584,-0.0227062813937664,-0.6712824106216431,-0.0437668748199939,-0.0651373416185379,0.0,0.0,-0.562764048576355,-0.7478705644607544
-0.0508342757821083,0.4981067478656769,-0.0302447769790887,-0.6958123445510864,-0.0459729321300983,-0.044120967388153,0.0,0.0,0.855050802230835,-0.5310974717140198
-0.0511199012398719,0.4825061559677124,-0.0269401185214519,-0.6934100985527039,-0.0475757867097854,-0.032056987285614,0.0,0.0,0.4522448778152466,-0.4937611818313598
-0.0514635071158409,0.4672722220420837,-0.0316896252334117,-0.6771493554115295,-0.0502174273133277,-0.0528326034545898,0.0,0.0,0.7652976512908936,-0.8880865573883057
-0.0517032630741596,0.4522948265075683,-0.0226963311433792,-0.6657057404518127,-0.0514773838222026,-0.0251993332058191,0.0,0.0,0.8194260597229004,-0.3475970029830932
-0.051882553845644,0.4377632141113281,-0.0161321498453617,-0.6459128856658936,-0.0532522276043891,-0.0354969277977943,0.0,0.0,0.3927991390228271,0.1636037826538086
-0.0520380027592182,0.4231738448143005,-0.0131302652880549,-0.6485021114349365,-0.055633146315813,-0.047618493437767,0.0,0.0,0.8591403961181641,-0.637304961681366
-0.052357293665409,0.4090343117713928,-0.0297714527696371,-0.6285054087638855,-0.0577674992382526,-0.0426871292293071,0.0,0.0,0.0699466466903686,-0.8164547085762024
-0.0526941306889057,0.3951750993728637,-0.0325259938836097,-0.6160098910331726,-0.0589080564677715,-0.0228113550692796,0.0,0.0,-0.4585740566253662,0.1823400259017944
-0.0530329719185829,0.3807525932788849,-0.032078132033348,-0.6410737633705139,-0.0606892481446266,-0.0356240049004554,0.0,0.0,0.9876503944396972,0.2374594211578369
-0.0532793998718261,0.3673014938831329,-0.0223439373075962,-0.5979194641113281,-0.0629618465900421,-0.045451633632183,0.0,0.0,0.8688452243804932,-0.866196870803833
-0.053680419921875,0.3541025221347809,-0.0386719964444637,-0.5866830945014954,-0.0643767863512039,-0.0282987691462039,0.0,0.0,0.8728671073913574,-0.5922925472259521
-0.0541929230093956,0.3415069580078125,-0.0500552766025066,-0.5598551034927368,-0.0655574798583984,-0.0236138142645359,0.0,0.0,0.3204872608184814,-0.3018250465393066
-0.0546518340706825,0.3290901780128479,-0.0441622957587242,-0.5519315004348755,-0.0672687366604805,-0.0342254117131233,0.0,0.0,0.6016535758972168,-0.1387447714805603
-0.0551842674612998,0.3173481822013855,-0.0502736568450927,-0.522004246711731,-0.0702026709914207,-0.0586787946522235,0.0,0.0,-0.7210944890975952,0.0851873159408569
-0.0557209961116313,0.3050429821014404,-0.0500483810901641,-0.547069251537323,-0.0737820789217948,-0.0715883523225784,0.0,0.0,-0.0694389939308166,-0.3452668190002441
-0.0562622062861919,0.2921749055385589,-0.0498553104698658,-0.5721348524093628,-0.0780074298381805,-0.0845072194933891,0.0,0.0,0.8107863664627075,-0.9218061566352844
-0.0567712783813476,0.2792655229568481,-0.0479781068861484,-0.5739006400108337,-0.0809084922075271,-0.0580212548375129,0.0,0.0,0.8306589126586914,-0.536879301071167
-0.0573348999023437,0.2663598954677582,-0.0537510626018047,-0.5737296342849731,-0.0834942236542701,-0.0517145618796348,0.0,0.0,0.8808234930038452,-0.4284406900405884
-0.0578381530940532,0.2542420923709869,-0.047015693038702,-0.538755476474762,-0.0867709517478942,-0.0655345991253852,0.0,0.0,0.8438057899475098,-0.8471038341522217
-0.0582365021109581,0.2429261803627014,-0.0377770587801933,-0.5030519366264343,-0.0888155475258827,-0.0408917628228664,0.0,0.0,0.880568265914917,-0.7832546830177307
-0.05875825881958,0.2324717789888382,-0.0507352836430072,-0.4647254347801208,-0.090244174003601,-0.0285724736750125,0.0,0.0,-0.384340763092041,-0.5937309861183167
-0.059343434870243,0.221455916762352,-0.0578690245747566,-0.4896320104598999,-0.0908845663070678,-0.0128075899556279,0.0,0.0,-0.1047759652137756,-0.4178221225738525
-0.0599349029362201,0.209876999258995,-0.0578526370227336,-0.5146974921226501,-0.0921720415353775,-0.0257495790719985,0.0,0.0,0.9532403945922852,0.3097114562988281
-0.0605896934866905,0.1987679302692413,-0.0629589706659317,-0.4938954412937164,-0.0946607142686843,-0.0497733987867832,0.0,0.0,0.8430989980697632,-0.6495499610900879
-0.0612960830330848,0.1882442981004715,-0.0686175748705864,-0.4678449630737304,-0.0966657549142837,-0.0401004552841186,0.0,0.0,-0.2335340976715088,-0.2819671630859375
-0.0620092377066612,0.177157774567604,-0.0686482787132263,-0.4929110407829284,-0.0993173569440841,-0.0530318729579448,0.0,0.0,0.6838645935058594,-0.706400990486145
-0.0626296997070312,0.1663873791694641,-0.0603481456637382,-0.478798508644104,-0.1009997501969337,-0.0336477160453796,0.0,0.0,0.6989424228668213,-0.488951027393341
-0.0631974190473556,0.1555756479501724,-0.0545381419360637,-0.4806737899780273,-0.1032152846455574,-0.0443108901381492,0.0,0.0,0.7142926454544067,-0.468677282333374
-0.063633345067501,0.1448095440864563,-0.0411653146147728,-0.4786658883094787,-0.1056310310959816,-0.0483147129416465,0.0,0.0,0.9550249576568604,-0.3612263202667236
-0.063832089304924,0.1344609409570694,-0.0176007729023695,-0.4601010084152221,-0.1078863516449928,-0.0451066493988037,0.0,0.0,0.9623043537139891,-0.8970211744308472
-0.0638776794075965,0.1242231950163841,-0.0037872311659157,-0.4550661146640777,-0.1086477637290954,-0.0152281578630208,0.0,0.0,0.9819297790527344,-0.8706452250480652
-0.063908003270626,0.1147851049900055,-0.0033536315895617,-0.4194472134113312,-0.1083289012312889,0.0063772448338568,0.0,0.0,0.9607748985290528,-0.7782076597213745
-0.0638692826032638,0.1061359494924545,0.0025509716942906,-0.3843114972114563,-0.1070083230733871,0.0264110751450061,0.0,0.0,0.6838390827178955,-0.7165198922157288
-0.0636831298470497,0.0979273915290832,0.0161890015006065,-0.3646534085273742,-0.1046081036329269,0.048004500567913,0.0,0.0,0.5269343852996826,-0.8078835010528564
-0.063433364033699,0.0895913690328598,0.021418685093522,-0.3702459633350372,-0.1010796353220939,0.0705691874027252,0.0,0.0,0.7977913618087769,-0.6675171852111816
-0.0632487311959266,0.0815348699688911,0.0143590848892927,-0.3577923476696014,-0.0970092937350273,0.081406757235527,0.0,0.0,0.8358757495880127,-0.5730292201042175
-0.0629226714372634,0.0743458345532417,0.027709525078535,-0.3192044496536255,-0.0921586379408836,0.0970133692026138,0.0,0.0,0.2411085367202758,-0.3943841457366943
-0.0625814422965049,0.0672349780797958,0.0299582220613956,-0.3157876431941986,-0.0880264341831207,0.0826437920331955,0.0,0.0,0.6889960765838623,-0.5751219987869263
-0.0623562820255756,0.0608056150376796,0.0181887354701757,-0.2855001091957092,-0.0837343037128448,0.0858425721526146,0.0,0.0,0.3373439311981201,0.3141211271286011
-0.0620199218392372,0.0546488389372825,0.0296146813780069,-0.2734142243862152,-0.0797506421804428,0.0796732008457183,0.0,0.0,0.188106894493103,-0.2516725063323974
-0.0616849884390831,0.0487403981387615,0.0302841514348983,-0.2624301314353943,-0.0765777006745338,0.0634588897228241,0.0,0.0,-0.2669739127159118,0.6648486852645874
-0.0613103881478309,0.042268332093954,0.0360359214246273,-0.2875744104385376,-0.0751763433218002,0.0280275233089923,0.0,0.0,0.7638778686523438,0.3280907869338989
-0.060927964746952,0.0360313020646572,0.0375798493623733,-0.2771689593791961,-0.0745263248682022,0.0130004361271858,0.0,0.0,0.6295764446258545,0.1259316205978393
-0.0606215484440326,0.0301311593502759,0.0311605092138052,-0.2622528374195099,-0.0750347599387168,-0.0101687954738736,0.0,0.0,0.6054478883743286,0.714104413986206
-0.0603856071829795,0.0244392249733209,0.0265033636242151,-0.2531232535839081,-0.0779104307293891,-0.0575132369995117,0.0,0.0,0.789749026298523,0.7823512554168701
-0.0599064826965332,0.0193312261253595,0.0527587421238422,-0.2272844165563583,-0.0827070921659469,-0.0959334447979927,0.0,0.0,0.7364259958267212,0.1344404220581054
-0.0593353286385536,0.0142320254817605,0.0622789971530437,-0.2269247025251388,-0.08782310038805,-0.1023199558258056,0.0,0.0,0.6917953491210938,-0.3736482262611389
-0.0585515983402729,0.0097178313881158,0.0834620147943496,-0.200938269495964,-0.0928661674261093,-0.1008613482117652,0.0,0.0,0.2059381008148193,-0.6257408261299133
-0.0577038750052452,0.0062579964287579,0.0702183991670608,-0.1529328376054763,-0.0784507617354393,0.2883141636848449,1.0,0.0,0.6862835884094238,-0.6575621962547302
-0.0565763488411903,0.0041198111139237,0.0805324763059616,-0.0936634615063667,-0.0465169996023178,0.63874351978302,1.0,0.0,0.1730039119720459,-0.1956138610839843
-0.0553913116455078,0.0020193553064018,0.0868850573897361,-0.0926725193858146,-0.0152973048388957,0.6243935823440552,1.0,0.0,0.1657676696777343,-0.0891215801239013
-0.0542023666203022,0.0002320742642041,0.087279625236988,-0.0794064626097679,0.0158964656293392,0.6238758563995361,0.0,0.0,-0.0306272506713867,0.709633469581604
-0.0531726852059364,-0.0015398287214338,0.0931965559720993,-0.0788958072662353,0.0255104359239339,0.1922326982021331,0.0,1.0,-0.4325135946273803,0.5091309547424316
-0.0523226745426654,-0.0033186341170221,0.0960048362612724,-0.0789137855172157,0.0146097894757986,-0.2180522978305816,0.0,1.0,0.1282938718795776,-0.0139779448509216
-0.0516862869262695,-0.0038635516539216,0.0751639977097511,-0.0241559818387031,0.0032040409278124,-0.2281476706266403,1.0,1.0,0.4915910959243774,-0.8980769515037537
-0.0513177886605262,-0.0032045864500105,0.043413870036602,0.0292796734720468,-0.0032910923473536,-0.1299249827861786,1.0,1.0,-0.5553394556045532,-0.8895300626754761
-0.050959013402462,-0.0021938586141914,0.0354065410792827,0.0449165664613246,-0.0028641982935369,0.0085129458457231,1.0,1.0,-0.6098836660385132,-0.7296323180198669
-0.0506420135498046,-0.0009232783340848,0.0287701096385717,0.0564741864800453,6.985716481722193e-06,0.0573967583477497,1.0,1.0,-0.8496193885803223,-0.2635411620140075
-0.0503313057124614,-0.0002516174281481,0.0285486727952957,0.0298510789871215,0.0024947661440819,0.0497557334601879,1.0,1.0,-0.7530904412269592,-0.0402269959449768
-0.0500362403690815,-0.0001049184793373,0.0283526182174682,0.0065158721990883,0.0036373988259583,0.022852623835206,0.0,1.0,-0.954950213432312,-0.0168032646179199
-0.0497826561331748,-0.0004185938742011,0.0278288628906011,-0.0139366136863827,0.001191112678498,-0.0489255525171756,0.0,1.0,-0.6939476728439331,-0.1406744718551635
