x_pos,y_pos,x_vel,y_vel,angle,ang_vel,leg_1,leg_2,main_booster,lat_booster
-0.0015241622459143,1.4034106731414795,-0.1543748676776886,-0.333755761384964,0.0017535891383886,0.0345904417335987,0.0,0.0,-0.2004344463348388,0.5797115564346313
-0.0029994964133948,1.3957078456878662,-0.1479864567518234,-0.3423517048358917,0.0021990227978676,0.0089102033525705,0.0,0.0,-0.3817476630210876,0.7757813930511475
-0.0044008255936205,1.3877851963043213,-0.1386689841747284,-0.3521169424057007,0.0007519901264458,-0.028943171724677,0.0,0.0,0.3595104217529297,0.2611246109008789
-0.0059009552933275,1.3802653551101685,-0.1480467021465301,-0.334220826625824,-0.0011834816541522,-0.0387133583426475,0.0,0.0,-0.0478681921958923,-0.1851400732994079
-0.0074012754485011,1.3725314140319824,-0.1480612456798553,-0.3437310755252838,-0.0031377461273223,-0.0390888340771198,0.0,0.0,0.0652840137481689,0.7789510488510132
-0.0087371822446584,1.365107178688049,-0.1301057785749435,-0.3299750983715057,-0.0065799471922218,-0.0688507184386253,0.0,0.0,-0.1355249881744384,-0.141288161277771
-0.0100732799619436,1.3574693202972412,-0.1301125138998031,-0.3394855856895447,-0.0100401947274804,-0.0692112296819686,0.0,0.0,-0.1504093408584594,0.0353462696075439
-0.0114095686003565,1.349617600440979,-0.1301179826259613,-0.3489902317523956,-0.0135192209854722,-0.0695869699120521,0.0,0.0,0.2798299789428711,0.6847095489501953
-0.0126937869936227,1.3425313234329224,-0.1234991699457168,-0.3150048851966858,-0.0183900371193885,-0.097425065934658,0.0,0.0,-0.1841491460800171,0.0934569835662841
-0.0139782903715968,1.3352309465408323,-0.1234970912337303,-0.3245198130607605,-0.0232785195112228,-0.0977784097194671,0.0,0.0,-0.2116796374320984,0.0609406232833862
-0.0152627946808934,1.3277175426483154,-0.1234936490654945,-0.3340236842632293,-0.0281856227666139,-0.098151184618473,0.0,0.0,-0.687528669834137,0.2520277500152588
-0.0165474899113178,1.3199902772903442,-0.1234884411096572,-0.3435302078723907,-0.0331110395491123,-0.0985173881053924,0.0,0.0,0.0069226026535034,-0.0365322828292846
-0.0177387241274118,1.3126847743988037,-0.1145110875368118,-0.3247991800308227,-0.0376794598996639,-0.0913766026496887,0.0,0.0,-0.8277373313903809,0.1918708086013794
-0.018930148333311,1.3051656484603882,-0.1145040988922119,-0.3343114554882049,-0.0422665141522884,-0.0917495638132095,0.0,0.0,-0.5626859664916992,0.1750637292861938
-0.0201215744018554,1.2974326610565186,-0.1144949346780777,-0.3438169658184051,-0.0468717738986015,-0.0921135693788528,0.0,0.0,-0.8531116247177124,0.0816158056259155
-0.021313190460205,1.289486527442932,-0.1144843325018882,-0.353323757648468,-0.0514953546226024,-0.0924801900982856,0.0,0.0,-0.8459208011627197,0.4026544094085693
-0.022504711523652,1.2813265323638916,-0.1144720762968063,-0.3628312051296234,-0.0561372488737106,-0.0928461328148841,0.0,0.0,-0.9315087795257568,0.2070639133453369
-0.0236963275820016,1.2729530334472656,-0.1144582405686378,-0.3723388612270355,-0.0607974231243133,-0.0932120159268379,0.0,0.0,-0.801814079284668,-0.0559455752372741
-0.0248879436403512,1.2643660306930542,-0.1144428849220275,-0.3818465769290924,-0.0654758885502815,-0.0935777872800827,0.0,0.0,-0.6932997107505798,-0.1375855803489685
-0.0260795596987009,1.2555654048919678,-0.1144260168075561,-0.3913544416427612,-0.0701726153492927,-0.0939429551362991,0.0,0.0,-0.7755392789840698,0.281150221824646
-0.0272712707519531,1.2465511560440063,-0.1144076734781265,-0.4008623659610748,-0.0748875513672828,-0.0943075567483902,0.0,0.0,-0.7135556936264038,0.0250320434570312
-0.0284627918154001,1.23732328414917,-0.1143878549337387,-0.4103704690933227,-0.0796207189559936,-0.094671607017517,0.0,0.0,-0.7720293998718262,-0.497448980808258
-0.0296543128788471,1.2278821468353271,-0.1143666505813598,-0.4198786914348602,-0.0843720585107803,-0.0950351879000663,0.0,0.0,-0.9063811898231506,0.6233804225921631
-0.0307914726436138,1.218213438987732,-0.1075034588575363,-0.4300819635391235,-0.090529128909111,-0.1231526359915733,0.0,0.0,-0.9015583395957948,-0.8214834332466125
-0.0320082679390907,1.2083442211151123,-0.1174984574317932,-0.4388841390609741,-0.0946799144148826,-0.0830230712890625,0.0,0.0,-0.408924400806427,0.5285297632217407
-0.0331946387887001,1.1982386112213137,-0.113632246851921,-0.4494683146476745,-0.099647469818592,-0.0993507727980613,0.0,0.0,-0.8292624950408936,-0.1913293600082397
-0.0343811027705669,1.1879194974899292,-0.1136191934347152,-0.4589740335941314,-0.1046336889266967,-0.0997244566679,0.0,0.0,-0.9334593415260316,0.1140514612197876
-0.0355674736201763,1.1773868799209597,-0.1136049777269363,-0.4684797823429107,-0.1096385568380355,-0.1000971794128418,0.0,0.0,0.0499663352966308,0.6787278652191162
-0.0367403030395507,1.1673870086669922,-0.1107703223824501,-0.4449253976345062,-0.1161040291190147,-0.1293094456195831,0.0,0.0,-0.8483713865280151,-0.2497419118881225
-0.0379130356013774,1.1571741104125977,-0.1107541546225547,-0.4544325768947601,-0.1225879937410354,-0.1296792924404144,0.0,0.0,-0.1822866201400756,-0.115124225616455
-0.0390857681632041,1.1467479467391968,-0.1107369661331176,-0.463939756155014,-0.1290903687477111,-0.1300473511219024,0.0,0.0,-0.7975262403488159,-0.6696904301643372
-0.0403181090950965,1.1361159086227417,-0.1181990280747413,-0.4729748070240021,-0.1341025382280349,-0.100243292748928,0.0,0.0,-0.1705882549285888,-0.7548602223396301
-0.0416169166564941,1.125291109085083,-0.1265641152858734,-0.4814085662364959,-0.137414664030075,-0.0662423744797706,0.0,0.0,-0.3053463101387024,0.1828947067260742
-0.0429158210754394,1.1142525672912598,-0.1265436559915542,-0.4909131824970245,-0.1407448947429657,-0.0666050389409065,0.0,0.0,-0.7208702564239502,-0.4244917035102844
-0.044214628636837,1.1030004024505615,-0.1265223324298858,-0.5004178285598755,-0.1440931856632232,-0.0669654384255409,0.0,0.0,-0.4825903177261352,0.0243064165115356
-0.0455134399235248,1.0915346145629885,-0.1265002191066742,-0.509922444820404,-0.1474593579769134,-0.0673232972621917,0.0,0.0,-0.0767622590065002,-0.2981237769126892
-0.0468120574951171,1.0798550844192505,-0.1264773309230804,-0.5194271206855774,-0.1508432775735855,-0.0676783323287963,0.0,0.0,0.22510826587677,-0.7689175009727478
-0.0480535514652729,1.0688111782073977,-0.1223229020833969,-0.4910219013690948,-0.1526701897382736,-0.0365382358431816,0.0,0.0,-0.729088306427002,-0.5243663787841797
-0.0493380539119243,1.0575695037841797,-0.1277228742837906,-0.4997075498104095,-0.1533937603235244,-0.0144713539630174,0.0,0.0,-0.5747249722480774,-0.1891338229179382
-0.0506224632263183,1.0461139678955078,-0.1276978105306625,-0.5092113018035889,-0.1541345715522766,-0.0148161919787526,0.0,0.0,-0.5002889633178711,-0.5945950150489807
-0.0519608482718467,1.0344624519348145,-0.1344904750585556,-0.5177834630012512,-0.1534890234470367,0.0129109174013137,0.0,0.0,-0.0896052718162536,0.7066314220428467
-0.0532328598201274,1.0225799083709717,-0.1261238604784011,-0.5282192826271057,-0.1545648127794265,-0.0215158686041831,0.0,0.0,-0.8910254836082458,-0.7678947448730469
-0.0545559898018837,1.010487079620361,-0.1325030326843261,-0.5374395847320557,-0.1543732434511184,0.0038315951824188,0.0,0.0,-0.9545619487762452,-0.6575605869293213
-0.0559220314025878,0.9981891512870787,-0.1378781795501709,-0.546443521976471,-0.1530999094247818,0.0254664663225412,0.0,0.0,-0.99461829662323,0.2374041080474853
-0.0572879798710346,0.9856774806976318,-0.1378506571054458,-0.5559473633766174,-0.1518425941467285,0.0251462459564209,0.0,0.0,-0.9708902835845948,0.3757200241088867
-0.0586538314819335,0.9729519486427308,-0.1378227770328521,-0.5654512047767639,-0.1506009697914123,0.0248323418200016,0.0,0.0,-0.9513304829597472,0.8043781518936157
-0.0599506385624408,0.9599926471710204,-0.1291402131319046,-0.5760284066200256,-0.1511491537094116,-0.0109637845307588,0.0,0.0,-0.8633540272712708,-0.3589472770690918
-0.0612473487854003,0.9468194842338562,-0.1291116774082183,-0.5855321884155273,-0.1517123281955719,-0.0112633984535932,0.0,0.0,-0.9892679452896118,0.0101255178451538
-0.0625439658761024,0.9334325194358826,-0.1290828883647918,-0.5950358510017395,-0.1522900909185409,-0.0115548763424158,0.0,0.0,-0.9971141815185548,-0.713908314704895
-0.0638983696699142,0.9198430776596068,-0.1363284140825271,-0.6038879156112671,-0.1514046788215637,0.0177083872258663,0.0,0.0,-0.9912866950035096,-0.6150937676429749
-0.0652893036603927,0.9060479402542114,-0.1409009397029876,-0.6129310727119446,-0.1495956480503082,0.0361803174018859,0.0,0.0,-0.8230556845664978,-0.6507197022438049
-0.0667352676391601,0.8920561075210571,-0.1478296518325805,-0.6215407848358154,-0.1463714987039566,0.0644829273223877,0.0,0.0,-0.9240440726280212,-0.0047996640205383
-0.0681811347603797,0.8778504133224487,-0.1478004157543182,-0.6310452818870544,-0.1431599557399749,0.0642305016517639,0.0,0.0,-0.8658052682876587,0.2138717174530029
-0.0696267113089561,0.8634311556816101,-0.1477711200714111,-0.6405497789382935,-0.1399604827165603,0.0639896318316459,0.0,0.0,-0.9496757984161376,-2.3245811462402344e-05
-0.0710721984505653,0.8487982749938965,-0.1477417796850204,-0.6500542163848877,-0.136772409081459,0.0637611299753189,0.0,0.0,-0.9408526420593262,-0.5470322966575623
-0.072567269206047,0.8339594602584839,-0.1539698839187622,-0.6590938568115234,-0.1323297619819641,0.0888530164957046,0.0,0.0,-0.9412484765052797,0.4022899866104126
-0.0740621536970138,0.8189072012901306,-0.1539407223463058,-0.6685991287231445,-0.1278971880674362,0.0886513590812683,0.0,0.0,-0.9224907159805298,-0.130593717098236
-0.0755568519234657,0.8036413192749023,-0.1539116203784942,-0.6781043410301208,-0.123473972082138,0.0884642452001571,0.0,0.0,-0.8181289434432983,-0.0360896587371826
-0.077051356434822,0.7881620526313782,-0.1538825929164886,-0.6876095533370972,-0.1190593391656875,0.0882924571633338,0.0,0.0,-0.6463873982429504,0.1827245950698852
-0.0785455703735351,0.7724690437316895,-0.1538536846637725,-0.6971147060394287,-0.114652507007122,0.0881366357207298,0.0,0.0,-0.896959662437439,0.6700061559677124
-0.0799828544259071,0.7565469145774841,-0.1466972380876541,-0.7074272036552429,-0.1117056533694267,0.0589371733367443,0.0,0.0,-0.769633412361145,-0.0826447010040283
-0.0814198479056358,0.7404108643531799,-0.1466685086488723,-0.7169314622879028,-0.1087648943066597,0.0588152222335338,0.0,0.0,-0.724067747592926,-0.0870651006698608
-0.0828566551208496,0.7240614295005798,-0.1466400027275085,-0.7264357805252075,-0.1058293506503105,0.0587109550833702,0.0,0.0,-0.6023760437965393,0.4892280101776123
-0.0842931717634201,0.7074982523918152,-0.146611750125885,-0.7359400391578674,-0.1028981283307075,0.0586248114705085,0.0,0.0,-0.6447107791900635,0.6161975860595703
-0.0856807678937912,0.6907088756561279,-0.1404490172863006,-0.7460704445838928,-0.1012166887521743,0.0336286909878253,0.0,0.0,-0.3788572549819946,0.4646973609924316
-0.0870679840445518,0.6737059950828552,-0.1404212862253189,-0.7555741667747498,-0.0995377153158187,0.033579796552658,0.0,0.0,-0.1482715606689453,0.3653584718704223
-0.0884550064802169,0.6564891934394836,-0.140393853187561,-0.7650778889656067,-0.0978602170944213,0.033549778163433,0.0,0.0,0.9003825187683105,0.6318978071212769
-0.0896589308977127,0.6395310759544373,-0.1210752725601196,-0.7536476254463196,-0.0971806421875953,0.0135915530845522,0.0,0.0,0.5439525842666626,0.6261076927185059
-0.0907079726457595,0.6235460638999939,-0.1043963208794593,-0.7104721665382385,-0.0976855084300041,-0.0100976387038826,0.0,0.0,-0.4044533967971802,-0.1380192637443542
-0.0917568206787109,0.6073474884033203,-0.1043700203299522,-0.7199757099151611,-0.0981890708208084,-0.0100710885599255,0.0,0.0,0.5883500576019287,0.2173200845718383
-0.0928293243050575,0.5919197201728821,-0.106334388256073,-0.6857398152351379,-0.099098801612854,-0.018194543197751,0.0,0.0,-0.1860401034355163,0.328830361366272
-0.0939015373587608,0.576278030872345,-0.1063089519739151,-0.6952434182167053,-0.1000053659081459,-0.0181313101202249,0.0,0.0,0.3875148296356201,-0.4389208555221557
-0.0950102806091308,0.5614974498748779,-0.1094607859849929,-0.6570126414299011,-0.1014083921909332,-0.0280603617429733,0.0,0.0,-0.7345120906829834,-0.4416297674179077
-0.0961187332868576,0.546502947807312,-0.1094363182783126,-0.6665162444114685,-0.1028064861893653,-0.0279620829969644,0.0,0.0,-0.217456042766571,0.3915078639984131
-0.0972269028425216,0.5312947630882263,-0.1094123572111129,-0.6760197877883911,-0.1041988432407379,-0.0278471000492572,0.0,0.0,0.556788444519043,0.2844927310943603
-0.0982391387224197,0.5163196921348572,-0.100127637386322,-0.6656373143196106,-0.1052882447838783,-0.0217879470437765,0.0,0.0,0.7026872634887695,-0.3642181754112243
-0.0992466956377029,0.5016577243804932,-0.0995141416788101,-0.6517316102981567,-0.1065209656953811,-0.0246544610708951,0.0,0.0,0.2112689018249511,0.0589315891265869
-0.1001981720328331,0.4876502156257629,-0.093888483941555,-0.6226447820663452,-0.1077739968895912,-0.0250606499612331,0.0,0.0,-0.3389485478401184,-0.4772819280624389
-0.1011494621634483,0.4734289348125458,-0.0938667207956314,-0.6321483850479126,-0.1090182512998581,-0.0248851627111434,0.0,0.0,0.2299723625183105,0.3517354726791382
-0.102117158472538,0.4599147439002991,-0.0951387137174606,-0.600749671459198,-0.1106395497918129,-0.032426081597805,0.0,0.0,-0.7881967425346375,-0.163017988204956
-0.1030845642089843,0.4461868405342102,-0.0951181501150131,-0.6102532744407654,-0.11225076764822,-0.0322245135903358,0.0,0.0,0.0073095560073852,-0.0801994204521179
-0.1039731949567794,0.4329592585563659,-0.0873682349920272,-0.5880031585693359,-0.113737553358078,-0.0297358725219964,0.0,0.0,-0.1490240693092346,0.6066741943359375
-0.1048218756914138,0.4195111691951751,-0.0823706611990928,-0.5978881120681763,-0.1162199825048446,-0.0496486909687519,0.0,0.0,0.2484312057495117,-0.0527626872062683
-0.1056519523262977,0.4066195487976074,-0.0803326889872551,-0.5731711983680725,-0.1188822761178016,-0.0532459393143653,0.0,0.0,0.7161601781845093,-0.457790732383728
-0.1064078360795974,0.3945982456207275,-0.0728733390569686,-0.5344990491867065,-0.1215898320078849,-0.0541508607566356,0.0,0.0,-0.4014121294021606,0.9459378719329834
-0.1070784553885459,0.3823479115962982,-0.0621799528598785,-0.5448649525642395,-0.1264464408159256,-0.0971317514777183,0.0,0.0,-0.4208412170410156,-0.7221202850341797
-0.1078038215637207,0.3698872923851013,-0.0690566524863243,-0.5541049242019653,-0.129907876253128,-0.0692287012934684,0.0,0.0,-0.3309695124626159,-0.8120929002761841
-0.1085832566022872,0.3572175502777099,-0.0758563950657844,-0.563282310962677,-0.131986379623413,-0.0415701940655708,0.0,0.0,0.7567849159240723,-0.8017703294754028
-0.1091749221086502,0.3452152609825134,-0.0590320415794849,-0.5334470272064209,-0.1321170479059219,-0.0026130694895982,0.0,0.0,0.0461014509201049,-0.6317364573478699
-0.1096842736005783,0.3333558142185211,-0.0522084757685661,-0.526976466178894,-0.1308576017618179,0.0251893438398838,0.0,0.0,-0.3262125253677368,-0.4460122585296631
-0.110193446278572,0.3212825059890747,-0.0521944984793663,-0.5364798903465271,-0.1295835375785827,0.0254813022911548,0.0,0.0,-0.0013952255249023,-0.111283004283905
-0.1107023209333419,0.3089952766895294,-0.0521812215447425,-0.5459833741188049,-0.1282945722341537,0.025779265910387,0.0,0.0,0.6524238586425781,-0.2701992988586426
-0.111001968383789,0.2974629998207092,-0.0318553186953067,-0.5123862028121948,-0.1264142543077469,0.0376064516603946,0.0,0.0,0.5610058307647705,0.2347737550735473
-0.1111679077148437,0.2861578166484833,-0.0189436562359333,-0.5022553205490112,-0.1240777224302291,0.0467306748032569,0.0,0.0,0.0013691186904907,0.0231730937957763
-0.1113268882036209,0.2751041054725647,-0.018123960122466,-0.4910901188850403,-0.1218728646636009,0.0440973415970802,0.0,0.0,0.3807874917984009,0.5062124729156494
-0.111281968653202,0.2648950517177582,0.0030871485359966,-0.4536227881908417,-0.1204749047756195,0.0279591083526611,0.0,0.0,-0.1188070774078369,-0.6917397379875183
-0.1112931221723556,0.2544822692871094,-0.0039883349090814,-0.4625653326511383,-0.1176267713308334,0.0569630376994609,0.0,0.0,-0.119407057762146,0.0770047903060913
-0.1113040894269943,0.2438556551933288,-0.0039793755859136,-0.4720693230628967,-0.1147623434662818,0.0572884306311607,0.0,0.0,-0.1077542304992675,0.4645605087280273
-0.1113147735595703,0.2330153137445449,-0.0039711100980639,-0.4815732836723327,-0.1118814796209335,0.057617288082838,0.0,0.0,0.6475619077682495,-0.1122789978981018
-0.1112947463989257,0.223085418343544,-0.0006644081440754,-0.4411309659481048,-0.1092309653759002,0.0530101284384727,0.0,0.0,-0.483095645904541,0.2504483461380005
-0.1112745255231857,0.2129417955875396,-0.0006574929575435,-0.4506348967552185,-0.1065636947751045,0.0533450469374656,0.0,0.0,0.5580583810806274,0.6839408874511719
-0.1111759170889854,0.20327790081501,0.008580476976931,-0.4294125735759735,-0.1052967756986618,0.0253384821116924,0.0,0.0,0.024132490158081,-0.2356347441673278
-0.1111098304390907,0.1939677745103836,0.0056508053094148,-0.4137174785137176,-0.1043473929166793,0.0189875531941652,0.0,0.0,-0.5242825746536255,0.3393527269363403
-0.1110434532165527,0.184443786740303,0.0056558148935437,-0.4232209324836731,-0.1033809185028076,0.0193299259990453,0.0,0.0,0.0433138608932495,-0.5384898781776428
-0.1108983010053634,0.1753812134265899,0.0123252291232347,-0.402627170085907,-0.1012016758322715,0.0435845479369163,0.0,0.0,-0.0119179487228393,-0.7183859944343567
-0.1108040809631347,0.16610649228096,0.005912896245718,-0.4119769930839538,-0.0977209731936454,0.0696139186620712,0.0,0.0,0.1932070255279541,-0.1007736325263977
-0.1105516403913497,0.1574252992868423,0.0212310962378978,-0.385572999715805,-0.093738280236721,0.0796538442373275,0.0,0.0,-0.0733397006988525,-0.3431251049041748
-0.1102990135550499,0.148530438542366,0.0212334543466568,-0.395077645778656,-0.0897381007671356,0.0800034329295158,0.0,0.0,-0.0594376921653747,0.6802664995193481
-0.1099793463945388,0.1394208073616027,0.0296044386923313,-0.4047319293022156,-0.0873946920037269,0.0468681380152702,0.0,0.0,0.5961604118347168,-0.2156789302825927
-0.109537124633789,0.130924567580223,0.0414939559996128,-0.3774555325508117,-0.0846927389502525,0.0540391393005847,0.0,0.0,0.6453883647918701,0.1090563535690307
-0.1090331077575683,0.1234307587146759,0.0476939268410205,-0.3329059481620788,-0.082006350159645,0.0537275671958923,0.0,0.0,0.0429458618164062,0.1657896041870117
-0.1084499359130859,0.1164618134498596,0.0554063394665718,-0.309576004743576,-0.0791251212358474,0.0576247870922088,0.0,0.0,-0.2362818121910095,-0.3657671809196472
-0.107866570353508,0.109279066324234,0.0554061233997345,-0.3190800547599792,-0.0762261152267456,0.0579803474247455,0.0,0.0,-0.3407735228538513,-0.6286671757698059
-0.1073426231741905,0.1018906235694885,0.0479223504662513,-0.3281552493572235,-0.0718026980757713,0.0884686708450317,0.0,0.0,0.3493072986602783,0.7660788297653198
-0.1068454757332801,0.0949215963482856,0.0469326265156269,-0.3096028864383697,-0.0690472349524498,0.0551092326641082,0.0,0.0,0.21486496925354,-0.2247366905212402
-0.1063353568315506,0.088360771536827,0.0482865199446678,-0.291468471288681,-0.0663471445441246,0.0540017895400524,0.0,0.0,-0.0931578874588012,0.3969423770904541
-0.1058250442147255,0.0815861523151397,0.0482845790684223,-0.3009724617004394,-0.0636291354894638,0.0543601028621196,0.0,0.0,0.491924524307251,0.838821291923523
-0.1050958633422851,0.0750573724508285,0.0716490745544433,-0.2901177406311035,-0.0623814053833484,0.0249548405408859,0.0,0.0,0.2084510326385498,0.2583638429641723
-0.1042642593383789,0.0690568089485168,0.0815480723977088,-0.2666255235671997,-0.0607859268784523,0.0319095328450202,0.0,0.0,-0.0707157254219055,0.1117088794708252
-0.1034324616193771,0.0628423765301704,0.0815451517701149,-0.2761291563510895,-0.0591724775731563,0.0322689451277256,0.0,0.0,-0.0790587067604065,0.0117344856262207
