x_pos,y_pos,x_vel,y_vel,angle,ang_vel,leg_1,leg_2,main_booster,lat_booster
-0.0015231132274493,1.403376221656799,-0.1542528867721557,-0.3352855145931244,0.0017396643524989,0.0343145355582237,0.0,0.0,-0.6390935182571411,0.5730335712432861
-0.0029970169998705,1.3956046104431152,-0.1478337198495865,-0.3454098999500274,0.0021761120297014,0.0087307933717966,0.0,0.0,-0.1329642534255981,0.4803271293640136
-0.004470539279282,1.3875839710235596,-0.1477725058794021,-0.356468141078949,0.0025873291306197,0.0082251792773604,0.0,0.0,-0.3434619903564453,0.6305375099182129
-0.0059041022323071,1.3793132305145264,-0.142736405134201,-0.367589384317398,0.0019757242407649,-0.0122331511229276,0.0,0.0,-0.442480206489563,0.1465018987655639
-0.0073375701904296,1.3707941770553589,-0.1427097171545028,-0.3786244094371795,0.0013472150312736,-0.0125713665038347,0.0,0.0,-0.0249003171920776,0.3752548694610595
-0.008771133609116,1.362026929855347,-0.1427046954631805,-0.389659434556961,0.0007051597349345,-0.0128423515707254,0.0,0.0,0.1326425075531005,0.6874303817749023
-0.0101686473935842,1.3536051511764526,-0.1376902610063552,-0.374299019575119,-0.0013299263082444,-0.0407057330012321,0.0,0.0,-0.290024995803833,0.2119261026382446
-0.0115666389465332,1.3449349403381348,-0.1377286165952682,-0.3853392601013183,-0.0033690514974296,-0.0407864153385162,0.0,0.0,-0.3978565335273742,0.7522671222686768
-0.0129071231931447,1.3360247611999512,-0.1305086314678192,-0.3960252404212951,-0.0068688169121742,-0.0700020343065261,0.0,0.0,0.0465794801712036,0.5191643238067627
-0.0142047880217432,1.3275595903396606,-0.1252021640539169,-0.3762647211551666,-0.0113930692896246,-0.0904932022094726,0.0,0.0,0.0632423162460327,0.3940074443817138
-0.0154438018798828,1.3194189071655271,-0.1195977181196212,-0.3618434071540832,-0.0156449191272258,-0.0850448384881019,0.0,0.0,-0.1103605031967163,0.3080129623413086
-0.0166840553283691,1.3110302686691284,-0.1197437047958374,-0.3728818297386169,-0.0198833849281072,-0.0847770497202873,0.0,0.0,-0.5438529253005981,0.3258378505706787
-0.0179259292781353,1.3023935556411743,-0.1199215427041053,-0.383916825056076,-0.0241031739860773,-0.0844033360481262,0.0,0.0,-0.6193753480911255,0.1388375759124755
-0.0191697124391794,1.2935086488723757,-0.1201329380273819,-0.3949527442455292,-0.0282995458692312,-0.0839348286390304,0.0,0.0,-0.4262471199035644,0.7015173435211182
-0.0203472133725881,1.2843804359436035,-0.1118016242980957,-0.4058288931846618,-0.0341841802000999,-0.1177033334970474,0.0,0.0,-0.4457840919494629,0.6616663932800293
-0.0214655883610248,1.2749934196472168,-0.1043590158224105,-0.4173887968063354,-0.0415873825550079,-0.1480776369571685,0.0,0.0,-0.5790007710456848,0.0757486820220947
-0.022586727514863,1.265358805656433,-0.1046688929200172,-0.4284285604953766,-0.0489515587687492,-0.1472969651222229,0.0,0.0,-0.6597312688827515,-0.1260428428649902
-0.0237109176814556,1.255476713180542,-0.1050173863768577,-0.4394685924053192,-0.0562723018229007,-0.1464283615350723,0.0,0.0,-0.8527156710624695,0.3182631731033325
-0.0248384475708007,1.2453467845916748,-0.1054052710533142,-0.450508564710617,-0.0635442957282066,-0.1454532146453857,0.0,0.0,-0.6726925373077393,-0.5116267204284668
-0.0260153766721487,1.2349733114242554,-0.1115730553865432,-0.4613161981105804,-0.0696094036102294,-0.1213132292032241,0.0,0.0,-0.8545759320259094,-0.0185165405273437
-0.0271964073181152,1.2243518829345703,-0.1120467185974121,-0.4723550081253052,-0.0756164491176605,-0.1201517954468727,0.0,0.0,-0.5295061469078064,-0.7184858322143555
-0.0284377094358205,1.2134848833084106,-0.1195495575666427,-0.4832221865653991,-0.0801590234041214,-0.090859517455101,0.0,0.0,0.2387495040893554,-0.3843972682952881
-0.0295541770756244,1.2029683589935305,-0.1075965911149978,-0.4676260948181152,-0.0841813534498214,-0.0804538652300834,0.0,0.0,-0.7317779064178467,0.2206916809082031
-0.030675983056426,1.192203402519226,-0.1082045212388038,-0.478668063879013,-0.0881307721138,-0.0789951011538505,0.0,0.0,-0.1780297756195068,-0.4646590948104858
-0.0318034179508686,1.1811903715133667,-0.1088557392358779,-0.4897034466266632,-0.0920021533966064,-0.0774341374635696,0.0,0.0,-0.497804045677185,0.04068124294281
-0.0329384803771972,1.169907808303833,-0.1096829771995544,-0.5016899704933167,-0.0957912504673004,-0.0757816284894943,0.0,0.0,-0.4261630773544311,-0.7275818586349487
-0.0341367721557617,1.1583895683288574,-0.1175518631935119,-0.5120652318000793,-0.0980510339140892,-0.0451957173645496,0.0,0.0,-0.3481813669204712,-0.3519271612167358
-0.0353421196341514,1.146623134613037,-0.118348442018032,-0.5230982303619385,-0.100219614803791,-0.0433718711137771,0.0,0.0,-0.5126074552536011,-0.0740495324134826
-0.0365549102425575,1.134608268737793,-0.1191901937127113,-0.5341312289237976,-0.1022926047444343,-0.0414594933390617,0.0,0.0,-0.2853685021400451,-0.6802897453308105
-0.0378312095999717,1.1223511695861816,-0.1270487904548645,-0.5448015928268433,-0.1028628051280975,-0.0114041054621338,0.0,0.0,0.3290644884109497,-0.0976958274841308
-0.0390308387577533,1.110859513282776,-0.1195583939552307,-0.5107672810554504,-0.1032592803239822,-0.0079296678304672,0.0,0.0,-0.6307953000068665,-0.2245259284973144
-0.0402390472590923,1.0991194248199463,-0.120535708963871,-0.5217997431755066,-0.1035475581884384,-0.0057654874399304,0.0,0.0,0.0965139865875244,0.4189323186874389
-0.0414558425545692,1.0879331827163696,-0.1212522983551025,-0.4971934556961059,-0.1039771884679794,-0.0085924295708537,0.0,0.0,-0.1768562793731689,0.6564033031463623
-0.0426364913582801,1.076485514640808,-0.1165633201599121,-0.5088927745819092,-0.1054635271430015,-0.0297268275171518,0.0,0.0,-0.6967964768409729,-0.3122429847717285
-0.0438270568847656,1.0647892951965332,-0.1176745295524597,-0.5199253559112549,-0.1068302243947982,-0.0273339599370956,0.0,0.0,-0.7804943919181824,-0.2479070425033569
-0.0450278297066688,1.0528448820114136,-0.1188295632600784,-0.530957818031311,-0.108073741197586,-0.0248702820390462,0.0,0.0,-0.9785759449005128,-0.0851477980613708
-0.0462393760681152,1.0406519174575806,-0.1200278773903846,-0.5419901609420776,-0.1091906800866127,-0.0223385822027921,0.0,0.0,-0.9249702095985411,-0.9615205526351928
-0.0475322715938091,1.028229594230652,-0.1301063746213913,-0.5520456433296204,-0.1083781570196151,0.0162503607571125,0.0,0.0,-0.9388253688812256,0.022995114326477
-0.0488366112112998,1.015558838844299,-0.1313893496990203,-0.5630778074264526,-0.1074326634407043,0.0189098194241523,0.0,0.0,-0.9748719930648804,0.4424211978912353
-0.050152875483036,1.002639651298523,-0.1327135413885116,-0.5741100311279297,-0.1063512116670608,0.0216290690004825,0.0,0.0,-0.9950934052467346,-0.0287445187568664
-0.0514813438057899,0.9894719123840332,-0.134078174829483,-0.5851422548294067,-0.105130948126316,0.0244053117930889,0.0,0.0,-0.9820040464401244,0.3633550405502319
-0.0528223998844623,0.9760558605194092,-0.1354823559522628,-0.5961745381355286,-0.1037691533565521,0.0272359512746334,0.0,0.0,-0.8327397704124451,0.2067281007766723
-0.0541765205562114,0.9623914957046508,-0.1369251757860183,-0.6072068810462952,-0.1022632271051406,0.0301183462142944,0.0,0.0,-0.982493817806244,0.4802972078323364
-0.0555439963936805,0.9484784603118896,-0.1384056508541107,-0.6182392239570618,-0.1006107330322265,0.0330499298870563,0.0,0.0,-0.954312026500702,-0.3341579437255859
-0.0569250099360942,0.934317111968994,-0.1399227678775787,-0.6292715668678284,-0.0988093316555023,0.0360282287001609,0.0,0.0,-0.9862973093986512,0.1166054010391235
-0.0583201423287391,0.9199074506759644,-0.1414755284786224,-0.6403039693832397,-0.0968567803502082,0.0390507839620113,0.0,0.0,-0.8006846308708191,-0.0225241780281066
-0.059729479253292,0.905249297618866,-0.1430628001689911,-0.6513364911079407,-0.0947510227560997,0.0421152636408805,0.0,0.0,-0.8533897995948792,-0.2396736145019531
-0.0611535087227821,0.8903427720069885,-0.1446835100650787,-0.6623689532279968,-0.092490054666996,0.0452193655073642,0.0,0.0,-0.8285769820213318,0.0531171560287475
-0.0625924095511436,0.8751878142356873,-0.146336555480957,-0.6734015941619873,-0.0900720059871673,0.0483609288930892,0.0,0.0,-0.8450319170951843,0.6613337993621826
-0.0639965087175369,0.8597759008407593,-0.1417213827371597,-0.6848986744880676,-0.08876733481884,0.0260930843651294,0.0,0.0,-0.3495023250579834,-0.0601089000701904
-0.0654160529375076,0.8441154956817627,-0.1434355974197387,-0.695931077003479,-0.0873021706938743,0.0293033011257648,0.0,0.0,-0.8447058796882629,-0.0941729545593261
-0.0668514221906662,0.8282066583633423,-0.1451786905527115,-0.7069634199142456,-0.0856749266386032,0.0325448587536811,0.0,0.0,-0.3796420097351074,-0.2054689526557922
-0.0683028250932693,0.8120494484901428,-0.1469494998455047,-0.7179958820343018,-0.0838841274380683,0.035815842449665,0.0,0.0,-0.4906702041625976,-0.1455433368682861
-0.0697705298662185,0.7956439256668091,-0.1487468779087066,-0.7290284037590027,-0.0819284170866012,0.0391144677996635,0.0,0.0,-0.6774132251739502,0.0983591079711914
-0.0712548270821571,0.7789899110794067,-0.1505696773529052,-0.7400609254837036,-0.0798064544796943,0.0424390360713005,0.0,0.0,-0.6449394822120667,-0.0252177715301513
-0.0727558135986328,0.7620875239372253,-0.1524167507886886,-0.7510935664176941,-0.0775170624256134,0.0457878895103931,0.0,0.0,-0.4455927610397339,0.3173505067825317
-0.074273869395256,0.7449368834495544,-0.1542869359254837,-0.7621262669563293,-0.0750590786337852,0.0491594858467578,0.0,0.0,-0.5869625210762024,0.550241231918335
-0.0757555961608886,0.7275339961051941,-0.1494707763195037,-0.7733957767486572,-0.0737778171896934,0.0256251338869333,0.0,0.0,-0.2354073524475097,0.8424414396286011
-0.0771796256303787,0.7098830342292786,-0.1419634073972702,-0.7845056056976318,-0.0742094814777374,-0.0086333146318793,0.0,0.0,0.5433076620101929,0.195279836654663
-0.0786376968026161,0.6930896639823914,-0.1452140510082245,-0.746402382850647,-0.0747987553477287,-0.0117853796109557,0.0,0.0,-0.3755761384963989,0.440009593963623
-0.0801135078072547,0.6760478615760803,-0.1471655070781707,-0.7574347257614136,-0.0752156227827072,-0.0083374558016657,0.0,0.0,-0.0578652620315551,-0.1855039000511169
-0.0816073417663574,0.6587576866149902,-0.1491345763206482,-0.7684670090675354,-0.0754593089222908,-0.0048736850731074,0.0,0.0,0.7259427309036255,0.7866487503051758
-0.0828752517700195,0.6420021057128906,-0.1254051625728607,-0.7447625994682312,-0.0768207013607025,-0.0272283311933279,0.0,0.0,0.2695019245147705,0.6194252967834473
-0.0840561836957931,0.6256955862045288,-0.1156917065382003,-0.7248629927635193,-0.0792055130004882,-0.0476962327957153,0.0,0.0,-0.2004339098930359,-0.6431757211685181
-0.0853058844804763,0.6091418266296387,-0.1240160912275314,-0.7357741594314575,-0.0801520645618438,-0.0189310237765312,0.0,0.0,0.1551566123962402,0.1992433071136474
-0.0866272896528244,0.5929679274559021,-0.1309585869312286,-0.718905508518219,-0.0813232660293579,-0.0234237145632505,0.0,0.0,0.5277737379074097,0.7621421813964844
-0.0878205299377441,0.5777274966239929,-0.1168228015303611,-0.6774863600730896,-0.0837961211800575,-0.0494573712348938,0.0,0.0,-0.5194697380065918,-0.4353654384613037
-0.0890324562788009,0.5622388124465942,-0.1188758835196495,-0.6885191202163696,-0.0860922709107399,-0.0459230169653892,0.0,0.0,0.2145836353302002,-0.6325727105140686
-0.0902366638183593,0.5474504828453064,-0.1195892244577407,-0.6573078036308289,-0.086913377046585,-0.0164222754538059,0.0,0.0,-0.412948727607727,0.3575460910797119
-0.0914597511291503,0.53241366147995,-0.121662363409996,-0.6683399081230164,-0.0875569954514503,-0.0128723513334989,0.0,0.0,0.8233538866043091,-0.0820233821868896
-0.0927374809980392,0.5182583928108215,-0.1268294751644134,-0.6291803121566772,-0.0884916186332702,-0.018692398443818,0.0,0.0,-0.8724178075790405,0.3109728097915649
-0.0940342918038368,0.5038546323776245,-0.1289189457893371,-0.6402124166488647,-0.0892481505870819,-0.0151307135820388,0.0,0.0,-0.1096649765968322,0.6707310676574707
-0.09530820697546,0.4892043173313141,-0.1257558017969131,-0.651223361492157,-0.0908746793866157,-0.032530553638935,0.0,0.0,-0.112703263759613,0.8528985977172852
-0.0965260490775108,0.4742953777313232,-0.1183941513299942,-0.6628305315971375,-0.0942298471927642,-0.067103624343872,0.0,0.0,-0.4865913987159729,0.2153260707855224
-0.0977630615234375,0.4591381251811981,-0.1205012649297714,-0.6738635301589966,-0.0974064022302627,-0.0635308176279068,0.0,0.0,0.9011749029159546,-0.1552572250366211
-0.0989051833748817,0.4442794620990753,-0.1115500926971435,-0.6605604887008667,-0.1000422313809394,-0.0527166053652763,0.0,0.0,0.7883284091949463,0.4907437562942505
-0.1000638976693153,0.4297258853912353,-0.1132374852895736,-0.6470043659210205,-0.1026575043797493,-0.0523054525256156,0.0,0.0,0.1794459819793701,0.8433260917663574
-0.1011239066720008,0.4157672226428985,-0.1018489450216293,-0.6206734776496887,-0.1067771464586258,-0.0823930278420448,0.0,0.0,0.1111531257629394,0.5323441028594971
-0.1020434349775314,0.4023677706718445,-0.0870234593749046,-0.5958933234214783,-0.1116698831319809,-0.0978549271821975,0.0,0.0,-0.0845581293106079,0.6500256061553955
-0.1029401794075965,0.3887196183204651,-0.0838737934827804,-0.6070287227630615,-0.1174365431070327,-0.1153332218527793,0.0,0.0,0.9203908443450928,-0.8870580792427063
-0.1040459647774696,0.3754291534423828,-0.1064140349626541,-0.5910214781761169,-0.1215735077857971,-0.0827391743659973,0.0,0.0,-0.0623095631599426,-0.1648926734924316
-0.1051710098981857,0.3618903160095215,-0.1085299998521804,-0.6020545363426208,-0.1255320459604263,-0.0791708976030349,0.0,0.0,0.7596902847290039,0.5143957138061523
-0.1063121780753135,0.3490293622016907,-0.1089574843645095,-0.572041928768158,-0.1306660175323486,-0.1026793718338012,0.0,0.0,-0.5972868204116821,0.7007150650024414
-0.1074224486947059,0.3359133005142212,-0.1047706454992294,-0.5834951400756836,-0.1368929743766784,-0.124538816511631,0.0,0.0,-0.0482173562049865,-0.2925412058830261
-0.1085518822073936,0.3225491642951965,-0.1068763509392738,-0.5945297479629517,-0.1429422795772552,-0.1209860816597938,0.0,0.0,-0.2490639686584472,-0.8144441246986389
-0.1097550392150878,0.3089487850666046,-0.1158211603760719,-0.604900598526001,-0.1474218219518661,-0.0895908325910568,0.0,0.0,0.7664165496826172,-0.6640857458114624
-0.1109490394592285,0.2956420183181762,-0.1164781674742698,-0.5917034149169922,-0.1503349691629409,-0.0582628361880779,0.0,0.0,0.907173991203308,0.6543762683868408
-0.1119279861450195,0.2827339470386505,-0.0941409468650817,-0.5740768313407898,-0.1540896296501159,-0.0750928372144699,0.0,0.0,0.133309006690979,-0.567560076713562
-0.1127996444702148,0.2701423764228821,-0.0849084928631782,-0.5598593354225159,-0.1563435047864914,-0.0450776293873786,0.0,0.0,0.0947719812393188,-0.1581400036811828
-0.1135581955313682,0.2576679587364197,-0.0742071419954299,-0.5545946955680847,-0.1579948663711547,-0.0330269113183021,0.0,0.0,0.9210860729217528,-0.8275806307792664
-0.1142691597342491,0.2462619841098785,-0.0712643787264823,-0.5069135427474976,-0.157826766371727,0.0033617566805332,0.0,0.0,-0.0751702785491943,0.4803383350372314
-0.1149988174438476,0.2346074730157852,-0.0733061283826828,-0.5179446339607239,-0.1574848145246505,0.0068391798995435,0.0,0.0,0.072472333908081,0.3358292579650879
-0.1155992522835731,0.2233267426490783,-0.0609308257699012,-0.501270592212677,-0.1565958261489868,0.017779741436243,0.0,0.0,0.7877223491668701,0.6498374938964844
-0.1159966439008712,0.2122745364904403,-0.0397868640720844,-0.4912066161632538,-0.1565520018339157,0.0008763534133322,0.0,0.0,0.6860384941101074,-0.2795932292938232
-0.1163843125104904,0.2017561942338943,-0.0387265123426914,-0.4674845337867737,-0.15658500790596,-0.0006601304048672,0.0,0.0,0.2128275632858276,-0.7310805320739746
-0.1166779547929763,0.1919333785772323,-0.0310475472360849,-0.4363913834095001,-0.1548981219530105,0.0337373167276382,0.0,0.0,0.3453778028488159,-0.7216753959655762
-0.1169952377676963,0.1825668215751648,-0.0349982492625713,-0.4159547686576843,-0.1516302227973938,0.0653577297925949,0.0,0.0,-0.0464966297149658,0.0787354707717895
-0.1173301711678505,0.1729518473148346,-0.036933209747076,-0.4269869029521942,-0.1481945514678955,0.0687134638428688,0.0,0.0,0.5825366973876953,-0.0810493826866149
-0.1175013557076454,0.1640617251396179,-0.0211128070950508,-0.3947267830371856,-0.1442067921161651,0.0797547623515129,0.0,0.0,-0.0269506573677063,0.0036615133285522
-0.1176897063851356,0.1549231857061386,-0.0229985974729061,-0.4057595133781433,-0.1400540918111801,0.0830536633729934,0.0,0.0,0.3026219606399536,-0.5728961229324341
-0.117927648127079,0.1464418321847915,-0.0291389022022485,-0.3764571845531463,-0.1347354352474212,0.1063734292984008,0.0,0.0,-0.0667740106582641,0.1180685758590698
-0.1181822791695594,0.1377123445272445,-0.0309676025062799,-0.3874911069869995,-0.1292551606893539,0.1096050515770912,0.0,0.0,0.6752721071243286,0.9221391677856444
-0.1184335723519325,0.1296540647745132,-0.0287534650415182,-0.3578343689441681,-0.1256470680236816,0.0721620619297027,0.0,0.0,-0.054578959941864,0.6299490928649902
-0.1186639815568924,0.1213389933109283,-0.0258717592805624,-0.3693217635154724,-0.1228255629539489,0.0564300119876861,0.0,0.0,0.5619455575942993,0.5022897720336914
-0.1186806708574295,0.1137629374861717,-0.0039527183398604,-0.3365307450294494,-0.1205633655190467,0.0452440530061721,0.0,0.0,0.3694463968276977,0.5395224094390869
-0.1185791939496994,0.106371484696865,0.0086753331124782,-0.3283915817737579,-0.1191017106175422,0.0292333848774433,0.0,0.0,0.3924245834350586,0.0007277727127075
-0.1182948127388954,0.0996673926711082,0.026243045926094,-0.2977843284606933,-0.1169241666793823,0.0435506887733936,0.0,0.0,0.3353892564773559,0.1099281311035156
-0.1179701834917068,0.0936525911092758,0.030212327837944,-0.2671489417552948,-0.1146846190094947,0.0447910316288471,0.0,0.0,-0.2110727429389953,0.4643357992172241
-0.1176595687866211,0.0873894542455673,0.0286604054272174,-0.2781813740730285,-0.1123005673289299,0.047680839896202,0.0,0.0,0.4323880672454834,0.1903730630874633
-0.117240622639656,0.0816157683730125,0.0390571504831314,-0.2563947737216949,-0.1094693392515182,0.0566243529319763,0.0,0.0,-0.1135589480400085,-0.068785011768341
-0.1168345436453819,0.075593814253807,0.0376095995306968,-0.2674275934696197,-0.106500469148159,0.0593775287270545,0.0,0.0,0.5376758575439453,0.5447542667388916
-0.1162594780325889,0.0704049915075302,0.0553192496299743,-0.2304617911577224,-0.1043307557702064,0.043394599109888,0.0,0.0,-0.3409872055053711,0.1003466844558715
-0.1156964302062988,0.0649676918983459,0.0539890527725219,-0.2414944022893905,-0.102031260728836,0.0459897592663764,0.0,0.0,-0.0425131320953369,0.7521122694015503
-0.1150975227355957,0.0592761859297752,0.0586521737277507,-0.2528744041919708,-0.1008010804653167,0.0246037822216749,0.0,0.0,0.393865704536438,0.5482099056243896
-0.1145395264029502,0.0539940930902957,0.0558067969977855,-0.2347597330808639,-0.1008118242025375,-0.0002148900384781,0.0,0.0,0.4612998962402344,0.251814603805542
-0.1139604598283767,0.0492106042802333,0.0578914694488048,-0.2125985026359558,-0.100795030593872,0.0003357586392667,0.0,0.0,-0.0632401704788208,-0.11434006690979
-0.1133908256888389,0.0441787093877792,0.0568369626998901,-0.2236309796571731,-0.1006679385900497,0.0025418589357286,0.0,0.0,0.6679434776306152,-0.2122691869735717
-0.1126622185111045,0.0394203290343284,0.0720129385590553,-0.2114255726337433,-0.0998263508081436,0.0168318543583154,0.0,0.0,0.3969056606292724,-0.3142873644828796
-0.1118019074201583,0.0352641902863979,0.0846966654062271,-0.1846292465925216,-0.0985049828886985,0.026427349075675,0.0,0.0,0.5665117502212524,0.1704071760177612
-0.11084995418787,0.0319979041814804,0.0936634987592697,-0.1450690478086471,-0.0969815254211425,0.0304689295589923,0.0,0.0,0.1321872472763061,0.0794047117233276
