x_pos,y_pos,x_vel,y_vel,angle,ang_vel,leg_1,leg_2,main_booster,lat_booster
-0.0015148163074627,1.403469204902649,-0.1533296406269073,,0.0016533071175217,0.0326046012341976,0.0,0.0,-0.981233107524942,0.660639817604345
-0.0029650689102709,1.395883083343506,-0.1451254189014434,-0.337164968252182,0.0017579412087798,0.0020934483036398,0.0,0.0,-0.6610499227176507,-0.5693812750472611
-0.0044421195052564,1.3881367444992063,-0.1486321985721588,-0.3442808389663696,0.0026769028045237,0.0183810535818338,0.0,0.0,0.5315210557005539,-0.8177578560571709
-0.0061002732254564,1.3809263706207275,-0.1681295037269592,-0.3204651176929474,0.0049649220891296,0.0457644835114479,0.0,0.0,-0.9192286097885708,-0.5596329706841785
-0.0077859880402684,1.3735620975494385,-0.1717520356178283,-0.3273111879825592,0.0081120831891894,0.0629487633705139,0.0,0.0,-0.8984841264510082,0.8329538619395013
-0.009384537115693,1.3660424947738647,-0.1610123217105865,-0.3342113196849823,0.0092507041990756,0.0227745287120342,0.0,0.0,0.1095068940266397,0.7761208972107057
-0.0109368320554494,1.358949899673462,-0.1548503935337066,-0.3152250349521637,0.008880665525794,-0.0074011869728565,0.0,0.0,0.6340988186971019,-0.7902536522723869
-0.0123878475278615,1.3526653051376345,-0.1466990560293197,-0.2793229818344116,0.0104609159752726,0.0316075757145881,0.0,0.0,0.522445020815457,-0.8169001502343487
-0.0139182088896632,1.3473896980285645,-0.1563491523265838,-0.2344965487718582,0.0137314340099692,0.0654162913560867,0.0,0.0,-0.2427726461683772,0.894207696929987
-0.0153733249753713,1.3419657945632937,-0.1471477895975113,-0.2410779744386673,0.0153532531112432,0.0324389562010765,0.0,0.0,0.3482284690296715,0.5426223683211449
-0.0167119018733501,1.3371175527572632,-0.1347415149211883,-0.2154913991689682,0.0162281468510627,0.0174996107816696,0.0,0.0,-0.137325138385485,-0.637159247272687
-0.0180903431028127,1.3321114778518677,-0.1400383114814758,-0.2225199192762375,0.0183912571519613,0.0432662107050418,0.0,0.0,0.2479017652692892,0.8213157217488534
-0.0192975047975778,1.3277515172958374,-0.1215685158967971,-0.1937821805477142,0.0192370414733886,0.016917435452342,0.0,0.0,0.8666111258296731,0.6744312093616152
-0.0203712470829486,1.3238356113433838,-0.1073236241936683,-0.1740360260009765,0.0191851500421762,-0.0010382097680121,0.0,0.0,0.7670537202337171,0.71633583071751
-0.0212380401790142,1.321100831031799,-0.0858193635940551,-0.1215451210737228,0.0183383170515298,-0.0169382281601429,0.0,0.0,0.2548546249598868,-0.9814195522928046
-0.0220857616513967,1.318537950515747,-0.086201973259449,-0.1139204576611518,0.019748892635107,0.028214082121849,0.0,0.0,-0.7593662710631475,-0.9326996499553012
-0.0229878425598144,1.3158292770385742,-0.0933650657534599,-0.1204335018992424,0.0228798072785139,0.0626239106059074,0.0,0.0,-0.0180656660604727,0.5897206857435426
-0.0238297469913959,1.312962293624878,-0.0862178951501846,-0.1274500787258148,0.0248797331005334,0.0400020107626915,0.0,0.0,0.8743798925873383,-0.9531945843456224
-0.0246454235166311,1.311316728591919,-0.0860462337732315,-0.0732162073254585,0.0293205808848142,0.0888249278068542,0.0,0.0,-0.5315404042066574,-0.8214891775883165
-0.0255327224731445,1.309512495994568,-0.0954527780413627,-0.0803316757082939,0.0359674766659736,0.1329497098922729,0.0,0.0,0.7994830848940457,0.8425830332849477
-0.0262286178767681,1.3087995052337646,-0.0752901807427406,-0.0318407043814659,0.0416090823709964,0.1128423959016799,0.0,0.0,0.2920171844976,-0.6477447634247824
-0.0269784927368164,1.308443903923035,-0.0824056714773178,-0.0160234756767749,0.0489519126713275,0.1468698680400848,0.0,0.0,-0.9726961913540486,0.5520651700665407
-0.0276742931455373,1.3079372644424438,-0.0760639458894729,-0.0227502342313528,0.0553718656301498,0.1284103691577911,0.0,0.0,0.0129637819603953,-0.8713664265630308
-0.0283974651247262,1.307551622390747,-0.0809852331876754,-0.0174794681370258,0.0639545917510986,0.1716698706150055,0.0,0.0,0.8985614234591268,-0.8030320657265853
-0.0294086448848247,1.308098316192627,-0.1114572137594223,0.0238260347396135,0.074198380112648,0.2048941403627395,0.0,0.0,0.8293312116957616,-0.8937872541779814
-0.0307248122990131,1.3096137046813965,-0.1438977569341659,0.0666903629899025,0.0863647386431694,0.2433266937732696,0.0,0.0,0.2056277163007502,0.8992132901035623
-0.032012365758419,1.3117833137512207,-0.1396941244602203,0.0957630425691604,0.0972128212451934,0.2169618606567382,0.0,0.0,0.6885040138596541,-0.5137833373595451
-0.0335638038814067,1.315037965774536,-0.1671948730945587,0.1438231468200683,0.1091743037104606,0.239229530096054,0.0,0.0,0.8468878434034124,0.6073010868606026
-0.0353171341121196,1.3194184303283691,-0.1862407177686691,0.1938430368900299,0.1200087293982505,0.2166885584592819,0.0,0.0,-0.7794025041323422,0.9221748674615782
-0.0370000824332237,1.3236546516418457,-0.1779066622257232,0.1874783933162689,0.1295781582593917,0.1913883686065673,0.0,0.0,0.5562565254438148,-0.8111074145050383
-0.0388306602835655,1.3289248943328855,-0.1948418319225311,0.2331601083278656,0.1413150429725647,0.2347381114959716,0.0,0.0,-0.9180866479873656,0.873542070388794
-0.0406010635197162,1.3340500593185425,-0.1878051608800888,0.2267256081104278,0.1520642191171646,0.2149832993745803,0.0,0.0,-0.9226834177970886,0.9280551671981812
-0.0423094742000103,1.3390452861785889,-0.1805275529623031,0.2209934741258621,0.1617458760738372,0.1936332285404205,0.0,0.0,-0.9057820439338684,0.8599555492401123
-0.0439565666019916,1.343894600868225,-0.1734068542718887,0.2145535796880722,0.1704403311014175,0.1738887876272201,0.0,0.0,-0.9119810461997986,0.7473940849304199
-0.0455436706542968,1.3486076593399048,-0.1664104759693145,0.2085678428411483,0.178151398897171,0.154221698641777,0.0,0.0,-0.9028192162513732,0.635377049446106
-0.0470799431204795,1.353186011314392,-0.1605634093284607,0.2026291042566299,0.1851097643375396,0.1391680091619491,0.0,0.0,-0.937466323375702,0.5518076419830322
-0.0485742576420307,1.3576196432113647,-0.1558646857738495,0.1962341964244842,0.1915805637836456,0.1294157207012176,0.0,0.0,-0.8908685445785522,0.1782034635543823
-0.0500677116215229,1.361899971961975,-0.1563416272401809,0.1893196702003479,0.1986268907785415,0.1409265697002411,0.0,0.0,-0.9233200550079346,0.485650897026062
-0.0515600219368934,1.3660274744033811,-0.1568037569522857,0.1824041157960891,0.2062543630599975,0.1525493264198303,0.0,0.0,-0.8913710713386536,0.276357889175415
-0.0530511848628521,1.370002031326294,-0.1572475284337997,0.1754873842000961,0.2144681066274643,0.1642748564481735,0.0,0.0,-0.9586887955665588,0.3482481241226196
-0.0545407310128212,1.3738240003585815,-0.1576693803071975,0.1685694605112075,0.223272830247879,0.176094576716423,0.0,0.0,-0.9582338333129884,0.5036046504974365
-0.0559816360473632,1.3775080442428589,-0.1521710902452469,0.1624905616044998,0.2314513474702835,0.1635709702968597,0.0,0.0,-0.9669671654701232,0.3069626092910766
-0.057420540601015,1.3810395002365112,-0.1525389105081558,0.1555716842412948,0.2402291446924209,0.1755557805299759,0.0,0.0,-0.9772871136665344,0.2538027763366699
-0.0588570609688758,1.3844188451766968,-0.1528741419315338,0.148651510477066,0.2496097534894943,0.187612310051918,0.0,0.0,-0.9615597128868104,0.844369649887085
-0.0602289214730262,1.3876590728759766,-0.1454301476478576,0.1425866484642028,0.258014053106308,0.1680867969989776,0.0,0.0,-0.9602259397506714,0.4196376800537109
-0.0615975372493267,1.3907469511032104,-0.1456904113292694,0.1356660276651382,0.2670274674892425,0.180268108844757,0.0,0.0,-0.9670540690422058,0.6755218505859375
-0.0629054084420204,1.393702507019043,-0.1387141495943069,0.1298855990171432,0.2751493155956268,0.1624378710985183,0.0,0.0,-0.8004632592201233,0.5133001804351807
-0.0641785636544227,1.396524429321289,-0.1349929273128509,0.123951606452465,0.2830336689949035,0.1576873958110809,0.0,0.0,-0.9191426038742064,0.3669724464416504
-0.0654470473527908,1.3991941213607788,-0.135114774107933,0.1170302852988243,0.291534423828125,0.1700145900249481,0.0,0.0,-0.95439350605011,0.2989387512207031
-0.0667103752493858,1.4017119407653809,-0.1351832449436187,0.1101076900959014,0.3006534576416015,0.1823806464672088,0.0,0.0,-0.9665247797966005,0.6796014308929443
-0.0679048523306846,1.4041072130203247,-0.1272058188915252,0.1048266440629959,0.3086804747581482,0.1605412065982818,0.0,0.0,-0.9342976808547974,0.7945441007614136
-0.0690402016043663,1.406381130218506,-0.120462954044342,0.0995744690299034,0.3158596456050873,0.1435842812061309,0.0,0.0,-0.9744126200675964,0.5593643188476562
-0.0701186209917068,1.4085242748260498,-0.1140473708510398,0.0938805118203163,0.3223173320293426,0.129153624176979,0.0,0.0,-0.8278617262840271,0.4012830257415771
-0.0711893066763877,1.4105151891708374,-0.1138724461197853,0.0869587436318397,0.3293991684913635,0.1416365653276443,0.0,0.0,-0.8537874221801758,0.2308201789855957
-0.0722517967224121,1.4123544692993164,-0.1136282682418823,0.080035924911499,0.3371061682701111,0.154139831662178,0.0,0.0,-0.9241483211517334,0.4414050579071045
-0.0733053237199783,1.4140418767929075,-0.1133118495345115,0.0731119886040687,0.3454391956329345,0.1666603982448578,0.0,0.0,-0.9324947595596312,0.7503730058670044
-0.0742866545915603,1.415618658065796,-0.1049634218215942,0.0684218406677246,0.3526134490966797,0.1434858590364456,0.0,0.0,-0.8376358151435852,0.7968802452087402
-0.0751859694719314,1.4170866012573242,-0.0954341739416122,0.0638740360736846,0.3584019541740417,0.1157708764076232,0.0,0.0,-0.9291503429412842,-0.2472877502441406
-0.0760741233825683,1.4184024333953855,-0.094886727631092,0.0569510608911514,0.3648183345794678,0.1283275932073593,0.0,0.0,-0.8935957551002502,0.6253633499145508
-0.0769113525748252,1.4195945262908936,-0.0893137529492378,0.0515453480184078,0.370733380317688,0.1183006539940834,0.0,0.0,-0.8700844645500183,0.655733585357666
-0.0776820182800293,1.4206597805023191,-0.0818717926740646,0.0460935160517692,0.3758198320865631,0.1017289981245994,0.0,0.0,-0.8844946622848511,0.4058699607849121
-0.0784389525651931,1.4215731620788574,-0.0810705721378326,0.0391702726483345,0.3815348148345947,0.1142999157309532,0.0,0.0,-0.8358473181724548,0.7504540681838989
-0.0791148170828819,1.4223726987838743,-0.0717911571264267,0.0343991704285144,0.3860163688659668,0.0896309465169906,0.0,0.0,-0.9244397878646852,0.5453259944915771
-0.0797340422868728,1.4230462312698364,-0.0656129717826843,0.0289230067282915,0.3899562358856201,0.078797623515129,0.0,0.0,-0.9414144158363342,-0.0652669072151184
-0.0803366675972938,1.4235676527023315,-0.0645402073860168,0.0219998955726623,0.3945244550704956,0.0913642793893814,0.0,0.0,-0.8135362863540649,0.8010647296905518
-0.0808758735656738,1.423966407775879,-0.0575452670454978,0.0167157519608736,0.3984051346778869,0.0776137113571167,0.0,0.0,-0.9157199263572692,0.6570618152618408
-0.0813494697213172,1.4242515563964844,-0.0502463206648826,0.0118559366092085,0.4014964997768402,0.0618271343410015,0.0,0.0,-0.9389126300811768,0.0099221467971801
-0.0818037018179893,1.4243847131729126,-0.04888866096735,0.0049327677115798,0.4052151441574096,0.0743729844689369,0.0,0.0,-0.8923117518424988,0.026870846748352
-0.0822376236319542,1.424366116523743,-0.0474337041378021,-0.0019908926915377,0.4095605909824371,0.0869085192680358,0.0,0.0,-0.9243807196617126,0.3853756189346313
-0.0826502814888954,1.4241958856582642,-0.0458807162940502,-0.0089151300489902,0.4145321846008301,0.0994321480393409,0.0,0.0,-0.9247038960456848,0.5766177177429199
-0.0830062851309776,1.4238991737365725,-0.0398469343781471,-0.0144375693053007,0.4191125333309173,0.0916071906685829,0.0,0.0,-0.9196816086769104,0.7392632961273193
-0.0832839012145996,1.4234892129898071,-0.0310787912458181,-0.0192102510482072,0.4227028787136078,0.0718067362904548,0.0,0.0,-0.9725913405418396,0.6418668031692505
-0.0835033431649208,1.4229583740234375,-0.0248516146093606,-0.0244712941348552,0.4258593320846557,0.0631288737058639,0.0,0.0,-0.9011961817741394,0.8393155336380005
-0.0836303681135177,1.422321319580078,-0.0143797593191266,-0.0288172271102666,0.4276815056800842,0.036443643271923,0.0,0.0,-0.8632060885429382,0.6103610992431641
-0.0836886391043663,1.4215563535690308,-0.0069928178563714,-0.0343501567840576,0.4289342761039734,0.025055119767785,0.0,0.0,-0.9611900448799132,0.4786413908004761
-0.0837200134992599,1.4206395149230957,-0.0048517053946852,-0.0412738062441349,0.4308079779148102,0.0374733619391918,0.0,0.0,-0.9459218978881836,0.6742956638336182
-0.083675667643547,1.4195961952209473,0.0033436021767556,-0.0467012748122215,0.431981474161148,0.0234698615968227,0.0,0.0,-0.8732417225837708,0.5641415119171143
-0.0835643783211708,1.4184330701828003,0.0105579746887087,-0.0518752373754978,0.432608813047409,0.0125467609614133,0.0,0.0,-0.9387728571891784,0.7724902629852295
-0.0833630561828613,1.417168140411377,0.0206704642623662,-0.0560554601252079,0.432021290063858,-0.0117503609508275,0.0,0.0,-0.7931101322174072,0.7010557651519775
-0.0830924063920974,1.4157856702804563,0.0281458906829357,-0.0611112564802169,0.4308526813983917,-0.0233720280230045,0.0,0.0,-0.924886167049408,0.5687365531921387
-0.0827565193176269,1.4142680168151855,0.0349547937512397,-0.0670360028743743,0.4293771684169769,-0.0295095704495906,0.0,0.0,-0.9761140942573548,0.6784751415252686
-0.0823380500078201,1.4126393795013428,0.0440343134105205,-0.0717169865965843,0.4270000457763672,-0.0475421883165836,0.0,0.0,-0.9231340289115906,0.8289687633514404
-0.0818369835615158,1.4108922481536863,0.0530667714774608,-0.0767507851123809,0.4238002002239227,-0.0639977678656578,0.0,0.0,-0.898505449295044,0.5152003765106201
-0.0812686905264854,1.4090181589126587,0.060129702091217,-0.082310251891613,0.4202329516410827,-0.0713454931974411,0.0,0.0,-0.977548897266388,0.7037897109985352
-0.0806168541312217,1.4070286750793457,0.0692563205957412,-0.0872228220105171,0.4158350527286529,-0.0879584103822708,0.0,0.0,-0.9693132638931274,0.7158923149108887
-0.0798702239990234,1.4049261808395386,0.0797511786222457,-0.0919473692774772,0.4103409349918365,-0.1098822802305221,0.0,0.0,-0.96272611618042,0.5136196613311768
-0.0790472030639648,1.4026925563812256,0.087877444922924,-0.0976669490337371,0.4043489098548889,-0.1198402643203735,0.0,0.0,-0.9519736170768738,0.7315731048583984
-0.0781243294477462,1.400341510772705,0.0989371612668037,-0.1026094853878021,0.397215336561203,-0.1426722407341003,0.0,0.0,-0.9523062705993652,0.7294549942016602
-0.0770976096391677,1.39788019657135,0.1105427518486976,-0.1072158738970756,0.3888017237186432,-0.1682725101709365,0.0,0.0,-0.972339689731598,0.485963225364685
-0.0760320648550987,1.395267367362976,0.1138978973031044,-0.1141420826315879,0.3809812366962433,-0.1564098000526428,0.0,0.0,-0.8851597309112549,0.937042236328125
-0.0748609527945518,1.3925501108169556,0.1257194131612777,-0.1184983402490615,0.3718286156654358,-0.1830522865056991,0.0,0.0,-0.9810581207275392,0.9892287254333496
-0.0735756903886795,1.389732837677002,0.1386639177799224,-0.1226098015904426,0.3611125648021698,-0.2143213003873825,0.0,0.0,-0.982519030570984,0.750357985496521
-0.0721838921308517,1.3868050575256348,0.1505788415670395,-0.1273009330034256,0.3491153419017792,-0.2399446070194244,0.0,0.0,-0.9446560144424438,0.9915385246276855
-0.0706628784537315,1.3837636709213257,0.1652513891458511,-0.1320433020591735,0.3353353142738342,-0.2756004333496094,0.0,0.0,-0.8116765022277832,0.9917826652526855
-0.0690321922302246,1.38060462474823,0.1774967163801193,-0.1371215879917144,0.3202805519104004,-0.3010954260826111,0.0,0.0,-0.8083528280258179,0.9990696907043456
-0.0672769546508789,1.3773494958877563,0.1917430013418197,-0.1411757320165634,0.3034563958644867,-0.3364838659763336,0.0,0.0,-0.7272451519966125,0.8619569540023804
-0.0654168128967285,1.373974323272705,0.2034118175506591,-0.1464869976043701,0.2855095565319061,-0.3589365482330322,0.0,0.0,-0.5459805130958557,0.8110325336456299
-0.0634663552045822,1.3704785108566284,0.2132683545351028,-0.1519113481044769,0.2668070495128631,-0.3740505278110504,0.0,0.0,-0.405454158782959,0.495165467262268
-0.0614723190665245,1.3668338060379028,0.217180460691452,-0.158853605389595,0.2486563026905059,-0.3630147874355316,0.0,0.0,-0.0839455723762512,0.2335591316223144
-0.0594342239201068,1.3630398511886597,0.2211399525403976,-0.1657934039831161,0.2310505211353302,-0.3521155714988708,0.0,0.0,-0.1233798861503601,0.1068007946014404
-0.0573513992130756,1.3590959310531616,0.2251446545124054,-0.1727308332920074,0.2139823287725448,-0.3413642048835754,0.0,0.0,-0.1462849378585815,0.8045139312744141
-0.0551635734736919,1.3550190925598145,0.2367164641618728,-0.178697794675827,0.1958936154842376,-0.3617743849754333,0.0,0.0,-0.0765037536621093,-0.4532869458198547
-0.0529304519295692,1.3507925271987915,0.2408065497875213,-0.1856350153684616,0.1783258765935897,-0.3513552546501159,0.0,0.0,-0.5271172523498535,-0.9296091198921204
-0.0507412925362587,1.3463886976242063,0.2336035072803497,-0.1940261423587799,0.1636006087064743,-0.2945049405097961,0.0,0.0,-0.2084623575210571,-0.727588415145874
-0.048553179949522,1.3418259620666504,0.2318458557128906,-0.2014106661081314,0.1505746841430664,-0.2605182528495788,0.0,0.0,0.0464923381805419,-0.1752249598503112
-0.0463150963187217,1.3374661207199097,0.2362008541822433,-0.192557543516159,0.1382185667753219,-0.2471223771572113,0.0,0.0,-0.2771667242050171,0.4877446889877319
-0.0440300926566123,1.3329540491104126,0.2404320985078811,-0.1994776278734207,0.1263405382633209,-0.2375608384609222,0.0,0.0,-0.2545696496963501,-0.6605783700942993
-0.0417521484196186,1.3282842636108398,0.2378940284252166,-0.2067258208990097,0.1162942871451377,-0.2009253203868866,0.0,0.0,-0.0929337739944458,-0.8725142478942871
-0.0394800193607807,1.323461890220642,0.2355411052703857,-0.213704764842987,0.1080233752727508,-0.1654181629419326,0.0,0.0,-0.0133823156356811,-0.5214062929153442
-0.0371961593627929,1.3184796571731567,0.2353640496730804,-0.2209392488002777,0.1010965257883071,-0.1385369747877121,0.0,0.0,-0.1898177862167358,-0.6821812987327576
-0.034919548779726,1.313341736793518,0.2328424155712127,-0.228007823228836,0.0959630981087684,-0.1026684418320655,0.0,0.0,-0.0175684094429016,0.5126504898071289
-0.0325510017573833,1.3080605268478394,0.2427597343921661,-0.2343575060367584,0.0901050865650177,-0.117160215973854,0.0,0.0,-0.163059651851654,0.0261139869689941
-0.0301347728818655,1.3026247024536133,0.2471499890089035,-0.2412651479244232,0.08463004976511,-0.1095006689429283,0.0,0.0,0.0818480253219604,0.3723723888397217
-0.0277847293764352,1.2976295948028564,0.2405328452587127,-0.2217068672180175,0.0791472494602203,-0.1096559315919876,0.0,0.0,0.0628237724304199,-0.0164766907691955
-0.0254955291748046,1.292965054512024,0.2344990521669387,-0.2070208936929702,0.0736235976219177,-0.1104733124375343,0.0,0.0,-0.301190972328186,-0.0540782809257507
-0.0231587402522563,1.2881461381912231,0.23894564807415,-0.2139272689819336,0.068417988717556,-0.1041123121976852,0.0,0.0,-0.3623993396759033,-0.3626765012741089
-0.0207742694765329,1.2831724882125854,0.2434076070785522,-0.2208331078290939,0.0635059773921966,-0.0982402563095092,0.0,0.0,-0.5051828622817993,-0.7324680089950562
-0.0183875076472759,1.2780330181121826,0.2422269880771637,-0.2282760888338089,0.060005135834217,-0.070016898214817,0.0,0.0,-0.3250932693481445,-0.1980022192001342
-0.0159532539546489,1.2727384567260742,0.2467145174741745,-0.2351801991462707,0.0567448623478412,-0.0652054920792579,0.0,0.0,-0.7562949657440186,0.0007041692733764
-0.0134719852358102,1.2672889232635498,0.2512124180793762,-0.2420839816331863,0.0536966584622859,-0.0609639883041381,0.0,0.0,0.1050314903259277,-0.3256759643554687
-0.0109124183654785,1.262000322341919,0.2586528658866882,-0.2349515110254287,0.051027774810791,-0.0533776171505451,0.0,0.0,-0.5957232117652893,0.2854294776916504
