x_pos,y_pos,x_vel,y_vel,angle,ang_vel,leg_1,leg_2,main_booster,lat_booster
-0.0015342712868005,1.4031606912612915,-0.1551810055971145,-0.3448629975318908,0.0015762962866574,0.0310800522565841,0.0,0.0,-0.5322092771530151,0.8455469608306885
-0.003007125807926,1.3949567079544067,-0.1467975825071334,-0.3646215498447418,0.0010945131070911,-0.0096356626600027,0.0,0.0,-0.3130837678909302,0.6055788993835449
-0.0044324873015284,1.386284112930298,-0.1403607726097107,-0.3854479491710663,-0.0010512303560972,-0.04291907325387,0.0,0.0,-0.0905901193618774,0.0860066413879394
-0.0058683394454419,1.3771476745605469,-0.1412129402160644,-0.4060644805431366,-0.0033981690648943,-0.0469431467354297,0.0,0.0,0.2840185165405273,0.680006742477417
-0.0071477890014648,1.3683091402053833,-0.1242107301950454,-0.3928359448909759,-0.0070996168069541,-0.0740357264876365,0.0,0.0,0.1320781707763672,0.279082179069519
-0.0083411214873194,1.3595640659332275,-0.115846499800682,-0.3886893093585968,-0.0105521222576498,-0.069056361913681,0.0,0.0,-0.2702880501747131,-0.4274611473083496
-0.0095450403168797,1.3503553867340088,-0.1166994124650955,-0.4093044400215149,-0.0142059428617358,-0.0730831995606422,0.0,0.0,-0.1643682122230529,0.8439263105392456
-0.0106766698881983,1.3406840562820437,-0.107153333723545,-0.4299053251743316,-0.0201448127627372,-0.1187883839011192,0.0,0.0,-0.340678334236145,0.1574472188949585
-0.01181879080832,1.3305494785308838,-0.1080004572868347,-0.4505209922790527,-0.0262827463448047,-0.1227698326110839,0.0,0.0,-0.1010539531707763,0.4806517362594604
-0.0129714012145996,1.3199517726898191,-0.1088483110070228,-0.4711369574069977,-0.0326207727193832,-0.1267724484205246,0.0,0.0,0.4269078969955444,-0.5648362040519714
-0.0140812871977686,1.3096592426300049,-0.1057174950838089,-0.4575752019882202,-0.0378455407917499,-0.1045049875974655,0.0,0.0,-0.1956679821014404,-0.0817710161209106
-0.015201854519546,1.2989031076431274,-0.1065699458122253,-0.4781970381736755,-0.0432702079415321,-0.1085031777620315,0.0,0.0,-0.5539743304252625,0.1009396314620971
-0.0163329131901264,1.2876839637756348,-0.1074214950203895,-0.4988106191158294,-0.0488933660089969,-0.1124736815690994,0.0,0.0,0.4908789396286011,-0.7843407392501831
-0.0174514763057231,1.2764734029769895,-0.1076656728982925,-0.4983808696269989,-0.0530441105365753,-0.0830227509140968,0.0,0.0,0.6580488681793213,0.0898196697235107
-0.0183953288942575,1.2660276889801023,-0.0906684845685958,-0.4643980264663696,-0.0567269809544086,-0.0736639872193336,0.0,0.0,-0.8568583726882935,-0.6096047759056091
-0.0193893425166606,1.255114197731018,-0.0964836925268173,-0.4851521551609039,-0.0596189759671688,-0.0578447766602039,0.0,0.0,-0.0104526281356811,0.0428067445755004
-0.020393943414092,1.2437374591827393,-0.0973434001207351,-0.5057622194290161,-0.0627086386084556,-0.0617989003658294,0.0,0.0,-0.292705774307251,-0.8673413395881653
-0.0214616768062114,1.2318947315216064,-0.1047817692160606,-0.5264301300048828,-0.064680628478527,-0.0394433215260505,0.0,0.0,-0.1866905093193054,0.3761367797851562
-0.0225400924682617,1.219588279724121,-0.1056445017457008,-0.5470449328422546,-0.0668497532606124,-0.0433866307139396,0.0,0.0,-0.2340425252914428,-0.0200139284133911
-0.023629093542695,1.2068183422088623,-0.1065061837434768,-0.5676595568656921,-0.0692145451903343,-0.0473002679646015,0.0,0.0,0.2647664546966553,-0.8390434980392456
-0.0246431343257427,1.194447636604309,-0.1006138920783996,-0.5498484373092651,-0.0700020566582679,-0.0157518181949853,0.0,0.0,-0.4176865816116333,-0.7842727899551392
-0.025728702545166,1.181615114212036,-0.1091084629297256,-0.5703111290931702,-0.069456547498703,0.0109108900651335,0.0,0.0,-0.5239564776420593,0.2098166942596435
-0.026824951171875,1.1683188676834106,-0.1099760308861732,-0.5909222364425659,-0.0691054463386535,0.007022425532341,0.0,0.0,-0.6189971566200256,-0.2544715404510498
-0.027931785210967,1.1545592546463013,-0.1108422875404357,-0.6115351915359497,-0.0689474195241928,0.0031605861149728,0.0,0.0,0.5404949188232422,-0.2509133219718933
-0.0291399955749511,1.1412476301193235,-0.120164930820465,-0.5916580557823181,-0.0695958063006401,-0.0129687618464231,0.0,0.0,-0.555733323097229,-0.4187338352203369
-0.0303597450256347,1.127450942993164,-0.1211259588599205,-0.6132274270057678,-0.0704353153705596,-0.0167904682457447,0.0,0.0,-0.6890097260475159,-0.1134113073348999
-0.0315899848937988,1.1131906509399414,-0.1219885796308517,-0.6338396668434143,-0.071465402841568,-0.020601661875844,0.0,0.0,-0.1764799356460571,0.1082073450088501
-0.0328308120369911,1.098466873168945,-0.1228502541780471,-0.6544520258903503,-0.0726850107312202,-0.0243923719972372,0.0,0.0,0.4664101600646972,-0.4666996002197265
-0.0341477394104003,1.0843206644058228,-0.1297266185283661,-0.6288163661956787,-0.0746288448572158,-0.0388765931129455,0.0,0.0,0.1941999197006225,-0.4853429794311523
-0.035464096814394,1.0702399015426636,-0.1294001638889312,-0.6259267926216125,-0.0768300965428352,-0.0440251752734184,0.0,0.0,0.5761083364486694,-0.5454667806625366
-0.0367523208260536,1.0569124221801758,-0.1275611817836761,-0.5923994779586792,-0.0780804529786109,-0.0250070355832576,0.0,0.0,-0.7558634877204895,-0.4520441889762878
-0.0380510315299034,1.043121337890625,-0.1284175813198089,-0.61301189661026,-0.0795152783393859,-0.0286962948739528,0.0,0.0,-0.8615028262138367,-0.5463672280311584
-0.0394087806344032,1.0288779735565186,-0.1353947818279266,-0.6330702304840088,-0.0798940882086753,-0.007575980387628,0.0,0.0,-0.9828782677650452,-0.547080934047699
-0.0408248901367187,1.0141713619232178,-0.1422620117664337,-0.6535831689834595,-0.0792504921555519,0.0128719676285982,0.0,0.0,-0.7427877187728882,0.1573383808135986
-0.0422513000667095,0.999001443386078,-0.1431125700473785,-0.6741954684257507,-0.0787862911820411,0.0092843268066644,0.0,0.0,-0.2640898823738098,-0.0096604824066162
-0.043687917292118,0.983367919921875,-0.1439607590436935,-0.694807767868042,-0.0784994810819625,0.005736393854022,0.0,0.0,-0.7145599722862244,-0.1933947205543518
-0.0451348312199115,0.9672707915306092,-0.1448063403367996,-0.7154198884963989,-0.078387901186943,0.0022315469104796,0.0,0.0,0.0886237621307373,-0.3898718357086181
-0.0465276725590229,0.9514572024345398,-0.1393363773822784,-0.7028217315673828,-0.0783331990242004,0.0010940128704532,0.0,0.0,-0.647312343120575,-0.4572169184684753
-0.0479306206107139,0.935180127620697,-0.1401759088039398,-0.7234339118003845,-0.0784488767385482,-0.0023139009717851,0.0,0.0,0.4312725067138672,-0.0800874233245849
-0.0492778792977333,0.9192240834236144,-0.1345569342374801,-0.7091688513755798,-0.0786190256476402,-0.0034027085639536,0.0,0.0,-0.0783016681671142,-0.2084970474243164
-0.0506351478397846,0.9028043746948242,-0.1353891193866729,-0.7297810912132263,-0.0789539068937301,-0.0066975355148315,0.0,0.0,0.1594862937927246,-0.8759565353393555
-0.0519420616328716,0.8864647746086121,-0.1319918930530548,-0.726134717464447,-0.0776631459593772,0.0258152540773153,0.0,0.0,-0.7636480331420898,-0.144706130027771
-0.0532587990164756,0.8696617484092712,-0.1328152269124984,-0.7467470169067383,-0.0765305608510971,0.0226516854017972,0.0,0.0,-0.5735829472541809,-0.5159410834312439
-0.0546192154288291,0.8523978590965271,-0.1379047334194183,-0.7671879529953003,-0.0746946856379509,0.0367175750434398,0.0,0.0,0.5161097049713135,-0.4955555200576782
-0.0560064315795898,0.8350788354873657,-0.1402449905872345,-0.7696571946144104,-0.0731819421052932,0.0302548706531524,0.0,0.0,0.3516666889190674,-0.175809621810913
-0.0573456771671772,0.8177011013031006,-0.1354788839817047,-0.7722673416137695,-0.0716417506337165,0.0308041926473379,0.0,0.0,0.2004755735397339,0.1449809074401855
-0.0586268417537212,0.8003408312797546,-0.1297391504049301,-0.7714887857437134,-0.0700384080410003,0.0320669189095497,0.0,0.0,0.1455450057983398,-0.1633039712905883
-0.0599546432495117,0.7833902835845947,-0.1338937282562255,-0.7533074617385864,-0.0689327046275138,0.0221140645444393,0.0,0.0,-0.1044200658798217,0.338019847869873
-0.0612915977835655,0.7659761309623718,-0.1346780657768249,-0.773919403553009,-0.0679590478539466,0.0194730889052152,0.0,0.0,-0.0456803441047668,0.1631999015808105
-0.062637522816658,0.7480983138084412,-0.1354534924030304,-0.7945311665534973,-0.0671120509505271,0.0169400088489055,0.0,0.0,0.7518928050994873,-0.5060794949531555
-0.0638303756713867,0.7306506037712097,-0.1215112805366516,-0.7753485441207886,-0.0649149417877197,0.043942492455244,0.0,0.0,0.100911259651184,0.7394068241119385
-0.0649853721261024,0.7134779095649719,-0.116081990301609,-0.7632129788398743,-0.0643403679132461,0.0114914597943425,0.0,0.0,-0.1594588160514831,0.5390961170196533
-0.0660987868905067,0.6958333849906921,-0.110526219010353,-0.7842289209365845,-0.0651431232690811,-0.0160550996661186,0.0,0.0,0.7606828212738037,0.7151520252227783
-0.0671047195792198,0.678998589515686,-0.0982435494661331,-0.7483189105987549,-0.0674618333578109,-0.0463743433356285,0.0,0.0,0.170395016670227,-0.3636491298675537
-0.0679901093244552,0.6622063517570496,-0.0865925550460815,-0.7464087009429932,-0.0693873167037963,-0.0385097302496433,0.0,0.0,0.5278453826904297,0.297295331954956
-0.0689413994550705,0.6456117033958435,-0.0926735177636146,-0.7376512289047241,-0.0718093961477279,-0.0484419539570808,0.0,0.0,-0.414450466632843,-0.1277997493743896
-0.0699002295732498,0.628553569316864,-0.0933583676815033,-0.7582632899284363,-0.0743118599057197,-0.0500493459403514,0.0,0.0,0.809211015701294,-0.6883093118667603
-0.0707025527954101,0.6121271848678589,-0.079414464533329,-0.7301018834114075,-0.0751306414604187,-0.0163754522800445,0.0,0.0,0.5482711791992188,-0.0594762563705444
-0.0713844299316406,0.5963833928108215,-0.0676122680306434,-0.6997543573379517,-0.0756902247667312,-0.0111916288733482,0.0,0.0,-0.0981284379959106,-0.0386459231376647
-0.0720729827880859,0.5801759362220764,-0.0682380497455596,-0.7203657627105713,-0.076306402683258,-0.0123233944177627,0.0,0.0,0.7064304351806641,-0.0863777995109558
-0.0726862922310829,0.5640706419944763,-0.0608986392617225,-0.7158087491989136,-0.0767262652516365,-0.0083975214511156,0.0,0.0,0.4631192684173584,-0.2335889339447021
-0.0733466148376464,0.5484409928321838,-0.0651523694396019,-0.6946974396705627,-0.0775967985391616,-0.017411008477211,0.0,0.0,0.7631328105926514,-0.515682578086853
-0.0738709419965744,0.5331601500511169,-0.0529624633491039,-0.6791216731071472,-0.0770729780197143,0.0104764783754944,0.0,0.0,0.350809097290039,0.4481310844421386
-0.0743430107831955,0.5181629061698914,-0.0477934665977954,-0.6665161848068237,-0.0764828026294708,0.011803263798356,0.0,0.0,0.3213961124420166,0.5713803768157959
-0.0747438445687294,0.5031711459159851,-0.0395305976271629,-0.6663268208503723,-0.0770318433642387,-0.0109806703403592,0.0,0.0,0.4092357158660888,-0.4193265438079834
-0.0752157196402549,0.4884818494319916,-0.0461431108415126,-0.6529127955436707,-0.0780749693512916,-0.0208622105419635,0.0,0.0,0.5355100631713867,-0.3774440288543701
-0.0756099671125412,0.474515825510025,-0.0384652651846408,-0.6207582354545593,-0.0790228843688964,-0.0189583003520965,0.0,0.0,-0.655261218547821,-0.2641441822052002
-0.0760079398751258,0.4600861966609955,-0.0388531349599361,-0.6413692831993103,-0.0799594670534133,-0.0187315810471773,0.0,0.0,0.1183086633682251,-0.6708535552024841
-0.0763949379324913,0.4460684061050415,-0.039147563278675,-0.6229905486106873,-0.0795133039355278,0.0089232716709375,0.0,0.0,0.8122522830963135,-0.0216602087020874
-0.0768463164567947,0.4323754608631134,-0.0451389253139495,-0.6085744500160217,-0.0795169025659561,-7.164786075009033e-05,0.0,0.0,0.5260200500488281,-0.038542628288269
-0.0773348808288574,0.4191640615463257,-0.0484949797391891,-0.5871934294700623,-0.079877071082592,-0.0072033153846859,0.0,0.0,0.1082806587219238,-0.2521512508392334
-0.0777714699506759,0.4061106443405151,-0.0434257388114929,-0.5801653265953064,-0.0800982639193534,-0.004423888400197,0.0,0.0,0.0944890975952148,-0.5444310307502747
-0.0783012360334396,0.3934524655342102,-0.0537438616156578,-0.5625434517860413,-0.0793450847268104,0.0150636415928602,0.0,0.0,0.1599723100662231,0.9204654693603516
-0.0786666870117187,0.3809208869934082,-0.0355375297367572,-0.5570112466812134,-0.080352135002613,-0.0201408620923757,0.0,0.0,-0.5424578189849854,0.4984387159347534
-0.0790325179696083,0.3679255545139313,-0.0356249250471591,-0.5776218771934509,-0.0812938511371612,-0.0188345350325107,0.0,0.0,0.8526177406311035,-0.3191957473754883
-0.079292394220829,0.3550021052360534,-0.0254601128399372,-0.5744056105613708,-0.0818107947707176,-0.0103389453142881,0.0,0.0,0.154436707496643,0.0282610654830932
-0.079553984105587,0.3419719934463501,-0.0256119929254055,-0.5791425704956055,-0.0823513865470886,-0.010811892338097,0.0,0.0,0.6656270027160645,0.2104623317718505
-0.0797568336129188,0.3296746015548706,-0.0197789818048477,-0.5465784072875977,-0.0828463286161422,-0.0098990760743618,0.0,0.0,0.2584176063537597,-0.266580581665039
-0.0798455253243446,0.3178346157073974,-0.0087434854358434,-0.5262271165847778,-0.0829688161611557,-0.0024493993259966,0.0,0.0,0.7288999557495117,0.1132110357284545
-0.0799778923392295,0.3068239688873291,-0.0126601997762918,-0.4893947839736938,-0.0835384503006935,-0.0113931084051728,0.0,0.0,0.0061877965927124,0.4486861228942871
-0.0801690071821212,0.2956608533859253,-0.0182689670473337,-0.4961859583854675,-0.0843712836503982,-0.0166566278785467,0.0,0.0,-0.0737114548683166,0.0653469562530517
-0.0803566947579383,0.284033864736557,-0.0180329326540231,-0.5167962908744812,-0.0850977748632431,-0.014529749751091,0.0,0.0,0.3991806507110595,0.6090986728668213
-0.0805445685982704,0.2726772427558899,-0.0167472343891859,-0.504855215549469,-0.0871195718646049,-0.0404359400272369,0.0,0.0,0.1789132356643676,-0.6294401288032532
-0.080778881907463,0.2615943551063537,-0.022709421813488,-0.4926144778728485,-0.08783770352602,-0.014362615533173,0.0,0.0,0.5479841232299805,0.3777422904968261
-0.0809620842337608,0.2510280907154083,-0.0176640413701534,-0.4696515798568725,-0.0884880125522613,-0.0130061283707618,0.0,0.0,-0.0859521627426147,0.3645236492156982
-0.0811400413513183,0.239997923374176,-0.0172665454447269,-0.4902617037296295,-0.0890146866440773,-0.0105335321277379,0.0,0.0,0.4682282209396362,-0.1449916362762451
-0.0812643989920616,0.2289554476737976,-0.0121280997991561,-0.4907911419868469,-0.0893165990710258,-0.006038268096745,0.0,0.0,0.6688084602355957,-0.6189911365509033
-0.0812946334481239,0.2180452942848205,-0.0043415934778749,-0.484818160533905,-0.0880123004317283,0.0260857939720153,0.0,0.0,0.6390595436096191,0.7771401405334473
-0.0810471549630165,0.2074881941080093,0.0245621856302022,-0.4691933691501617,-0.0878257378935813,0.003731056349352,0.0,0.0,0.408153772354126,-0.902815282344818
-0.0807002037763595,0.1969541907310485,0.0324193574488163,-0.4680459201335907,-0.0855722576379776,0.045069582760334,0.0,0.0,0.7633836269378662,-0.7291193008422852
-0.0803414359688758,0.1871683448553085,0.0320071093738079,-0.4347110092639923,-0.0817389786243438,0.0766657292842865,0.0,0.0,-0.1387791037559509,-0.071662425994873
-0.0799754112958908,0.1769187301397323,0.0325908251106739,-0.4553222954273224,-0.0777631700038909,0.0795160233974456,0.0,0.0,0.5483464002609253,-0.3679495453834533
-0.0794368758797645,0.1671268790960312,0.0491486862301826,-0.4349583685398102,-0.0731024965643882,0.0932135507464408,0.0,0.0,0.2842558622360229,0.0173267126083374
-0.0787937194108963,0.157242402434349,0.0590859353542327,-0.4390627145767212,-0.0679319202899932,0.1034115180373191,0.0,0.0,0.6462260484695435,-0.4748191833496094
-0.078160285949707,0.1476591229438781,0.0582044944167137,-0.4256996512413025,-0.0628542006015777,0.1015545129776001,0.0,0.0,0.7370431423187256,-0.145631194114685
-0.0773728340864181,0.1389619708061218,0.0730412825942039,-0.3863118588924408,-0.0572134628891944,0.11281468719244,0.0,0.0,0.0663783550262451,-0.3632538318634033
-0.076570987701416,0.1303527951240539,0.0743996351957321,-0.382420152425766,-0.051489170640707,0.1144858226180076,0.0,0.0,0.1327911615371704,-0.9168329238891602
-0.0759047493338584,0.1221191957592964,0.0588505491614341,-0.3656910955905914,-0.0438018217682838,0.1537469625473022,0.0,0.0,0.2863898277282715,0.8024184703826904
-0.0750654190778732,0.1142314970493316,0.0775276497006416,-0.3503923714160919,-0.0374712161719799,0.1266121864318847,0.0,0.0,-0.0720337629318237,-0.2422126531600952
-0.0742171257734298,0.1058804616332054,0.0782615393400192,-0.3710062801837921,-0.0309827737510204,0.129768967628479,0.0,0.0,0.7282516956329346,0.3361227512359619
-0.0734218582510948,0.0982445329427719,0.0731924772262573,-0.339255690574646,-0.0247354935854673,0.1249452233314514,0.0,0.0,-0.0691452622413635,0.104200005531311
-0.0726175308227539,0.0901454091072082,0.0739506930112838,-0.3598696887493133,-0.0183278694748878,0.1281524449586868,0.0,0.0,0.8703485727310181,0.0757557153701782
-0.0719233527779579,0.0826076865196228,0.0633832514286041,-0.334948718547821,-0.0123697482049465,0.1191622838377952,0.0,0.0,0.695559024810791,0.8199723958969116
-0.0713188201189041,0.0754128545522689,0.0562155358493328,-0.319741815328598,-0.0081868544220924,0.0836579650640487,0.0,0.0,0.7134591341018677,0.8927497863769531
-0.0705056190490722,0.0688752010464668,0.0785129815340042,-0.2905493080615997,-0.0054198866710066,0.0553394369781017,0.0,0.0,-0.2574853897094726,0.3516157865524292
-0.0696827918291091,0.0618738494813442,0.0793086066842079,-0.3111609816551208,-0.0024887342005968,0.0586232058703899,0.0,0.0,0.3183220624923706,0.5504701137542725
-0.0686789527535438,0.0553256832063198,0.0980807021260261,-0.2910273373126983,-0.0002155553665943,0.0454637259244918,0.0,0.0,0.3924837112426758,0.3817310333251953
-0.067684456706047,0.0492950044572353,0.0970688313245773,-0.2680343389511108,0.0021339929662644,0.0469907000660896,0.0,0.0,0.0998616218566894,0.7900243997573853
-0.0665090531110763,0.0436635129153728,0.1165215596556663,-0.2502875924110412,0.0031456900760531,0.020233841612935,0.0,0.0,0.0707226991653442,-0.6916103363037109
-0.0653232559561729,0.0381319373846054,0.1159419417381286,-0.245856374502182,0.0057536899112164,0.0521599054336547,0.0,0.0,0.4300127029418945,0.5099198818206787
-0.0640978813171386,0.0332021079957485,0.1207704320549964,-0.2191114276647567,0.0074977814219892,0.0348820015788078,0.0,0.0,-0.0607914924621582,-0.6219508647918701
-0.0629067420959472,0.0278136581182479,0.1160460859537124,-0.2395072728395462,0.0105211865156888,0.0604681447148323,0.0,0.0,0.6249085664749146,-0.3492975831031799
-0.0616311058402061,0.0226391404867172,0.1239618882536888,-0.2300061881542205,0.0140787698328495,0.0711515322327613,0.0,0.0,0.9406116008758544,-0.0423195958137512
-0.0604991912841796,0.0180873963981866,0.1100888028740882,-0.2023338228464126,0.0171395018696784,0.0612150132656097,0.0,0.0,0.4000959396362304,-0.6087182760238647
-0.0595318786799907,0.0137204024940729,0.0924892425537109,-0.1941413134336471,0.0213335864245891,0.0838815197348594,0.0,0.0,0.6477174758911133,0.72705078125
-0.0585322380065918,0.0097336741164326,0.0970518961548805,-0.1772301793098449,0.0242019910365343,0.0573682598769664,0.0,0.0,0.3912249803543091,0.2684403657913208
-0.0575115196406841,0.0059578754007816,0.0988993793725967,-0.1678704619407653,0.0273394677788019,0.0627494603395462,0.0,0.0,0.3135664463043213,0.3800321817398071
-0.0563845634460449,0.0021514629479497,0.1088641285896301,-0.1692491024732589,0.0311251021921634,0.0757125169038772,0.0,0.0,0.8140065670013428,-0.1599348187446594
-0.055273912847042,-0.0002855205675587,0.1258952319622039,-0.1081005185842514,0.0164131615310907,-0.2943363785743713,0.0,1.0,0.5094456672668457,-0.0666732192039489
-0.0543353073298931,-0.0016413950361311,0.123918630182743,-0.0602177195250988,-0.0133277121931314,-0.5949025750160217,1.0,1.0,-0.1536378264427185,-0.8892781734466553
