x_pos,y_pos,x_vel,y_vel,angle,ang_vel,leg_1,leg_2,main_booster,lat_booster
-0.0015283584361895,1.403098464012146,-0.1546484231948852,-0.3476276397705078,0.0016151255695149,0.0318490713834762,0.0,0.0,-0.6683457493782043,0.824461817741394
-0.0029913901817053,1.3947701454162598,-0.1459433138370514,-0.3701463043689728,0.0012660571373999,-0.0069811292923986,0.0,0.0,-0.1321443319320678,0.4605209827423095
-0.0044588088057935,1.3859153985977173,-0.1462499797344207,-0.3935464322566986,0.0007717745611444,-0.0098865116015076,0.0,0.0,0.2040234804153442,0.933748722076416
-0.0059589385055005,1.3770776987075806,-0.1474483758211136,-0.3927883803844452,-0.0017601499566808,-0.0506431050598621,0.0,0.0,0.5381121635437012,0.6606912612915039
-0.0072789192199707,1.3686262369155884,-0.1282914876937866,-0.3756280839443207,-0.0054330718703567,-0.0734652951359748,0.0,0.0,0.0182050466537475,-0.4162037372589111
-0.0085165975615382,1.3601503372192385,-0.1203402131795883,-0.3767266273498535,-0.0088248439133167,-0.067841537296772,0.0,0.0,-0.2724026441574096,-0.6204581260681152
-0.0098090171813964,1.351149082183838,-0.1269705444574356,-0.4000678658485412,-0.0110584395006299,-0.0446759797632694,0.0,0.0,0.1526007652282714,0.5439757108688354
-0.0109423641115427,1.3422980308532717,-0.1101171970367431,-0.3934068977832794,-0.0142477480694651,-0.0637922137975692,0.0,0.0,-0.5888615846633911,-0.0137660503387451
-0.0120794298127293,1.3329211473464966,-0.1103788763284683,-0.4167905449867248,-0.0175372716039419,-0.0657965019345283,0.0,0.0,-0.5159604549407959,-0.491417646408081
-0.013219928368926,1.3230184316635132,-0.1106323227286338,-0.4401665925979614,-0.0209201164543628,-0.0676629021763801,0.0,0.0,-0.3775553107261657,0.6421599388122559
-0.0143059734255075,1.3125885725021362,-0.1036229953169822,-0.4636257886886596,-0.0258431062102317,-0.098469041287899,0.0,0.0,-0.366605281829834,0.606158971786499
-0.0153416637331247,1.3016300201416016,-0.0971614047884941,-0.4871761202812195,-0.0321862213313579,-0.1268738657236099,0.0,0.0,-0.1127889156341552,-0.363793134689331
-0.0163803100585937,1.2901458740234375,-0.0973783507943153,-0.5105567574501038,-0.0385996289551258,-0.1282798498868942,0.0,0.0,0.387310266494751,-0.5534847378730774
-0.0173910148441791,1.2785769701004028,-0.0957738310098648,-0.5143175721168518,-0.0438314490020275,-0.1046459823846817,0.0,0.0,-0.6571903228759766,-0.8926115036010742
-0.0184577945619821,1.2664952278137207,-0.1027073636651039,-0.5370931625366211,-0.0477617979049682,-0.0786141231656074,0.0,0.0,0.493618369102478,-0.8741965293884277
-0.0194718353450298,1.2542768716812134,-0.0992908328771591,-0.5431056618690491,-0.0498576164245605,-0.0419197939336299,0.0,0.0,-0.1849222779273986,-0.4317408204078674
-0.0204882621765136,1.2415324449539185,-0.0994753986597061,-0.5664864778518677,-0.0519968494772911,-0.0427887476980686,0.0,0.0,-0.5554333329200745,-0.7316556572914124
-0.0215509422123432,1.2282594442367554,-0.1051948517560958,-0.5899474620819092,-0.0530628189444541,-0.0213213693350553,0.0,0.0,-0.1364409923553466,-0.3755496740341186
-0.0226155277341604,1.2144604921340942,-0.1053557768464088,-0.6133251190185547,-0.0541586615145206,-0.0219188444316387,0.0,0.0,0.5522418022155762,-0.7971687316894531
-0.0238000862300395,1.2009437084197998,-0.1187788620591163,-0.600737452507019,-0.0538351126015186,0.0064717307686805,0.0,0.0,0.3118669986724853,-0.6514590978622437
-0.0248931888490915,1.1877946853637695,-0.111129030585289,-0.5843284130096436,-0.0520344376564025,0.0360166281461715,0.0,0.0,0.1013975143432617,-0.322726845741272
-0.0259644500911235,1.1745612621307373,-0.108975663781166,-0.5880973935127258,-0.0502089075744152,0.0365137979388237,0.0,0.0,-0.3469177484512329,0.0519230365753173
-0.0270368568599224,1.1608015298843384,-0.109083667397499,-0.6114748120307922,-0.0483879782259464,0.0364219211041927,0.0,0.0,-0.1262605190277099,-0.0799148678779602
-0.0281102173030376,1.1465160846710205,-0.1091751456260681,-0.6348515748977661,-0.04656632989645,0.0364365205168724,0.0,0.0,0.2589898109436035,0.5943747758865356
-0.0292335506528615,1.132446050643921,-0.1127617731690406,-0.625315248966217,-0.0461436137557029,0.0084551973268389,0.0,0.0,-0.5811244249343872,0.0510491132736206
-0.0303579326719045,1.1178287267684937,-0.1128798723220825,-0.6496484875679016,-0.0457088276743888,0.0086957234889268,0.0,0.0,-0.1572387218475341,0.233565092086792
-0.0314825065433979,1.1026853322982788,-0.1129127964377403,-0.6730238795280457,-0.045257456600666,0.0090275248512625,0.0,0.0,-0.6363774538040161,0.3771672248840332
-0.0326069816946983,1.0870161056518557,-0.1129268631339073,-0.6963991522789001,-0.0447848178446292,0.0094529017806053,0.0,0.0,-0.5842800736427307,0.1102927923202514
-0.033731173723936,1.0708208084106443,-0.1129216104745864,-0.7197744846343994,-0.044286485761404,0.0099665392190217,0.0,0.0,0.4776957035064697,0.177325963973999
-0.0348542220890522,1.0547542572021484,-0.1127532944083213,-0.7140522599220276,-0.0438452772796154,0.0088244285434484,0.0,0.0,0.616004228591919,-0.4460227489471435
-0.0359219536185264,1.039401650428772,-0.1073330491781234,-0.6823237538337708,-0.0432857610285282,0.0111903212964534,0.0,0.0,-0.2456380724906921,-0.0282351374626159
-0.0369885452091693,1.023522973060608,-0.1072672829031944,-0.70569908618927,-0.0426890738308429,0.011933677829802,0.0,0.0,-0.316802978515625,0.4359297752380371
-0.0380539894104003,1.007118582725525,-0.1071806773543357,-0.7290744185447693,-0.0420520082116127,0.0127412099391222,0.0,0.0,-0.430682897567749,0.2918562889099121
-0.0391178131103515,0.9901880621910096,-0.1070729345083236,-0.7524497509002686,-0.0413716807961463,0.0136067746207118,0.0,0.0,0.2959969043731689,-0.7148855328559875
-0.0402016639709472,0.9734729528427124,-0.1105887442827224,-0.7428290247917175,-0.0392025336623191,0.0433830730617046,0.0,0.0,0.4127030372619629,0.4380084276199341
-0.0412426963448524,0.9572005867958068,-0.1064205169677734,-0.7231611609458923,-0.0369133837521076,0.0457833632826805,0.0,0.0,-0.1826285123825073,0.4434151649475097
-0.0422815307974815,0.9404022097587584,-0.1062483936548233,-0.7465369701385498,-0.0345742143690586,0.04678326100111,0.0,0.0,-0.119592547416687,-0.3195506334304809
-0.0433178916573524,0.9230780005455016,-0.1060546189546585,-0.7699127197265625,-0.0321834944188594,0.047814380377531,0.0,0.0,-0.0330671072006225,0.5987592935562134
-0.0443071350455284,0.9052322506904602,-0.1002707034349441,-0.7931120991706848,-0.0308524351567029,0.0266209933906793,0.0,0.0,0.6988739967346191,-0.5054382681846619
-0.0452832207083702,0.8877989053726196,-0.1001144871115684,-0.7747662663459778,-0.0283751469105482,0.0495456643402576,0.0,0.0,0.3784854412078857,0.5753700733184814
-0.0462892539799213,0.8708208799362183,-0.1017912179231643,-0.7545621395111084,-0.0271969083696603,0.0235647838562726,0.0,0.0,0.248389720916748,0.2591848373413086
-0.047187902033329,0.8539060950279236,-0.0915487483143806,-0.7517373561859131,-0.0255330074578523,0.0332778133451938,0.0,0.0,-0.1352092027664184,0.5974147319793701
-999.0,0.8364567160606384,-0.0843722075223922,-0.7755237221717834,-0.0251956079155206,0.0067481556907296,0.0,0.0,0.2856199741363525,-0.32387375831604
-0.04877720028162,0.8190953135490417,-0.0756512954831123,-0.7716079950332642,-0.0244473721832036,0.0149645032361149,0.0,0.0,0.7663402557373047,0.4007220268249511
-0.049557875841856,0.8016816973686218,-0.0786792337894439,-0.773932158946991,-0.0238477159291505,0.0119929676875472,0.0,0.0,0.6993322372436523,-0.5147083401679993
-0.0503167137503623,0.7842517495155334,-0.0777215808629989,-0.774630606174469,-0.0220332965254783,0.0362885706126689,0.0,0.0,0.3445932865142822,0.6280107498168945
-0.0509589202702045,0.766834557056427,-0.0649453550577163,-0.774088442325592,-0.0213156305253505,0.0143533367663621,0.0,0.0,-0.0119300484657287,0.2258821725845337
-0.0515966415405273,0.7488913536071777,-0.0645444095134735,-0.7974638342857361,-0.0205506961792707,0.0152988135814666,0.0,0.0,-0.3013064861297607,0.1723241806030273
-0.0522296912968158,0.7304221987724304,-0.0641247183084487,-0.8208392262458801,-0.0197409614920616,0.0161945857107639,0.0,0.0,0.8042619228363037,-0.1371070146560669
-0.0528700836002826,0.7122608423233032,-0.0647908821702003,-0.8071616291999817,-0.0189962424337863,0.0148943159729242,0.0,0.0,0.7537211179733276,0.6066551208496094
-0.0532822608947753,0.6944764256477356,-0.0412141606211662,-0.7904189825057983,-0.0190024059265851,-0.0001232767972396,0.0,0.0,-0.182294487953186,0.583531379699707
-0.0536476150155067,0.6761687397956848,-0.0354969426989555,-0.8136876821517944,-0.0200228374451398,-0.0204085577279329,0.0,0.0,0.5585157871246338,-0.3765568733215332
-0.053896140307188,0.6579608917236328,-0.0243389829993248,-0.8092413544654846,-0.0205352194607257,-0.0102475490421056,0.0,0.0,-0.2901580929756164,-0.739648163318634
-0.0541975013911724,0.63923579454422,-0.0311276670545339,-0.8322135806083679,-0.0195573605597019,0.019557025283575,0.0,0.0,0.7378902435302734,0.2762994766235351
-0.0543267242610454,0.6207494139671326,-0.014665444381535,-0.821598470211029,-0.0178326088935136,0.0344949401915073,0.0,0.0,0.34148108959198,0.442989706993103
-0.0545210838317871,0.6023128628730774,-0.0208398811519145,-0.8193837404251099,-0.0164500772953033,0.0276506748050451,0.0,0.0,0.6232621669769287,-0.0974535942077636
-0.0546046271920204,0.5845226049423218,-0.0101955635473132,-0.7906588912010193,-0.0146290697157382,0.0364199727773666,0.0,0.0,0.7988922595977783,0.3254610300064087
-0.05452137067914,0.5673046112060547,0.0057659866288304,-0.7652227282524109,-0.0121077513322234,0.0504266209900379,0.0,0.0,0.5514991283416748,0.5537611246109009
-0.0543035492300987,0.5507239103317261,0.0201545860618352,-0.7369073033332825,-0.010500494390726,0.0321450047194957,0.0,0.0,-0.1397304534912109,0.3585257530212402
-0.0540800094604492,0.5336173176765442,0.0207443796098232,-0.7602830529212952,-0.008900873363018,0.0319922305643558,0.0,0.0,0.4633181095123291,0.5969077348709106
-0.053750991821289,0.5164703130722046,0.0323885604739189,-0.7620876431465149,-0.0083942357450723,0.0101325465366244,0.0,0.0,0.6768653392791748,0.1720616817474365
-0.0535118095576763,0.4998664259910583,0.0239015519618988,-0.7379486560821533,-0.0083803907036781,0.0002766331308521,0.0,0.0,0.8750085830688477,0.1678918600082397
-0.0531216636300087,0.4836152493953705,0.038379855453968,-0.7222708463668823,-0.0077477577142417,0.01265250146389,0.0,0.0,0.7598398923873901,-0.098357081413269
-0.0526952743530273,0.4678171873092651,0.0419154055416584,-0.7021329998970032,-0.0070366733707487,0.0142218321561813,0.0,0.0,0.0312929153442382,0.1177573204040527
-0.0522562973201274,0.4518684148788452,0.0432026907801628,-0.7088297605514526,-0.0063489428721368,0.0137545112520456,0.0,0.0,0.9114710092544556,-0.1057406067848205
-0.0519502647221088,0.436420738697052,0.0306426100432872,-0.6865621209144592,-0.0063783386722207,-0.0005879639647901,0.0,0.0,0.8018772602081299,-0.1474101543426513
-0.0516087524592876,0.4218469858169555,0.0341363735496997,-0.6477235555648804,-0.0063629555515944,0.0003077132278122,0.0,0.0,0.9022321701049804,0.2811195850372314
-0.0511646270751953,0.4072513878345489,0.0440322458744049,-0.6486899852752686,-0.0059830956161022,0.0075971512123942,0.0,0.0,0.8300788402557373,0.0576162338256835
-0.050678826868534,0.3935481011867523,0.048135682940483,-0.6090362071990967,-0.0055469367653131,0.0087228026241064,0.0,0.0,0.4389741420745849,0.3684557676315307
-0.0502667427062988,0.3799379169940948,0.0412418209016323,-0.6048976182937622,-0.0055818636901676,-0.0006983786006458,0.0,0.0,0.657899022102356,0.4729249477386474
-0.0499370582401752,0.3668217062950134,0.0335365273058414,-0.5829422473907471,-0.0061449240893125,-0.0112609919160604,0.0,0.0,0.2719732522964477,0.4714257717132568
-0.049574851989746,0.3538981080055237,0.0367931015789508,-0.5743845701217651,-0.0067104534246027,-0.0113105401396751,0.0,0.0,0.1293931007385254,0.3937722444534302
-0.04929094389081,0.3413154780864715,0.0294989794492721,-0.5592355132102966,-0.0078057432547211,-0.0219057090580463,0.0,0.0,0.1401150226593017,0.6723613739013672
-0.0488877296447753,0.3288033604621887,0.0428513959050178,-0.5561090707778931,-0.0102995811030268,-0.0498769953846931,0.0,0.0,0.5086706876754761,-0.1677993535995483
-0.0485057830810546,0.316301554441452,0.0410083569586277,-0.5556575655937195,-0.0130794569849967,-0.0555976629257202,0.0,0.0,0.7498116493225098,0.0673836469650268
-0.0480417236685752,0.3037888705730438,0.0490522123873233,-0.5561434030532837,-0.0156805887818336,-0.0520228073000907,0.0,0.0,0.748943567276001,-0.8926934599876404
-0.0476741790771484,0.2912828326225281,0.0378254912793636,-0.5558329820632935,-0.0167339630424976,-0.0210674814879894,0.0,0.0,0.9408977031707764,-0.6222414970397949
-0.0473450645804405,0.2796556353569031,0.0329329557716846,-0.5167653560638428,-0.0167542807757854,-0.0004065571411047,0.0,0.0,0.6092507839202881,0.5735300779342651
-0.0468676574528217,0.2686966955661773,0.0488981418311595,-0.4870758652687073,-0.0178932938724756,-0.0227803103625774,0.0,0.0,-0.0493721961975097,-0.750058650970459
-0.0464550964534282,0.2572213411331177,0.0408219061791896,-0.5100113749504089,-0.0174608416855335,0.0086487745866179,0.0,0.0,0.1032168865203857,-0.4304457902908325
-0.0461195930838584,0.2455540299415588,0.0337280966341495,-0.5185483694076538,-0.0176377687603235,-0.00353844021447,0.0,0.0,0.8188996315002441,0.0112485885620117
-0.0457189567387104,0.2346649020910263,0.0402557402849197,-0.4839636981487274,-0.0178300905972719,-0.0038463727105408,0.0,0.0,0.4327746629714966,-0.5153546333312988
-0.0454396232962608,0.2240020185708999,0.0275569595396518,-0.4739030599594116,-0.0174635350704193,0.0073312567546963,0.0,0.0,0.7674906253814697,-0.2257906198501587
-0.0452011115849018,0.2139022499322891,0.0240016188472509,-0.4488782584667206,-0.0176112074404954,-0.0029535046778619,0.0,0.0,0.3857278823852539,0.0917079448699951
-0.0449570640921592,0.2041565328836441,0.0248488076031208,-0.4331481158733368,-0.0180592127144336,-0.0089598298072814,0.0,0.0,0.059976577758789,0.1066917181015014
-0.0446454994380474,0.1944432854652404,0.0316273793578147,-0.4317074418067932,-0.0185131579637527,-0.0090790539979934,0.0,0.0,0.6077806949615479,-0.3621881008148193
-0.0442996025085449,0.1847030073404312,0.0352181755006313,-0.4329067170619964,-0.0191359277814626,-0.0124554205685853,0.0,0.0,0.5558061599731445,-0.7867971062660217
-0.0439069755375385,0.1749988347291946,0.0384327247738838,-0.4312874972820282,-0.0183174796402454,0.0163690336048603,0.0,0.0,0.6056272983551025,-0.8284122347831726
-0.0434059128165245,0.1655983030796051,0.0476428382098674,-0.417772114276886,-0.0158892795443534,0.0485641546547412,0.0,0.0,0.5407296419143677,-0.5264633893966675
-0.0427963249385356,0.1562173664569854,0.0573798529803752,-0.4168999493122101,-0.0123621840029954,0.070542000234127,0.0,0.0,0.351712703704834,-0.7160053253173828
-0.042236328125,0.1472389847040176,0.0513135567307472,-0.3990084230899811,-0.0077360374853014,0.0925231426954269,0.0,0.0,0.4229304790496826,-0.8019139766693115
-0.0417001731693744,0.1387214958667755,0.0475986190140247,-0.3785366117954254,-0.0018005757592618,0.1187093257904052,0.0,0.0,-0.0037736892700195,0.5137677192687988
-0.0411105155944824,0.1296801716089248,0.054544698446989,-0.4018367230892181,0.0025655208155512,0.0873217955231666,0.0,0.0,0.6135461330413818,-0.3235583305358886
-0.0404188148677349,0.1205917671322822,0.0646432191133499,-0.4039435088634491,0.0070414212532341,0.0895178839564323,0.0,0.0,0.5251026153564453,-0.7840108275413513
-0.0398419387638568,0.1116793230175972,0.0520204193890094,-0.3961434960365295,0.0126330228522419,0.1118320599198341,0.0,0.0,0.812924861907959,-0.0429211258888244
-0.0391798987984657,0.1036631688475608,0.0604729279875755,-0.3563348054885864,0.0182903204113245,0.1131461039185524,0.0,0.0,0.3370068073272705,0.3801033496856689
-0.0385409370064735,0.095811516046524,0.0586288496851921,-0.3490341603755951,0.0234877653419971,0.1039489060640335,0.0,0.0,0.4823853969573974,0.3988654613494873
-0.0380263328552246,0.0885005295276641,0.0471115671098232,-0.3250060081481933,0.0277877636253833,0.0859999880194664,0.0,0.0,0.2395559549331665,0.9732025861740112
-0.0373687744140625,0.0814600586891174,0.0637245178222656,-0.3129520416259765,0.0297848023474216,0.039940807968378,0.0,0.0,-0.2105095982551574,0.0476541519165039
-0.0367074012756347,0.0738934352993965,0.0645216032862663,-0.3363267779350281,0.0313849449157714,0.0320030488073825,0.0,0.0,0.7544844150543213,-0.504006564617157
-0.0362002365291118,0.0669902861118316,0.0487600676715374,-0.3068488836288452,0.0333139710128307,0.0385807231068611,0.0,0.0,0.271664023399353,0.7669439315795898
-0.0356629379093647,0.0601350627839565,0.0537610128521919,-0.3046765625476837,0.0332804732024669,-0.0006700467783957,0.0,0.0,0.6628963947296143,-0.2608664035797119
-0.0352594368159771,0.0536552779376506,0.0413602963089942,-0.287966787815094,0.0322851166129112,-0.0199072491377592,0.0,0.0,0.4267810583114624,0.9645175933837892
-0.0349393859505653,0.0473219715058803,0.0355041362345218,-0.2814111411571502,0.0288243349641561,-0.0692155957221984,0.0,0.0,0.8077235221862793,-0.1172409057617187
-0.0345226302742958,0.0416465625166893,0.0450796633958816,-0.2521766722202301,0.0254678893834352,-0.0671287104487419,0.0,0.0,0.0352720022201538,-0.554875373840332
-0.0341091156005859,0.0357870422303676,0.0440118350088596,-0.2603803277015686,0.0228429418057203,-0.0524989888072013,0.0,0.0,0.3381739854812622,-0.5168527960777283
-0.0336198806762695,0.0303351506590843,0.0506917908787727,-0.242280513048172,0.0210976116359233,-0.0349064394831657,0.0,0.0,0.4166371822357178,-0.5921597480773926
-0.0332096107304096,0.0253578275442123,0.0421057119965553,-0.2211979925632476,0.0200341865420341,-0.0212684944272041,0.0,0.0,0.3150656223297119,-0.0829766988754272
-0.0326960571110248,0.0208779666572809,0.0523605123162269,-0.1990928053855896,0.0190415121614933,-0.0198537353426218,0.0,0.0,-0.2143493890762329,-0.5491828918457031
-0.0322172157466411,0.0158709622919559,0.0483891367912292,-0.2225258648395538,0.0185429286211729,-0.0099717322736978,0.0,0.0,0.7427603006362915,0.2207221984863281
-0.0317587852478027,0.0116293523460626,0.0468579344451427,-0.1885019838809967,0.0175447203218936,-0.0199641678482294,0.0,0.0,0.1877596378326416,0.3199403285980224
-0.0312635414302349,0.0077120754867792,0.0508080832660198,-0.1740870773792266,0.0162793509662151,-0.0253074504435062,0.0,0.0,0.3026689291000366,-0.1956674456596374
-0.03070754930377,0.0038125372957438,0.0570578277111053,-0.1732993423938751,0.0148346666246652,-0.0288934744894504,0.0,0.0,0.2969902753829956,-0.7459745407104492
-0.0303229335695505,0.0001125192648032,0.0390555933117866,-0.1644401401281356,0.0142533350735902,-0.0116269076243042,0.0,0.0,0.4753280878067016,-0.5596939325332642
-0.0302106849849224,-0.0027248286642134,0.0307548381388187,-0.1260382384061813,-0.0050432481802999,-0.3859655559062958,1.0,1.0,0.8873872756958008,-0.6652666926383972
-0.0301966667175292,-0.0039870403707027,0.0197681244462728,-0.0564659461379051,-0.0224862918257713,-0.3479639887809753,1.0,1.0,0.7417069673538208,-0.4832572937011719
-0.0300494190305471,-0.0041813398711383,0.0162385087460279,-0.0086663523688912,-0.0239762105047702,-0.0297973547130823,1.0,1.0,-0.631257176399231,-0.5024573802947998
-0.0299642570316791,-0.0038823985960334,0.0061394874937832,0.0133239487186074,-0.0216564610600471,0.0463733188807964,1.0,1.0,-0.4615832567214966,0.0404168367385864
-0.0298450477421283,-0.003198578255251,0.0067463419400155,0.0304495692253112,-0.0165368150919675,0.1023907884955406,1.0,1.0,-0.6693359613418579,0.5512211322784424
-0.0296485908329486,-0.0023108387831598,0.0129350749775767,0.0395138412714004,-0.0099119031801819,0.1324945837259292,1.0,1.0,-0.6121348738670349,0.6439189910888672
-0.0293771736323833,-0.0014021419920027,0.0202482305467128,0.0404157228767871,-0.0031033647246658,0.1361670345067978,1.0,1.0,-0.621838390827179,0.3626728057861328
