x_pos,y_pos,x_vel,y_vel,angle,ang_vel,leg_1,leg_2,main_booster,lat_booster
-0.0014826774131506,1.4033455848693848,-0.1504115462303161,-0.3366412222385406,0.0019243175629526,0.0379709005355834,0.0,0.0,0.2492165446487604,0.968287790851756
-0.002803134964779,1.3960344791412354,-0.1321898102760315,-0.3249437510967254,0.0020618066191673,0.0027508842758834,0.0,0.0,-0.8392994477118187,0.3122342820691158
-0.004082775209099,1.3884438276290894,-0.1282311528921127,-0.3373620808124542,0.0023232193198055,0.0052286689169704,0.0,0.0,-0.6258178416038225,-0.8174229316425294
-0.0053988457657396,1.3805714845657349,-0.1339250802993774,-0.3498875796794891,0.0046160691417753,0.0458613969385623,0.0,0.0,0.2168563565682053,0.2279094748093825
-0.0065819742158055,1.373141527175903,-0.1211515441536903,-0.330231249332428,0.0074303220026195,0.056290216743946,0.0,0.0,-0.1679930967162464,-0.2203203174077959
-0.007725047878921,1.365432620048523,-0.1171978339552879,-0.3426283299922943,0.0102837895974516,0.0570744760334491,0.0,0.0,-0.5978890904893932,0.4372425758274055
-0.008828449063003,1.3574453592300415,-0.1132439598441124,-0.3550175130367279,0.0131483264267444,0.057296197861433,0.0,0.0,-0.8209409945068682,-0.2500454718951771
-0.0098926546052098,1.3491792678833008,-0.1092903986573219,-0.3674087524414062,0.0159956831485033,0.0569523572921752,0.0,0.0,-0.3198182134977332,0.6697416198919862
-0.010865974240005,1.340643048286438,-0.0988612473011016,-0.3794076144695282,0.0174975395202636,0.0300399903208017,0.0,0.0,-0.9841859325710274,0.3327671729311808
-0.0118004800751805,1.3318278789520264,-0.0949046462774276,-0.3917987048625946,0.0189276356250047,0.0286046210676431,0.0,0.0,-0.1175047361790471,0.6152519267904861
-0.0126411439850926,1.3227360248565674,-0.0840005353093147,-0.4040825068950653,0.0188645925372838,-0.0012608759570866,0.0,0.0,-0.1356442271120934,0.7554963357875006
-0.0133769987151026,1.3133655786514282,-0.0716960951685905,-0.4164375960826874,0.0170035064220428,-0.0372250527143478,0.0,0.0,-0.3287424917634063,0.8201713577634964
-0.0139961242675781,1.303722858428955,-0.0578770339488983,-0.4285303950309753,0.0130139701068401,-0.0797983109951019,0.0,0.0,0.2671445481284695,-0.0427307014500042
-0.0145277976989746,1.2942109107971191,-0.0492237620055675,-0.4227209389209747,0.0090987207368016,-0.0783119425177574,0.0,0.0,0.9473739623918392,0.4235059685722466
-0.0148646356537938,1.2858800888061523,-0.0303099900484085,-0.3702416121959686,0.0057657100260257,-0.0666659250855445,0.0,0.0,0.7182434580793675,-0.0400611109884065
-0.0150518417358398,1.2777351140975952,-0.0156754180788993,-0.361991286277771,0.0027442972641438,-0.0604339353740215,0.0,0.0,-0.4505103858324861,-0.8002863814928012
-0.0152510646730661,1.2693206071853638,-0.017844533547759,-0.3739778399467468,0.0007008326356299,-0.0408727675676345,0.0,0.0,-0.34079629357106,-0.9628071479304784
-0.0154715534299612,1.260619044303894,-0.0211911145597696,-0.3867347836494446,-0.0001522048696642,-0.0170624032616615,0.0,0.0,0.2305491667460462,0.0815687023167807
-0.0155834201723337,1.2525355815887451,-0.0103622525930404,-0.3592663407325744,-0.0009568398236297,-0.0160943400114774,0.0,0.0,-0.9296335263160638,-0.798739716143108
-0.0157306678593158,1.2441728115081787,-0.0154212657362222,-0.3716762661933899,-0.0002727310638874,0.0136832054704427,0.0,0.0,0.7246569079031873,0.92088090715124
-0.0156207084655761,1.236715316772461,0.0122594721615314,-0.3314431607723236,-0.0015134405111894,-0.0248165689408779,0.0,0.0,-0.8839817426473828,0.4586307522004071
-0.0154751781374216,1.2289788722991943,0.0161578003317117,-0.343843549489975,-0.0031000291928648,-0.0317348316311836,0.0,0.0,-0.2842597180742823,0.9420120233092908
-0.015203857794404,1.2209622859954834,0.0314031466841697,-0.356312096118927,-0.0073260413482785,-0.0845275968313217,0.0,0.0,-0.211539032789312,0.388727128205973
-0.0148975374177098,1.2126669883728027,0.0352840013802051,-0.3687051236629486,-0.0119305504485964,-0.0920982882380485,0.0,0.0,0.8291218202257551,0.5273730044672379
-0.0146735189482569,1.205165982246399,0.0290153324604034,-0.3334471881389618,-0.0184603761881589,-0.1306082010269165,0.0,0.0,-0.4771701739275,-0.6650958541847629
-0.0144806858152151,1.197370529174805,0.0246472638100385,-0.3465428650379181,-0.0237559452652931,-0.1059113144874572,0.0,0.0,-0.3228791367081598,-0.3623557715273333
-0.0142539981752634,1.1892967224121094,0.0284629706293344,-0.3589351773262024,-0.0294744502753019,-0.1143700033426284,0.0,0.0,-0.0697276902105192,-0.0561894192720739
-0.0139937400817871,1.1809449195861816,0.0322567038238048,-0.371328055858612,-0.035628318786621,-0.1230774149298667,0.0,0.0,-0.0063117379399191,0.3502796754829547
-0.0137002943083643,1.172315001487732,0.0360261388123035,-0.3837216794490814,-0.0422292202711105,-0.1320177018642425,0.0,0.0,-0.9903831922071872,-0.6538758081993231
-0.0134276393800973,1.163408279418945,0.0330488383769989,-0.396036297082901,-0.0479421764612197,-0.1142592802643776,0.0,0.0,0.0103835456142868,-0.5919788734408743
-0.013131427578628,1.1550079584121704,0.0346668027341365,-0.3735083043575287,-0.0529278926551342,-0.0997146144509315,0.0,0.0,-0.9660828709602356,-0.9342184662818908
-0.0128868101164698,1.146330952644348,0.0278683751821517,-0.3857741355895996,-0.0562929660081863,-0.0673012137413024,0.0,0.0,-0.881148099899292,-0.8677277565002441
-0.0126882549375295,1.1373902559280396,0.0217620264738798,-0.3974373936653137,-0.0581790097057819,-0.0377209223806858,0.0,0.0,-0.8684108257293701,-0.785934329032898
-0.0125275608152151,1.1281700134277344,0.0167250074446201,-0.4098114669322967,-0.0588312000036239,-0.0130438152700662,0.0,0.0,-0.7554373145103455,-0.0568069219589233
-0.0123363491147756,1.1186715364456177,0.0202880091965198,-0.4222030341625213,-0.059985376894474,-0.02308339625597,0.0,0.0,-0.8817991018295288,-0.5473624467849731
-0.0121569633483886,1.1089025735855105,0.0185589529573917,-0.4342021346092224,-0.0605910457670688,-0.0121135367080569,0.0,0.0,-0.6941891312599182,-0.6521714329719543
-0.01200189627707,1.0988566875457764,0.0152646619826555,-0.446469247341156,-0.0603581294417381,0.0046582734212279,0.0,0.0,-0.8292091488838196,-0.7997480630874634
-0.0118769649416208,1.0885441303253174,0.0112723531201481,-0.4582886695861816,-0.0591539219021797,0.024084223434329,0.0,0.0,-0.894997775554657,-0.4337766170501709
-0.0117239002138376,1.0779531002044678,0.0146197155117988,-0.4706805050373077,-0.0584762915968894,0.0135527625679969,0.0,0.0,-0.833314836025238,-0.2858468890190124
-0.011543464846909,1.067083716392517,0.0179005227982997,-0.4830722212791443,-0.0583301074802875,0.00292365741916,0.0,0.0,-0.885612428188324,-0.7402580976486206
-0.0114048961549997,1.0559484958648682,0.0124942800030112,-0.4948507845401764,-0.0569839812815189,0.0269226524978876,0.0,0.0,-0.965023636817932,-0.3785231113433838
-0.0112405773252248,1.0445349216461182,0.015624314546585,-0.5072425603866577,-0.0561776980757713,0.016125489026308,0.0,0.0,-0.9375321865081788,-0.4816330671310425
-0.0110511779785156,1.032842993736267,0.0186694581061601,-0.5196343064308167,-0.0559148453176021,0.0052572074346244,0.0,0.0,-0.9635382890701294,-0.716235876083374
-0.0108851436525583,1.020875096321106,0.0156875494867563,-0.5318697690963745,-0.0550084598362445,0.0181275960057973,0.0,0.0,-0.958251416683197,0.1486085653305053
-0.010696125216782,1.0086288452148438,0.018542205914855,-0.5442615151405334,-0.0546514019370079,0.007141166832298,0.0,0.0,-0.9239667057991028,0.0173255205154418
-0.0104851722717285,0.99610435962677,0.0212907064706087,-0.5566530227661133,-0.0548460371792316,-0.0038928645662963,0.0,0.0,-0.914537787437439,-0.8655609488487244
-0.0103152273222804,0.9833018183708192,0.0161959901452064,-0.5689725875854492,-0.0540473125874996,0.0159743446856737,0.0,0.0,-0.99545818567276,0.3084217309951782
-0.0101256370544433,0.9702208042144777,0.0187091920524835,-0.5813643336296082,-0.0538039840757846,0.004866668023169,0.0,0.0,-0.9925570487976074,-0.5375418066978455
-0.0099694253876805,0.9568705558776855,0.0146059915423393,-0.5933118462562561,-0.0528110861778259,0.0198581106960773,0.0,0.0,-0.9723997116088868,-0.0741413831710815
-0.0097965244203805,0.9432417750358582,0.0168524738401174,-0.6057034134864807,-0.0523758940398693,0.0087038660421967,0.0,0.0,-0.993419349193573,-0.6179497838020325
-0.0096454620361328,0.9293376803398132,0.0142854060977697,-0.6179391741752625,-0.0515623800456523,0.016270300373435,0.0,0.0,-0.9897197484970092,-0.5181467533111572
-0.0095252990722656,0.9151618480682372,0.0106164719909429,-0.6299836039543152,-0.050177376717329,0.0277000404894351,0.0,0.0,-0.9500378966331482,-0.1448836922645568
-0.0093928333371877,0.9007078409194946,0.0124047510325908,-0.642375111579895,-0.0493512265384197,0.0165230073034763,0.0,0.0,-0.9718717336654664,-0.7762869000434875
-0.0093107223510742,0.8859871625900269,0.006391538772732,-0.6541965007781982,-0.0475460439920425,0.0361035466194152,0.0,0.0,-0.9768577814102172,-0.3465653657913208
-0.00921974144876,0.8709880709648132,0.0078388042747974,-0.6665880084037781,-0.0462990254163742,0.0249404218047857,0.0,0.0,-0.9562267661094666,0.1769435405731201
-0.0091216089203953,0.855710506439209,0.0091064097359776,-0.6789792776107788,-0.0456094034016132,0.0137923434376716,0.0,0.0,-0.8488283753395081,-0.7353353500366211
-0.0090672494843602,0.840164840221405,0.0040546655654907,-0.6908829212188721,-0.0442404933273792,0.0273780468851327,0.0,0.0,-0.8878695368766785,0.0646942853927612
-0.0090095521882176,0.8243407011032104,0.0049482006579637,-0.703274130821228,-0.043426726013422,0.0162755027413368,0.0,0.0,-0.8660860657691956,-0.2805734276771545
-0.0089504243806004,0.80823814868927,0.0056490721181035,-0.7156652808189392,-0.0431665666401386,0.0052030249498784,0.0,0.0,-0.881270170211792,-0.7837561964988708
-0.0089614866301417,0.7918683886528015,-0.0025837826542556,-0.7275003790855408,-0.0417008176445961,0.0293151848018169,0.0,0.0,-0.6306255459785461,0.5837736129760742
-0.0089249610900878,0.7752120494842529,0.0039953999221324,-0.74029141664505,-0.0420458912849426,-0.0069013410247862,0.0,0.0,-0.7580310702323914,-0.7034493088722229
-0.0089577678591012,0.7582849860191345,-0.0040229046717286,-0.7522918581962585,-0.0413056835532188,0.0148039711639285,0.0,0.0,-0.6360238790512085,-0.2104798555374145
-0.0089968685060739,0.7410795092582703,-0.0041071595624089,-0.7646828293800354,-0.0411108508706092,0.0038966066204011,0.0,0.0,-0.3332194089889526,-0.2231407165527343
-0.0090442653745412,0.7235956192016602,-0.0043860967271029,-0.7770737409591675,-0.0414587892591953,-0.0069589084014296,0.0,0.0,-0.7686924338340759,-0.685548722743988
-0.0091554643586277,0.7058315277099609,-0.0115838572382926,-0.7895042896270752,-0.0410013645887374,0.009148184210062,0.0,0.0,-0.5990713238716125,0.1800254583358764
-0.0092787742614746,0.6877889037132263,-0.0122432364150881,-0.8018951416015625,-0.041080966591835,-0.0015921160811558,0.0,0.0,-0.5066856741905212,-0.3195436000823974
-0.0094158174470067,0.6694679260253906,-0.013086600229144,-0.8142859935760498,-0.0416944175958633,-0.0122690359130501,0.0,0.0,-0.1959149241447448,-0.0054083466529846
-0.0095684053376317,0.6508684158325195,-0.0141087668016552,-0.8266769647598267,-0.0428383611142635,-0.0228787846863269,0.0,0.0,-0.1325489282608032,-0.0442731380462646
-0.0097384452819824,0.6319905519485474,-0.0153038976714015,-0.8390679955482483,-0.0445092394948005,-0.0334178283810615,0.0,0.0,0.0250661373138427,-0.3110493421554565
-0.0099724773317575,0.613278329372406,-0.0209177248179912,-0.8317338824272156,-0.0469734854996204,-0.0492848344147205,0.0,0.0,0.5177408456802368,-0.7817030549049377
-0.0103531833738088,0.5952338576316833,-0.036473236978054,-0.8020254373550415,-0.0485543124377727,-0.0316164940595626,0.0,0.0,0.2316176891326904,-0.6328421235084534
-0.010757828131318,0.5776090621948242,-0.0396626517176628,-0.7833486199378967,-0.0493492484092712,-0.0158985741436481,0.0,0.0,-0.0096497535705566,-0.5814804434776306
-0.0112415309995412,0.559716522693634,-0.0484610684216022,-0.7952204942703247,-0.0492494329810142,0.0019960098434239,0.0,0.0,0.155710220336914,0.0168378353118896
-0.0116785047575831,0.5421469807624817,-0.043535154312849,-0.7808746099472046,-0.0494183376431465,-0.0033780024386942,0.0,0.0,0.0827910900115966,-0.3763631582260132
-0.0121509553864598,0.5246846675872803,-0.0464594699442386,-0.7761295437812805,-0.0501911826431751,-0.0154572278261184,0.0,0.0,0.245470643043518,-0.7160255908966064
-0.0126375202089548,0.5073034167289734,-0.0488839186728,-0.7724931836128235,-0.0499612353742122,0.0045986049808561,0.0,0.0,0.7926878929138184,-0.4231753349304199
-0.0131681440398097,0.490198016166687,-0.0526336319744586,-0.7602524161338806,-0.0503816418349742,-0.0084081161767244,0.0,0.0,-0.1171521544456482,-0.4954655170440674
-0.0137279508635401,0.4728142321109772,-0.0550682730972766,-0.7726436257362366,-0.0512884370982646,-0.0181356072425842,0.0,0.0,0.8304017782211304,-0.5399434566497803
-0.0142199518159031,0.4565073251724243,-0.0491512194275856,-0.7247517108917236,-0.0513332784175872,-0.0008970070630311,0.0,0.0,0.2108443975448608,-0.4165202379226684
-0.0147943496704101,0.4408257007598877,-0.0565353520214557,-0.6969926953315735,-0.0522336401045322,-0.018007168546319,0.0,0.0,0.7797622680664062,-0.7396109104156494
-0.0155925750732421,0.4254090189933777,-0.0795938298106193,-0.6851945519447327,-0.0524611882865428,-0.0045509859919548,0.0,0.0,0.7664306163787842,0.2605291604995727
-0.0163360591977834,0.4109765291213989,-0.0738554820418357,-0.6414613723754883,-0.0529519543051719,-0.0098153352737426,0.0,0.0,0.3638402223587036,0.5421333312988281
-0.0171357151120901,0.3969810307025909,-0.0777081996202468,-0.6221033334732056,-0.0551831722259521,-0.044624213129282,0.0,0.0,-0.0289022922515869,-0.6267094016075134
-0.0180233009159564,0.382714182138443,-0.0874270945787429,-0.6341282725334167,-0.0565024800598621,-0.0263858921825885,0.0,0.0,0.933473825454712,0.3528612852096557
-0.0189132690429687,0.3693958520889282,-0.0871506258845329,-0.5920000076293945,-0.0583288185298442,-0.0365268588066101,0.0,0.0,-0.073218286037445,0.5914926528930664
-0.0197848323732614,0.3557945489883423,-0.0835143849253654,-0.6046479940414429,-0.06193782761693,-0.0721799582242965,0.0,0.0,0.5187036991119385,-0.2225525379180908
-0.0206509586423635,0.3423840701580047,-0.0826263949275016,-0.5961891412734985,-0.065873347222805,-0.0787104293704032,0.0,0.0,0.9034245014190674,-0.2579270601272583
-0.0214159004390239,0.3293792009353637,-0.0725924521684646,-0.5781700611114502,-0.069733902812004,-0.0772111788392067,0.0,0.0,0.4523273706436157,-0.8881960511207581
-0.0221062656491994,0.3168390691280365,-0.0666796118021011,-0.5574522018432617,-0.0720711499452591,-0.0467449203133583,0.0,0.0,0.3109834194183349,-0.6708082556724548
-0.022741699591279,0.3044761419296264,-0.0623184256255626,,-0.0732742846012115,-0.024062979966402,0.0,0.0,0.690180778503418,0.0176014900207519
-0.0233636852353811,0.292985200881958,-0.0605612099170684,-0.5107879638671875,-0.0748983472585678,-0.0324809774756431,0.0,0.0,0.2368751764297485,-0.5872457027435303
-0.0240013115108013,0.2820721864700317,-0.0629609376192092,-0.4850632548332214,-0.0756896957755088,-0.0158270914107561,0.0,0.0,-0.5731360912322998,0.1387734413146972
-0.0246766097843647,0.2708808183670044,-0.0663552209734916,-0.4974547326564789,-0.0768567249178886,-0.0233404859900474,0.0,0.0,0.0486718416213989,-0.3368986845016479
-0.0253101345151662,0.2597135305404663,-0.0621068999171257,-0.4963859617710113,-0.0780937224626541,-0.0247398763895034,0.0,0.0,-0.0330331921577453,-0.6264243721961975
-0.0260356906801462,0.2482724338769912,-0.0723154917359352,-0.5085051655769348,-0.0783309563994407,-0.0047446829266846,0.0,0.0,0.6245748996734619,-0.1311409473419189
-0.0266502387821674,0.2378118187189102,-0.0612504780292511,-0.464924544095993,-0.0785293355584144,-0.0039677987806499,0.0,0.0,-0.8043093085289001,-0.1517087817192077
-0.0273033138364553,0.2270728200674057,-0.0647608414292335,-0.4773159027099609,-0.0790634751319885,-0.010682875290513,0.0,0.0,0.0856763124465942,0.0239081382751464
-0.0280351638793945,0.2168468087911605,-0.0719340443611145,-0.4545553624629974,-0.0803010687232017,-0.0247520413249731,0.0,0.0,-0.8696907162666321,0.3974615335464477
-0.0288057327270507,0.206342414021492,-0.0754896849393844,-0.4669466614723205,-0.0818529799580574,-0.0310382656753063,0.0,0.0,-0.5161666870117188,-0.540959894657135
-0.0296613685786724,0.1955692321062088,-0.0848734825849533,-0.4788457155227661,-0.0825336128473281,-0.0136129632592201,0.0,0.0,0.0187429189682006,-0.0608395934104919
-0.0305685997009277,0.1852141171693802,-0.0895051434636116,-0.4602929353713989,-0.0837422460317611,-0.024172943085432,0.0,0.0,-0.4488377571105957,-0.4380292892456054
-0.0315148346126079,0.1745806336402893,-0.0931158140301704,-0.4726840853691101,-0.0852314680814743,-0.0297844801098108,0.0,0.0,0.5231344699859619,-0.3748208880424499
-0.0325599685311317,0.1645111143589019,-0.1022344082593917,-0.4476648569107055,-0.0874872505664825,-0.0451155230402946,0.0,0.0,-0.37352454662323,-0.6007606983184814
-0.0337032303214073,0.1541696637868881,-0.1133098751306533,-0.4596819281578064,-0.0885045751929283,-0.0203463844954967,0.0,0.0,0.3193060159683227,0.3192846775054931
-0.0347506515681743,0.1443959027528762,-0.1038578376173973,-0.4344412982463836,-0.0893760025501251,-0.0174285992980003,0.0,0.0,0.0124902725219726,0.4012836217880249
-0.0357793793082237,0.1346765160560608,-0.1019340306520462,-0.4320308268070221,-0.0903069451451301,-0.0186188612133264,0.0,0.0,0.4845144748687744,0.5087723731994629
-0.036605454981327,0.1256822496652603,-0.0807846635580062,-0.3998556435108185,-0.0921132266521453,-0.0361255966126918,0.0,0.0,0.3003578186035156,-0.5087291598320007
-0.0374735817313194,0.1173342764377594,-0.0857531055808067,-0.3710859715938568,-0.0931583419442176,-0.020902557298541,0.0,0.0,0.3397974967956543,0.1995496749877929
-0.0382008552551269,0.10972660779953,-0.0720159485936164,-0.3381638526916504,-0.0938654318451881,-0.0141414459794759,0.0,0.0,-0.5610209107398987,-0.3082935810089111
-0.0389669425785541,0.1018404066562652,-0.0757158622145652,-0.3505544066429138,-0.0947575122117996,-0.0178414322435855,0.0,0.0,0.3060414791107178,0.7584662437438965
-0.039656925946474,0.0946394279599189,-0.0663980618119239,-0.3202079236507416,-0.0973400697112083,-0.0516513362526893,0.0,0.0,-0.1192458271980285,-0.3891855478286743
-0.0403857231140136,0.0871600732207298,-0.070109985768795,-0.3325988948345184,-0.1000834554433822,-0.0548677816987037,0.0,0.0,0.5069577693939209,-0.3517554998397827
-0.0410382263362407,0.0800153091549873,-0.0626766979694366,-0.3177164793014526,-0.102635733783245,-0.0510455146431922,0.0,0.0,0.4638509750366211,-0.8611137866973877
-0.0418622978031635,0.0734402537345886,-0.0812810659408569,-0.2923033535480499,-0.1037599742412567,-0.0224847234785556,0.0,0.0,0.2870786190032959,0.3129061460494995
-0.0427828803658485,0.0672004297375679,-0.0903297141194343,-0.2774446904659271,-0.1054719761013984,-0.0342399813234806,0.0,0.0,0.713834285736084,0.8400558233261108
-0.0436388030648231,0.0615474097430706,-0.0820184201002121,-0.2515031099319458,-0.1090165823698043,-0.0708919838070869,0.0,0.0,0.117272138595581,0.908674955368042
-0.0444018356502056,0.0561371408402919,-0.0708102211356163,-0.2408652603626251,-0.1144735217094421,-0.1091387122869491,0.0,0.0,0.3170175552368164,-0.0784624814987182
-0.0450668334960937,0.0508580543100833,-0.0614043250679969,-0.2350280433893203,-0.1195397302508354,-0.1013242155313491,0.0,0.0,0.2838171720504761,0.6871161460876465
-0.0455683693289756,0.0460702031850814,-0.0437297597527504,-0.2133195698261261,-0.1259276270866394,-0.1277579367160797,0.0,0.0,0.048416256904602,-0.3097665309906006
-0.046027660369873,0.0417630039155483,-0.0395211055874824,-0.1919848620891571,-0.1323110163211822,-0.1276674419641494,0.0,0.0,0.1471664905548095,-0.061914324760437
