x_pos,y_pos,x_vel,y_vel,angle,ang_vel,leg_1,leg_2,main_booster,lat_booster
-0.0014617920387536,1.4034950733184814,-0.1480960547924041,-0.3299989998340606,0.0017106985906139,0.0337414629757404,0.0,0.0,0.0017127990722656,0.7340497970581055
-0.0027683258522301,1.3963801860809326,-0.1308788955211639,-0.3162212073802948,0.0019377059070393,0.0045412294566631,0.0,0.0,-0.225630521774292,0.6208022832870483
-0.0039536477997899,1.38913094997406,-0.117236278951168,-0.3221873641014099,0.0006544365896843,-0.0256678201258182,0.0,0.0,-0.0607389211654663,0.3551526069641113
-0.0050777434371411,1.381752371788025,-0.111107051372528,-0.3279378116130829,-0.000634882831946,-0.0257886014878749,0.0,0.0,0.1385893821716308,0.4990735054016113
-0.0060518262907862,1.3749183416366575,-0.0965356677770614,-0.3037294745445251,-0.0015010400675237,-0.0173248723149299,0.0,0.0,-0.4488032460212707,0.3437812328338623
-0.0069656372070312,1.367954969406128,-0.0905025973916053,-0.3094836175441742,-0.0023654818069189,-0.0172903425991535,0.0,0.0,-0.773971676826477,0.399605393409729
-0.0078195575624704,1.3608622550964355,-0.0845215767621994,-0.3152301013469696,-0.0032236317638307,-0.0171646755188703,0.0,0.0,-0.7267163991928101,0.7429132461547852
-0.0085411071777343,1.353642225265503,-0.0694426000118255,-0.3209021687507629,-0.0059068449772894,-0.0536694042384624,0.0,0.0,-0.6907697319984436,-0.4360963106155395
-0.0092039108276367,1.3462928533554075,-0.0635714754462242,-0.3266511559486389,-0.0085751796141266,-0.0533713698387146,0.0,0.0,-0.9136133790016174,-0.6785048246383667
-0.009861946105957,1.338819146156311,-0.0644756406545639,-0.3321738243103027,-0.0098801478743553,-0.0261019859462976,0.0,0.0,-0.8448930382728577,-0.4077361822128296
-0.0104622840881347,1.3312159776687622,-0.0587406866252422,-0.3379226922988891,-0.0111647574231028,-0.0256944447755813,0.0,0.0,-0.9568406939506532,0.0550267696380615
-0.0110058784484863,1.3234835863113403,-0.0530777350068092,-0.3436715006828308,-0.0124248135834932,-0.0252036750316619,0.0,0.0,-0.9008952379226683,-0.4718790054321289
-0.0114933010190725,1.3156219720840454,-0.0474916249513626,-0.3494203388690948,-0.0136575093492865,-0.0246562920510768,0.0,0.0,-0.9264711141586304,0.673938512802124
-0.0118661876767873,1.3076233863830566,-0.0345621183514595,-0.3555158674716949,-0.01634968444705,-0.0538484156131744,0.0,0.0,-0.8337764143943787,-0.3140606880187988
-0.0121844289824366,1.2994956970214844,-0.0291397478431463,-0.3612650334835052,-0.0190077945590019,-0.0531674101948738,0.0,0.0,-0.965575873851776,-0.8153941035270691
-0.0125018116086721,1.29123055934906,-0.03042515181005,-0.3673563301563263,-0.0203070994466543,-0.0259883068501949,0.0,0.0,-0.8780980706214905,-0.6830498576164246
-0.0128080369904637,1.2828452587127686,-0.0304022636264562,-0.3726811707019806,-0.0205221623182296,-0.0043019228614866,0.0,0.0,-0.8644648790359497,-0.3209542036056518
-0.013062572106719,1.274330496788025,-0.0252787582576274,-0.3784300982952118,-0.0206966213881969,-0.0034893662668764,0.0,0.0,-0.9580910205841064,-0.2453183531761169
-0.0132665634155273,1.2656866312026978,-0.0202633813023567,-0.3841791152954101,-0.0208277162164449,-0.0026220378931611,0.0,0.0,-0.9467952847480774,-0.6264920830726624
-0.0134772304445505,1.256914734840393,-0.0224016141146421,-0.3898438215255737,-0.0195026565343141,0.026503587141633,0.0,0.0,-0.7740945219993591,-0.4821265339851379
-0.0136395450681447,1.2480134963989258,-0.0176247414201498,-0.3955927789211273,-0.018130837008357,0.0274389572441577,0.0,0.0,-0.9195295572280884,-0.0814650654792785
-0.0137548446655273,1.2389830350875854,-0.0129733486101031,-0.4013418853282928,-0.0167092867195606,0.0284337159246206,0.0,0.0,-0.7678982019424438,0.2331745624542236
-0.0138243678957223,1.2298229932785034,-0.0084540443494915,-0.4070909917354584,-0.0152362463995814,0.0294636636972427,0.0,0.0,-0.83700031042099,-0.527287483215332
-0.0138866426423192,1.2205287218093872,-0.0087036285549402,-0.4130536615848541,-0.0127834621816873,0.0490600802004337,0.0,0.0,-0.966704785823822,0.1833374500274658
-0.0139060020446777,1.211105227470398,-0.0044692452065646,-0.4188030958175659,-0.010275823995471,0.0501572079956531,0.0,0.0,-0.981202244758606,-0.1761185526847839
-0.0138839725404977,1.2015310525894165,-0.0003987460513599,-0.4255062937736511,-0.0077106254175305,0.0513040050864219,0.0,0.0,-0.8981218338012695,-0.4187715053558349
-0.0138219837099313,1.191827654838562,0.0035372585989534,-0.4312537312507629,-0.0050857574678957,0.0524973794817924,0.0,0.0,-0.8925102949142456,0.0467838048934936
-0.0137216569855809,1.1819950342178345,0.0073117688298225,-0.4370011389255523,-0.0023990799672901,0.0537333488464355,0.0,0.0,-0.945373833179474,-0.5493370294570923
-0.0136374477297067,1.172037959098816,0.0042835678905248,-0.4425363540649414,0.0016805432969704,0.0815925300121307,0.0,0.0,-0.9416667222976683,0.094541311264038
-0.0135183334350585,1.161951780319214,0.0077186115086078,-0.4482846260070801,0.0058261072263121,0.0829111114144325,0.0,0.0,-0.888853132724762,0.2594091892242431
-0.0133659364655613,1.1517364978790283,0.0109761850908398,-0.4540329575538635,0.0100396014750003,0.084270030260086,0.0,0.0,-0.8946744203567505,0.0734761953353881
-0.0131820682436227,1.1413923501968384,0.0140515342354774,-0.4597813785076141,0.0143230352550745,0.0856683999300003,0.0,0.0,-0.9431941509246826,0.583592414855957
-0.0129286767914891,1.130925178527832,0.0219350587576627,-0.4652385711669922,0.0176765620708465,0.0670705363154411,0.0,0.0,-0.6580727696418762,0.4286313056945801
-0.0126476287841796,1.1203289031982422,0.0246331728994846,-0.4709864854812622,0.0211038812994956,0.0685464292764663,0.0,0.0,-0.9474010467529296,0.6014542579650879
-0.0122920032590627,1.109606385231018,0.0332676656544208,-0.4765924513339996,0.0233783069998025,0.0454883016645908,0.0,0.0,-0.9434821009635924,0.4724112749099731
-0.011912440881133,1.098754644393921,0.0355743765830993,-0.4823398888111114,0.0257302671670913,0.0470392741262912,0.0,0.0,-0.8661535382270813,0.5047118663787842
-0.0114727970212697,1.0877724885940552,0.0424773916602134,-0.4881199896335602,0.027201771736145,0.0294300131499767,0.0,0.0,-0.9206751585006714,0.3236401081085205
-0.0110132219269871,1.0766611099243164,0.0443824864923954,-0.4938671886920929,0.0287544596940279,0.0310538318008184,0.0,0.0,-0.9225654006004332,0.5549770593643188
-0.0104948999360203,1.065428376197815,0.0512212328612804,-0.4992417991161346,0.029357723891735,0.0120654106140136,0.0,0.0,-0.9408878087997437,-0.2657379508018493
-0.0099607463926076,1.05406653881073,0.052718810737133,-0.5049889087677002,0.030045710504055,0.0137597694993019,0.0,0.0,-0.9722335934638976,-0.3646526336669922
-0.0094127655029296,1.0425752401351929,0.0540118291974067,-0.5107360482215881,0.0308201238512992,0.0154883982613682,0.0,0.0,-0.8671043515205383,0.4424731731414795
-0.0088529586791992,1.0309547185897827,0.0551005229353904,-0.5164831876754761,0.0316826254129409,0.0172506272792816,0.0,0.0,-0.9344890713691713,0.4082705974578857
-0.0082834241911768,1.0192049741744995,0.0559856966137886,-0.5222303867340088,0.032634899020195,0.0190457291901111,0.0,0.0,-0.9409610033035278,0.1514060497283935
-0.0077061653137207,1.0073260068893433,0.0566686987876892,-0.5279775857925415,0.0336785390973091,0.0208728089928627,0.0,0.0,-0.8798561692237854,-0.2252019643783569
-0.0071230889298021,0.9953176975250244,0.0571514293551445,-0.533724844455719,0.0348150916397571,0.022731214761734,0.0,0.0,-0.9251266717910768,0.0493966341018676
-0.0065362928435206,0.9831802248954772,0.0574362874031066,-0.5394719839096069,0.036046102643013,0.0246201567351818,0.0,0.0,-0.8064522743225098,-0.2125471830368042
-0.0059475898742675,0.9709134697914124,0.057526160031557,-0.5452193021774292,0.0373730286955833,0.0265386644750833,0.0,0.0,-0.7767898440361023,0.7360676527023315
-0.005311775021255,0.9585281014442444,0.0633457452058792,-0.5504674315452576,0.0376052372157573,0.0046440572477877,0.0,0.0,-0.8615007996559143,0.3760933876037597
-0.0046778679825365,0.9460133910179138,0.0630561038851738,-0.5562145709991455,0.037936195731163,0.0066188066266477,0.0,0.0,-0.8603665828704834,0.4692699909210205
-0.0040476797148585,0.9333695769309998,0.06258275359869,-0.5619617700576782,0.0383672080934047,0.0086201950907707,0.0,0.0,-0.9336554408073424,0.0121062994003295
-0.003423023270443,0.9205963611602784,0.0619301907718181,-0.5677089095115662,0.0388995669782161,0.0106471804901957,0.0,0.0,-0.7378584742546082,0.4418942928314209
-0.00280551915057,0.9076940417289734,0.0611032173037529,-0.5734560489654541,0.0395344980061054,0.0126986056566238,0.0,0.0,-0.920333981513977,0.1906105279922485
-0.0021969794761389,0.8946623206138611,0.0601069256663322,-0.5792033076286316,0.0402731522917747,0.0147733660414814,0.0,0.0,-0.8877929449081421,0.4490267038345337
-0.0015989303356036,0.8815013766288757,0.0589466169476509,-0.5849505066871643,0.041116677224636,0.0168703384697437,0.0,0.0,-0.9130865335464478,0.5462417602539062
-0.0009592056157998,0.8682126402854919,0.0643937960267067,-0.5906038284301758,0.0407107919454574,-0.0081177707761526,0.0,0.0,-0.7623714804649353,0.0811507701873779
-0.0003329277096781,0.854794442653656,0.0629220679402351,-0.5963509678840637,0.0404117926955223,-0.0059798778966069,0.0,0.0,-0.8602305054664612,0.4073027372360229
0.0002780914364848,0.8412472009658813,0.0613032281398773,-0.6020982265472412,0.040220633149147,-0.0038233255036175,0.0,0.0,-0.8144323825836182,-0.0154591798782348
0.0008728027460165,0.8275704979896545,0.0595431327819824,-0.6078453063964844,0.0401381626725196,-0.0016493222210556,0.0,0.0,-0.8841491937637329,0.2846962213516235
0.0014495849609375,0.8137646317481995,0.057647705078125,-0.6135925054550171,0.0401652157306671,0.0005410402081906,0.0,0.0,-0.9157045483589172,0.8538200855255127
0.002065849257633,0.7998407483100891,0.0630032867193222,-0.6188105940818787,0.0388176254928112,-0.0269518382847309,0.0,0.0,-0.8730934858322144,-0.638954222202301
0.0026158331893384,0.7857791185379028,0.0550685748457908,-0.6249545216560364,0.0387447588145732,-0.0014572672080248,0.0,0.0,-0.8508475422859192,0.6978131532669067
0.0031901360489428,0.7715947031974792,0.0585646033287048,-0.630391538143158,0.0376258790493011,-0.0223775524646043,0.0,0.0,-0.6984771490097046,-0.3157598376274109
0.0037418366409838,0.7572810053825378,0.0561871342360973,-0.6361387372016907,0.0366191230714321,-0.0201349519193172,0.0,0.0,-0.5362892746925354,-0.4168975353240967
0.0042697908356785,0.7428380250930786,0.0537038557231426,-0.6418859958648682,0.0357250161468982,-0.0178823955357074,0.0,0.0,-0.8220164775848389,0.7302485704421997
0.0048316954635083,0.7282636761665344,0.0584740117192268,-0.6476984620094299,0.0334731638431549,-0.0450373105704784,0.0,0.0,-0.6759644150733948,-0.2162064909934997
0.0053680418059229,0.713560163974762,0.055796343833208,-0.6534460783004761,0.0313347093760967,-0.0427687875926494,0.0,0.0,-0.7903506755828857,-0.6652047634124756
0.0058268546126782,0.6987326145172119,0.0466475561261177,-0.6589820384979248,0.0305850114673376,-0.014994166791439,0.0,0.0,-0.8800780177116394,0.589195966720581
0.0063116075471043,0.6837713122367859,0.0504569411277771,-0.6649063229560852,0.028618374839425,-0.0393328964710235,0.0,0.0,-0.7324926257133484,-0.0639964938163757
0.0067681311629712,0.6686808466911316,0.0475293137133121,-0.6706536412239075,0.0267658587545156,-0.0370502285659313,0.0,0.0,-0.7501128315925598,-0.2666966915130615
0.0071957586333155,0.6534610986709595,0.0445290729403495,-0.6764010787010193,0.0250275917351245,-0.0347654670476913,0.0,0.0,-0.3976328372955322,-0.6884710192680359
0.0075310706160962,0.6381127238273621,0.0335807688534259,-0.6821521520614624,0.0249813422560691,-0.000925121246837,0.0,0.0,-0.5431110262870789,-0.3975023031234741
0.0078363418579101,0.622635006904602,0.0304506756365299,-0.6878992915153503,0.0250493250787258,0.001359577756375,0.0,0.0,-0.7086656093597412,-0.2341269254684448
0.0081108091399073,0.607028067111969,0.0272631254047155,-0.6936463713645935,0.0252314265817403,0.0036421555560082,0.0,0.0,-0.733340322971344,0.2679775953292846
0.0083539960905909,0.5912918448448181,0.0240229554474353,-0.6993934512138367,0.0255274884402751,0.0059212171472609,0.0,0.0,-0.7422506213188171,0.3498208522796631
0.0085655208677053,0.5754263401031494,0.0207348801195621,-0.7051405310630798,0.0259372536092996,0.008195312693715,0.0,0.0,-0.6998841166496277,0.1363618373870849
0.0087449075654149,0.5594315528869629,0.0174035057425498,-0.7108876705169678,0.0264603942632675,0.0104629537090659,0.0,0.0,-0.3877383470535278,0.6062242984771729
0.0089371679350733,0.5433032512664795,0.0197456963360309,-0.7168028950691223,0.0259546469897031,-0.0101151559501886,0.0,0.0,-0.7731834650039673,-0.4955582618713379
0.0090965274721384,0.527045726776123,0.0163411404937505,-0.7225500345230103,0.0255614053457975,-0.0078649716451764,0.0,0.0,-0.4451738595962524,-0.1452863216400146
0.0092226983979344,0.5106589198112488,0.0129065047949552,-0.7282971143722534,0.0252801273018121,-0.0056257834658026,0.0,0.0,-0.1816437244415283,0.0823240280151367
0.0093153957277536,0.4941428899765014,0.0094460006803274,-0.7340441942214966,0.0251101721078157,-0.00339922378771,0.0,0.0,-0.1855865120887756,-0.1940624117851257
0.0093744276091456,0.4774975776672363,0.00596375297755,-0.7397912740707397,0.0250508356839418,-0.0011869429145008,0.0,0.0,0.5289051532745361,-0.4453535079956054
0.0094185825437307,0.4618213176727295,0.0041910684667527,-0.6967251300811768,0.0252739712595939,0.004462543874979,0.0,0.0,-0.1267918348312378,-0.2628352642059326
0.0094286920502781,0.4460158348083496,0.0006773738423362,-0.7024722695350647,0.0256060287356376,0.0066412142477929,0.0,0.0,0.1424638032913208,0.5145998001098633
0.0093917846679687,0.4307861030101776,-0.0030170590616762,-0.6768680810928345,0.0249401442706584,-0.0133176688104867,0.0,0.0,-0.1282563805580139,0.0956811904907226
0.0093207359313964,0.4154270589351654,-0.0065466561354696,-0.6826151609420776,0.0243811551481485,-0.0111796017736196,0.0,0.0,0.6940734386444092,-0.1564656496047973
0.0092902183532714,0.4008365571498871,-0.0030111768282949,-0.6484641432762146,0.0243415478616952,-0.0007924285018816,0.0,0.0,-0.696509599685669,-0.0961189270019531
0.0092253684997558,0.3861168622970581,-0.0065416856668889,-0.6542112231254578,0.0244064182043075,0.0012976406142115,0.0,0.0,-0.6026737689971924,-0.0132993459701538
0.0091263772919774,0.3712678849697113,-0.0100671863183379,-0.6599583029747009,0.0245744623243808,0.0033608158119022,0.0,0.0,0.429656982421875,0.1913224458694458
0.0091084484010934,0.3570352792739868,-0.0026653823442757,-0.6325731873512268,0.0254331268370151,0.0171735975891351,0.0,0.0,0.0027905702590942,-0.116141676902771
0.0091350553557276,0.3430356681346893,0.0012840136187151,-0.6222298741340637,0.0267833676189184,0.0270050670951604,0.0,0.0,0.7573089599609375,0.5764786005020142
0.0091453548520803,0.3301106989383697,0.0007439608452841,-0.5744460225105286,0.0270680151879787,0.0056929602287709,0.0,0.0,-0.2295988798141479,0.1515918970108032
0.0091219898313283,0.3170565068721771,-0.0027263797819614,-0.5801931619644165,0.0274494625627994,0.007628958672285,0.0,0.0,0.4720239639282226,0.2798097133636474
0.0091596599668264,0.304768830537796,0.0027687291149049,-0.5461384654045105,0.0284391697496175,0.0197939053177833,0.0,0.0,-0.1186645627021789,0.5584391355514526
0.0092157367616891,0.2923482060432434,0.0058285659179091,-0.5520237684249878,0.0282257311046123,-0.0042687654495239,0.0,0.0,0.1165081262588501,0.0438324213027954
0.0091937063261866,0.2803128063678741,-0.0019183533731848,-0.5349009037017822,0.0279389768838882,-0.0057352362200617,0.0,0.0,-0.4944006204605102,0.1751519441604614
0.0091388700529932,0.2681481838226318,-0.0052797426469624,-0.5406480431556702,0.0277410205453634,-0.0039593214169144,0.0,0.0,0.4900635480880737,0.2008727788925171
0.009016322903335,0.2566230297088623,-0.0120315309613943,-0.5122249722480774,0.0275323018431663,-0.0041744071058928,0.0,0.0,0.3739038705825805,0.5043284893035889
0.0087718963623046,0.2459622174501419,-0.0230345167219638,-0.4737895727157593,0.0261327270418405,-0.0279912464320659,0.0,0.0,0.362053632736206,0.2706788778305053
0.0085524562746286,0.2360376268625259,-0.0209448598325252,-0.4410760700702667,0.025146821513772,-0.0197182334959507,0.0,0.0,-0.1176595091819763,0.1930410861968994
0.008301829919219,0.2259837687015533,-0.0241466090083122,-0.4468231797218323,0.0242400635033845,-0.0181350689381361,0.0,0.0,0.2993402481079101,0.076733112335205
0.0079411510378122,0.2166813760995865,-0.0349260345101356,-0.4134221374988556,0.0231088232249021,-0.0226248167455196,0.0,0.0,-0.3140727281570434,-0.4406307935714721
0.0075500486418604,0.207249715924263,-0.038029994815588,-0.4191693067550659,0.0220513399690389,-0.0211495906114578,0.0,0.0,0.0107725858688354,0.5552613735198975
0.0070852278731763,0.1982399374246597,-0.0442485697567462,-0.4004031121730804,0.0198441669344902,-0.0441436320543289,0.0,0.0,0.03132164478302,0.4632284641265869
0.0064908028580248,0.1895884871482849,-0.056842602789402,-0.3844768702983856,0.0172704569995403,-0.0514740124344825,0.0,0.0,-0.1527539491653442,0.3404076099395752
0.0058675766922533,0.1808078587055206,-0.0597788020968437,-0.3902243971824646,0.0147617710754275,-0.0501735396683216,0.0,0.0,-0.1697510480880737,0.1268103122711181
0.0052162171341478,0.1718979924917221,-0.0626537799835205,-0.3959718644618988,0.0123150581493973,-0.0489343926310539,0.0,0.0,-0.5004352331161499,0.3471789360046386
0.0045373914763331,0.1628588736057281,-0.0654649883508682,-0.4017192721366882,0.009927169419825,-0.0477578975260257,0.0,0.0,0.1925143003463745,-0.1249024271965026
0.0038096427451819,0.1545304358005523,-0.0703381299972534,-0.3701365888118744,0.0075185061432421,-0.0481731928884983,0.0,0.0,-0.4291044473648071,-0.022881805896759
0.0030555725097656,0.1460728198289871,-0.0730146169662475,-0.3758839964866638,0.005162245593965,-0.0471253730356693,0.0,0.0,-0.3248519897460937,0.3312915563583374
0.0022760392166674,0.1374859660863876,-0.0756203457713127,-0.3816313743591308,0.0028550825081765,-0.0461432971060276,0.0,0.0,-0.4199342727661133,0.9179999828338624
0.0015433311928063,0.1287795156240463,-0.0691484436392784,-0.3869529068470001,-0.0012101021129637,-0.0813035517930984,0.0,0.0,0.1172924041748046,0.0332217216491699
0.0008282661437988,0.1207427605986595,-0.067629799246788,-0.3571968972682953,-0.0050430935807526,-0.0766595974564552,0.0,0.0,0.021216869354248,0.5852031707763672
0.000193500512978,0.1129983961582183,-0.0585327744483947,-0.3442199528217315,-0.0099261123687028,-0.0976605489850044,0.0,0.0,0.1099829673767089,-0.6051827669143677
-0.0005996703985147,0.1057510673999786,-0.0754825472831726,-0.3221305906772613,-0.0137057155370712,-0.0755921751260757,0.0,0.0,0.1045931577682495,0.0527881383895874
-0.0014957428211346,0.0988926962018013,-0.0854118019342422,-0.3048619031906128,-0.0178500544279813,-0.0828866809606552,0.0,0.0,-0.2577694654464721,-0.0206700563430786
-0.0024129867088049,0.0919052213430404,-0.0875529274344444,-0.3106101751327514,-0.0219654627144336,-0.0823083966970443,0.0,0.0,0.2324731349945068,0.465217113494873
-0.0033224106300622,0.0853847339749336,-0.0868899896740913,-0.2898621261119842,-0.0259657558053731,-0.0800055712461471,0.0,0.0,0.2371156215667724,0.6829749345779419
-0.0040809633210301,0.0791263878345489,-0.0706077069044113,-0.2782464921474457,-0.0311450064182281,-0.1035853773355484,0.0,0.0,-0.1086289882659912,-0.1721974015235901
-0.0048582078889012,0.072739154100418,-0.0724971294403076,-0.2839955687522888,-0.0363053828477859,-0.1032075658440589,0.0,0.0,0.1594083309173584,0.076188325881958
-0.0056151389144361,0.0670705437660217,-0.0705691426992416,-0.2520721852779388,-0.041368830949068,-0.101268745958805,0.0,0.0,-0.3813207149505615,-0.6001483798027039
-0.0064317705109715,0.0612688176333904,-0.0776292458176612,-0.2579707503318786,-0.0453531816601753,-0.0796872451901435,0.0,0.0,0.0433548688888549,0.0196844339370727
