x_pos,y_pos,x_vel,y_vel,angle,ang_vel,leg_1,leg_2,main_booster,lat_booster
-0.0015817641979083,1.403010010719299,-0.1600350886583328,-0.3515663146972656,0.0016631786711513,0.0328004322946071,0.0,0.0,0.791306919251201,0.9837060580853468
-0.0030836104415357,1.395254135131836,-0.149810791015625,-0.3447073996067047,0.0012991286348551,-0.0072810822166502,0.0,0.0,-0.2573734117046919,-0.6823101938171221
-0.0046872138045728,1.3868778944015503,-0.160911276936531,-0.3722781240940094,0.0018463646993041,0.0109458183869719,0.0,0.0,0.7730630686157067,0.5557301623840328
-0.0064453124068677,1.3786892890930176,-0.1747148782014846,-0.3639371991157532,0.0007608710438944,-0.0217117592692375,0.0,0.0,0.9628311701724884,0.9013084060837504
-0.0080260280519723,1.37105131149292,-0.1553976833820343,-0.3394721746444702,-0.0018858758267015,-0.0529401823878288,0.0,0.0,-0.4108830644894925,0.9887736364218216
-0.0095731737092137,1.3627969026565552,-0.1494782865047454,-0.3668730556964874,-0.0070616663433611,-0.1035251468420028,0.0,0.0,0.5667102676773756,0.8401750671875586
-0.0111365318298339,1.3547496795654297,-0.1492498219013214,-0.3577068150043487,-0.0140622938051819,-0.1400252282619476,0.0,0.0,-0.5603585902704156,-0.754593020899682
-0.0128071783110499,1.346091389656067,-0.1610043495893478,-0.3848828375339508,-0.0200556274503469,-0.1198777705430984,0.0,0.0,0.4448065871943347,-0.5456831060646394
-0.0145805357024073,1.3379240036010742,-0.1722252070903778,-0.3630701303482055,-0.0251098927110433,-0.1010945811867713,0.0,0.0,-0.8653994238620195,0.9704882028749556
-0.0163409225642681,1.3291456699371338,-0.1688731610774994,-0.3902884721755981,-0.0321917794644832,-0.141650766134262,0.0,0.0,0.7079377686397761,0.9890080331236892
-0.0179669372737407,1.320667028427124,-0.1534984707832336,-0.377046138048172,-0.0411922484636306,-0.1800257563591003,0.0,0.0,0.3485166445164762,0.7721996425595301
-0.0195131301879882,1.3122118711471558,-0.1439822018146515,-0.3761113882064819,-0.0517260804772377,-0.2106962203979492,0.0,0.0,-0.206953182597273,0.6511141835857305
-0.02106056176126,1.3031423091888428,-0.1424310505390167,-0.4035603702068329,-0.0639196336269378,-0.2438933551311493,0.0,0.0,-0.7694208039721777,-0.5691300889348947
-0.0227115638554096,1.2934585809707642,-0.1537132412195205,-0.4309088885784149,-0.0751969143748283,-0.2255658358335495,0.0,0.0,-0.3834067780337988,-0.7037038125028318
-0.0244679450988769,1.2831740379333496,-0.1652838885784149,-0.4576455354690552,-0.0854792743921279,-0.2056658715009689,0.0,0.0,0.9564506746739708,-0.780646977349903
-0.0261793136596679,1.2727826833724976,-0.1625911295413971,-0.4623390734195709,-0.0939552038908004,-0.1695341020822525,0.0,0.0,-0.2485141613778099,0.8173415545850415
-0.0278743747621774,1.2617764472961426,-0.1589027345180511,-0.4898672103881836,-0.1044903397560119,-0.2107215821743011,0.0,0.0,0.5404216591945528,-0.952084177312086
-0.0295214653015136,1.25065815448761,-0.1561354547739029,-0.4947661161422729,-0.1130139827728271,-0.170488178730011,0.0,0.0,-0.2504358354505949,0.5186512293512311
-0.0311834327876567,1.2389230728149414,-0.1563865840435028,-0.5223264098167419,-0.1227868571877479,-0.1954750716686248,0.0,0.0,-0.0429406990494434,-0.703190387558694
-0.0329699516296386,1.226585865020752,-0.1704059541225433,-0.5490204691886902,-0.1310115754604339,-0.1645089387893676,0.0,0.0,-0.1197735601673548,0.5284690489073331
-0.0347677245736122,1.2136290073394775,-0.1702078282833099,-0.5767272114753723,-0.1405481696128845,-0.1907495409250259,0.0,0.0,0.1086749510031175,-0.8846004064206987
-0.0366452224552631,1.2005072832107544,-0.179941177368164,-0.5839409232139587,-0.1483447104692459,-0.1559448987245559,0.0,0.0,-0.6724039216919557,-0.5686470240858934
-0.0386178009212017,1.1867786645889282,-0.190338522195816,-0.610866129398346,-0.1552706509828567,-0.1385309994220733,0.0,0.0,-0.760749440340543,-0.6550325167302842
-0.0406958572566509,1.1724393367767334,-0.2020299434661865,-0.6379141211509705,-0.1610542386770248,-0.11568184196949,0.0,0.0,-0.0111884333467418,-0.9544995746145102
-0.0429242141544818,1.157510757446289,-0.219421699643135,-0.6638669967651367,-0.1644794791936874,-0.0685107558965683,0.0,0.0,0.6922027766889953,-0.8062411348779492
-0.0453194603323936,1.1430739164352417,-0.2374222576618194,-0.6418715119361877,-0.1665846407413482,-0.0421033799648284,0.0,0.0,-0.921679540948146,0.929975322444852
-0.0476979240775108,1.1280100345611572,-0.2338754832744598,-0.6699588894844055,-0.170550599694252,-0.0793191790580749,0.0,0.0,-0.7604236754831619,-0.5317776129402243
-0.0501815788447856,1.1123501062393188,-0.2457201182842254,-0.696304976940155,-0.173198714852333,-0.0529621616005897,0.0,0.0,0.5126014911994898,-0.8905716326649862
-0.0527982711791992,1.0971835851669312,-0.260682076215744,-0.6741818189620972,-0.1741982549428939,-0.0199905075132846,0.0,0.0,0.0772541631628154,0.5812968690676191
-0.0553830154240131,1.0818620920181274,-0.2563161253929138,-0.6812105774879456,-0.1763545274734497,-0.0431253835558891,0.0,0.0,0.2969981291725396,-0.8453924825353554
-0.0579505935311317,1.0669299364089966,-0.2563547790050506,-0.663697361946106,-0.1767552495002746,-0.0080145318061113,0.0,0.0,0.5726519823074341,0.4489960670471191
-0.0605675689876079,1.0520187616348269,-0.260997861623764,-0.6628066897392273,-0.1774519681930542,-0.0139346253126859,0.0,0.0,0.6923820972442627,0.4545546770095825
-0.0631709098815918,1.0377274751663208,-0.2593050897121429,-0.6352880597114563,-0.1784866452217102,-0.020693464204669,0.0,0.0,-0.8037485480308533,0.1301835775375366
-0.0658206939697265,1.0228216648101809,-0.2640031576156616,-0.6626014113426208,-0.1794614344835281,-0.0194957051426172,0.0,0.0,-0.6031482815742493,0.4864203929901123
-0.0685149207711219,1.0073010921478271,-0.2685185670852661,-0.6899145841598511,-0.1803700476884842,-0.0181722193956375,0.0,0.0,0.7561295032501221,0.7238433361053467
-0.0710297599434852,0.9923363924026488,-0.2492524087429046,-0.6653695702552795,-0.1826091557741165,-0.0447820089757442,0.0,0.0,-0.3601012229919433,0.1661263704299926
-0.0735849365592002,0.976756989955902,-0.2533696293830871,-0.6926829814910889,-0.184770330786705,-0.0432234928011894,0.0,0.0,0.8850014209747314,0.6499524116516113
-0.075921818614006,0.961821436882019,-0.2304355651140213,-0.6642118096351624,-0.1880304366350174,-0.0652023702859878,0.0,0.0,-0.5128573775291443,0.4404975175857544
-0.0782944709062576,0.9462711811065674,-0.234109878540039,-0.6915254592895508,-0.1912021189928054,-0.0634333416819572,0.0,0.0,0.613250732421875,-0.3691056370735168
-0.0805605873465538,0.9309725761413574,-0.2236816138029098,-0.680322527885437,-0.1941529363393783,-0.0590160973370075,0.0,0.0,-0.181371808052063,-0.6177517175674438
-0.082913301885128,0.915080726146698,-0.2338887453079223,-0.7064797282218933,-0.1955420821905136,-0.0277828238904476,0.0,0.0,-0.7636324167251587,-0.2088372707366943
-0.0852942466735839,0.8985742330551147,-0.2368140667676925,-0.7337923645973206,-0.1968294382095337,-0.025747025385499,0.0,0.0,0.8602464199066162,-0.6971101760864258
-0.0875706672668457,0.8819462656974792,-0.2281293123960495,-0.7389567494392395,-0.1963362097740173,0.0098644811660051,0.0,0.0,0.55440354347229,-0.7020882964134216
-0.0897265449166297,0.8654198050498962,-0.2177933156490326,-0.7342127561569214,-0.194125235080719,0.04421953484416,0.0,0.0,0.6821980476379395,-0.3007864356040954
-0.091884896159172,0.848732054233551,-0.217955395579338,-0.7414036989212036,-0.1919935643672943,0.0426333956420421,0.0,0.0,-0.3562069535255432,-0.4143038988113403
-0.0940598472952842,0.8314293026924133,-0.2197283506393432,-0.7687163949012756,-0.1897469907999038,0.0449316538870334,0.0,0.0,0.6255106925964355,-0.0665466785430908
-0.0961062461137771,0.8141427040100098,-0.2072745859622955,-0.7679621577262878,-0.1871054172515869,0.0528318360447883,0.0,0.0,0.8751250505447388,-0.3390101194381714
-0.0981121063232421,0.7976714968681335,-0.2027499973773956,-0.7317809462547302,-0.1849344074726104,0.043419774621725,0.0,0.0,-0.7053077220916748,-0.3068511486053467
-0.1001248359680175,0.7805856466293335,-0.203551560640335,-0.7590935826301575,-0.1826420724391937,0.0458467304706573,0.0,0.0,0.1275584697723388,-0.1669901013374328
-0.1020920723676681,0.7634009122848511,-0.19905886054039,-0.7634822130203247,-0.1802936643362045,0.0469682291150093,0.0,0.0,0.4052019119262695,-0.3154509663581848
-0.1038518920540809,0.7462851405143738,-0.1790170669555664,-0.7603302597999573,-0.1772567629814148,0.0607381835579872,0.0,0.0,0.0576428174972534,-0.008144736289978
-0.1055611595511436,0.7292608618736267,-0.173909991979599,-0.7562825679779053,-0.1742652505636215,0.0598303601145744,0.0,0.0,-0.010193645954132,0.2963601350784302
-0.1072630882263183,0.7116218209266663,-0.1732977926731109,-0.783595621585846,-0.1711478680372238,0.0623473152518272,0.0,0.0,0.9152016639709472,0.3176132440567016
-0.1087926849722862,0.6947337985038757,-0.1562154442071914,-0.7502028942108154,-0.1678870767354965,0.0652160495519638,0.0,0.0,0.7079275846481323,0.2681577205657959
-0.1100712791085243,0.6779379844665527,-0.1319582909345626,-0.7460219860076904,-0.16378715634346,0.0819981843233108,0.0,0.0,0.7837319374084473,0.532829761505127
-0.1113153472542762,0.6612945795059204,-0.1272588521242141,-0.7393937706947327,-0.1609369814395904,0.0570036061108112,0.0,0.0,0.8095717430114746,0.2561479806900024
-0.1122954338788986,0.6453043222427368,-0.1014596074819564,-0.7103118300437927,-0.1574839949607849,0.0690595433115959,0.0,0.0,-0.0215568542480468,0.5555760860443115
-0.1131956130266189,0.6286889314651489,-0.0922332853078842,-0.738235354423523,-0.1552705019712448,0.0442698523402214,0.0,0.0,0.8917763233184814,0.259527325630188
-0.1138352379202842,0.6128358244895935,-0.0667030066251754,-0.7042949199676514,-0.1525357216596603,0.0546959452331066,0.0,0.0,0.5715935230255127,-0.6598610877990723
-0.1144562736153602,0.5975119471549988,-0.0661289691925048,-0.6806544661521912,-0.1485209614038467,0.0802950859069824,0.0,0.0,-0.1615330576896667,0.1316785812377929
-0.1150394454598426,0.5815734267234802,-0.0624665692448616,-0.7079684734344482,-0.1443821489810943,0.0827762186527252,0.0,0.0,0.6988157033920288,0.2078504562377929
-0.1155791282653808,0.566113293170929,-0.057766418904066,-0.6867571473121643,-0.1405971944332122,0.0756989419460296,0.0,0.0,0.6867291927337646,0.4196714162826538
-0.1158744841814041,0.5507961511611938,-0.0340387150645256,-0.6803411841392517,-0.136106938123703,0.0898055210709571,0.0,0.0,0.3831460475921631,0.4074845314025879
-0.1160313636064529,0.5356231331825256,-0.0204080268740654,-0.6739321351051331,-0.1314045637845993,0.0940474793314933,0.0,0.0,0.8404197692871094,0.0435727834701538
-0.1160680800676345,0.5204979777336121,-0.0085575375705957,-0.6718072295188904,-0.1265423148870468,0.0972451716661453,0.0,0.0,0.8371670246124268,0.1985924243927002
-0.1161017417907714,0.5057623386383057,-0.0077358759008347,-0.6545544266700745,-0.1221985965967178,0.0868745073676109,0.0,0.0,0.2298932075500488,-0.0814409255981445
-0.1159815788269043,0.4913577437400818,0.0074442266486585,-0.6398372650146484,-0.1176641285419464,0.090689443051815,0.0,0.0,-0.1168810129165649,0.2140741348266601
-0.1157978996634483,0.4763387441635132,0.0136965839192271,-0.6671521067619324,-0.113014280796051,0.0929968878626823,0.0,0.0,0.9379661083221436,-0.1845257878303527
-0.1154025048017501,0.4621923267841339,0.0345917828381061,-0.6283619403839111,-0.1081039384007453,0.0982067883014679,0.0,0.0,0.6619322299957275,0.1769924163818359
-0.1149794608354568,0.4481569528579712,0.0376915670931339,-0.6234692335128784,-0.1035192012786865,0.0916948467493057,0.0,0.0,0.7744078636169434,-0.0846080780029296
-0.1145055741071701,0.4346073567867279,0.0431156940758228,-0.6019139885902405,-0.0992799550294876,0.0847849994897842,0.0,0.0,0.4864025115966797,-0.4736871719360351
-0.1138718575239181,0.4212748408317566,0.0588649325072765,-0.5922588109970093,-0.0948035791516304,0.0895275473594665,0.0,0.0,0.0463279485702514,-0.1836867928504943
-0.1131887435913086,0.4081383049488067,0.064066506922245,-0.5835859179496765,-0.0905971229076385,0.084129050374031,0.0,0.0,0.4158964157104492,-0.1959317922592163
-0.1123153716325759,0.3951179981231689,0.0826960653066635,-0.5784047842025757,-0.08599354326725,0.0920716300606727,0.0,0.0,0.4904245138168335,-0.1396337151527404
-0.1113562583923339,0.382014513015747,0.091295875608921,-0.5821201801300049,-0.0814264938235282,0.0913412123918533,0.0,0.0,0.5530058145523071,-0.3720443248748779
-0.1102202385663986,0.3687456846237182,0.1085845008492469,-0.589462399482727,-0.0764612257480621,0.0993055030703544,0.0,0.0,0.4434840679168701,-0.3251969218254089
-0.1089982017874717,0.355309247970581,0.1172185316681861,-0.5969310402870178,-0.0715227946639061,0.0987684577703476,0.0,0.0,0.4650459289550781,-0.453635573387146
-0.1076397895812988,0.3423115313053131,0.1307840198278427,-0.577441394329071,-0.066519521176815,0.1000655144453048,0.0,0.0,0.5563256740570068,-0.6461917161941528
-0.1061031371355056,0.3298531472682953,0.1470242142677307,-0.5534252524375916,-0.0599529482424259,0.1313316375017166,0.0,0.0,0.2277132272720337,-0.449856698513031
-0.1045151725411415,0.3176975846290588,0.1524413228034973,-0.540006697177887,-0.0536762923002243,0.1255331933498382,0.0,0.0,0.0357477664947509,0.1600792407989502
-0.1028968840837478,0.3052454888820648,0.1557632535696029,-0.5532237887382507,-0.0476806759834289,0.1199123710393905,0.0,0.0,0.4728226661682129,-0.6383070349693298
-0.1011536568403244,0.2932416200637817,0.1667939126491546,-0.5332820415496826,-0.0402402877807617,0.148807942867279,0.0,0.0,-0.0202670693397521,0.2665592432022095
-0.0993061065673828,0.2806239426136017,0.1771242618560791,-0.5606004595756531,-0.032709065824747,0.1506244242191314,0.0,0.0,0.749485969543457,0.2536633014678955
-0.0973870307207107,0.2684713304042816,0.184460312128067,-0.5399735569953918,-0.0253572277724742,0.1470367014408111,0.0,0.0,0.6901611089706421,-0.0930206179618835
-0.0953542739152908,0.2567779719829559,0.1958028376102447,-0.5195968151092529,-0.0179745182394981,0.1476540118455886,0.0,0.0,0.7493749856948853,-0.4999569654464721
-0.0931086540222168,0.24539215862751,0.2165699303150177,-0.505957841873169,-0.0100789107382297,0.1579121798276901,0.0,0.0,0.566437840461731,-0.6143282055854797
-0.0907729119062423,0.233874037861824,0.2241921871900558,-0.5118857622146606,-0.0008219470619224,0.1851391494274139,0.0,0.0,0.4756193161010742,-0.8909139037132263
-0.0883012786507606,0.2222754508256912,0.2358001917600631,-0.5155223608016968,0.0103993183001875,0.2244251072406768,0.0,0.0,0.6398205757141113,-0.7324970960617065
-0.0856194496154785,0.2109158337116241,0.2549382448196411,-0.5050135254859924,0.0234774220734834,0.2615618705749511,0.0,0.0,0.3429803848266601,-0.5061299204826355
-0.0827474594116211,0.1994240432977676,0.2725639045238495,-0.5110391974449158,0.0379324331879615,0.2891003489494324,0.0,0.0,0.8349778652191162,-0.4606819152832031
-0.0797970741987228,0.188570886850357,0.2803606390953064,-0.4827990531921386,0.0524354465305805,0.2900601029396057,0.0,0.0,0.824110746383667,-0.4736858606338501
-0.0767391175031662,0.1783633381128311,0.2908994257450104,-0.4542599320411682,0.0671718195080757,0.294727623462677,0.0,0.0,0.7376197576522827,-0.4275991916656494
-0.0734790787100792,0.1686073839664459,0.3104316592216491,-0.4343670606613159,0.0825876742601394,0.3083171844482422,0.0,0.0,0.5844713449478149,-0.7256561517715454
-0.0700763687491417,0.1587069630622863,0.3229856193065643,-0.4410625100135803,0.0997285172343254,0.3428167700767517,0.0,0.0,0.8599612712860107,-0.594257116317749
-0.0667200088500976,0.1490337699651718,0.3172768354415893,-0.4312470853328705,0.1179544255137443,0.3645182251930237,0.0,0.0,0.8981459140777588,-0.253053605556488
-0.0632627457380294,0.1402442753314972,0.3268889784812927,-0.3922376632690429,0.1366982758045196,0.374877005815506,0.0,0.0,0.393912672996521,-0.4880925416946411
-0.0597687736153602,0.1315545588731765,0.3306431472301483,-0.3880385160446167,0.1554175019264221,0.3743843734264374,0.0,0.0,0.4460923671722412,0.0015455484390258
-0.0563675872981548,0.1232613921165466,0.3218423426151275,-0.3705933690071106,0.1736974716186523,0.3655993342399597,0.0,0.0,0.5537590980529785,-0.1431419253349304
-0.0528762824833393,0.1153491586446762,0.3304904699325561,-0.3539422154426574,0.1924188882112503,0.3744283020496368,0.0,0.0,0.539788007736206,-0.5356422066688538
-0.0494894981384277,0.1078332513570785,0.3190891146659851,-0.3367050588130951,0.2121388465166092,0.3943995833396911,0.0,0.0,0.5499545335769653,-0.0019381642341613
-0.0462024696171283,0.1007134541869163,0.3095034956932068,-0.3193078339099884,0.2315589487552642,0.3884018957614898,0.0,0.0,0.2448704242706298,-0.3892119526863098
-0.0428951270878315,0.0935254916548729,0.3116474449634552,-0.3225801289081573,0.2509496212005615,0.3878137469291687,0.0,0.0,0.3999176025390625,-0.2806452512741089
-0.039685059338808,0.086431510746479,0.3024138808250427,-0.3185769021511078,0.2699384689331054,0.3797771334648132,0.0,0.0,0.2288931608200073,-0.1731743216514587
-0.0365612022578716,0.0792461931705474,0.2943392693996429,-0.3227864801883697,0.288463145494461,0.3704935908317566,0.0,0.0,0.2960380315780639,-0.0819777846336364
-0.0333921425044536,0.0722970589995384,0.2985371947288513,-0.3125980794429779,0.3074238002300262,0.3792131841182709,0.0,0.0,0.3961811065673828,0.2014610767364502
-0.0301418304443359,0.0652075111865997,0.3064947128295898,-0.3191322982311249,0.3266738951206207,0.3850019574165344,0.0,0.0,0.3679592609405517,0.1614587306976318
-0.0268539432436227,0.0584636554121971,0.3097890317440033,-0.3041419684886932,0.3465271294116974,0.3970646560192108,0.0,0.0,0.3759404420852661,0.2779086828231811
-0.0236768722534179,0.0520125478506088,0.2988893687725067,-0.2913742959499359,0.3663378357887268,0.396213948726654,0.0,0.0,0.2780678272247314,0.5217976570129395
-0.0204607956111431,0.0459696389734745,0.3036695718765259,-0.2732796669006347,0.3853681981563568,0.3806070983409881,0.0,0.0,0.7056722640991211,0.3804578781127929
-0.0172694213688373,0.0401930920779705,0.3009496331214905,-0.261774331331253,0.40480437874794,0.3887237906455993,0.0,1.0,0.9998395442962646,0.9915773868560792
-0.0143903736025094,0.0363194793462753,0.2849906682968139,-0.1735333055257797,0.4062805771827698,0.027036964893341,0.0,1.0,0.9921035766601562,0.9352887868881226
-0.0119534488767385,0.0339647158980369,0.2617421746253967,-0.099599614739418,0.3869554102420807,-0.3864977955818176,0.0,1.0,0.8743693828582764,-0.4552426338195801
-0.009830379858613,0.0322696305811405,0.2448400259017944,-0.0669088587164878,0.3524247705936432,-0.6907087564468384,0.0,1.0,0.6551222801208496,-0.9632518291473388
-0.0082144737243652,0.0309617146849632,0.199572205543518,-0.0493487082421779,0.3126577734947204,-0.7954391241073608,0.0,1.0,0.600816011428833,-0.962560534477234
-0.0069458009675145,0.0296554416418075,0.1629074215888977,-0.0507475920021534,0.2754253149032593,-0.7447158098220825,0.0,1.0,0.5838725566864014,-0.9028051495552064
-0.0059050559066236,0.0284816361963748,0.1381459534168243,-0.0461363457143306,0.240595132112503,-0.6966322064399719,0.0,1.0,0.4414879083633423,-0.7115086317062378
-0.0050071715377271,0.0273744203150272,0.1226866245269775,-0.0441819243133068,0.2072516232728958,-0.666897177696228,0.0,0.0,-0.993384838104248,-0.6087282299995422
-0.0040108682587742,0.0256412848830223,0.1313998997211456,-0.0728932246565818,0.1753086745738983,-0.6388593316078186,0.0,0.0,-0.9794788360595704,-0.5245198607444763
-0.0029216767288744,0.0232998225837945,0.1399426758289337,-0.1006969660520553,0.1442790925502777,-0.620591938495636,0.0,0.0,-0.7292488813400269,-0.8487235307693481
-0.0017690658569335,0.0203500371426343,0.1447538584470749,-0.1285066157579422,0.1149015948176384,-0.5875498056411743,0.0,0.0,0.1346762180328369,-0.9068379402160645
-0.000532436359208,0.0171022750437259,0.1514079123735427,-0.1424451619386673,0.0873753502964973,-0.5505251288414001,0.0,0.0,0.8826210498809814,-0.8383529782295227
