x_pos,y_pos,x_vel,y_vel,angle,ang_vel,leg_1,leg_2,main_booster,lat_booster
-0.0015259742503985,1.4035372734069824,-0.1538042426109314,-0.3281254470348358,0.0010836526053026,0.0213256627321243,0.0,0.0,0.3745591937209283,-0.93884382867825
-0.0030806541908532,1.396661400794983,-0.1577559411525726,-0.3055931627750397,0.0033500560093671,0.045332945883274,0.0,0.0,-0.1068471879005226,0.7697828885146423
-0.0045669553801417,1.3896926641464231,-0.1483382731676101,-0.3097245395183563,0.0030591103713959,-0.0058194170705974,0.0,0.0,0.0192364462496505,-0.8033660685353083
-0.0062104226090013,1.383095622062683,-0.164908230304718,-0.2932014763355255,0.003618526738137,0.0111893452703952,0.0,0.0,-0.8380171219033419,-0.6003653963971423
-0.0078995702788233,1.376413106918335,-0.1697118133306503,-0.2970079481601715,0.0044060200452804,0.0157512538135051,0.0,0.0,-0.4360089604678925,0.9163386925618944
-0.0095103261992335,1.3696424961090088,-0.1588992774486541,-0.3009065687656402,0.0022589184809476,-0.0429461672902107,0.0,0.0,-0.6960872509721707,-0.8695034295324843
-0.011203384026885,1.3627846240997314,-0.1682232916355133,-0.3047949969768524,0.0011869455920532,-0.0214412119239568,0.0,0.0,-0.3747647456623797,0.9502465439957284
-0.0128158573061227,1.3558424711227417,-0.1570731103420257,-0.308537483215332,-0.0029483512043952,-0.0827137753367424,0.0,0.0,-0.1440560263415133,0.9310817922684927
-0.0143705364316701,1.3488236665725708,-0.1487350761890411,-0.311981737613678,-0.0096063520759344,-0.133172333240509,0.0,0.0,0.8037004365915386,0.7841261102117281
-0.0158720966428518,1.342911958694458,-0.141110822558403,-0.2628256678581238,-0.0185384321957826,-0.1786583513021469,0.0,0.0,-0.3384191686503128,0.6049613559282473
-0.0173355098813772,1.3369132280349731,-0.1351908147335052,-0.2667821943759918,-0.029561199247837,-0.2204755842685699,0.0,0.0,0.0394673817638981,-0.921921708385374
-0.0188261978328228,1.3313264846801758,-0.1390457302331924,-0.2485248446464538,-0.0394823774695396,-0.1984419375658035,0.0,0.0,0.5594969048850853,0.8869774680149796
-0.0201015472412109,1.3266364336013794,-0.1152051463723182,-0.2088177651166916,-0.0516863167285919,-0.2441010177135467,0.0,0.0,-0.1736598172631749,0.8018259944979724
-0.0213264469057321,1.3218491077423096,-0.1076443344354629,-0.2133493721485138,-0.0663896724581718,-0.2940938770771026,0.0,0.0,-0.9503682688311308,-0.6551331599085686
-0.0226111412048339,1.316988825798035,-0.1139105111360549,-0.2167211472988128,-0.0808207616209983,-0.2886480093002319,0.0,0.0,-0.7079942533156982,-0.9620179101035824
-0.0239799506962299,1.3120410442352295,-0.1231782659888267,-0.2206990122795105,-0.0944193452596664,-0.2719960808753967,0.0,0.0,-0.7492845994703334,0.9066706120514004
-0.025283146649599,1.307008147239685,-0.1136660203337669,-0.2248214781284332,-0.1109593138098716,-0.3308300971984863,0.0,0.0,-0.9776591469609804,0.8323856020503041
-0.0265291221439838,1.3018728494644165,-0.1052032709121704,-0.2297924160957336,-0.1302793174982071,-0.3864350318908691,0.0,0.0,0.0401384393868258,0.7274469393992299
-0.0276059154421091,1.297390699386597,-0.0861970335245132,-0.2012280076742172,-0.151723250746727,-0.4289180636405945,0.0,0.0,-0.8192931924127607,0.7551760162519349
-0.0286559108644723,1.2928171157836914,-0.0815642848610878,-0.2058284282684326,-0.1752035170793533,-0.4696477353572845,0.0,0.0,0.9983943405190197,-0.8290712050547071
-0.0294703487306833,1.2894872426986694,-0.0593848712742328,-0.1507486402988433,-0.197380393743515,-0.4435779154300689,0.0,0.0,0.9576056358738718,-0.8551863151214087
-0.0302593223750591,1.2868595123291016,-0.0579476542770862,-0.1197153851389885,-0.2185442596673965,-0.4233151376247406,0.0,0.0,0.4445015610323304,-0.704581380411217
-0.0309032443910837,1.284825563430786,-0.0444241389632225,-0.0934793055057525,-0.2387993931770324,-0.4051391184329986,0.0,0.0,0.2624023531212325,-0.6337008328844673
-0.0315095894038677,1.28304922580719,-0.0414057448506355,-0.0821917951107025,-0.2584136426448822,-0.3923200964927673,0.0,0.0,0.9472897888436248,-0.7634926274075432
-0.032182790338993,1.2823874950408936,-0.048581026494503,-0.032824870198965,-0.2776244282722473,-0.3842495083808899,0.0,0.0,-0.8774252279985739,-0.888023913415411
-0.0329707153141498,1.281665325164795,-0.0615920424461364,-0.0354729667305946,-0.2953259348869324,-0.3540302515029907,0.0,0.0,-0.074769963882749,0.9406459442880144
-0.0337149612605571,1.2808363437652588,-0.0547468550503253,-0.0409642532467842,-0.3156797289848327,-0.4070760309696197,0.0,0.0,-0.6579922691347444,0.7348649328241086
-0.0344432815909385,1.2799152135849,-0.0514702387154102,-0.0457503274083137,-0.3379321098327636,-0.4450477063655853,0.0,0.0,0.5149195419082364,0.7376243485421551
-0.0350333228707313,1.2799649238586426,-0.035489909350872,-0.0035034280735999,-0.3626463711261749,-0.4942854344844818,0.0,0.0,-0.5225080065433796,0.7646625270368641
-0.0355985648930072,1.2799055576324463,-0.031103741377592,-0.0093007925897836,-0.3896128237247467,-0.5393298864364624,0.0,0.0,0.2054858585237808,-0.8425861038035858
-0.0360019691288471,1.2806659936904907,-0.0161445122212171,0.0269586220383644,-0.4155503213405609,-0.5187498331069946,0.0,0.0,-0.1369189175538532,-0.6957135666306342
-0.0364916808903217,1.2813849449157717,-0.0258696135133504,0.0249451659619808,-0.4405949711799621,-0.5008938908576965,0.0,0.0,0.0703685742365052,0.9679122145637252
-0.0367750152945518,1.2827343940734863,-0.0030599548481404,0.0517687872052192,-0.4683460295200348,-0.5550209283828735,0.0,0.0,-0.6063639658112574,-0.8066498147165492
-0.0371514335274696,1.2840505838394165,-0.0137218553572893,0.0501881092786788,-0.4949679374694824,-0.5324389934539795,0.0,0.0,0.1888231153922128,0.7800019069240471
-0.0372756943106651,1.2858374118804932,0.0132164033129811,0.0698979422450065,-0.5239503383636475,-0.5796495676040649,0.0,0.0,-0.2677853036788522,0.8564644378035705
-0.037365723401308,1.2875065803527832,0.0184590164572,0.0632530152797699,-0.5555212497711182,-0.6314180493354797,0.0,0.0,0.7311724412996661,0.852923185112825
-0.0372015014290809,1.2896817922592163,0.0455435961484909,0.084201380610466,-0.5896940231323242,-0.6834570169448853,0.0,0.0,-0.1570966832381912,-0.8773940990458605
-0.0371137633919715,1.2918462753295898,0.0363800637423992,0.083493947982788,-0.6228117346763611,-0.6623537540435791,0.0,0.0,-0.2883251264938158,-0.806877261164199
-0.0371024124324321,1.29400634765625,0.0271595157682895,0.083160787820816,-0.654774010181427,-0.6392450928688049,0.0,0.0,0.0512219852234516,-0.9514490817488432
-0.0369223579764366,1.2966042757034302,0.0423453412950038,0.1026452854275703,-0.6853927373886108,-0.6123740673065186,0.0,0.0,0.8446479044954422,0.9725724071106676
-0.0362581238150596,1.3002021312713623,0.0924786776304245,0.145255371928215,-0.7190284729003906,-0.6727149486541748,0.0,0.0,-0.7550323009490967,-0.9071074724197388
-0.0356609337031841,1.3037834167480469,0.0843598768115043,0.1443546563386917,-0.7517868876457214,-0.6551693677902222,0.0,0.0,-0.7907090187072754,-0.4720944762229919
-0.0350875854492187,1.3072949647903442,0.0817449539899826,0.1403736174106598,-0.7852611541748047,-0.6694850325584412,0.0,0.0,-0.8963760137557983,-0.8747855424880981
-0.0345783233642578,1.3107943534851074,0.0739030987024307,0.1397644579410553,-0.8178069591522217,-0.6509167551994324,0.0,0.0,-0.599621057510376,-0.7481186985969543
-0.0341385826468467,1.3142839670181274,0.0654376745223999,0.1393863409757614,-0.8492677807807922,-0.6292160153388977,0.0,0.0,-0.4778391122817993,-0.5649415850639343
-0.0337511077523231,1.3177430629730225,0.0591429881751537,0.1378462165594101,-0.8802543878555298,-0.6197324395179749,0.0,0.0,-0.5850860476493835,-0.8715379238128662
-0.0334272384643554,1.3211967945098877,0.05137475207448,0.1377523988485336,-0.9101517200469972,-0.5979480147361755,0.0,0.0,-0.4388061761856079,-0.2346715927124023
-0.0331254974007606,1.3245779275894165,0.0488527715206146,0.1337857544422149,-0.9407503604888916,-0.611973226070404,0.0,0.0,-0.6353546380996704,-0.6920257210731506
-0.0328801162540912,1.327967882156372,0.0417174883186817,0.1345152258872985,-0.9700661897659302,-0.5863165855407715,0.0,0.0,-0.584200382232666,-0.4218074083328247
-0.0326560027897357,1.3312848806381226,0.0392517037689685,0.1305523067712783,-1.000074863433838,-0.6001733541488647,0.0,0.0,-0.5291269421577454,0.0473328828811645
-0.0324522964656353,1.334529161453247,0.0368123464286327,0.1265886276960373,-1.0307713747024536,-0.6139292120933533,0.0,0.0,-0.5776249766349792,-0.3173705339431762
-0.0322678573429584,1.3377004861831665,0.0344018824398517,0.1226244792342186,-1.0621501207351685,-0.6275745034217834,0.0,0.0,-0.6177115440368652,-0.3859606981277466
-0.0321017280220985,1.3407992124557495,0.0320227108895778,0.1186601817607879,-1.094205021858215,-0.64109867811203,0.0,0.0,-0.5882542729377747,0.0419696569442749
-0.0319527611136436,1.343825101852417,0.029677215963602,0.1146960631012916,-1.1269294023513794,-0.6544904112815857,0.0,0.0,-0.4733828902244568,0.0626957416534423
-0.0318197235465049,1.3467780351638794,0.0273677259683609,0.1107325330376625,-1.1603162288665771,-0.6677372455596924,0.0,0.0,-0.1822929978370666,0.1873124837875366
-0.0317014679312706,1.349657654762268,0.0250965449959039,0.1067699640989303,-1.1943573951721191,-0.6808256506919861,0.0,0.0,-0.4327491521835327,0.5580823421478271
-0.0315753929316997,1.3523985147476196,0.02555294893682,0.0988977998495101,-1.2306147813796997,-0.7251492738723755,0.0,0.0,-0.4260905981063843,-0.1485049724578857
-0.031460665166378,1.355066180229187,0.0233517959713935,0.0949352532625198,-1.2675081491470337,-0.7378683090209961,0.0,0.0,-0.7204344272613525,0.1992899179458618
-0.031356144696474,1.357659935951233,0.0211949776858091,0.0909754186868667,-1.3050272464752195,-0.7503817677497864,0.0,0.0,-0.4395457506179809,0.2319315671920776
-0.0312603935599327,1.3601796627044678,0.0190846472978591,0.0870188772678375,-1.34316086769104,-0.7626713514328003,0.0,0.0,-0.6480860710144043,0.389889121055603
-0.0311720855534076,1.3626242876052856,0.0170229393988847,0.0830661803483963,-1.381896734237671,-0.7747173309326172,0.0,0.0,-0.7401065230369568,0.7622888088226318
-0.031077766790986,1.3649239540100098,0.0164636429399251,0.0749929621815681,-1.4228049516677856,-0.8181678056716919,0.0,0.0,-0.5707747340202332,0.6551933288574219
-0.0309786796569824,1.367060303688049,0.0155441593378782,0.0658331140875816,-1.4662649631500244,-0.8692023158073425,0.0,0.0,-0.4997951984405517,0.3420284986495971
-0.0308805461972951,1.3691195249557495,0.0136031927540898,0.0618926808238029,-1.5102828741073608,-0.8803612589836121,0.0,0.0,-0.7105761766433716,0.6448495388031006
-0.0307811740785837,1.3710271120071411,0.0117954816669225,0.0536016337573528,-1.556484580039978,-0.9240354299545288,0.0,0.0,-0.7360725998878479,0.8612148761749268
-0.0306767467409372,1.372778296470642,0.0100799929350614,0.0451178923249244,-1.6049290895462036,-0.9688931703567504,0.0,0.0,-0.8446526527404785,0.7781935930252075
-0.0305614471435546,1.3743575811386108,0.0086028110235929,0.0358213707804679,-1.6559031009674072,-1.0194835662841797,0.0,0.0,-0.8595645427703857,0.765020489692688
-0.0304473880678415,1.3757567405700684,0.0054863486438989,0.0261822566390037,-1.709537148475647,-1.072684407234192,0.0,0.0,-0.9137143492698668,0.7919254302978516
-0.0303223617374897,1.3769762516021729,0.0032116449438035,0.0167786814272403,-1.7657047510147097,-1.1233547925949097,0.0,0.0,-0.934928834438324,0.8465976715087891
-0.03019380569458,1.3780279159545898,-0.0001108501091948,0.0082750804722309,-1.8240829706192017,-1.1675676107406616,0.0,0.0,-0.9270762801170348,0.8744590282440186
-0.0300576202571392,1.3789043426513672,-0.0033857100643217,-0.0003898918512277,-1.884707808494568,-1.2125003337860107,0.0,0.0,-0.9576289057731628,0.8666751384735107
-0.0299196243286132,1.3795846700668335,-0.0077017983421683,-0.0100021371617913,-1.9479551315307615,-1.2649493217468262,0.0,0.0,-0.967316746711731,0.932701826095581
-0.0297708511352539,1.380081057548523,-0.0113191250711679,-0.0185015182942152,-2.0133516788482666,-1.3079369068145752,0.0,0.0,-0.9832388162612916,0.933269500732422
-0.0296289436519145,1.3803614377975464,-0.0173105336725711,-0.0285566430538892,-2.081593513488769,-1.364842414855957,0.0,0.0,-0.9898281693458556,0.91974139213562
-0.0294941905885934,1.380444049835205,-0.0234317183494567,-0.0371563173830509,-2.152177095413208,-1.4116778373718262,0.0,0.0,-0.99419105052948,0.963114619255066
-0.0293788909912109,1.38030743598938,-0.031279694288969,-0.04654011875391,-2.2255122661590576,-1.466709852218628,0.0,0.0,-0.9963884949684144,0.9609220027923584
-0.0292786601930856,1.379963755607605,-0.0386645384132862,-0.0547088645398616,-2.3011484146118164,-1.5127265453338623,0.0,0.0,-0.9974015951156616,0.9719656705856324
-0.0291901584714651,1.3793944120407104,-0.0458813272416591,-0.0632943511009216,-2.379153251647949,-1.560102462768555,0.0,0.0,-0.9980164766311646,0.9727680683135986
-0.029125403612852,1.3785834312438965,-0.0545751266181468,-0.0721905604004859,-2.459771156311035,-1.6123621463775637,0.0,0.0,-0.9984016418457032,0.968908667564392
-0.0290718078613281,1.377552509307861,-0.0613781511783599,-0.0792956128716468,-2.542224407196045,-1.6490709781646729,0.0,0.0,-0.9988362193107604,0.9666471481323242
-0.0290406234562397,1.3763165473937988,-0.0689998641610145,-0.0851881355047226,-2.6263411045074463,-1.6823450326919556,0.0,0.0,-0.9991821646690368,0.9714480638504028
-0.0290495865046978,1.3748416900634766,-0.0785860866308212,-0.0922808870673179,-2.71266770362854,-1.726536750793457,0.0,0.0,-0.9993121027946472,0.9668247699737548
-0.0290918350219726,1.3731485605239868,-0.0866390317678451,-0.0978086963295936,-2.800625324249268,-1.759162664413452,0.0,0.0,-0.9995040893554688,0.9705462455749512
-0.0291788093745708,1.3712302446365356,-0.0954581499099731,-0.103202000260353,-2.890310287475586,-1.7937099933624268,0.0,0.0,-0.9996488690376282,0.9798071384429932
-0.0293236728757619,1.369085431098938,-0.1051225513219833,-0.1082213371992111,-2.981813907623291,-1.830088973045349,0.0,0.0,-0.99971741437912,0.9750452041625975
-0.0295467376708984,1.3667194843292236,-0.116421952843666,-0.1125843897461891,-3.075383424758911,-1.87139892578125,0.0,0.0,-0.999803364276886,0.97914719581604
-0.0298483856022357,1.3641494512557983,-0.1267450749874115,-0.1157389134168624,-3.170764207839966,-1.90762996673584,0.0,0.0,-0.9998123049736024,0.9685235023498536
-0.0302435867488384,1.361379861831665,-0.1378538757562637,-0.1183114424347877,-3.2681148052215576,-1.9470268487930296,0.0,0.0,-0.999887228012085,0.9650168418884276
-0.0307462699711322,1.3584142923355105,-0.149532064795494,-0.1203714162111282,-3.367568016052246,-1.989078521728516,0.0,0.0,-0.999904990196228,0.9708495140075684
-0.0313620567321777,1.3552708625793457,-0.1606593132019043,-0.1213261634111404,-3.469099998474121,-2.030653476715088,0.0,0.0,-0.9999274611473083,0.9684817790985109
-0.0320827476680278,1.3519401550292969,-0.1693037152290344,-0.1226167604327201,-3.5722086429595947,-2.062178611755371,0.0,0.0,-0.9999488592147828,0.9646974802017212
-0.0329195037484169,1.3484375476837158,-0.1779395788908004,-0.1231501847505569,-3.6770033836364746,-2.095911026000977,0.0,0.0,-0.9999666810035706,0.9761459827423096
-0.0338884368538856,1.3447904586791992,-0.18721404671669,-0.1223634853959083,-3.783847093582153,-2.1368870735168457,0.0,0.0,-0.9999722838401794,0.9818522930145264
-0.0349867828190326,1.3410248756408691,-0.1948062926530838,-0.1205196008086204,-3.8927195072174072,-2.177465915679932,0.0,0.0,-0.9999806880950928,0.9878937005996704
-0.0362074859440326,1.3371338844299316,-0.1999030411243438,-0.1194591969251632,-4.003091335296631,-2.207467555999756,0.0,0.0,-0.999984085559845,0.992893934249878
-0.0375738143920898,1.3331451416015625,-0.2063232660293579,-0.117269828915596,-4.115487575531006,-2.247942924499512,0.0,0.0,-0.9999898672103882,0.9943381547927856
-0.0390733703970909,1.3290711641311646,-0.2099369019269943,-0.1152471527457237,-4.22954797744751,-2.281227827072144,0.0,0.0,-0.9999908804893494,0.9970837831497192
-0.040707491338253,1.3249120712280271,-0.2122359722852707,-0.1141042485833168,-4.344884395599365,-2.3067543506622314,0.0,0.0,-0.99999338388443,0.9977467060089112
-0.0424848571419715,1.3207283020019531,-0.2145922631025314,-0.1105225905776023,-4.46237325668335,-2.3498101234436035,0.0,0.0,-0.9999949932098388,0.9980943202972412
-0.0443999283015728,1.3165180683135986,-0.215094119310379,-0.1082794219255447,-4.581451416015625,-2.3815903663635254,0.0,0.0,-0.999995768070221,0.9983344078063964
-0.046449564397335,1.312300443649292,-0.214357778429985,-0.1063085719943046,-4.701997756958008,-2.410959959030152,0.0,0.0,-0.9999971389770508,0.9990200996398926
-0.0486225113272666,1.3081111907958984,-0.2118103951215744,-0.1037433817982673,-4.824244499206543,-2.444969654083252,0.0,0.0,-0.999997615814209,0.9993274211883544
-0.050915241241455,1.303957462310791,-0.2084827423095703,-0.1023752614855766,-4.94778299331665,-2.470801830291748,0.0,0.0,-0.999998152256012,0.9995357990264891
-0.0533182136714458,1.2998558282852173,-0.2040696591138839,-0.1016752570867538,-5.072434902191162,-2.493069648742676,0.0,0.0,-0.9999985694885254,0.9996685981750488
-0.0558157935738563,1.2958775758743286,-0.1977968066930771,-0.0985515117645263,-5.199207305908203,-2.5354866981506348,0.0,0.0,-0.9999988675117492,0.999780535697937
-0.0583866126835346,1.2920299768447876,-0.1896553635597229,-0.0967247560620307,-5.32782506942749,-2.572390556335449,0.0,0.0,-0.999999225139618,0.9998583793640136
-0.0610173232853412,1.2883542776107788,-0.1805197149515152,-0.0944322422146797,-5.458491325378418,-2.614653348922729,0.0,0.0,-0.9999993443489076,0.9999117851257324
-0.0637014359235763,1.2848423719406128,-0.1721175014972686,-0.0943204089999198,-5.590499877929688,-2.642246961593628,0.0,0.0,-0.9999995231628418,0.9999492168426514
-0.0664041489362716,1.2815314531326294,-0.1610067188739776,-0.0936774834990501,-5.724411487579346,-2.680449724197388,0.0,0.0,-0.9999995827674866,0.9999704360961914
-0.0691043883562088,1.2784130573272705,-0.1495879590511322,-0.0948718711733818,-5.859872341156006,-2.711557626724243,0.0,0.0,-0.999999701976776,0.9999816417694092
-0.0717906951904296,1.2754921913146973,-0.1392455399036407,-0.0970733687281608,-5.996531009674072,-2.735558032989502,0.0,0.0,-0.9999997615814208,0.999990701675415
-0.0744285583496093,1.2727720737457275,-0.1275601238012313,-0.1000430285930633,-6.134551525115967,-2.7628724575042725,0.0,0.0,-0.9999998211860656,0.9999949932098388
-0.0769881233572959,1.270233154296875,-0.1153455823659896,-0.1046449765563011,-6.27394437789917,-2.7903621196746826,0.0,0.0,-0.9999998807907104,0.9999971389770508
-0.0794720649719238,1.2678675651550293,-0.106766939163208,-0.110074870288372,-6.414016246795654,-2.803995132446289,0.0,0.0,-0.9999998807907104,0.9999985694885254
-0.0818578749895095,1.2656567096710205,-0.0987562164664268,-0.1164359971880912,-6.55474853515625,-2.817212581634521,0.0,0.0,-0.9999999403953552,0.9999992847442628
-0.0841099768877029,1.263577938079834,-0.0896384492516517,-0.1237161979079246,-6.696511745452881,-2.837897539138794,0.0,0.0,-0.9999999403953552,0.9999996423721312
-0.0862030014395713,1.261601448059082,-0.0806846022605896,-0.1320617198944091,-6.839509010314941,-2.8626086711883545,0.0,0.0,-0.9999999403953552,0.9999997615814208
-0.0881105437874794,1.2596800327301023,-0.0716100558638572,-0.1420828998088836,-6.984176158905029,-2.896078586578369,0.0,0.0,-0.9999999403953552,0.9999998807907104
-0.0898161903023719,1.257793426513672,-0.0638607889413833,-0.1522121280431747,-7.130443572998047,-2.92818546295166,0.0,0.0,-1.0,1.0
-0.0913119316101074,1.2559148073196411,-0.0581748485565185,-0.1622743159532547,-7.278105735778809,-2.956166982650757,0.0,0.0,-1.0,1.0
-0.0925978645682334,1.253985047340393,-0.0548060722649097,-0.1736835986375808,-7.427418231964111,-2.9892354011535645,0.0,0.0,-1.0,1.0
