x_pos,y_pos,x_vel,y_vel,angle,ang_vel,leg_1,leg_2,main_booster,lat_booster
-0.0014865875709801,1.4031131267547607,-0.1505804359912872,-0.3469738066196441,0.0017233550315722,0.0339917801320552,0.0,0.0,-0.2670607566833496,0.9089899063110352
-0.0028550147544592,1.394813895225525,-0.1365486532449722,-0.3688550591468811,0.0014343966031447,-0.0057787653058767,0.0,0.0,-0.1260731220245361,0.4179339408874511
-0.0041791917756199,1.386002779006958,-0.1321219354867935,-0.3916017115116119,0.0011363007361069,-0.005962501745671,0.0,0.0,0.4318259954452514,0.4620479345321655
-0.0055597303435206,1.3773298263549805,-0.1372477710247039,-0.385468453168869,0.0003406967152841,-0.0159131959080696,0.0,0.0,0.0690118074417114,0.7420713901519775
-0.0067353248596191,1.3687806129455566,-0.1153663992881774,-0.3799604177474975,-0.0018308470025658,-0.0434350855648517,0.0,0.0,-0.5789428949356079,0.3206560611724853
-0.0078571317717432,1.3597203493118286,-0.1099865660071373,-0.4026862978935241,-0.0039882846176624,-0.0431527681648731,0.0,0.0,0.2208921909332275,-0.0326891541481018
-0.0089367870241403,1.3507890701293943,-0.1057241410017013,-0.3969533741474151,-0.0062040332704782,-0.0443191789090633,0.0,0.0,-0.4633855819702148,0.1891127824783325
-0.0099564548581838,1.3413463830947876,-0.0997523292899131,-0.419682115316391,-0.0083902459591627,-0.0437284782528877,0.0,0.0,-0.5695049166679382,-0.231886088848114
-0.0109132770448923,1.331392765045166,-0.0934981480240821,-0.4424038827419281,-0.0105392122641205,-0.0429835394024848,0.0,0.0,-0.4467324018478393,-0.2273087501525879
-0.0118042947724461,1.3209277391433716,-0.0869711264967918,-0.4651272892951965,-0.0126430774107575,-0.0420813523232936,0.0,0.0,0.283207893371582,0.3003261089324951
-0.0125540737062692,1.3106427192687988,-0.0732216909527778,-0.4571256637573242,-0.0143765769898891,-0.0346732884645462,0.0,0.0,-0.7362092733383179,-0.4720293283462524
-0.0132328029721975,1.2998462915420532,-0.0661801397800445,-0.4798548817634582,-0.0160497575998306,-0.0334665328264236,0.0,0.0,-0.863894522190094,-0.6764174699783325
-0.0138797760009765,1.2885432243347168,-0.0641365945339202,-0.5023661255836487,-0.0166030135005712,-0.0110662318766117,0.0,0.0,-0.7584330439567566,-0.7517859935760498
-0.0145033840090036,1.2767231464385986,-0.0632167309522628,-0.5253279209136963,-0.0157613866031169,0.0168343372642993,0.0,0.0,-0.7408427596092224,-0.3036104440689087
-0.015048885717988,1.2643917798995972,-0.0554858036339283,-0.5480514764785767,-0.0148372557014226,0.0184843055903911,0.0,0.0,-0.2272371053695678,-0.8366159796714783
-0.0155681613832712,1.2515406608581543,-0.0543286986649036,-0.5711446404457092,-0.0124651854857802,0.0474459119141101,0.0,0.0,-0.5707765221595764,-0.4394813179969787
-0.0160050392150878,1.238178253173828,-0.0461893826723098,-0.5938687920570374,-0.0099966824054718,0.0493748262524604,0.0,0.0,-0.8024557828903198,-0.7967872619628906
-0.0164056774228811,1.2242984771728516,-0.0438904277980327,-0.616853654384613,-0.0062163616530597,0.0756133496761322,0.0,0.0,-0.7318913340568542,-0.6780627965927124
-0.0167651176452636,1.2099146842956543,-0.0410154685378074,-0.6392690539360046,-0.0011966747697442,0.1004027351737022,0.0,0.0,-0.9307782053947448,0.5164587497711182
-0.0170012470334768,1.1950194835662842,-0.0279051307588815,-0.662009060382843,0.0030512111261487,0.0849654003977775,0.0,0.0,-0.4432935714721679,-0.1946892738342285
-0.0171476360410451,1.179613471031189,-0.0190637037158012,-0.6847342848777771,0.0074229408055543,0.0874422788619995,0.0,0.0,-0.4800386428833008,0.1858613491058349
-0.0172028541564941,1.1636961698532104,-0.0100697493180632,-0.7074596881866455,0.0119237611070275,0.0900243073701858,0.0,0.0,-0.5521906614303589,0.358926773071289
-0.0171653740108013,1.1472680568695068,-0.0009315541246905,-0.7301852703094482,0.0165596362203359,0.092725746333599,0.0,0.0,-0.8064300417900085,0.2823539972305298
-0.0170336719602346,1.130328893661499,0.008342295885086,-0.7529110312461853,0.0213361177593469,0.0955381765961647,0.0,0.0,-0.4135292768478393,0.4817174673080444
-0.0168064124882221,1.1128787994384766,0.0177436918020248,-0.7756370902061462,0.0262585133314132,0.0984566360712051,0.0,0.0,0.0144190788269042,0.6880145072937012
-0.016541576012969,1.0955463647842407,0.0228120181709527,-0.7704024910926819,0.0298807527869939,0.0724447220563888,0.0,0.0,-0.7193384170532227,0.2993174791336059
-0.0161787029355764,1.077702879905701,0.0324597880244255,-0.793125569820404,0.0336602702736854,0.0755904018878936,0.0,0.0,-0.2726458311080932,0.4586663246154785
-0.0157167427241802,1.0593483448028564,0.0422132387757301,-0.8158488869667053,0.0376024171710014,0.0788427591323852,0.0,0.0,0.0308684110641479,0.7514400482177734
-0.0152075765654444,1.041211485862732,0.0483200699090957,-0.8061463236808777,0.0401637554168701,0.051226906478405,0.0,0.0,-0.0051745176315307,0.7927093505859375
-0.0145366666838526,1.02256441116333,0.065863698720932,-0.8287983536720276,0.0413760505616664,0.02424599789083,0.0,0.0,0.2586778402328491,-0.621414303779602
-0.013823795132339,1.0043777227401731,0.0685940235853195,-0.808373212814331,0.0440281480550766,0.0530422031879425,0.0,0.0,0.1553379297256469,0.0541880130767822
-0.0130759235471487,0.9861355423927308,0.0721777379512786,-0.81083744764328,0.046610128134489,0.051639400422573,0.0,0.0,0.5601551532745361,0.4168596267700195
-0.0123373987153172,0.9685112237930298,0.0714165419340133,-0.7833797335624695,0.0490170940756797,0.0481392964720726,0.0,0.0,-0.7386234402656555,0.589773416519165
-0.01145257987082,0.9503735899925232,0.086921289563179,-0.8061694502830505,0.0505652874708175,0.0309639610350132,0.0,0.0,0.2804408073425293,0.3374460935592651
-0.0104744909331202,0.9324541687965392,0.095988243818283,-0.7964855432510376,0.0523651055991649,0.0359962284564971,0.0,0.0,-0.5415601134300232,0.2069441080093383
-0.0093905450776219,0.914023756980896,0.1063711270689964,-0.8192082643508911,0.0543617345392704,0.039932508021593,0.0,0.0,-0.2628767490386963,0.3184499740600586
-0.0082002636045217,0.8950821757316589,0.1168101876974105,-0.841931164264679,0.056558471173048,0.0439347550272941,0.0,0.0,0.465434193611145,0.6173367500305176
-0.0068557737395167,0.8766526579856873,0.1331893652677536,-0.819136381149292,0.0578072741627693,0.0249760691076517,0.0,0.0,-0.7125320434570312,0.3010504245758056
-0.0054037095978856,0.8577120900154114,0.1437286287546157,-0.8418591022491455,0.059262216091156,0.0290988348424434,0.0,0.0,-0.3692437410354614,-0.3729405403137207
-0.0038437843322753,0.8382605910301208,0.1543123424053192,-0.8645818829536438,0.0609260313212871,0.0332764647901058,0.0,0.0,-0.602182149887085,-0.6257944107055664
-0.0022338866256177,0.8182979226112366,0.1576138883829116,-0.8873677849769592,0.0642665922641754,0.0668110027909278,0.0,0.0,-0.3043049573898315,-0.069549560546875
-0.0005151748773641,0.7978244423866272,0.1682762950658798,-0.9100914597511292,0.0678210258483886,0.0710885301232338,0.0,0.0,-0.377609372138977,-0.6955105662345886
0.0012669563293457,0.7768278121948242,0.1732291877269745,-0.933418035507202,0.0727547779679298,0.0986750423908233,0.0,0.0,0.5393117666244507,-0.7791710495948792
0.0031637190841138,0.7560602426528931,0.1827366948127746,-0.923351526260376,0.079630859196186,0.1375214159488678,0.0,0.0,0.0858802795410156,-0.5855906009674072
0.0050793648697435,0.7350558638572693,0.1832660585641861,-0.933987557888031,0.087850734591484,0.1643973886966705,0.0,0.0,0.520172119140625,-0.3923054337501526
0.0071202279068529,0.7140066027641296,0.1953668445348739,-0.9360622763633728,0.0964882671833038,0.1727508604526519,0.0,0.0,0.7026036977767944,-0.1057711243629455
0.0092894556000828,0.6931440234184265,0.2077032327651977,-0.9278472065925598,0.1056405529379844,0.1830456107854843,0.0,0.0,0.3629755973815918,-0.2058792114257812
0.0114045143127441,0.6727830171585083,0.2024924308061599,-0.9055978655815125,0.1145894825458526,0.178978607058525,0.0,0.0,0.8414359092712402,0.4712328910827636
0.0133829116821289,0.6531957387924194,0.1892961263656616,-0.8712232708930969,0.1230815127491951,0.1698406040668487,0.0,0.0,0.8516398668289185,0.6133279800415039
0.0154252052307128,0.6339496374130249,0.1967657655477523,-0.8560189008712769,0.1305117756128311,0.1486046463251114,0.0,0.0,0.4070829153060913,0.0947041511535644
0.0176363941282033,0.6149405837059021,0.2128603458404541,-0.8455896377563477,0.1387371271848678,0.1645072251558303,0.0,0.0,-0.0809601545333862,0.6549777984619141
0.020004654303193,0.5954356789588928,0.2295357435941696,-0.8675848841667175,0.1460076719522476,0.145411267876625,0.0,0.0,0.9640538692474364,-0.2348297238349914
0.0225358009338378,0.5762333273887634,0.245002195239067,-0.8542532324790955,0.1541118919849395,0.1620842516422271,0.0,0.0,0.8980497121810913,-0.1781963109970092
0.0250412933528423,0.5578803420066833,0.2421902418136596,-0.8165766000747681,0.162466675043106,0.1670955121517181,0.0,0.0,0.6440367698669434,0.6851212978363037
0.0277929306030273,0.5397855043411255,0.2676061987876892,-0.8050614595413208,0.1700322329998016,0.1513108909130096,0.0,0.0,0.5681674480438232,-0.3678790330886841
0.0304909702390432,0.5218188166618347,0.2624350488185882,-0.7993795275688171,0.1774138957262039,0.1476330757141113,0.0,0.0,0.7500319480895996,-0.1444078087806701
0.0332494750618934,0.504615068435669,0.2677987515926361,-0.7655944228172302,0.1854927837848663,0.1615780442953109,0.0,0.0,0.551830530166626,0.2109366655349731
0.0361300483345985,0.4878714382648468,0.2791771590709686,-0.7452971935272217,0.1944087445735931,0.1783193498849868,0.0,0.0,0.6305983066558838,-0.5448142886161804
0.0389995574951171,0.4718302488327026,0.2765703797340393,-0.7143362164497375,0.2048584818840026,0.20899498462677,0.0,0.0,0.7698678970336914,0.8519378900527954
0.041785717010498,0.4565162658691406,0.2698821425437927,-0.6818534135818481,0.2136682868003845,0.1761960983276367,0.0,0.0,-0.2380681633949279,0.3137462139129638
0.0446831695735454,0.4406928122043609,0.2807847559452057,-0.7045856714248657,0.2227178215980529,0.1809910535812378,0.0,0.0,0.902612805366516,-0.238000750541687
0.047400664538145,0.4255032837390899,0.2631040811538696,-0.6764175295829773,0.2314735800027847,0.1751155108213424,0.0,0.0,0.7590997219085693,0.4333707094192505
0.0502307899296283,0.4106535911560058,0.2735556066036224,-0.6615012288093567,0.2410786896944046,0.1921024173498153,0.0,0.0,0.2626391649246216,0.6590350866317749
0.0531298629939556,0.3960036337375641,0.2814996838569641,-0.6525103449821472,0.2496255338191986,0.1709369719028473,0.0,0.0,0.0948833227157592,-0.1349902749061584
0.0560790076851844,0.3812321722507477,0.2862690687179565,-0.6580004096031189,0.2584384977817535,0.1762599647045135,0.0,0.0,0.5481525659561157,-0.3723103404045105
0.0588850975036621,0.3667099773883819,0.2722611725330353,-0.6469215750694275,0.2669575214385986,0.1703812330961227,0.0,0.0,0.8523755073547363,-0.214443564414978
0.0615715980529785,0.3530762195587158,0.2599774003028869,-0.6075477004051208,0.2758309841156006,0.1774700284004211,0.0,0.0,0.064692735671997,0.8166675567626953
0.064439870417118,0.3392471671104431,0.2795316576957702,-0.6160200238227844,0.2833203971385956,0.1497886925935745,0.0,0.0,0.5978975296020508,0.339627742767334
0.067212201654911,0.3261084854602813,0.269606351852417,-0.5854377150535583,0.2911747097969055,0.1570862978696823,0.0,0.0,0.6296272277832031,-0.2865514755249023
0.0698710456490516,0.3130912780761719,0.2584587931632995,-0.5800462961196899,0.2988438308238983,0.1533824056386947,0.0,0.0,0.689096212387085,0.6181873083114624
0.0723845511674881,0.300536036491394,0.2451486140489578,-0.5592973232269287,0.3052548468112945,0.1282195895910263,0.0,0.0,0.0453828573226928,0.0187324285507202
0.0749071091413497,0.2880432903766632,0.2457426786422729,-0.5566173195838928,0.3120006918907165,0.1349167674779892,0.0,0.0,0.7509866952896118,0.6421661376953125
0.0771697014570236,0.2762807607650757,0.2211299240589141,-0.5238906145095825,0.3173234462738037,0.1064548939466476,0.0,0.0,0.7048308849334717,0.3751943111419678
0.079426385462284,0.264893114566803,0.219975396990776,-0.5073744058609009,0.3232420682907104,0.1183721795678138,0.0,0.0,0.3057268857955932,0.7215615510940552
0.0817191153764724,0.2534428834915161,0.224807471036911,-0.5099086165428162,0.3278981149196625,0.0931208580732345,0.0,0.0,0.6136237382888794,-0.0148658752441406
0.0840795487165451,0.2419655919075012,0.2310425043106079,-0.5112409591674805,0.33310666680336,0.1041712388396263,0.0,0.0,0.5139486789703369,0.7428951263427734
0.086471177637577,0.2304253727197647,0.2354413568973541,-0.5137634873390198,0.3369955122470855,0.0777770206332206,0.0,0.0,0.3260380029678345,-0.7616527676582336
0.0886926651000976,0.2192495614290237,0.2167359888553619,-0.4979812502861023,0.3426707983016968,0.113505020737648,0.0,0.0,0.7406599521636963,0.2984744310379028
0.0908098220825195,0.2088207751512527,0.2056987285614013,-0.4649436175823211,0.3489813208580017,0.126210331916809,0.0,0.0,0.1096323728561401,0.2345215082168579
0.0927725806832313,0.1986175924539566,0.1903694719076156,-0.4549219310283661,0.3551883101463318,0.1241398900747299,0.0,0.0,0.179616093635559,0.626068115234375
0.0947074890136718,0.1882031708955764,0.1887241601943969,-0.464049756526947,0.3602118194103241,0.1004706844687461,0.0,0.0,0.5501852035522461,0.3371186256408691
0.0965187102556228,0.1783403009176254,0.1759708225727081,-0.4396578371524811,0.365655243396759,0.1088685989379882,0.0,0.0,0.7485287189483643,0.6309466361999512
0.0981519669294357,0.168785348534584,0.1594307124614715,-0.4256627857685089,0.3697683215141296,0.0822618454694747,0.0,0.0,0.9702317714691162,0.8142719268798828
0.0995857268571853,0.1598502993583679,0.1409869492053985,-0.3977335095405578,0.3722963333129883,0.050560463219881,0.0,0.0,0.965395212173462,0.6692339181900024
0.1008498221635818,0.1515910923480987,0.125136137008667,-0.3674107491970062,0.3736481070518493,0.0270354896783828,0.0,0.0,0.984389066696167,0.5842881202697754
0.1021030396223068,0.1438838541507721,0.1246596425771713,-0.3427154421806335,0.3743505477905273,0.0140486415475606,0.0,0.0,0.8422547578811646,0.7706561088562012
0.1033982262015342,0.1362414956092834,0.1300479024648666,-0.3395198881626129,0.3737781941890716,-0.01144699472934,0.0,0.0,0.9163496494293212,0.9231479167938232
0.10479736328125,0.1288398057222366,0.1418170928955078,-0.3284686803817749,0.3717608153820038,-0.0403484106063842,0.0,0.0,0.7807505130767822,0.6187007427215576
0.1062702164053917,0.1219074130058288,0.1497611254453659,-0.3074605166912079,0.3691340982913971,-0.052534382790327,0.0,0.0,0.4203715324401855,0.3866839408874511
0.1078237518668174,0.115004263818264,0.1570867449045181,-0.3063602149486542,0.3673022091388702,-0.0366372838616371,0.0,0.0,0.8183648586273193,-0.0181690454483032
0.1091640442609787,0.1087453439831733,0.1355506926774978,-0.2777842283248901,0.3656809628009796,-0.0324244834482669,0.0,0.0,0.6119961738586426,-0.2892880439758301
0.1103549003601074,0.1030293107032775,0.1202712655067443,-0.2537476122379303,0.3644379377365112,-0.0248606987297534,0.0,0.0,0.6097455024719238,-0.193333089351654
0.1115125641226768,0.0977789014577865,0.1161814555525779,-0.2332431972026825,0.3639936149120331,-0.008886651135981,0.0,0.0,0.4649763107299804,0.3426975011825561
0.112733170390129,0.092471919953823,0.1218638643622398,-0.2359157353639602,0.364199161529541,0.0041107712313532,0.0,0.0,0.6009345054626465,-0.1228007078170776
0.113810159265995,0.0873192176222801,0.1075089424848556,-0.229057103395462,0.3644040524959564,0.004097974859178,0.0,0.0,0.8365991115570068,0.2246325016021728
0.114710234105587,0.0830509290099144,0.0891787335276603,-0.1899118721485138,0.3652775585651397,0.0174703318625688,0.0,0.0,0.7809407711029053,0.3764638900756836
0.1154415160417556,0.0791185945272445,0.0721919387578964,-0.1750084906816482,0.3662666380405426,0.0197817999869585,0.0,0.0,0.6702759265899658,0.2579150199890136
0.1158378571271896,0.0757349357008934,0.0390326902270317,-0.1505394876003265,0.3669038116931915,0.0127435624599456,0.0,0.0,0.2926609516143799,0.901231288909912
0.1162434592843055,0.0726900920271873,0.0414544977247715,-0.1350969523191452,0.3659575283527374,-0.0189259238541126,0.0,0.0,-0.0302350521087646,0.7166461944580078
0.1167589202523231,0.0691674575209617,0.0535057671368122,-0.1560617536306381,0.3638884127140045,-0.0413826815783977,0.0,0.0,0.0524271726608276,0.64933180809021
0.1171545982360839,0.0658031105995178,0.0426490642130374,-0.1487500965595245,0.3606420457363128,-0.06492680311203,0.0,0.0,-0.4829620122909546,0.7202998399734497
0.1176568046212196,0.0619552470743656,0.054429393261671,-0.1699644774198532,0.3562008440494537,-0.0888248831033706,0.0,0.0,0.0987064838409423,0.925905704498291
0.11805210262537,0.0581507310271263,0.0453484244644641,-0.1676599532365799,0.3500849306583404,-0.1223183646798133,0.0,0.0,-0.0180466771125793,0.5546548366546631
0.118524357676506,0.0538521856069564,0.0536627694964408,-0.1894974261522293,0.3433316349983215,-0.1350661069154739,0.0,0.0,0.2235933542251587,0.3232814073562622
0.1189324408769607,0.0498352386057376,0.0467089936137199,-0.1771397739648819,0.3371517658233642,-0.1235974431037902,0.0,0.0,0.4323468208312988,0.3483070135116577
0.1193209663033485,0.0457875356078147,0.0443280562758445,-0.1786265969276428,0.3314243853092193,-0.114548310637474,0.0,0.0,-0.1654229164123535,0.4579836130142212
0.1197402030229568,0.0412299260497093,0.0472225174307823,-0.2013563364744186,0.3258989155292511,-0.1105095148086547,0.0,0.0,0.674109935760498,0.6538348197937012
0.119956687092781,0.0372975915670394,0.0281183961778879,-0.1733298301696777,0.3191723823547363,-0.1345307230949401,0.0,0.0,0.388441801071167,0.8133962154388428
0.1201546639204025,0.0339809507131576,0.027541184797883,-0.1457219570875167,0.3111289143562317,-0.1608699262142181,0.0,0.0,0.0855492353439331,0.7316309213638306
0.1203128844499588,0.0316093079745769,0.0400027856230735,-0.1004226207733154,0.2861384153366089,-0.49981689453125,0.0,1.0,0.950141429901123,0.0033763647079467
0.1201892867684364,0.0301177836954593,0.012050362303853,-0.0617032907903194,0.2611071169376373,-0.5006260871887207,0.0,1.0,0.8184635639190674,0.5467476844787598
0.1199499145150184,0.0294284205883741,0.0015389636391773,-0.0263120960444211,0.2351635247468948,-0.5188723802566528,0.0,0.0,-0.9997237920761108,0.0013585090637207
0.1197177916765213,0.0282370187342166,0.0022270649205893,-0.0490918606519699,0.209399938583374,-0.5152715444564819,0.0,0.0,-0.997151017189026,0.1631697416305542
0.1194870024919509,0.0265434365719556,0.0023345707450062,-0.07187070697546,0.1838093101978302,-0.5118128061294556,0.0,0.0,-0.9907081723213196,-0.2891138792037964
0.1192519217729568,0.0243476014584302,0.0018589331302791,-0.0946486368775367,0.1583839207887649,-0.5085079073905945,0.0,0.0,-0.8939298391342163,-0.2532387971878052
0.1190066337585449,0.0216492265462875,0.0008008452132344,-0.1174256801605224,0.1331154555082321,-0.5053693056106567,0.0,0.0,-0.4361609220504761,-0.5133152008056641
0.1187072768807411,0.0184393022209405,-0.0056619406677782,-0.1406752169132232,0.1089767068624496,-0.4827754497528076,0.0,0.0,-0.103977620601654,-0.3762457370758056
0.1183865517377853,0.014725980348885,-0.0078706815838813,-0.1634465605020523,0.0849761962890625,-0.4800103306770324,0.0,0.0,0.3381277322769165,-0.3555604219436645
0.1180706992745399,0.0113468980416655,-0.0078419251367449,-0.1490034461021423,0.0614688172936439,-0.4701476991176605,0.0,0.0,0.4658892154693603,-0.6796575784683228
0.1176488846540451,0.0085388040170073,-0.019921101629734,-0.1240368634462356,0.0394764207303524,-0.4398480057716369,0.0,0.0,0.0686787366867065,-0.6756688356399536
0.1171751990914344,0.005520103033632,-0.0266211666166782,-0.1337451487779617,0.0189830530434846,-0.4098676741123199,0.0,0.0,-0.2591754198074341,-0.5119249224662781
0.1166248321533203,0.0019954657182097,-0.0352423563599586,-0.1565179675817489,-0.0005649849190376,-0.3909608423709869,0.0,0.0,0.7771205902099609,-0.7449153661727905
