x_pos,y_pos,x_vel,y_vel,angle,ang_vel,leg_1,leg_2,main_booster,lat_booster
-0.0015225410461425,1.4035271406173706,-0.1541700959205627,-0.3285700678825378,0.0017168557969853,0.0338631942868232,0.0,0.0,0.0992171112056405,0.6682113014178671
-0.0029528618324548,1.396517634391785,-0.1433945149183273,-0.3115344047546386,0.0020673407707363,0.0070110722444951,0.0,0.0,-0.1892508718778087,0.4029568695753502
-0.0043819425627589,1.3894102573394775,-0.1432059407234192,-0.3158811926841736,0.0023635253310203,0.0059242835268378,0.0,0.0,0.1706403285668796,0.6497618957522573
-0.0058539388701319,1.3827345371246338,-0.145983949303627,-0.2966995537281036,0.0011688733939081,-0.0238954201340675,0.0,0.0,0.2592386292936675,0.6535121594191162
-0.0071642873808741,1.3767093420028689,-0.128658726811409,-0.267784059047699,-0.0011770272394642,-0.0469225607812404,0.0,0.0,0.4725904186259779,-0.1694938246568185
-0.0083501813933253,1.3713128566741943,-0.1167519092559814,-0.2398447394371032,-0.0029913010075688,-0.0362888388335704,0.0,0.0,-0.0623495527511592,-0.3938066696501558
-0.0095345498993992,1.3658193349838257,-0.1165472269058227,-0.2441673725843429,-0.0048590339720249,-0.0373580381274223,0.0,0.0,0.7848117438464004,0.3836625408975277
-0.0105525972321629,1.3612759113311768,-0.100637100636959,-0.2019395679235458,-0.0060098809190094,-0.0230193268507719,0.0,0.0,0.3704147844172794,0.5036851059007347
-0.0115361213684082,1.3576812744140625,-0.0960960090160369,-0.1597657799720764,-0.0082387737929821,-0.0445819534361362,0.0,0.0,-0.042517580767871,0.6162457734280321
-0.0124696735292673,1.3539928197860718,-0.0898160189390182,-0.1639527529478073,-0.0117376754060387,-0.0699847191572189,0.0,0.0,0.1222390097136461,-0.3965160222190341
-0.0133383749052882,1.3508121967315674,-0.0835729986429214,-0.1413944810628891,-0.0150097366422414,-0.0654469430446624,0.0,0.0,-0.4421644102041555,-0.8508574027882692
-0.0142651554197072,1.347533941268921,-0.0908173769712448,-0.1457237899303436,-0.0168441999703645,-0.0366924777626991,0.0,0.0,0.9410670456135004,-0.8251316535503014
-0.0150747299194335,1.3453927040100098,-0.0810782834887504,-0.095166340470314,-0.0167231950908899,0.0024200635962188,0.0,0.0,0.6036297803111286,0.7268332968356871
-0.0157466884702444,1.3436609506607056,-0.0659602358937263,-0.0769793689250946,-0.0179436448961496,-0.0244112275540828,0.0,0.0,-0.1122277073114752,0.4844531997834339
-0.0164176933467388,1.3418320417404177,-0.065816193819046,-0.0812986344099044,-0.0192123502492904,-0.025376483798027,0.0,0.0,-0.4934440979325925,0.3775789045314102
-0.0170879364013671,1.3399062156677246,-0.0656869560480117,-0.0856167450547218,-0.0205298569053411,-0.0263524856418371,0.0,0.0,0.793368604225664,0.912629051961014
-0.0175000187009573,1.339279055595398,-0.0383031144738197,-0.0279195196926593,-0.0234174355864524,-0.0577567145228385,0.0,0.0,0.9950915499965958,-0.9213335275298322
-0.0177848823368549,1.3392211198806765,-0.0277397744357585,-0.0025903328787535,-0.0241489969193935,-0.0146325137466192,0.0,0.0,-0.592770584299954,-0.0134800329348578
-0.0180694572627544,1.3390659093856812,-0.0276647470891475,-0.0069103268906474,-0.0249284226447343,-0.0155900148674845,0.0,0.0,0.0448962116260183,-0.3733781303882635
-0.0183959957212209,1.339352250099182,-0.0315742641687393,0.0127092208713293,-0.0259911864995956,-0.02125721052289,0.0,0.0,-0.0045495136889319,0.2982381645954899
-0.0187225341796875,1.3395414352416992,-0.031538963317871,0.0083847371861338,-0.0270983316004276,-0.0221448428928852,0.0,0.0,-0.6316923403134358,-0.3575151484794203
-0.0190494544804096,1.3396333456039429,-0.0315260998904705,0.0040664253756403,-0.028249230235815,-0.0230200625956058,0.0,0.0,-0.659240381347912,-0.873955487437386
-0.0194312091916799,1.3396294116973877,-0.0383380949497222,-0.0001797085569705,-0.0280800554901361,0.0033837824594229,0.0,0.0,-0.6878739292436884,0.1167972074681077
-0.0198136325925588,1.33952796459198,-0.0383779816329479,-0.0044999839738011,-0.0279531758278608,0.0025380300357937,0.0,0.0,0.6348137700931826,-0.1711364737465167
-0.0203198436647653,1.3402903079986572,-0.050052810460329,0.0338690839707851,-0.0285181496292352,-0.011300423182547,0.0,0.0,0.950069289746938,-0.4668476392174068
-0.0209760665893554,1.3421872854232788,-0.0642029792070388,0.0842845812439918,-0.0299180001020431,-0.027997126802802,0.0,0.0,0.0151574903559712,0.0347460437442064
-0.021618079394102,1.3446563482284546,-0.0627631321549415,0.1097065508365631,-0.0313451662659645,-0.0285431705415248,0.0,0.0,-0.95526788366896,0.8870257447232262
-0.0222068782895803,1.347034931182861,-0.0559999346733093,0.1056534275412559,-0.0341896265745162,-0.0568894036114215,0.0,0.0,0.1823113165954277,-0.2029268828489576
-0.022872257977724,1.3501523733139038,-0.0631785467267036,0.1384706348180771,-0.0375015437602996,-0.0662382915616035,0.0,0.0,-0.6069212721467583,0.3593457413583216
-0.0235400199890136,1.353172779083252,-0.0633886009454727,0.1341516673564911,-0.0408474914729595,-0.0669189840555191,0.0,0.0,0.7910926102816118,0.0584974243656212
-0.0241527557373046,1.3574705123901367,-0.0579473748803138,0.1909184008836746,-0.0441322140395641,-0.0656944289803505,0.0,0.0,-0.5101045966148376,-0.8972535729408264
-0.024848747998476,1.3616714477539062,-0.068286620080471,0.186662808060646,-0.0454331077635288,-0.0260177906602621,0.0,0.0,-0.3789187669754028,-0.6866377592086792
-0.0256096832454204,1.3657857179641724,-0.0763180553913116,0.1828656047582626,-0.0452089980244636,0.0044821146875619,0.0,0.0,-0.5630878806114197,-0.2873462438583374
-0.0263742450624704,1.3698028326034546,-0.0766575187444686,0.1785475462675094,-0.0450127236545085,0.0039255511946976,0.0,0.0,-0.3742133378982544,-0.592287540435791
-0.0271883010864257,1.373727321624756,-0.0827432870864868,0.174455925822258,-0.0436958707869052,0.026337381452322,0.0,0.0,-0.340499997138977,-0.3415067195892334
-0.0280067436397075,1.3775545358657837,-0.0831504166126251,0.1701377183198928,-0.0424034222960472,0.0258488748222589,0.0,0.0,-0.6078351736068726,-0.4229341745376587
-0.0288297645747661,1.3812847137451172,-0.083591841161251,0.1658195704221725,-0.0411336384713649,0.0253956653177738,0.0,0.0,-0.4066164493560791,-0.3090184330940246
-0.0296578407287597,1.3849176168441772,-0.0840677767992019,0.161501407623291,-0.0398847013711929,0.0249785669147968,0.0,0.0,-0.4810259342193603,-0.3425239324569702
-0.0304911620914936,1.3884536027908323,-0.0845783501863479,0.1571832448244094,-0.0386547893285751,0.0245982520282268,0.0,0.0,-0.4750837087631225,-0.5128903388977051
-0.0313687324523925,1.3918952941894531,-0.0899719446897506,0.1530191451311111,-0.0364695526659488,0.0437047891318798,0.0,0.0,-0.5755941867828369,-0.4263941049575805
-0.0322523117065429,1.3952399492263794,-0.0905518978834152,0.1487007290124893,-0.0342995598912239,0.0433997400104999,0.0,0.0,-0.4704000949859619,-0.3488679528236389
-0.03314208984375,1.3984874486923218,-0.0911664515733718,0.1443823277950287,-0.0321429185569286,0.0431329607963562,0.0,0.0,-0.4178315997123718,-0.3127368688583374
-0.0340385437011718,1.4016379117965698,-0.0918154269456863,0.1400639712810516,-0.0299976710230112,0.0429049283266067,0.0,0.0,-0.4040272831916809,-0.174798846244812
-0.0349418632686138,1.404691219329834,-0.0924985855817794,0.1357455998659134,-0.0278618801385164,0.0427157096564769,0.0,0.0,-0.4181259870529175,-0.5275267362594604
-0.0358971580862998,1.4076430797576904,-0.0988164991140365,0.1312531381845474,-0.0246142167598009,0.0649530887603759,0.0,0.0,-0.3411999940872192,-0.1552715301513672
-0.0368599891662597,1.4104979038238523,-0.099567025899887,0.1269342750310897,-0.021372141316533,0.0648417323827743,0.0,0.0,-0.5320813059806824,0.0497771501541137
-0.0378307327628135,1.41325581073761,-0.1003505736589431,0.1226154342293739,-0.018133670091629,0.064769223332405,0.0,0.0,-0.6374238729476929,0.4050205945968628
-0.0388095863163471,1.4159166812896729,-0.1011666283011436,0.118296593427658,-0.0148969097062945,0.0647353678941726,0.0,0.0,-0.4762135744094848,-0.0103221535682678
-0.039797019213438,1.418480396270752,-0.1020146235823631,0.1139777526259422,-0.0116599183529615,0.0647398456931114,0.0,0.0,-0.4022319316864013,-0.0511801838874816
-0.0407931320369243,1.4209471940994265,-0.1028939262032508,0.1096589118242263,-0.0084208063781261,0.0647822320461273,0.0,0.0,-0.3963281512260437,0.4172301292419433
-0.0417983047664165,1.4233171939849854,-0.1038038283586502,0.1053400784730911,-0.0051776925101876,0.0648620650172233,0.0,0.0,-0.4358185529708862,0.1871505975723266
-0.0428128242492675,1.425589919090271,-0.1047435849905014,0.1010212451219558,-0.0019287650939077,0.0649787336587905,0.0,0.0,-0.2671555280685425,-0.1579684615135193
-0.0438369736075401,1.427765727043152,-0.1057123690843582,0.09670240432024,0.0013278247788548,0.0651315152645111,0.0,0.0,-0.5594835877418518,-0.0056627392768859
-0.04487095028162,1.429844617843628,-0.1067093387246131,0.0923835486173629,0.0045937937684357,0.0653196796774864,0.0,0.0,-0.2796619534492492,-0.1543704271316528
-0.0459151268005371,1.4318262338638306,-0.1077335923910141,0.0880646929144859,0.0078709125518798,0.0655423998832702,0.0,0.0,-0.5412798523902893,0.5405583381652832
-0.0469335541129112,1.433708906173706,-0.1042671576142311,0.0836625322699546,0.0102565204724669,0.0477121584117412,0.0,0.0,-0.4710553884506225,-0.2072398662567138
-0.047962762415409,1.4354946613311768,-0.1053431034088134,0.0793440863490104,0.0126565909013152,0.048001330345869,0.0,0.0,-0.4548594951629638,0.1046488285064697
-0.0490026473999023,1.4371833801269531,-0.1064433827996254,0.0750256404280662,0.0150726912543177,0.0483221858739852,0.0,0.0,-0.452882170677185,-0.5272337794303894
-0.0500903129577636,1.438779592514038,-0.1121571809053421,0.070902444422245,0.0184244159609079,0.0670345872640609,0.0,0.0,-0.3272514343261719,0.0327628850936889
-0.0511892326176166,1.4402787685394287,-0.1133028864860534,0.0665835067629814,0.0217952020466327,0.0674156844615936,0.0,0.0,-0.4079623818397522,0.5364181995391846
-0.0522534362971782,1.4416775703430176,-0.1086850017309188,0.0621416345238685,0.0240293070673942,0.0446820706129074,0.0,0.0,-0.4905363321304321,-0.3872705698013305
-0.0533292777836322,1.4429795742034912,-0.1098716259002685,0.0578232146799564,0.0262852516025304,0.0451190322637558,0.0,0.0,-0.2623607516288757,-0.3180456161499023
-0.0544169433414936,1.444184422492981,-0.1110769286751747,0.0535047762095928,0.0285643525421619,0.0455822087824344,0.0,0.0,-0.3804687261581421,-0.3938186168670654
-0.05551652982831,1.4452921152114868,-0.1122997030615806,0.049186322838068,0.0308678708970546,0.0460704416036605,0.0,0.0,-0.4481908679008484,-0.4348022937774658
-0.0566283240914344,1.4463027715682983,-0.1135387197136879,0.0448678508400917,0.033196996897459,0.046582531183958,0.0,0.0,-0.5795925855636597,0.3487248420715332
-0.0577524192631244,1.4472163915634155,-0.1147926896810531,0.0405493602156639,0.035552866756916,0.0471173301339149,0.0,0.0,-0.470468521118164,0.1483353376388549
-0.0588889122009277,1.4480329751968384,-0.1160603389143943,0.0362308546900749,0.0379365608096122,0.0476736649870872,0.0,0.0,-0.497835636138916,-0.31397545337677
-0.060037899762392,1.4487524032592771,-0.117340363562107,0.0319123230874538,0.0403490774333477,0.0482503697276115,0.0,0.0,-0.339816689491272,-0.4111096262931824
-0.0611994750797748,1.449374794960022,-0.118631437420845,0.0275937803089618,0.0427913889288902,0.0488462671637535,0.0,0.0,-0.445675790309906,-0.2454307079315185
-0.0623737350106239,1.4499001502990725,-0.1199321895837783,0.0232752077281475,0.0452643930912017,0.0494602099061012,0.0,0.0,-0.3418924808502197,0.5016158819198608
-0.063527300953865,1.450332760810852,-0.1170303076505661,0.0191769674420356,0.0469227358698844,0.0331667102873325,0.0,0.0,-0.2555847764015198,0.1611367464065551
-0.064693734049797,1.450668215751648,-0.1183463186025619,0.0148586528375744,0.0486134178936481,0.033813402056694,0.0,0.0,0.001232624053955,0.5848500728607178
-0.0659397095441818,1.4516770839691162,-0.1250465810298919,0.044817890971899,0.0490600131452083,0.0089318919926881,0.0,0.0,-0.1319644451141357,-0.3762611150741577
-0.067198559641838,1.4525885581970217,-0.1263721734285354,0.040499772876501,0.0495403669774532,0.009606884792447,0.0,0.0,-0.4974424839019775,-0.0682936906814575
-0.0684702843427658,1.453403115272522,-0.1277003586292266,0.0361816510558128,0.0500550754368305,0.0102943126112222,0.0,0.0,-0.123690664768219,-0.4750258922576904
-0.0697550773620605,1.4541205167770386,-0.1290296465158462,0.0318635255098342,0.0506047457456588,0.0109931696206331,0.0,0.0,-0.0987054705619812,-0.2523255348205566
-0.0710527449846267,1.4547407627105713,-0.1303585469722747,0.0275453906506299,0.051189862191677,0.0117024574428796,0.0,0.0,-0.1320492029190063,-0.2446188330650329
-0.0723632797598838,1.4552637338638306,-0.1316855251789093,0.0232272502034902,0.0518109090626239,0.0124210910871624,0.0,0.0,-0.2806346416473388,0.3145325183868408
-0.073686696588993,1.455689787864685,-0.133008986711502,0.0189090985804796,0.0524683184921741,0.0131480190902948,0.0,0.0,-0.3990788459777832,-0.2164364457130432
-0.0750228911638259,1.4560186862945557,-0.1343273669481277,0.0145909441635012,0.0531624257564544,0.0138823166489601,0.0,0.0,-0.2265411615371704,0.2344394922256469
-0.0763719528913497,1.4562504291534424,-0.1356390416622162,0.0102727804332971,0.053893569856882,0.0146229173988103,0.0,0.0,-0.4620294570922851,0.3984386920928955
-0.0777335166931152,1.4563850164413452,-0.1369423270225525,0.0059546078555285,0.054662000387907,0.0153688890859484,0.0,0.0,-0.3421205282211303,0.5164163112640381
-0.0790737122297287,1.4564253091812134,-0.1339765936136245,0.0017898984951898,0.054613146930933,-0.0009769888129085,0.0,0.0,-0.2168304920196533,-0.2325884103775024
-0.0804264992475509,1.4563684463500977,-0.1352580934762954,-0.0025282327551394,0.0546019934117794,-0.000223187264055,0.0,0.0,-0.497703492641449,0.4256470203399658
-0.0817914977669715,1.4562143087387085,-0.1365260779857635,-0.0068463655188679,0.0546286478638649,0.0005331491120159,0.0,0.0,-0.1975756883621215,0.3705281019210815
-0.0831686034798622,1.4559632539749146,-0.1377787292003631,-0.0111644966527819,0.0546932034194469,0.0012911178637295,0.0,0.0,-0.3994510769844055,0.4609488248825073
-0.0845577269792556,1.4556149244308472,-0.139014258980751,-0.0154826296493411,0.0547956824302673,0.0020498107187449,0.0,0.0,-0.6405840516090393,0.3777675628662109
-0.0859585776925087,1.455169677734375,-0.1402307897806167,-0.0198007598519325,0.0549360886216163,0.0028081082273274,0.0,0.0,-0.6295717358589172,0.7495466470718384
-0.0872973427176475,1.4546328783035278,-0.1321782767772674,-0.0237888135015964,0.05325822904706,-0.0335573032498359,0.0,0.0,-0.5463153123855591,0.1759233474731445
-0.0886474624276161,1.453999161720276,-0.1333510130643844,-0.0281071756035089,0.0516181215643882,-0.032802116125822,0.0,0.0,-0.829857587814331,-0.333219051361084
-0.0900086387991905,1.4532685279846191,-0.1344989240169525,-0.0324255190789699,0.0500156320631504,-0.0320498645305633,0.0,0.0,-0.731560230255127,0.2027329206466674
-0.0913806930184364,1.4524405002593994,-0.1356199383735656,-0.0367438457906246,0.0484505631029605,-0.0313014239072799,0.0,0.0,-0.7615575194358826,0.234301209449768
-0.0927632302045822,1.451515555381775,-0.1367120146751403,-0.0410621613264083,0.04692267999053,-0.0305576864629983,0.0,0.0,-0.5439151525497437,0.6373074054718018
-0.0940971374511718,1.4504908323287964,-0.1303721964359283,-0.0454470515251159,0.0439524240791797,-0.0594053342938423,0.0,0.0,-0.7224377989768982,0.0102276802062988
-0.0954407677054405,1.4493693113327026,-0.1313999891281128,-0.0497658811509609,0.0410187318921089,-0.058673582971096,0.0,0.0,-0.8642510771751404,0.2606120109558105
-0.0967939347028732,1.448150634765625,-0.132392406463623,-0.0540846846997737,0.0381212644279003,-0.0579491555690765,0.0,0.0,-0.9436322450637816,-0.03729248046875
-0.0981563553214073,1.4468350410461426,-0.13334721326828,-0.0584034658968448,0.0352596156299114,-0.0572329387068748,0.0,0.0,-0.8565307259559631,-0.3109952211380005
-0.0995275527238845,1.4454224109649658,-0.1342621594667434,-0.0627222135663032,0.0324333272874355,-0.0565257892012596,0.0,0.0,-0.9782935380935668,-0.0931424498558044
-0.1009072288870811,1.4439125061035156,-0.1351349949836731,-0.0670409351587295,0.0296418834477663,-0.0558285638689994,0.0,0.0,-0.9497483372688292,-0.1082357764244079
-0.1022947281599044,0.0,-0.1359634101390838,-0.071359634399414,0.0268847960978746,-0.0551420971751213,0.0,0.0,-0.9486995935440063,0.1641350984573364
-0.1036898642778396,1.4406020641326904,-0.1367451101541519,-0.0756783112883567,0.0241614356637001,-0.0544672980904579,0.0,0.0,-0.9875484108924866,-0.4712622761726379
-0.105091854929924,1.4388011693954468,-0.1374777555465698,-0.0799969509243965,0.021471194922924,-0.0538049936294555,0.0,0.0,-0.9981355667114258,0.1852390766143798
-0.106500431895256,1.4369032382965088,-0.1381590217351913,-0.084315575659275,0.0188133902847766,-0.0531559698283672,0.0,0.0,-0.9648358821868896,0.0852541923522949
-0.107914924621582,1.4349082708358765,-0.1387866586446762,-0.0886341705918312,0.0161873549222946,-0.0525210909545421,0.0,0.0,-0.9591131210327148,-0.4966896772384643
-0.1093347519636154,1.4328162670135498,-0.1393583118915558,-0.0929527431726455,0.01359230466187,-0.0519012026488781,0.0,0.0,-0.9957706332206726,-0.3394812345504761
-0.1107595413923263,1.4306272268295288,-0.139871746301651,-0.0972712934017181,0.0110274497419595,-0.0512970574200153,0.0,0.0,-0.974498987197876,-0.1393925547599792
-0.1121884360909462,1.4283411502838137,-0.1403247416019439,-0.1015898287296295,0.0084919678047299,-0.0507094636559486,0.0,0.0,-0.9927963614463806,-0.4120513200759887
-0.1136209517717361,1.4259579181671145,-0.1407151520252227,-0.1059083566069603,0.0059850108809769,-0.0501391589641571,0.0,0.0,-0.992059290409088,-0.1085221767425537
-0.1150565147399902,1.4234775304794312,-0.1410408318042755,-0.1102268621325492,0.0035056634806096,-0.0495869740843772,0.0,0.0,-0.9800410270690918,-0.3436329364776611
-0.1164942756295204,1.4209003448486328,-0.1412997841835022,-0.1145453453063964,0.001052972394973,-0.049053568392992,0.0,0.0,-0.9802691340446472,-0.6098750233650208
-0.1179826706647872,1.4182318449020386,-0.1476184725761413,-0.1185967028141021,-0.0001468177215429,-0.0239957738667726,0.0,0.0,-0.9974980354309082,0.1047823429107666
-0.1194718331098556,1.4154661893844604,-0.1477382928133011,-0.1229147836565971,-0.0013219233369454,-0.0235020313411951,0.0,0.0,-0.9724860191345216,-0.1577094793319702
-0.120961382985115,1.412603497505188,-0.1477859318256378,-0.1272328495979309,-0.0024733811151236,-0.0230291374027729,0.0,0.0,-0.9902934432029724,-0.2057240009307861
-0.1224504485726356,1.4096436500549316,-0.1477598398923874,-0.1315509229898452,-0.0036022551357746,-0.0225776191800832,0.0,0.0,-0.9874853491783142,-0.0146742463111877
-0.1239381805062294,1.406586766242981,-0.1476586163043975,-0.1358689814805984,-0.0047096600756049,-0.0221480876207351,0.0,0.0,-0.9946678280830384,-0.3256165981292724
-0.1254241019487381,1.4034326076507568,-0.1474809944629669,-0.1401870250701904,-0.0057967090979218,-0.0217410568147897,0.0,0.0,-0.998984158039093,0.4277083873748779
-0.1269071549177169,1.4001811742782593,-0.1472259312868118,-0.1445050686597824,-0.0068645640276372,-0.0213570147752761,0.0,0.0,-0.991248369216919,0.204113483428955
-0.1283867806196212,1.396832823753357,-0.1468925476074218,-0.1488231122493744,-0.0079143717885017,-0.0209963805973529,0.0,0.0,-0.9995196461677552,-0.3720353841781616
-0.1298620253801345,1.3933873176574707,-0.1464801579713821,-0.1531411260366439,-0.0089473528787493,-0.0206596218049526,0.0,0.0,-0.993076503276825,0.0588656663894653
-0.1313323080539703,1.3898446559906006,-0.1459882855415344,-0.1574591696262359,-0.0099647007882595,-0.0203469507396221,0.0,0.0,-0.9987602829933168,-0.3795220851898193
-0.1327965706586837,1.3862048387527466,-0.1454166769981384,-0.1617771834135055,-0.0109676290303468,-0.0200587399303913,0.0,0.0,-0.9994444847106934,-0.4742594957351684
