x_pos,y_pos,x_vel,y_vel,angle,ang_vel,leg_1,leg_2,main_booster,lat_booster
-0.00158481602557,1.4032020568847656,-0.1608206778764724,-0.3430279791355133,0.0020908918231725,0.041269265115261,0.0,0.0,-0.1304440357920162,0.991353724815058
-0.0031424523331224,1.3950799703598022,-0.1559551805257797,-0.3609777688980102,0.0022814406547695,0.0038118970114737,0.0,0.0,-0.8294609127787387,-0.9789499496937468
-0.0048125265166163,1.38652765750885,-0.1690149456262588,-0.380106508731842,0.0042633083648979,0.0396410077810287,0.0,0.0,-0.990191912045494,-0.6771915813716793
-0.0065942765213549,1.37755024433136,-0.1820845752954483,-0.399008959531784,0.0081330714747309,0.0774021744728088,0.0,0.0,0.0216894159089435,0.9461102737681154
-0.0082520488649606,1.3687604665756226,-0.1680782735347747,-0.3906701207160949,0.0103991674259305,0.0453264154493808,0.0,0.0,-0.6000740066694745,-0.6942298447812397
-0.0099899293854832,1.3595466613769531,-0.1774368733167648,-0.4095344841480255,0.0140164820477366,0.0723528489470481,0.0,0.0,-0.8027399872719325,0.6516432296407991
-0.0117107387632131,1.3499115705490112,-0.1747818887233734,-0.4282531440258026,0.0166803207248449,0.0532817766070365,0.0,0.0,-0.1021799985864162,0.8970432712137975
-0.0133705139160156,1.339859127998352,-0.1667191237211227,-0.4467925727367401,0.017418535426259,0.0147654321044683,0.0,0.0,0.4018209775684642,0.8560213699929762
-0.0150080677121877,1.3304598331451416,-0.1630683988332748,-0.4177435636520386,0.0167364962399005,-0.0136418063193559,0.0,0.0,-0.986135596995572,-0.950729603996662
-0.0167361255735158,1.3206417560577393,-0.1743124574422836,-0.4363712966442108,0.01823041588068,0.0298811644315719,0.0,0.0,-0.0287504219174763,-0.7760987270533993
-0.0185260772705078,1.3104007244110107,-0.1821353137493133,-0.455200731754303,0.0213302448391914,0.0620022639632225,0.0,0.0,0.7520717940168669,-0.6845117886170156
-0.0203042980283498,1.30057692527771,-0.1828107833862304,-0.4366874694824219,0.0262704025954008,0.098812460899353,0.0,0.0,-0.3816282334676979,-0.6831148714728754
-0.0221222881227731,1.2903330326080322,-0.1881583482027053,-0.4554120302200317,0.0325575359165668,0.125754028558731,0.0,0.0,0.3385624881042086,0.8146011766374446
-0.023813534528017,1.2800973653793335,-0.1742098480463028,-0.455044537782669,0.0375926308333873,0.1007110476493835,0.0,0.0,-0.8829322853027468,-0.6158799343008703
-0.0255273822695016,1.2694437503814695,-0.1777051389217376,-0.4736623466014862,0.0438458994030952,0.1250764578580856,0.0,0.0,-0.2188033693316271,-0.6515049300480756
-0.0272621158510446,1.258358120918274,-0.1811551004648208,-0.4929374754428863,0.0514374636113643,0.1518454849720001,0.0,0.0,0.6016912158906906,-0.729825375451511
-0.0289240833371877,1.248108983039856,-0.1758922040462494,-0.4558833837509155,0.0610494464635849,0.1922570466995239,0.0,0.0,0.3279888765631231,-0.8642260805341644
-0.0305088050663471,1.237887978553772,-0.1703196316957473,-0.4547877311706543,0.072784386575222,0.2347198277711868,0.0,0.0,0.0305385147580512,0.886422165276759
-0.0319501869380474,1.2280192375183103,-0.1544550359249115,-0.4391394853591919,0.0830245390534401,0.2048213481903076,0.0,0.0,0.7936905169246002,-0.8680072214844051
-0.0335623733699321,1.2186275720596311,-0.1733689755201339,-0.4181284606456756,0.0950827151536941,0.2411850690841674,0.0,0.0,0.5556790913227578,0.6171229731542867
-0.0350132957100868,1.2099024057388306,-0.1565505117177963,-0.3885455131530761,0.1064747422933578,0.2278609573841095,0.0,0.0,0.969346751587896,0.8432016428537799
-0.0363822951912879,1.2015516757965088,-0.14696004986763,-0.3718927502632141,0.1164825856685638,0.2001745402812957,0.0,0.0,0.9412069302966836,0.8346306596873223
-0.0375327095389366,1.193772315979004,-0.1240368634462356,-0.3464695513248443,0.1254360526800155,0.1790850162506103,0.0,0.0,-0.2895208574662229,0.8338484614074039
-0.0385423675179481,1.185576319694519,-0.1083476394414901,-0.3649016618728637,0.1327916830778122,0.1471259891986847,0.0,0.0,-0.7560230020726137,-0.8308199746230583
-0.039560604840517,1.176945447921753,-0.111504778265953,-0.3844838142395019,0.1424503624439239,0.1931908875703811,0.0,0.0,0.2526628900977843,0.9254189633696164
-0.0406305305659771,1.1686582565307615,-0.1150023937225341,-0.3691114783287048,0.1504419296979904,0.1598314046859741,0.0,0.0,-0.8374007888849597,0.7712238700089744
-0.0415583625435829,1.1599681377410889,-0.0994769185781478,-0.386913925409317,0.1571259945631027,0.1336817145347595,0.0,0.0,-0.4299276376625276,-0.6022748517323082
-0.042457677423954,1.1508495807647705,-0.0983285754919052,-0.4061815142631531,0.165518581867218,0.1678517013788223,0.0,0.0,0.974752294568239,0.6708729708570139
-0.0435324683785438,1.1426568031311035,-0.1143259033560752,-0.364903062582016,0.1723763793706894,0.1371559649705886,0.0,0.0,-0.3163154033972946,0.6660146743920737
-0.0444622039794921,1.1340532302856443,-0.0987719073891639,-0.383066177368164,0.1781877130270004,0.1162265986204147,0.0,0.0,-0.2572347074805183,-0.6844263383016129
-0.0453459732234478,1.1250219345092771,-0.0957249402999877,-0.402288943529129,0.1855616271495819,0.1474783718585968,0.0,0.0,0.199591851120777,0.7785655240523576
-0.0461886413395404,1.1160333156585691,-0.090231642127037,-0.400256335735321,0.1915524303913116,0.1198160648345947,0.0,0.0,0.7516632931771572,-0.9994465901241596
-0.0472629554569721,1.1078333854675293,-0.1154800876975059,-0.3654959499835968,0.1996468156576156,0.1618877798318863,0.0,0.0,0.1050032913895879,-0.99662244153821
-0.0484024994075298,1.099520206451416,-0.1242170333862304,-0.3708975911140442,0.2099961340427398,0.2069859504699707,0.0,0.0,0.0421357680531722,-0.9406779509759036
-0.0495740883052349,1.0913496017456057,-0.129486083984375,-0.3649317026138305,0.2224617451429367,0.2493121922016143,0.0,0.0,0.0227565607048065,0.7732458392015077
-0.0506632812321186,1.0834743976593018,-0.1199171915650367,-0.3517061471939087,0.233597919344902,0.2227234542369842,0.0,0.0,0.3262579001439059,0.6884264889718024
-0.0516898147761821,1.0757194757461548,-0.1124361380934715,-0.3462446331977844,0.2435374706983566,0.1987906545400619,0.0,0.0,-0.5061590754466179,-0.6013360453454903
-0.0526411049067974,1.067532658576965,-0.1062225252389907,-0.365732878446579,0.2548346519470215,0.2259434461593628,0.0,0.0,-0.8467503801348268,0.8724310230128607
-0.0534106269478797,1.0589592456817627,-0.0866021513938903,-0.3827454149723053,0.2646969854831695,0.1972464025020599,0.0,0.0,0.6657882495562928,-0.6456555358904954
-0.0542365089058876,1.050845980644226,-0.0937767326831817,-0.3626543581485748,0.2761570811271667,0.2292017489671707,0.0,0.0,0.9836246689948788,-0.8849884337216801
-0.0553957931697368,1.0435832738876345,-0.1287676095962524,-0.32526695728302,0.2893489897251129,0.2638379335403442,0.0,0.0,-0.9630899429321288,0.9617289304733276
-0.0563403144478797,1.035937786102295,-0.1051667779684066,-0.3419647216796875,0.3004069626331329,0.2211594879627227,0.0,0.0,-0.9666452407836914,0.9832543134689332
-0.05706787109375,1.0279016494750977,-0.0814278870820999,-0.3589794933795929,0.3093693554401397,0.1792484372854232,0.0,0.0,-0.9662379622459412,0.9933576583862304
-0.0575779899954795,1.019484281539917,-0.0575956813991069,-0.3755197525024414,0.3161916136741638,0.136445552110672,0.0,0.0,-0.9808428883552552,0.9905710220336914
-0.0578847900032997,1.0106686353683472,-0.035651110112667,-0.3928987681865692,0.321356326341629,0.1032945066690445,0.0,0.0,-0.9747057557106018,0.946843147277832
-0.0579803474247455,1.0014604330062866,-0.0127329500392079,-0.4099575579166412,0.3246636986732483,0.0661477893590927,0.0,0.0,-0.9878485202789308,0.991626501083374
-0.0578590407967567,0.9918668866157532,0.0108940601348876,-0.4266609847545624,0.3259574174880981,0.0258746482431888,0.0,0.0,-0.983911395072937,0.9941966533660888
-0.0575444214046001,0.9818925261497498,0.0316175669431686,-0.4432773292064667,0.325796514749527,-0.0032181018032133,0.0,0.0,-0.9902111887931824,0.9317514896392822
-0.0570411682128906,0.9715315699577332,0.0517216101288795,-0.4601718187332153,0.3243497610092163,-0.0289352424442768,0.0,0.0,-0.985348343849182,0.9854844808578492
-0.0563289634883403,0.9607822895050048,0.0742700919508934,-0.4770657420158386,0.3211695849895477,-0.0636031702160835,0.0,0.0,-0.977581262588501,0.6222786903381348
-0.0554211623966693,0.9496400356292723,0.0951573923230171,-0.4942435920238495,0.3166201710700989,-0.090988203883171,0.0,0.0,-0.9832820892333984,0.4965062141418457
-0.0543745048344135,0.9380764961242676,0.1088561415672302,-0.5130263566970825,0.3122718632221222,-0.0869661346077919,0.0,0.0,-0.8853040337562561,0.9565136432647704
-0.0531025901436805,0.9261277318000792,0.1334220468997955,-0.5297343730926514,0.3058246374130249,-0.1289446204900741,0.0,0.0,-0.76662278175354,-0.0728555917739868
-0.0516904816031456,0.9137578010559082,0.1472609937191009,-0.5485184192657471,0.299574077129364,-0.1250111013650894,0.0,0.0,-0.5421450138092041,-0.3655264377593994
-0.0501375198364257,0.9009665846824646,0.1611611247062683,-0.5673023462295532,0.2935178279876709,-0.1211251243948936,0.0,0.0,-0.7422962784767151,-0.5149500966072083
-0.0484877601265907,0.8877313733100891,0.169487178325653,-0.5873268246650696,0.2888684272766113,-0.0929879769682884,0.0,0.0,-0.3464714288711548,0.0468504428863525
-0.046696089208126,0.8740746974945068,0.1834944039583206,-0.6061089634895325,0.2844083309173584,-0.0892021507024765,0.0,0.0,0.1694238185882568,0.8703534603118896
-0.0447221770882606,0.8607639670372009,0.2032279074192047,-0.590462327003479,0.2784115076065063,-0.1199365258216857,0.0,0.0,0.2504804134368896,-0.1203528046607971
-0.0427225120365619,0.8479539752006531,0.2053844034671783,-0.5683123469352722,0.2728601098060608,-0.1110282391309738,0.0,0.0,0.2594226598739624,0.6804583072662354
-0.0407530777156353,0.8355891108512878,0.2036329805850982,-0.5483168959617615,0.2660106718540191,-0.136989027261734,0.0,0.0,0.5582542419433594,0.6127617359161377
-0.0386339202523231,0.8233432173728943,0.219531774520874,-0.5428987741470337,0.2582209706306457,-0.1557939350605011,0.0,0.0,0.389383316040039,-0.6160637140274048
-0.0366586670279502,0.8114805221557617,0.2039505541324615,-0.526107907295227,0.2516665160655975,-0.1310891807079315,0.0,0.0,-0.4990466833114624,-0.069955289363861
-0.0345394127070903,0.7991966009140015,0.2181870192289352,-0.544890820980072,0.2452831864356994,-0.1276665031909942,0.0,0.0,0.6405580043792725,-0.4949027299880981
-0.0324011817574501,0.7873855829238892,0.2198360860347747,-0.5239498019218445,0.2391756623983383,-0.1221511363983154,0.0,0.0,0.3706215620040893,0.4495464563369751
-0.0301909446716308,0.7756399512290955,0.2268475741147995,-0.521095335483551,0.2332618832588195,-0.1182751879096031,0.0,0.0,0.2433784008026123,0.1236572265625
-0.0280296318233013,0.7640895247459412,0.222237542271614,-0.5123953223228455,0.2270770370960235,-0.123697318136692,0.0,0.0,-0.3742783069610595,0.0413963794708251
-0.0257234573364257,0.7521175742149353,0.2365668267011642,-0.531177282333374,0.2210479080677032,-0.1205822601914405,0.0,0.0,-0.3520764112472534,-0.6328709721565247
-0.0233134273439645,0.7397026419639587,0.2457262277603149,-0.5510804057121277,0.2162768393754959,-0.0954216793179512,0.0,0.0,0.1179559230804443,-0.6061128973960876
-0.0209100730717182,0.7277101874351501,0.2436807453632354,-0.5325153470039368,0.2128970175981521,-0.0675964727997779,0.0,0.0,0.3685719966888428,-0.5801137685775757
-0.0185719486325979,0.715826690196991,0.2360327690839767,-0.5278390049934387,0.2106501907110214,-0.0449361428618431,0.0,0.0,0.1051832437515258,-0.214908480644226
-0.0162434577941894,0.7041662931442261,0.2352238893508911,-0.5179041624069214,0.2082564681768417,-0.047874379903078,0.0,0.0,-0.4219499826431274,0.1481621265411377
-0.0137696266174316,0.6920838952064514,0.2496197521686554,-0.5366827845573425,0.2059948593378067,-0.0452319458127021,0.0,0.0,-0.0963867306709289,-0.6859709620475769
-0.0112159727141261,0.6795666217803955,0.2558240294456482,-0.5562549829483032,0.2055285722017288,-0.0093256803229451,0.0,0.0,-0.5728393197059631,0.2043713331222534
-0.0085170743986964,0.6666273474693298,0.2702338993549347,-0.5750329494476318,0.2051834315061569,-0.0069027310237288,0.0,0.0,-0.4033034443855285,-0.6602832078933716
-0.0057260515168309,0.6532440781593323,0.2779380083084106,-0.5949758887290955,0.2063590735197067,0.0235125366598367,0.0,0.0,-0.4121923446655273,-0.5237373113632202
-0.0028248787857592,0.6394218802452087,0.2879139184951782,-0.6146252155303955,0.2085821032524109,0.0444609485566616,0.0,0.0,-0.7909733653068542,-0.9081454873085022
0.0001489639253122,0.6251455545425415,0.2931692600250244,-0.6351078748703003,0.2128369659185409,0.0850976631045341,0.0,0.0,-0.8808711767196655,-0.6023998856544495
0.0032199858687818,0.6104371547698975,0.3015821278095245,-0.6545047163963318,0.218413159251213,0.1115237474441528,0.0,0.0,-0.8852400779724121,-0.9095758199691772
0.0063737868331372,0.5952959060668945,0.308221161365509,-0.6740221381187439,0.2256600111722946,0.1449365317821502,0.0,0.0,-0.9259936809539796,-0.8830897212028503
0.009590339846909,0.5797142386436462,0.3123610317707062,-0.693971574306488,0.235093668103218,0.1886724531650543,0.0,0.0,-0.7528845071792603,-0.1888320446014404
0.0129515649750828,0.5637114644050598,0.3267697691917419,-0.7127561569213867,0.2446032464504242,0.1901915520429611,0.0,0.0,-0.4108873605728149,-0.2449841499328613
0.0164572708308696,0.5472875833511353,0.3411711454391479,-0.7315407395362854,0.2541815638542175,0.1915660798549652,0.0,0.0,0.1381094455718994,-0.2206003665924072
0.019940186291933,0.5309918522834778,0.3391564190387726,-0.7258595824241638,0.2634982168674469,0.1863338649272918,0.0,0.0,-0.6220538020133972,-0.4608110189437866
0.0235671047121286,0.5142750144004822,0.3535372614860534,-0.7446436285972595,0.2728685736656189,0.1874080151319503,0.0,0.0,0.0909377336502075,-0.5385366082191467
0.0271636955440044,0.4977861642837524,0.349434494972229,-0.7347813844680786,0.2833588719367981,0.2098060846328735,0.0,0.0,0.0081509351730346,0.4444738626480102
0.030855655670166,0.4814100265502929,0.3587323427200317,-0.7298972010612488,0.2941333353519439,0.2154888212680816,0.0,0.0,0.4612095355987549,0.4861364364624023
0.0346231460571289,0.4650567770004272,0.3662043213844299,-0.7289804816246033,0.305034726858139,0.2180280685424804,0.0,0.0,0.8729448318481445,0.6413252353668213
0.038553524762392,0.4490047991275787,0.3834814429283142,-0.7154603600502014,0.3149424195289612,0.1981538236141204,0.0,0.0,0.6397981643676758,0.0330979824066162
0.0425900444388389,0.4334080219268799,0.3934527635574341,-0.6954427361488342,0.325539231300354,0.21193628013134,0.0,0.0,0.9419857263565063,0.2228668928146362
0.0467758178710937,0.4181277155876159,0.4076930582523346,-0.6816149950027466,0.3368993997573852,0.2272031754255294,0.0,0.0,0.5601596832275391,0.1931803226470947
0.0508640296757221,0.4034282863140106,0.398001879453659,-0.6558756232261658,0.3482318520545959,0.2266490161418914,0.0,0.0,0.9319103956222534,0.6748855113983154
0.0548763275146484,0.3896102607250213,0.3916987180709839,-0.6164736151695251,0.3582599461078644,0.2005615979433059,0.0,0.0,0.7775635719299316,0.2556889057159424
0.058903694152832,0.3764497637748718,0.3926670551300049,-0.5874612927436829,0.3688882887363434,0.2125667035579681,0.0,0.0,0.972648024559021,0.4171140193939209
0.063043400645256,0.3634786009788513,0.4034529328346252,-0.579249382019043,0.3800458610057831,0.2231517136096954,0.0,0.0,0.5707623958587646,0.2525370121002197
0.067097283899784,0.3507329523563385,0.3951626420021057,-0.5692370533943176,0.3909363746643066,0.2178103476762771,0.0,0.0,0.7363450527191162,0.4711275100708008
0.0710273757576942,0.3388745188713074,0.3824945092201233,-0.5299764275550842,0.4021942019462585,0.2251566648483276,0.0,0.0,0.8279240131378174,0.6808472871780396
0.0748736411333084,0.3274785578250885,0.3755688071250915,-0.5090838670730591,0.4119266271591186,0.1946485340595245,0.0,0.0,0.89274001121521,0.6332788467407227
0.0783972740173339,0.3168568611145019,0.3449862599372864,-0.4742470681667328,0.4198903441429138,0.1592749655246734,0.0,0.0,0.724806547164917,0.7739384174346924
0.0819070786237716,0.3069123923778534,0.3449992537498474,-0.4437686800956726,0.4263623654842376,0.1294397413730621,0.0,0.0,0.6943211555480957,0.252941370010376
0.0851857215166091,0.2975624203681946,0.3222121298313141,-0.4172841310501098,0.4325048923492431,0.1228502616286277,0.0,0.0,0.7150144577026367,0.3195457458496094
0.088197037577629,0.288794457912445,0.2959215044975281,-0.3912986218929291,0.4381670951843261,0.1132440343499183,0.0,0.0,0.5463302135467529,0.4472858905792236
0.0911248177289962,0.2802221775054931,0.2877727448940277,-0.3825641274452209,0.4436312615871429,0.1092830449342727,0.0,0.0,0.3989057540893554,0.5392022132873535
0.093909740447998,0.2718759477138519,0.2748433947563171,-0.3721119165420532,0.4476335346698761,0.0800457224249839,0.0,0.0,0.3233486413955688,0.8307666778564453
0.0965825095772743,0.2636256814002991,0.2654081583023071,-0.3672744631767273,0.4496757984161377,0.0408460274338722,0.0,0.0,0.0835510492324829,0.8865647315979004
0.0993170738220214,0.2556922137737274,0.2733974754810333,-0.3526168763637543,0.4497441053390503,0.0013661696575582,0.0,0.0,-0.0033976435661315,0.7988917827606201
0.1022467613220214,0.2473743557929992,0.2946853041648865,-0.3691316843032837,0.447866678237915,-0.0375487506389617,0.0,0.0,-0.0146312713623046,0.6994496583938599
0.1053656563162803,0.2386824190616607,0.3153789639472961,-0.3851940929889679,0.4440460205078125,-0.0764129012823104,0.0,0.0,0.3758189678192138,0.1119289398193359
0.1083177551627159,0.2304305881261825,0.2989047765731811,-0.365581601858139,0.4400072395801544,-0.0807756632566452,0.0,0.0,0.0655081272125244,-0.1892091035842895
0.1112446784973144,0.2225624173879623,0.2961340546607971,-0.3486226201057434,0.4362584054470062,-0.0749767571687698,0.0,0.0,-0.288795530796051,-0.0082823038101196
0.1142961531877517,0.2142712473869323,0.3087239265441894,-0.3673945665359497,0.432368516921997,-0.0777975916862487,0.0,0.0,-0.3045195341110229,-0.2297741174697876
0.1174701675772667,0.2055569291114807,0.3211220800876617,-0.3861664831638336,0.4283325970172882,-0.0807185992598533,0.0,0.0,0.1424201726913452,-0.6368282437324524
0.1205343231558799,0.1971657574176788,0.3089969754219055,-0.3721539676189422,0.4255229830741882,-0.0561923086643219,0.0,0.0,-0.0549849867820739,-0.4763883948326111
0.1237165480852127,0.1883514523506164,0.3209564089775085,-0.3909250795841217,0.422558456659317,-0.0592906400561332,0.0,0.0,-0.0290023684501647,-0.7884440422058105
0.1269461661577224,0.1790692955255508,0.3240299224853515,-0.4122194647789001,0.4214035272598266,-0.0230983607470989,0.0,0.0,-0.119801640510559,-0.8287885785102844
0.130217358469963,0.1693134903907776,0.3264070749282837,-0.433803915977478,0.4221772849559784,0.0154751343652606,0.0,0.0,0.1916396617889404,-0.7759345769882202
0.1333602964878082,0.1596420854330063,0.3122652173042297,-0.4304520487785339,0.4243838489055633,0.0441309884190559,0.0,0.0,0.2244631052017212,-0.8638938665390015
0.1364062279462814,0.1500582993030548,0.3010370433330536,-0.4270197749137878,0.4282315671443939,0.0769542306661605,0.0,0.0,0.7410435676574707,-0.851845920085907
0.1394777297973632,0.140614703297615,0.3018929958343506,-0.4213278591632843,0.4339440762996673,0.1142504438757896,0.0,0.0,0.9278509616851808,-0.6054484844207764
0.1423793733119964,0.1318831592798233,0.2836343348026275,-0.3901036977767944,0.4410641193389892,0.1424013078212738,0.0,0.0,0.8975303173065186,0.2217671871185302
0.145006850361824,0.1240038946270942,0.2562671601772308,-0.3522433042526245,0.448145180940628,0.1416205614805221,0.0,0.0,0.7425165176391602,0.8161059617996216
0.1477095633745193,0.1162279918789863,0.2653911709785461,-0.3471704423427582,0.4534933269023895,0.1069627180695533,0.0,0.0,0.0526270866394043,0.6346567869186401
0.1504340171813964,0.1086392030119896,0.2688803970813751,-0.3384438157081604,0.4574138522148132,0.0784107148647308,0.0,0.0,0.777947187423706,0.2166132926940918
