x_pos,y_pos,x_vel,y_vel,angle,ang_vel,leg_1,leg_2,main_booster,lat_booster
-0.0015818595420569,1.4029406309127808,-0.1595202386379242,-0.3546466529369354,0.00119053281378,0.0234420057386159,0.0,0.0,-0.4132107496261596,0.6891878843307495
-0.0031627654097974,1.3942971229553225,-0.1571357548236847,-0.384158194065094,0.0002409385051578,-0.0189929939806461,0.0,0.0,0.2163581848144531,0.6119383573532104
-0.004643440246582,1.3854109048843384,-0.1454437524080276,-0.3949435949325561,-0.0023521068505942,-0.0518658570945262,0.0,0.0,-0.2697199583053589,0.7870311737060547
-0.0061300275847315,1.375838041305542,-0.1441197544336319,-0.4254715144634247,-0.0068423473276197,-0.0898131057620048,0.0,0.0,0.0336380004882812,0.7407076358795166
-0.007516860961914,1.366194725036621,-0.1320746839046478,-0.4286414980888366,-0.0133805638179183,-0.130776435136795,0.0,0.0,0.3804638385772705,0.060554027557373
-0.0088362693786621,1.3565462827682495,-0.1252089142799377,-0.4288926124572754,-0.0200348142534494,-0.1330972611904144,0.0,0.0,-0.1098431348800659,-0.0396267771720886
-0.0102077480405569,1.346214771270752,-0.1297358572483062,-0.4592957198619842,-0.0273623038083314,-0.146563321352005,0.0,0.0,0.2981317043304443,-0.5662258267402649
-0.0115322116762399,1.335960865020752,-0.1257659196853637,-0.4558710157871246,-0.03396637737751,-0.1320938766002655,0.0,0.0,0.6604893207550049,-0.2782326936721802
-0.0128897670656442,1.3262851238250732,-0.1283162534236908,-0.4302139282226562,-0.0413165763020515,-0.1470175385475158,0.0,0.0,-0.2010082006454467,-0.1936618685722351
-0.014295196160674,1.3159266710281372,-0.1324220150709152,-0.4606234133243561,-0.0493606850504875,-0.1608971655368805,0.0,0.0,0.2793252468109131,-0.0438541173934936
-0.015657901763916,1.305570363998413,-0.1277541369199752,-0.4605801403522491,-0.0577891580760479,-0.1685850024223327,0.0,0.0,0.5342607498168945,-0.353918194770813
-0.0169717781245708,1.295260310173035,-0.1224728822708129,-0.4585813283920288,-0.066613957285881,-0.1765120774507522,0.0,0.0,-0.1828843355178833,0.419835090637207
-0.0183290485292673,1.2842682600021362,-0.1261070966720581,-0.4889908134937286,-0.0761517137289047,-0.1907724440097808,0.0,0.0,-0.2035009860992431,-0.0297563076019287
-0.0197281837463378,1.272594332695007,-0.1295728087425232,-0.5193966627120972,-0.0864076912403106,-0.2051379680633545,0.0,0.0,0.0510389804840087,-0.6373788714408875
-0.0210705753415823,1.2610223293304443,-0.1246000081300735,-0.5148954391479492,-0.0959919542074203,-0.1917026937007904,0.0,0.0,-0.5289093255996704,-0.6909899115562439
-0.0224966052919626,1.2487666606903076,-0.1333447396755218,-0.5453134775161743,-0.1051840856671333,-0.1838588863611221,0.0,0.0,0.2889246940612793,-0.8668251037597656
-0.0238340385258197,1.2368260622024536,-0.1256093084812164,-0.5312813520431519,-0.1132703498005867,-0.1617402583360672,0.0,0.0,-0.8420634269714355,-0.7079338431358337
-0.0252493862062692,1.224204659461975,-0.1337402909994125,-0.5615612268447876,-0.1210212707519531,-0.1550326645374298,0.0,0.0,0.2270333766937255,-0.9236441850662231
-0.0266140941530466,1.211795687675476,-0.129847377538681,-0.5520618557929993,-0.1276291757822036,-0.1321701556444168,0.0,0.0,-0.5151535272598267,-0.979136288166046
-0.0280972477048635,1.1987206935882568,-0.1431597620248794,-0.5815649032592773,-0.1327707320451736,-0.1028404086828231,0.0,0.0,0.5460027456283569,-0.6199649572372437
-0.0294362064450979,1.1859978437423706,-0.1295349895954132,-0.5658527612686157,-0.13712939620018,-0.0871808901429176,0.0,0.0,0.1158548593521118,-0.8865472078323364
-0.03082275390625,1.173043966293335,-0.1353032290935516,-0.5760363340377808,-0.1404730975627899,-0.066879965364933,0.0,0.0,0.3691442012786865,-0.7579718828201294
-0.0321120247244834,1.1600641012191772,-0.126505509018898,-0.5771103501319885,-0.1428878903388977,-0.0483000352978706,0.0,0.0,-0.6454715132713318,-0.829353928565979
-0.0334835052490234,1.1464049816131592,-0.1354227513074875,-0.6072357296943665,-0.1446045488119125,-0.0343364849686622,0.0,0.0,-0.0269256830215454,-0.8392098546028137
-0.0349576957523822,1.132083773612976,-0.1470210999250412,-0.6365483999252319,-0.145011767745018,-0.008145036175847,0.0,0.0,0.2615305185317993,-0.4805666208267212
-0.0364866256713867,1.1178808212280271,-0.1511937975883484,-0.6314110159873962,-0.1467021405696869,-0.0338073745369911,0.0,0.0,0.6731970310211182,-0.5698384642601013
-0.037966251373291,1.1040995121002195,-0.1466463059186935,-0.6126261353492737,-0.1480116546154022,-0.0261898729950189,0.0,0.0,0.323668360710144,-0.560737669467926
-0.0395208373665809,1.0906578302383425,-0.1542613357305526,-0.5975282788276672,-0.1492115706205368,-0.0239980071783065,0.0,0.0,-0.151293396949768,-0.3411433696746826
-0.0410898216068744,1.0765337944030762,-0.1549212634563446,-0.6279324293136597,-0.1511879712343216,-0.0395281463861465,0.0,0.0,0.6724960803985596,-0.826008677482605
-0.0426852218806743,1.062476634979248,-0.1583822965621948,-0.6248875260353088,-0.1523332744836807,-0.0229059662669897,0.0,0.0,-0.3697319030761719,-0.5572330951690674
-0.0443326011300087,1.047752857208252,-0.1639011949300766,-0.6544734835624695,-0.1531760543584823,-0.0168556682765483,0.0,0.0,0.4545822143554687,-0.2032129764556884
-0.045997716486454,1.032934546470642,-0.1645629853010177,-0.6587929129600525,-0.1551186740398407,-0.0388524904847145,0.0,0.0,0.4911510944366455,-0.6085101962089539
-0.0476850494742393,1.018541932106018,-0.1670477241277694,-0.63985276222229,-0.1568030714988708,-0.0336879007518291,0.0,0.0,-0.7820343971252441,0.2766861915588379
-0.0493776313960552,1.003467082977295,-0.1667871326208114,-0.6702576875686646,-0.1592738628387451,-0.0494159869849681,0.0,0.0,-0.813754677772522,-0.6967973709106445
-0.051126480102539,0.9877241253852844,-0.172985628247261,-0.6998873353004456,-0.1611745357513427,-0.0380135253071785,0.0,0.0,0.7155256271362305,0.4864974021911621
-0.0527325645089149,0.9724574089050292,-0.1580005288124084,-0.678806483745575,-0.1637768000364303,-0.052045501768589,0.0,0.0,0.4598473310470581,-0.7923941612243652
-0.0543609634041786,0.9571216106414796,-0.1609992533922195,-0.6817955374717712,-0.1656227856874466,-0.0369198583066463,0.0,0.0,0.6155111789703369,-0.9212660789489746
-0.0558950416743755,0.9422195553779602,-0.152675449848175,-0.6623957753181458,-0.1663547307252884,-0.0146385356783866,0.0,0.0,0.1999883651733398,-0.6595323085784912
-0.0574069991707801,0.9275686740875244,-0.1509460359811782,-0.651172399520874,-0.1665986180305481,-0.004877564497292,0.0,0.0,-0.8794733285903931,-0.8360272645950317
-0.0589764602482318,0.9122526049613952,-0.1575075089931488,-0.680656373500824,-0.1660377085208892,0.0112183624878525,0.0,0.0,-0.9161800742149352,-0.3667610883712768
-0.0605401024222373,0.8962543606758118,-0.1561335623264312,-0.7110617756843567,-0.1662686914205551,-0.0046198079362511,0.0,0.0,0.4322632551193237,-0.7468497157096863
-0.0619624145328998,0.8802286386489868,-0.1428852677345276,-0.7121778726577759,-0.1656082719564438,0.013208121061325,0.0,0.0,-0.5697818994522095,-0.3075489401817322
-0.0633761435747146,0.8635208010673523,-0.1412405371665954,-0.742583155632019,-0.1657394170761108,-0.0026226213667541,0.0,0.0,0.3264880180358886,-0.866046667098999
-0.0646879225969314,0.8467515110969543,-0.1320748031139373,-0.7452046275138855,-0.1648452579975128,0.0178829543292522,0.0,0.0,0.1488509178161621,-0.1507899165153503
-0.0659830123186111,0.8296099901199341,-0.1294781267642974,-0.7618482708930969,-0.1648720502853393,-0.0005358475027605,0.0,0.0,-0.3701772689819336,-0.8155620098114014
-0.0673254951834678,0.81179279088974,-0.1349401026964187,-0.7917995452880859,-0.1641841828823089,0.0137574914842844,0.0,0.0,0.4932731389999389,-0.6876238584518433
-0.0685828179121017,0.7938859462738037,-0.1271289885044098,-0.7957081198692322,-0.1627937704324722,0.027808491140604,0.0,0.0,0.8066656589508057,-0.1952770352363586
-0.0697993263602256,0.7766764760017395,-0.12168600410223,-0.7648671865463257,-0.1627580672502517,0.0007141696987673,0.0,0.0,0.0940997600555419,-0.7518093585968018
-0.0710733383893966,0.7596027255058289,-0.1280889064073562,-0.7587565779685974,-0.1620722115039825,0.0137168420478701,0.0,0.0,-0.3973596096038818,-0.4059731960296631
-0.0723310485482215,0.7418467998504639,-0.1256749331951141,-0.7891615629196167,-0.1621684283018112,-0.0019242443377152,0.0,0.0,0.5661412477493286,-0.67019122838974
-0.0733898133039474,0.7241867184638977,-0.1066465824842453,-0.7848091125488281,-0.1613929569721222,0.0155092999339103,0.0,0.0,0.5730414390563965,-0.5566757321357727
-0.0744190216064453,0.7069114446640015,-0.1038855090737342,-0.7676884531974792,-0.1604244261980056,0.019370699301362,0.0,0.0,0.0809117555618286,-0.3429614901542663
-0.0753121376037597,0.6893673539161682,-0.0898487940430641,-0.7796775102615356,-0.1598982959985733,0.0105226607993245,0.0,0.0,0.6218042373657227,-0.8626889586448669
-0.0761240944266319,0.6723239421844482,-0.082681305706501,-0.7573233246803284,-0.1584048420190811,0.0298687666654586,0.0,0.0,0.018572449684143,-0.6668488383293152
-0.076816938817501,0.655028760433197,-0.0714426487684249,-0.7684462666511536,-0.1562488228082656,0.0431207306683063,0.0,0.0,0.6523733139038086,-0.4860222339630127
-0.0775098800659179,0.6377719640731812,-0.0702472180128097,-0.7668712139129639,-0.1552956402301788,0.0190632976591587,0.0,0.0,0.3581322431564331,-0.9255856275558472
-0.0780635848641395,0.6208085417747498,-0.0574954748153686,-0.7537097334861755,-0.1531730145215988,0.0424526035785675,0.0,0.0,0.7455126047134399,-0.861550509929657
-0.078393742442131,0.6042013764381409,-0.0364038422703743,-0.7377554178237915,-0.1497954279184341,0.0675514712929725,0.0,0.0,-0.3172657489776611,-0.0180837512016296
-0.0787012130022049,0.5869118571281433,-0.0333927348256111,-0.7681600451469421,-0.1471618562936782,0.0526717379689216,0.0,0.0,0.7518602609634399,-0.9110642075538636
-0.0790226906538009,0.5702197551727295,-0.0357383377850055,-0.7415183782577515,-0.1435824930667877,0.0715876966714859,0.0,0.0,0.2338802814483642,-0.2837522625923157
-0.0792431831359863,0.5532477498054504,-0.0250842776149511,-0.7540224194526672,-0.140556052327156,0.060529064387083,0.0,0.0,0.8089172840118408,-0.6564103364944458
-0.0795003920793533,0.536773145198822,-0.0290601067245006,-0.7318942546844482,-0.1372269392013549,0.0665823444724083,0.0,0.0,0.7401643991470337,-0.816362202167511
-0.0795808807015419,0.5204073786735535,-0.0125768780708312,-0.7269578576087952,-0.1327131390571594,0.0902761369943618,0.0,0.0,0.4838390350341797,-0.6591423153877258
-0.0795923247933387,0.5041844248771667,-0.0063445144332945,-0.7205641269683838,-0.1275389641523361,0.1034838110208511,0.0,0.0,0.0840831995010376,-0.6495291590690613
-0.0795908942818641,0.4876744747161865,-0.0056774346157908,-0.7332891225814819,-0.1217557117342948,0.1156651824712753,0.0,0.0,0.8352673053741455,-0.1300433278083801
-0.0796210318803787,0.4714846611022949,-0.0075065093114972,-0.7191871404647827,-0.1172898784279823,0.0893165171146392,0.0,0.0,0.8383398056030273,-0.5694736838340759
-0.0795331969857215,0.4560409188270569,0.0037523359060287,-0.6860013604164124,-0.1122836992144584,0.1001234501600265,0.0,0.0,0.5659778118133545,-0.4929820299148559
-0.0793111771345138,0.4403147399425506,0.0174497887492179,-0.698594868183136,-0.1075731739401817,0.0942107290029525,0.0,0.0,0.7124249935150146,-0.4143012762069702
-0.0789405852556228,0.4252208471298218,0.0328312590718269,-0.6705402731895447,-0.103373996913433,0.0839834362268447,0.0,0.0,0.6798669099807739,-0.6885156631469727
-0.0786523818969726,0.4101838767528534,0.0240654405206441,-0.6679878234863281,-0.0986563712358474,0.0943524986505508,0.0,0.0,0.7992615699768066,-0.1653091311454773
-0.0783650428056716,0.3955795764923095,0.0250610746443271,-0.6488410234451294,-0.095009721815586,0.0729328244924545,0.0,0.0,0.8001878261566162,-0.5903734564781189
-0.0779978781938552,0.3813075721263885,0.0323518030345439,-0.6340383291244507,-0.0906812101602554,0.0865702480077743,0.0,0.0,0.5912270545959473,-0.3518831729888916
-0.0776543617248535,0.3675845265388489,0.0311347749084234,-0.6097210645675659,-0.087497167289257,0.0636808052659034,0.0,0.0,0.7558515071868896,-0.6669626832008362
-0.0771993622183799,0.3540913760662079,0.0412963144481182,-0.5994569063186646,-0.0833346620202064,0.0832501649856567,0.0,0.0,0.5098710060119629,-0.3404525518417358
-0.0767190903425216,0.3404531478881836,0.0444983318448066,-0.6059486865997314,-0.0798417553305625,0.0698584914207458,0.0,0.0,0.8238201141357422,-0.2269041538238525
-0.0761092156171798,0.3266593813896179,0.0576213411986827,-0.6128811240196228,-0.0765045806765556,0.0667434260249137,0.0,0.0,0.9231522083282472,-0.6834015250205994
-0.0755367279052734,0.3127772808074951,0.0530897006392478,-0.6167755722999573,-0.0723844096064567,0.0824035853147506,0.0,0.0,0.9608269929885864,-0.3702020645141601
-0.074879840016365,0.2996213436126709,0.0620231255888938,-0.5845332741737366,-0.0687603875994682,0.0724803879857063,0.0,0.0,0.8431342840194702,-0.2527453303337097
-0.074045181274414,0.2871348559856415,0.0797999650239944,-0.5547923445701599,-0.0651447102427482,0.0723137706518173,0.0,0.0,0.690392017364502,-0.5659844875335693
-0.0732975974678993,0.2752387821674347,0.0706884190440177,-0.5285411477088928,-0.0611131154000759,0.0806318372488021,0.0,0.0,0.2233717441558838,-0.4917595386505127
-0.0726046562194824,0.2630352973937988,0.066020056605339,-0.542246401309967,-0.0578837655484676,0.0645871460437774,0.0,0.0,0.6972017288208008,-0.4313617944717407
-0.0717977508902549,0.2513608336448669,0.0775655061006546,-0.518748939037323,-0.054788164794445,0.0619117803871631,0.0,0.0,0.4862089157104492,-0.6551828384399414
-0.0710884109139442,0.2397906333208084,0.0669901818037033,-0.5140911340713501,-0.050881490111351,0.0781332105398178,0.0,0.0,0.7347679138183594,-0.1421124935150146
-0.070374771952629,0.2286075502634048,0.0679321661591529,-0.4969154000282287,-0.0474952347576618,0.067725084722042,0.0,0.0,0.4436748027801513,0.0345685482025146
-0.0696173682808876,0.2176571190357208,0.0725833922624588,-0.4865902662277221,-0.0443737991154193,0.0624289326369762,0.0,0.0,0.2885468006134033,-0.4203826189041137
-0.0687467604875564,0.206698477268219,0.0837579667568206,-0.4869567453861236,-0.0411154367029666,0.0651671141386032,0.0,0.0,0.4570106267929077,-0.7472547888755798
-0.0678750053048133,0.1955035775899887,0.0824712440371513,-0.4974308311939239,-0.0364713333547115,0.0928819850087165,0.0,0.0,0.6331528425216675,-0.1311026811599731
-0.0668725967407226,0.1842167675495147,0.0952163487672805,-0.5015228986740112,-0.0315003544092178,0.0994194895029068,0.0,0.0,0.7890524864196777,-0.6164911985397339
-0.0657038688659668,0.1731676459312439,0.1102107539772987,-0.490944355726242,-0.0249219443649053,0.1315680891275406,0.0,0.0,0.7832789421081543,-0.7846897840499878
-0.0643979087471962,0.1620640158653259,0.1220350861549377,-0.493377685546875,-0.0164632406085729,0.1691741645336151,0.0,0.0,0.8929144144058228,-0.9772307872772216
-0.0631383880972862,0.1515777260065078,0.1153990849852562,-0.4659717977046966,-0.0060452311299741,0.2083600312471389,0.0,0.0,0.8690124750137329,-0.2574871778488159
-0.0618152618408203,0.141695961356163,0.1215307563543319,-0.4391812682151794,0.0046037514694035,0.2129791975021362,0.0,0.0,0.5186269283294678,-0.1628543734550476
-0.0603572838008403,0.1320523768663406,0.1343588232994079,-0.428674578666687,0.0158928018063306,0.2257813662290573,0.0,0.0,0.730309247970581,-0.8195970058441162
-0.0588303580880165,0.1222324222326278,0.1392366141080856,-0.4366388022899627,0.0291794724762439,0.2657334208488464,0.0,0.0,0.7602782249450684,0.4305601119995117
-0.0573528297245502,0.1125419959425926,0.1343600153923034,-0.4309962689876556,0.0423990935087204,0.2643924355506897,0.0,0.0,0.980469822883606,0.7913559675216675
-0.0557249076664447,0.1037404164671897,0.1505260169506073,-0.3915714919567108,0.0545223653316497,0.24246546626091,0.0,0.0,0.943329930305481,0.1764342784881591
-0.0541394241154193,0.0952575504779815,0.1461430042982101,-0.3775108158588409,0.0667887404561042,0.2453273236751556,0.0,0.0,0.9331973791122437,0.9262114763259888
-0.052682876586914,0.0874857306480407,0.1351179927587509,-0.3459193408489227,0.0772237926721572,0.2087008506059646,0.0,0.0,0.8465065956115723,0.1620886325836181
-0.0511690154671669,0.0802095010876655,0.1400503814220428,-0.3240064680576324,0.08845204859972,0.2245650738477707,0.0,0.0,0.7593717575073242,0.9027329683303832
-0.0496982559561729,0.0734527707099914,0.1372954845428466,-0.3009072244167328,0.0981532037258148,0.1940230131149292,0.0,0.0,0.3748800754547119,-0.2185739278793335
-0.0483376495540142,0.0669339969754219,0.1261881291866302,-0.2903991043567657,0.1079465076327323,0.1958663761615753,0.0,0.0,0.5905389785766602,0.7354394197463989
-0.0469780936837196,0.0604507774114608,0.1271732747554779,-0.2888002395629883,0.1166656091809272,0.1743820607662201,0.0,0.0,0.5748673677444458,0.6658203601837158
-0.0457354560494422,0.054128061980009,0.1166146770119667,-0.2816261947154999,0.1242703422904014,0.1520948708057403,0.0,0.0,0.7202532291412354,-0.1356157064437866
-0.0446982383728027,0.0479056201875209,0.0962989702820777,-0.2771884202957153,0.1316501051187515,0.1475952416658401,0.0,0.0,0.8138447999954224,0.720434308052063
-0.0435664169490337,0.0422144047915935,0.1064087748527526,-0.2535571455955505,0.1383996754884719,0.134991779923439,0.0,0.0,0.8082733154296875,0.410037636756897
-0.0424075126647949,0.0364548787474632,0.1082603931427002,-0.2567073106765747,0.1460108458995819,0.1522230505943298,0.0,0.0,0.922008752822876,0.8216760158538818
-0.0411159507930278,0.031391154974699,0.1222143396735191,-0.2257502377033233,0.1529344618320465,0.1384723931550979,0.0,0.0,0.8068101406097412,0.0947707891464233
-0.0399634353816509,0.0268979165703058,0.1078379154205322,-0.200480118393898,0.1603381484746933,0.1480739861726761,0.0,0.0,0.7712745666503906,0.1215424537658691
-0.0387919433414936,0.0231160745024681,0.1084279641509056,-0.1690435409545898,0.1690654158592224,0.1745455861091613,0.0,0.0,0.1770358085632324,0.1761771440505981
-0.037622831761837,0.019277224317193,0.1073213070631027,-0.1717354357242584,0.1786787211894989,0.1922661066055297,0.0,0.0,0.3821054697036743,0.4828839302062988
-0.0366337783634662,0.0165934413671493,0.1071343421936035,-0.1183306202292442,0.1703840494155883,-0.1659638881683349,0.0,1.0,0.8732409477233887,0.4736407995223999
-0.0358311645686626,0.0152230830863118,0.104663610458374,-0.0583141297101974,0.1459105610847473,-0.4895712733268738,0.0,1.0,-0.263235330581665,-0.1817650198936462
-0.0350840575993061,0.0135926576331257,0.1094423905014991,-0.0694461613893508,0.1112660095095634,-0.6929904818534851,0.0,1.0,0.5420353412628174,-0.8466890454292297
-0.034571073949337,0.0120903346687555,0.0833426937460899,-0.0646911859512329,0.0794747024774551,-0.6358267068862915,0.0,1.0,0.4018220901489258,-0.3336153030395508
-0.0342021957039833,0.0105578275397419,0.0695418342947959,-0.066693864762783,0.0471812933683395,-0.6458688974380493,0.0,0.0,-0.5800787210464478,-0.8847262263298035
-0.0338937751948833,0.008349010720849,0.0610204823315143,-0.0974891856312751,0.0173817910254001,-0.595990777015686,0.0,0.0,0.1401021480560302,-0.8693821430206299
-0.0336279869079589,0.0060165976174175,0.0543108060956001,-0.1035705655813217,-0.0099969943985342,-0.5475763082504272,0.0,0.0,0.5503616333007812,-0.9814746379852296
-0.0332860946655273,0.0035053705796599,0.0590850114822387,-0.1119592636823654,-0.0345850102603435,-0.4917601943016052,0.0,0.0,0.6824064254760742,-0.9901273250579834
-0.0327844619750976,0.00209127436392,0.0526541173458099,-0.0629043951630592,-0.0370490700006485,-0.0492899194359779,1.0,0.0,0.3411612510681152,-0.3406857252120971
-0.0321283340454101,0.0015894508687779,0.0506523549556732,-0.0220014918595552,-0.0222762115299701,0.2954591512680053,1.0,0.0,-0.7144352793693542,-0.2586060166358948
