x_pos,y_pos,x_vel,y_vel,angle,ang_vel,leg_1,leg_2,main_booster,lat_booster
-0.0014862060779705,1.4030121564865112,-0.149941399693489,-0.3514690101146698,0.0011710290564224,0.0230561457574367,0.0,0.0,-0.2680239677429199,0.3802810907363891
-0.0029350281693041,1.394514799118042,-0.1454571038484573,-0.3776592910289764,0.0017322469502687,0.011226350441575,0.0,0.0,0.1632725000381469,0.9672517776489258
-0.0041598319076001,1.3858246803283691,-0.1205571070313453,-0.3862257897853851,-0.0001734821125864,-0.0381182134151458,0.0,0.0,-0.0494709014892578,-0.3631680011749267
-0.0053469659760594,1.3765220642089844,-0.1161851733922958,-0.4134511351585388,-0.0026644328609108,-0.0498236939311027,0.0,0.0,-0.0973415970802307,-0.059717059135437
-0.006496048066765,1.3666071891784668,-0.1118034943938255,-0.4406688511371612,-0.0057452404871582,-0.0616220012307167,0.0,0.0,0.0288645029067993,0.3003953695297241
-0.007519912905991,1.3565868139266968,-0.0990832448005676,-0.4453714489936828,-0.0090102814137935,-0.0653069391846656,0.0,0.0,-0.1102221608161926,-0.5555210113525391
-0.0085512157529592,1.345954656600952,-0.1003742441534996,-0.4725608825683594,-0.0117307286709547,-0.0544136837124824,0.0,0.0,-0.0805021524429321,0.0125384330749511
-0.0095444675534963,1.3347103595733645,-0.0959710404276847,-0.4997780621051788,-0.0150503506883978,-0.0663986355066299,0.0,0.0,0.5307741165161133,-0.4964824914932251
-0.0104991914704442,1.32401704788208,-0.091456763446331,-0.4753026366233825,-0.0190243367105722,-0.0794869810342788,0.0,0.0,-0.2887572050094604,-0.3761464953422546
-0.0114158634096384,1.312711477279663,-0.0870392844080925,-0.502532422542572,-0.023601846769452,-0.0915587767958641,0.0,0.0,-0.8131247758865356,-0.2348082661628723
-0.0122943874448537,1.300794243812561,-0.0826154500246048,-0.5297496318817139,-0.0287850685417652,-0.1036738604307174,0.0,0.0,-0.6681957244873047,-0.9248925447463988
-0.0131991384550929,1.288265824317932,-0.0862597227096557,-0.5569013953208923,-0.0329573452472686,-0.0834530815482139,0.0,0.0,0.4960114955902099,-0.938671886920929
-0.0139849660918116,1.2760769128799438,-0.0757767409086227,-0.5417938232421875,-0.035721942782402,-0.0552971176803112,0.0,0.0,-0.6954964995384216,-0.8076111078262329
-0.0147891994565725,1.2632712125778198,-0.0784381851553917,-0.56918865442276,-0.037680484354496,-0.0391746126115322,0.0,0.0,-0.491477906703949,-0.7754272222518921
-0.0156018259003758,1.2498643398284912,-0.0798648744821548,-0.5959016680717468,-0.0390714854001998,-0.0278224758803844,0.0,0.0,-0.1373240947723388,-0.7777717709541321
-0.016426945105195,1.2358390092849731,-0.0817558914422988,-0.623365581035614,-0.0398140400648117,-0.0148526486009359,0.0,0.0,0.573561429977417,-0.6704484820365906
-0.0170909874141216,1.2224252223968506,-0.0666881948709487,-0.5961605310440063,-0.0395265407860279,0.0057504503056406,0.0,0.0,-0.5248235464096069,-0.7390154600143433
-0.0177616123110055,1.2083953619003296,-0.0678671449422836,-0.6235225200653076,-0.0387343429028987,0.0158455278724432,0.0,0.0,-0.6397678852081299,-0.5961056351661682
-0.0184334758669137,1.193761706352234,-0.0683802589774131,-0.6503605246543884,-0.0375629141926765,0.0234309639781713,0.0,0.0,-0.6737266778945923,-0.7650022506713867
-0.0191359519958496,1.1785192489624023,-0.0725507959723472,-0.6773825287818909,-0.0352832339704036,0.0455975942313671,0.0,0.0,-0.6017136573791504,-0.3116965293884277
-0.0198004730045795,1.162664771080017,-0.0681337416172027,-0.7046033143997192,-0.0336185917258262,0.0332961753010749,0.0,0.0,-0.4946789741516113,-0.4538803100585937
-0.0204269401729106,1.1461981534957886,-0.0637163072824478,-0.7318239808082581,-0.0325673930346965,0.0210259426385164,0.0,0.0,-0.7117569446563721,-0.1623014211654663
-0.0210154540836811,1.129119634628296,-0.0592993572354316,-0.7590445876121521,-0.0321291051805019,0.0087664760649204,0.0,0.0,0.1964823007583618,-0.6355396509170532
-0.0215527527034282,1.1117603778839111,-0.0549246147274971,-0.771499514579773,-0.0309513807296752,0.0235569681972265,0.0,0.0,-0.1441876888275146,-0.7179194688796997
-0.0221223831176757,1.0937939882278442,-0.0593137815594673,-0.798452615737915,-0.0286199897527694,0.0466319136321544,0.0,0.0,0.5839564800262451,-0.2398095726966858
-0.0227747913450002,1.0762122869491575,-0.0663324296474456,-0.7813875675201416,-0.0275437552481889,0.0215248670428991,0.0,0.0,0.100812554359436,-0.7192608714103699
-0.0234297756105661,1.0587509870529177,-0.0674378052353859,-0.7760239243507385,-0.0256402306258678,0.0380708798766136,0.0,0.0,0.2240102291107177,-0.0569812059402465
-0.0241281501948833,1.0415980815887451,-0.0706969052553176,-0.7623358964920044,-0.0247882865369319,0.0170387886464595,0.0,0.0,0.212576150894165,-0.5071483254432678
-0.0249190330505371,1.0246951580047607,-0.0801412314176559,-0.7512266635894775,-0.0237527843564748,0.0207103285938501,0.0,0.0,0.2396211624145507,-0.6844602823257446
-0.0257353782653808,1.0077283382415771,-0.0834276229143142,-0.754041850566864,-0.0219793654978275,0.0354684293270111,0.0,0.0,0.489729642868042,0.0273921489715576
-0.0264802929013967,0.9912940859794616,-0.0757686644792556,-0.7304017543792725,-0.020722035318613,0.0251466240733861,0.0,0.0,0.4563930034637451,-0.0369611382484436
-0.0272481925785541,0.9748288989067078,-0.0771414488554,-0.7317805886268616,-0.0203721243888139,0.0069981231354177,0.0,0.0,0.0491473674774169,-0.5964340567588806
-0.0280740745365619,0.9585238099098206,-0.083475261926651,-0.724660336971283,-0.0195014718919992,0.0174128748476505,0.0,0.0,0.2346311807632446,-0.8081026077270508
-0.0289756767451763,0.9420068264007568,-0.0920329689979553,-0.7340646982192993,-0.0176556725054979,0.0369159802794456,0.0,0.0,-0.6090163588523865,-0.2571703195571899
-0.0298399925231933,0.9248777627944946,-0.0877103954553604,-0.7612825632095337,-0.0163858607411384,0.0253961719572544,0.0,0.0,0.6329081058502197,-0.0970534086227417
-0.0306365974247455,0.9082570672035216,-0.0804631263017654,-0.7386894822120667,-0.015603257343173,0.0156522076576948,0.0,0.0,0.5269649028778076,-0.632604718208313
-0.0314661040902137,0.8916537165641785,-0.0843839198350906,-0.7379081845283508,-0.0141844693571329,0.0283760372549295,0.0,0.0,0.2222429513931274,0.1801868677139282
-0.0322222709655761,0.8752822279930115,-0.0766277238726615,-0.7276126742362976,-0.0131930215284228,0.0198287703096866,0.0,0.0,-0.1801259517669677,-0.1063433289527893
-0.0329416282474994,0.8582984805107117,-0.0723762959241867,-0.7548300623893738,-0.0127521296963095,0.0088181057944893,0.0,0.0,0.3464208841323852,-0.2965992093086242
-0.0335947051644325,0.8414450287818909,-0.0653188750147819,-0.7490426898002625,-0.0127475084736943,9.248605056200176e-05,0.0,0.0,0.2555819749832153,-0.628839373588562
-0.0343433395028114,0.8248748183250427,-0.0754376277327537,-0.7364504337310791,-0.0121803367510437,0.011343321762979,0.0,0.0,0.0227627754211425,-0.179837942123413
-0.0349751487374305,0.8081769347190857,-0.0635820627212524,-0.7421234250068665,-0.0117853404954075,0.0078998375684022,0.0,0.0,0.365493893623352,0.1964457035064697
-0.0354872718453407,0.7912541031837463,-0.0514740049839019,-0.7521216869354248,-0.0115349264815449,0.0050083310343325,0.0,0.0,0.0359991788864135,-0.234088659286499
-0.0358973518013954,0.7742151618003845,-0.0410404279828071,-0.7572871446609497,-0.0115022649988532,0.0006532903062179,0.0,0.0,-0.4153262376785278,-0.5920997262001038
-0.0363216400146484,0.7565577626228333,-0.043240200728178,-0.7847682237625122,-0.0107077695429325,0.0158899240195751,0.0,0.0,0.1600497961044311,0.3720935583114624
-0.0366757400333881,0.7386392951011658,-0.035871185362339,-0.7963665723800659,-0.0102470498532056,0.0092145456001162,0.0,0.0,0.4600621461868286,0.1456110477447509
-0.0369365699589252,0.7207002639770508,-0.026326498016715,-0.7972911596298218,-0.0100073516368865,0.0047938772477209,0.0,0.0,-0.2242039442062378,0.6370513439178467
-0.0371214859187603,0.7021549940109253,-0.017222624272108,-0.8242385387420654,-0.0112548870965838,-0.0249507874250412,0.0,0.0,0.5003011226654053,-0.7153312563896179
-0.0374531745910644,0.6840806007385254,-0.0326557829976081,-0.8033128976821899,-0.0117664150893688,-0.0102303829044103,0.0,0.0,0.6315888166427612,0.1839514970779419
-0.0377656929194927,0.6661475896835327,-0.0302061326801776,-0.7970293760299683,-0.012802168726921,-0.0207148361951112,0.0,0.0,0.4358583688735962,-0.481696605682373
-0.0379134193062782,0.6483444571495056,-0.0138988746330142,-0.7912644147872925,-0.0136726563796401,-0.0174093637615442,0.0,0.0,-0.1043893694877624,0.2600421905517578
-0.0380280502140522,0.6299288868904114,-0.0101756956428289,-0.8184815645217896,-0.014937481842935,-0.0252965800464153,0.0,0.0,0.4728515148162842,-0.6241649985313416
-0.0380469337105751,0.6114907264709473,-0.0017178372945636,-0.8194763660430908,-0.0151120712980628,-0.0034915835130959,0.0,0.0,0.8325045108795166,-0.1388275623321533
-0.0380167961120605,0.5937671065330505,0.0035338909365236,-0.7877187132835388,-0.015627384185791,-0.0103063760325312,0.0,0.0,0.2228963375091552,-0.3556253314018249
-0.0378392226994037,0.5759700536727905,0.0180994495749473,-0.790988564491272,-0.0159695819020271,-0.0068436651490628,0.0,0.0,0.0918288230895996,-0.0947242379188537
-0.0376891121268272,0.5580291748046875,0.015977207571268,-0.79738450050354,-0.0169197637587785,-0.0190038681030273,0.0,0.0,0.3627315759658813,-0.3299009799957275
-0.0374202728271484,0.540459930896759,0.0277799628674983,-0.7808657884597778,-0.0178049132227897,-0.0177027210593223,0.0,0.0,0.6277356147766113,-0.577168881893158
-0.0370096191763877,0.5232746005058289,0.0406991653144359,-0.7637883424758911,-0.0174466371536254,0.0071654096245765,0.0,0.0,0.7209768295288086,-0.3386541604995727
-0.0364779457449913,0.5067611336708069,0.0526897199451923,-0.7339244484901428,-0.0169745367020368,0.009441839531064,0.0,0.0,0.2761073112487793,-0.6335012316703796
-0.0360239967703819,0.4905541539192199,0.0439860932528972,-0.7202951908111572,-0.015576141886413,0.0279678739607334,0.0,0.0,0.370326280593872,-0.4029397964477539
-0.0354965217411518,0.4741945266723633,0.0513265132904052,-0.7270803451538086,-0.0141761917620897,0.0279989298433065,0.0,0.0,-0.1400188207626342,-0.0928018689155578
-0.0349440574645996,0.457222580909729,0.0539968498051166,-0.7542974352836609,-0.0129440631717443,0.0246427189558744,0.0,0.0,0.7965188026428223,-0.3814108967781067
-0.0342262275516986,0.4404792487621307,0.0700433626770973,-0.7441365718841553,-0.0112305209040641,0.0342710316181182,0.0,0.0,0.8551417589187622,-0.6770370006561279
-0.0335032455623149,0.4241573214530945,0.0692355036735534,-0.7253981828689575,-0.0082120886072516,0.06036863848567,0.0,0.0,0.7437679767608643,-0.5084033012390137
-0.0327873229980468,0.4078544378280639,0.0675665289163589,-0.7245551943778992,-0.0042395857162773,0.0794499740004539,0.0,0.0,0.8437471389770508,0.0728101730346679
-0.0321873649954795,0.3919296264648437,0.0566775724291801,-0.7077652812004089,-0.0009580216719768,0.0656312257051467,0.0,0.0,0.8820973634719849,0.2577345371246338
-0.0315440185368061,0.3768548965454101,0.0609097965061664,-0.6699894070625305,0.0024152172263711,0.0674649477005004,0.0,0.0,0.6142306327819824,0.0588078498840332
-0.030805205926299,0.3615968227386474,0.0700896307826042,-0.6781456470489502,0.0061687692068517,0.0750709697604179,0.0,0.0,0.9039636850357056,-0.3469521999359131
-0.0300267226994037,0.3472025990486145,0.0738492980599403,-0.6397656202316284,0.0101068001240491,0.078760527074337,0.0,0.0,0.7146205902099609,-0.343152642250061
-0.0293384548276662,0.3329315185546875,0.0652232617139816,-0.6342973709106445,0.0136645641177892,0.0711549893021583,0.0,0.0,0.7646424770355225,0.3855445384979248
-0.02874755859375,0.3191310167312622,0.0558440871536731,-0.6133896112442017,0.0168713107705116,0.0641350075602531,0.0,0.0,0.5773880481719971,0.6285629272460938
-0.0280763618648052,0.3056126236915588,0.0649264603853225,-0.6008421182632446,0.0190336164087057,0.04324621707201,0.0,0.0,0.8096590042114258,0.1194491386413574
-0.0275572780519723,0.2928652763366699,0.0502149239182472,-0.5665708780288696,0.0207076556980609,0.0334806963801384,0.0,0.0,0.5769679546356201,0.585211992263794
-0.0269229896366596,0.2803360521793365,0.0625346004962921,-0.5568671822547913,0.0215950272977352,0.0177471842616796,0.0,0.0,0.8698278665542603,-0.127733826637268
-0.0263339038938283,0.2678570747375488,0.0579637289047241,-0.5546353459358215,0.0225304365158081,0.0187082737684249,0.0,0.0,0.8794431686401367,-0.0761491060256958
-0.0256753917783498,0.2553229928016662,0.0642856955528259,-0.557095468044281,0.0240774769335985,0.0309407711029052,0.0,0.0,0.9220263957977296,-0.0468382239341735
-0.025064755231142,0.2427674680948257,0.0593796856701374,-0.5580516457557678,0.0257366951555013,0.0331842973828315,0.0,0.0,0.8438374996185303,-0.2827507257461548
-0.0244900695979595,0.2309267669916153,0.055527675896883,-0.526288628578186,0.0276626218110322,0.0385183170437812,0.0,0.0,0.921863317489624,-0.5539254546165466
-0.0238922126591205,0.21990467607975,0.0560835115611553,-0.4899454414844513,0.0313105471432209,0.072958767414093,0.0,0.0,0.1648690700531005,0.0195223093032836
-0.0233993530273437,0.2091307044029235,0.0456031076610088,-0.4789219796657562,0.0349548496305942,0.0728861838579177,0.0,0.0,0.7013494968414307,0.2362639904022216
-0.0230610854923725,0.1982491612434387,0.0303618162870407,-0.4837111532688141,0.0383698605000972,0.0683003738522529,0.0,0.0,0.7691086530685425,0.8092352151870728
-0.0226555820554494,0.1880378872156143,0.0382124260067939,-0.4538951218128204,0.0406767204403877,0.0461374744772911,0.0,0.0,0.7964763641357422,-0.3058774471282959
-0.0223989486694335,0.1781457513570785,0.0234054159373044,-0.4397136270999908,0.0429072491824626,0.044610284268856,0.0,0.0,0.926504373550415,0.6129767894744873
-0.0222111698240041,0.1688273251056671,0.0174861922860145,-0.414190262556076,0.0441878885030746,0.0256126970052719,0.0,0.0,0.7806220054626465,0.1525834798812866
-0.0220861434936523,0.1600253134965896,0.0107828173786401,-0.3912506103515625,0.0458839014172554,0.0339203849434852,0.0,0.0,0.4984751939773559,-0.4475409388542175
-0.0219244956970214,0.1514074951410293,0.0135705741122365,-0.3830965459346771,0.0484399609267711,0.0511212758719921,0.0,0.0,0.4724762439727783,-0.0371189713478088
-0.0217762943357229,0.1426363140344619,0.0116165447980165,-0.3899359405040741,0.0516060255467891,0.0633210465312004,0.0,0.0,0.6111944913864136,-0.3327957391738891
-0.0215790756046772,0.1338485330343246,0.0155596118420362,-0.3907162249088287,0.0557198151946067,0.0822760090231895,0.0,0.0,0.6329653263092041,0.3619468212127685
-0.0212904922664165,0.1253065913915634,0.0234677474945783,-0.3798525035381317,0.0610514841973781,0.1066332831978797,0.0,0.0,0.284329891204834,0.6008962392807007
-0.0208773612976074,0.1166228130459785,0.0363356098532676,-0.3861586153507232,0.0659725293517112,0.0984208509325981,0.0,0.0,0.796735405921936,-0.4669069051742553
-0.0205490104854106,0.1085496544837951,0.0273139271885156,-0.3590569198131561,0.071439042687416,0.109330378472805,0.0,0.0,0.4199062585830688,0.8822585344314575
-0.0201934818178415,0.1008578613400459,0.0311775412410497,-0.34207284450531,0.0757666677236557,0.0865523591637611,0.0,0.0,0.3081679344177246,-0.3163686394691467
-0.0198063850402832,0.0933558344841003,0.0332749038934707,-0.3337089419364929,0.0811494216322898,0.1076551228761673,0.0,0.0,0.5579625368118286,0.6588274240493774
-0.0193160064518451,0.0857146829366684,0.0440866276621818,-0.3398820757865906,0.0860521271824836,0.0980541631579399,0.0,0.0,0.8490103483200073,-0.5744886994361877
-0.0190108306705951,0.0782984793186187,0.0239638071507215,-0.3300003111362457,0.0925483480095863,0.1299242675304412,0.0,0.0,0.8499650955200195,0.967339277267456
-0.018643569201231,0.0717508196830749,0.0313143357634544,-0.291351169347763,0.0979102924466133,0.1072389706969261,0.0,0.0,0.4983203411102295,0.842982292175293
-0.01831397973001,0.0653684437274932,0.0286387763917446,-0.2839502692222595,0.1021981015801429,0.0857561603188514,0.0,0.0,0.2166634798049926,0.931349515914917
-0.0181082729250192,0.0592522956430912,0.0175083968788385,-0.2720413208007812,0.10523272305727,0.0606927946209907,0.0,0.0,0.5785558223724365,0.9701223373413086
-0.0178340915590524,0.0535512082278728,0.0255458354949951,-0.2535155713558197,0.1070907190442085,0.0371600612998008,0.0,0.0,0.5678765773773193,0.9804677963256836
-0.0176485069096088,0.048310812562704,0.0180568434298038,-0.2329422980546951,0.1075911596417427,0.0100086098536849,0.0,0.0,0.5663130283355713,0.7971973419189453
-0.0175955779850482,0.0435195304453372,0.0058603635989129,-0.2129054218530655,0.1070233285427093,-0.0113564413040876,0.0,0.0,0.038357138633728,0.8404440879821777
-0.0175606720149517,0.0385885573923587,0.0050688544288277,-0.2190426439046859,0.105451613664627,-0.0314343087375164,0.0,0.0,0.7190682888031006,0.9713125228881836
-0.0176838878542184,0.0339712239801883,-0.0092844534665346,-0.2050024569034576,0.1024360358715057,-0.0603115744888782,0.0,0.0,0.5960451364517212,0.93397319316864
-0.0179816242307424,0.029481777921319,-0.0253374781459569,-0.1992343515157699,0.0980367958545684,-0.0879849195480346,0.0,0.0,0.8312588930130005,0.870818018913269
-0.0181940086185932,0.0256044492125511,-0.0159791894257068,-0.171989694237709,0.0928271561861038,-0.1041927933692932,0.0,0.0,0.5361166000366211,0.9811606407165528
-0.0183298103511333,0.0216397140175104,-0.0071099237538874,-0.1758214086294174,0.0864235535264015,-0.1280723959207534,0.0,0.0,0.7876002788543701,0.9179918766021729
-0.0183253288269042,0.0183368064463138,0.0077600269578397,-0.1463924050331115,0.0791720375418663,-0.1450301557779312,0.0,0.0,0.117468237876892,0.6181126832962036
-0.0183658599853515,0.0152167174965143,0.003830088302493,-0.1382738798856735,0.0713647082448005,-0.1561462432146072,0.0,0.0,0.2583674192428589,0.4740427732467651
-0.0183793064206838,0.0124710658565163,0.0053271618671715,-0.1217283457517623,0.0647652000188827,-0.1319901198148727,0.0,0.0,-0.3383277654647827,0.0147448778152465
-0.0184278488159179,0.0091141201555728,0.0011054000351577,-0.1489525139331817,0.0588737428188324,-0.1178290396928787,0.0,0.0,0.5680403709411621,0.8054438829421997
-0.0185014717280864,0.0063192583620548,-0.0004899677587673,-0.1239616647362709,0.0520757883787155,-0.1359589546918869,0.0,0.0,0.0178557634353637,0.3095681667327881
-0.018598461523652,0.0036428070161491,-0.0037215682677924,-0.1187581270933151,0.046164184808731,-0.1182320266962051,0.0,0.0,0.164618968963623,0.4026005268096924
-0.0187595374882221,0.001352951512672,0.0024649354163557,-0.1013220772147178,0.0277595482766628,-0.3681816756725311,0.0,1.0,0.2769980430603027,0.1860479116439819
-0.0190286636352539,-0.0008322620415128,-0.0078691411763429,-0.0968860760331153,0.0089161461219191,-0.3769204914569855,0.0,1.0,0.1215120553970336,0.0753843784332275
-0.0193882938474416,-0.0031021975446492,-0.0164858717471361,-0.1008877456188201,-0.0103312535211443,-0.3849722743034363,1.0,1.0,0.9104195833206176,0.5917332172393799
-0.0196762084960937,-0.004523267969489,-0.0179436262696981,-0.0635160431265831,-0.0200302302837371,-0.1927143484354019,1.0,1.0,0.7415915727615356,0.1482391357421875
-0.0198440551757812,-0.004999628290534,-0.0175554789602756,-0.0211813505738973,-0.0192580744624137,0.015456642024219,1.0,1.0,-0.5407204627990723,0.143564224243164
-0.0199724193662405,-0.0051946425810456,-0.0181999485939741,-0.0086133340373635,-0.0139976534992456,0.1051773875951767,1.0,1.0,-0.5499367713928223,0.7065500020980835
-0.0200076103210449,-0.0050376798026263,-0.0075727910734713,0.0070240083150565,-0.0100164460018277,0.0795989334583282,1.0,1.0,-0.8155360221862793,0.4996132850646972
-0.0200717933475971,-0.0045256279408931,-0.0080183045938611,0.022765465080738,-0.0084307575598359,0.0317178145051002,1.0,1.0,-0.7100883722305298,0.0407613515853881
-0.0201591495424509,-0.0036711478605866,-0.0083957882598042,0.0379729308187961,-0.0087675796821713,-0.0067294328473508,1.0,1.0,-0.557025671005249,-0.0555722117424011
