x_pos,y_pos,x_vel,y_vel,angle,ang_vel,leg_1,leg_2,main_booster,lat_booster
-0.0015829086769372,1.4034433364868164,-0.1607967615127563,-0.3322988450527191,0.0022506834939122,0.0444327369332313,0.0,0.0,-0.3508622646331787,0.6747097969055176
-0.0031677247025072,1.395805597305298,-0.1596804112195968,-0.3394554853439331,0.0034345195163041,0.0236795153468847,0.0,0.0,-0.1353020668029785,0.5689331293106079
-0.0047571184113621,1.3879823684692385,-0.1591915488243103,-0.3476954400539398,0.0036818122025579,0.0049464530311524,0.0,0.0,0.3523968458175659,0.3588290214538574
-0.0065046311356127,1.3805911540985107,-0.1749673634767532,-0.3285045623779297,0.0038993235211819,0.0043506133370101,0.0,0.0,-0.390680193901062,0.6516931056976318
-0.0082487110048532,1.373020887374878,-0.1734916865825653,-0.3364472687244415,0.002989936619997,-0.0181895606219768,0.0,0.0,-0.1196072101593017,0.1340540647506714
-0.0100514413788914,1.365269899368286,-0.1797970384359359,-0.3444932997226715,0.0025191844906657,-0.0094158565625548,0.0,0.0,-0.0848947763442993,0.5136313438415527
-0.011873722076416,1.3573378324508667,-0.181202083826065,-0.3525336980819702,0.0015074745751917,-0.0202360562980175,0.0,0.0,-0.1366462111473083,0.6927516460418701
-0.013686180114746,1.349226951599121,-0.1789288520812988,-0.3604841828346252,-0.000776864180807,-0.0456910952925682,0.0,0.0,-0.0883876085281372,0.6738996505737305
-0.0155043601989746,1.3409422636032104,-0.1786367297172546,-0.3682110905647278,-0.0039303791709244,-0.0630763471126556,0.0,0.0,-0.1502543687820434,0.7253677845001221
-0.0173230171203613,1.332480788230896,-0.1776799261569976,-0.3760779500007629,-0.0080805458128452,-0.0830109342932701,0.0,0.0,-0.3370810747146606,0.2453935146331787
-0.0191990844905376,1.323838472366333,-0.1838495433330536,-0.3841273486614227,-0.0117922686040401,-0.0742411836981773,0.0,0.0,0.0593835115432739,0.7946275472640991
-0.0210127830505371,1.3155196905136108,-0.1764927804470062,-0.3697722554206848,-0.0166117046028375,-0.0963974371552467,0.0,0.0,-0.4719572067260742,0.7557363510131836
-0.0228104591369628,1.307021975517273,-0.1734977662563324,-0.3777550756931305,-0.0228149257600307,-0.1240759268403053,0.0,0.0,-0.5143166184425354,0.8444008827209473
-0.0245902054011821,1.2983335256576538,-0.1702544391155243,-0.3862959146499634,-0.0304476823657751,-0.1526689082384109,0.0,0.0,-0.4364733695983886,-0.2835938334465027
-0.026425551623106,1.2894643545150757,-0.1762597858905792,-0.3943482041358948,-0.0376434177160263,-0.1439277082681656,0.0,0.0,-0.0941765904426574,0.88226318359375
-0.0282340999692678,1.2803995609283447,-0.1719291508197784,-0.4031194150447845,-0.0464745759963989,-0.1766393780708313,0.0,0.0,-0.7849236726760864,0.9711220264434814
-0.0300027839839458,1.2711596488952637,-0.1659919917583465,-0.4110369682312011,-0.057236909866333,-0.2152665108442306,0.0,0.0,-0.4530160427093506,0.0188366174697875
-0.0318253524601459,1.2617396116256714,-0.1718288362026214,-0.4190938770771026,-0.0675643533468246,-0.206567496061325,0.0,0.0,-0.8226920366287231,0.7950338125228882
-0.0336280837655067,1.2521398067474363,-0.1684431880712509,-0.4272288680076599,-0.0792925208806991,-0.2345846146345138,0.0,0.0,-0.5980333685874939,0.8198904991149902
-0.0354274734854698,1.2423535585403442,-0.1671284735202789,-0.4356766939163208,-0.0920008048415184,-0.2541886270046234,0.0,0.0,-0.4114974737167358,0.5979816913604736
-0.0372212417423725,1.2323843240737915,-0.1655695140361786,-0.4439831674098968,-0.1057194918394088,-0.2743985056877136,0.0,0.0,-0.6653759479522705,0.1831648349761963
-0.0390659347176551,0.0,-0.171105295419693,-0.4520461857318878,-0.1190089657902717,-0.2658134698867798,0.0,0.0,-0.7440019845962524,0.4191262722015381
-0.0409605987370014,1.2119076251983645,-0.1765510141849517,-0.4601080119609833,-0.1318718343973159,-0.2572805881500244,0.0,0.0,-0.455622911453247,0.8398842811584473
-0.0428316108882427,1.20137619972229,-0.1727578341960907,-0.4693959951400757,-0.1461862623691558,-0.286314308643341,0.0,0.0,-0.2961682677268982,0.2001948356628418
-0.0447505004703998,1.190665364265442,-0.1779922246932983,-0.4774603247642517,-0.1600775122642517,-0.2778498232364654,0.0,0.0,-0.5171267986297607,-0.1416372060775756
-0.0467185005545616,1.179753661155701,-0.1833371520042419,-0.4864652752876282,-0.1735506653785705,-0.2694633305072784,0.0,0.0,-0.4225606918334961,-0.4333356618881225
-0.0487321838736534,1.1686625480651855,-0.1883631348609924,-0.4945210814476013,-0.1866094917058944,-0.2611763477325439,0.0,0.0,-0.3731398582458496,-0.3483632206916809
-0.050790499895811,1.1573913097381592,-0.1932479739189148,-0.5025756359100342,-0.1992575377225875,-0.2529612183570862,0.0,0.0,-0.3986588716506958,-0.5299161076545715
-0.0529410354793071,1.1459592580795288,-0.2041992843151092,-0.5095931887626648,-0.2102002650499344,-0.2188546657562255,0.0,0.0,0.1358029842376709,-0.6842935681343079
-0.0551321990787982,1.1348576545715332,-0.2100302875041961,-0.494730532169342,-0.2193846702575683,-0.1836878210306167,0.0,0.0,0.095470905303955,-0.2195650935173034
-0.0572290420532226,1.1243926286697388,-0.2010441571474075,-0.4664210677146911,-0.2281135320663452,-0.1745774894952774,0.0,0.0,0.1114715337753295,0.525963306427002
-0.0593131072819232,1.1141797304153442,-0.1990446746349334,-0.4553879201412201,-0.2376167476177215,-0.1900645196437835,0.0,0.0,-0.8716079592704773,-0.5503570437431335
-0.0614802353084087,1.1038079261779783,-0.2089954912662506,-0.4622356295585632,-0.2454648613929748,-0.1569624245166778,0.0,0.0,-0.5161453485488892,0.2217113971710205
-0.0636812224984169,1.0932546854019165,-0.2127649486064911,-0.4702796936035156,-0.2529304325580597,-0.14931121468544,0.0,0.0,-0.2127132415771484,-0.2639382481575012
-0.0659136772155761,1.0825196504592896,-0.2163002490997314,-0.4783231616020202,-0.260019451379776,-0.1417802274227142,0.0,0.0,-0.3952615261077881,-0.2827141284942627
-0.0681752189993858,1.0716028213500977,-0.2195870131254196,-0.4863660931587219,-0.2667383551597595,-0.1343778818845749,0.0,0.0,-0.4548170566558838,-0.8902906775474548
-0.0705348998308181,1.0605289936065674,-0.2315937280654907,-0.492982268333435,-0.2712167799472809,-0.0895686894655227,0.0,0.0,0.7302548885345459,0.0849503278732299
-0.072666548192501,1.050408959388733,-0.2093203067779541,-0.4504984021186828,-0.2751550078392029,-0.078764908015728,0.0,0.0,0.3324166536331177,-0.076887309551239
-0.0746652632951736,1.0411006212234497,-0.1962238401174545,-0.4143924117088318,-0.2788920998573303,-0.0747418776154518,0.0,0.0,0.0681592226028442,-0.1253491044044494
-0.0765563026070594,1.0321695804595947,-0.1858849674463272,-0.3975642025470733,-0.2822050750255584,-0.0662589445710182,0.0,0.0,0.582956075668335,0.1310392618179321
-0.0783530250191688,1.0241737365722656,-0.1763159930706024,-0.3560270369052887,-0.2856605648994446,-0.0691096261143684,0.0,0.0,-0.3451706171035766,-0.0988522768020629
-0.0801618546247482,1.0159956216812134,-0.1778360307216644,-0.3640671968460083,-0.2887946665287018,-0.0626820176839828,0.0,0.0,-0.1866464614868164,-0.2600191831588745
-0.0819794684648513,1.0076355934143066,-0.1790249496698379,-0.3721073567867279,-0.2916173636913299,-0.0564536675810813,0.0,0.0,-0.0584722161293029,-0.0643385648727417
-0.0838026031851768,0.999093234539032,-0.1798761188983917,-0.3801475763320923,-0.2941391468048095,-0.0504357330501079,0.0,0.0,0.2432711124420166,0.078341007232666
-0.0855932235717773,0.9907003045082092,-0.1767493337392807,-0.3734848797321319,-0.2965126037597656,-0.0474693961441516,0.0,0.0,0.7512078285217285,-0.014413297176361
-0.0872324928641319,0.9826121926307678,-0.1621239334344864,-0.3598473966121673,-0.2983826696872711,-0.0374015048146247,0.0,0.0,0.3689279556274414,-0.0879822969436645
-0.0887103080749511,0.9748503565788268,-0.1464501321315765,-0.3452375829219818,-0.2997529804706573,-0.0274062845855951,0.0,0.0,0.2836618423461914,-0.3213082551956177
-0.0900724381208419,0.967873752117157,-0.1347445696592331,-0.3103777766227722,-0.3012740910053253,-0.0304223150014877,0.0,0.0,-0.3936914205551147,-0.0286160707473754
-0.0914236083626747,0.9607152342796326,-0.1338768303394317,-0.3184188306331634,-0.3025552928447723,-0.025623757392168,0.0,0.0,-0.4550726413726806,-0.5504550933837891
-0.0928036719560623,0.953393280506134,-0.1381087452173233,-0.325403094291687,-0.3024523556232452,0.0020584459416568,0.0,0.0,0.8267998695373535,-0.6739809513092041
-0.0938655883073806,0.9467405676841736,-0.1082088574767112,-0.2952579259872436,-0.3003593683242798,0.0418604798614978,0.0,0.0,0.2239919900894165,-0.5363302230834961
-0.0948297530412674,0.9407309889793396,-0.0995983779430389,-0.2664384543895721,-0.2970676124095917,0.0658344700932502,0.0,0.0,0.3050103187561035,-0.1241692900657653
-0.0955850630998611,0.9350054860115052,-0.0792877823114395,-0.2537025511264801,-0.2931948900222778,0.0774542167782783,0.0,0.0,0.3928022384643554,-0.6833953261375427
-0.0961671844124794,0.9300922751426696,-0.0634908601641655,-0.2173082381486892,-0.2877560555934906,0.1087765842676162,0.0,0.0,0.1124688386917114,-0.2171703577041626
-0.0965309143066406,0.925427496433258,-0.0422599799931049,-0.2061762362718582,-0.2817034721374511,0.1210518628358841,0.0,0.0,-0.3465670347213745,-0.7479159832000732
-0.0969292670488357,0.920607089996338,-0.0475767217576503,-0.2127697318792343,-0.2737624943256378,0.1588196605443954,0.0,0.0,-0.9112675786018372,0.1117584705352783
-0.0972936600446701,0.9156060218811036,-0.0443050563335418,-0.2208189964294433,-0.2657052278518677,0.1611460745334625,0.0,0.0,-0.9789411425590516,0.5165555477142334
-0.0975730866193771,0.910406529903412,-0.0346664115786552,-0.2298829853534698,-0.2588324546813965,0.1374557167291641,0.0,0.0,-0.9200141429901124,0.2876530885696411
-0.097814179956913,0.9050265550613404,-0.030920073390007,-0.2379318624734878,-0.2518776953220367,0.1390943825244903,0.0,0.0,-0.976052701473236,-0.2186696529388427
-0.0980148315429687,0.8994657397270203,-0.0269579626619815,-0.2459812313318252,-0.2448584735393524,0.1403840482234954,0.0,0.0,-0.9943758249282836,0.3953773975372314
-0.0981732383370399,0.8937243819236755,-0.0227940045297145,-0.2540310621261596,-0.2377923130989074,0.141322836279869,0.0,0.0,-0.9987190961837769,0.962188482284546
-0.0982254967093467,0.8877847194671631,-0.0106214452534914,-0.2631164491176605,-0.2323109060525894,0.1096282824873924,0.0,0.0,-0.9744228720664978,-0.1192965507507324
-0.0982321724295616,0.8816645741462708,-0.0060935113579034,-0.2711654603481293,-0.2268176525831222,0.1098652109503746,0.0,0.0,-0.9963359236717224,0.6474754810333252
-0.0981401428580284,0.8753466010093689,0.0051232604309916,-0.2801750600337982,-0.2226850688457489,0.0826512575149536,0.0,0.0,-0.999455451965332,0.5573258399963379
-0.0979571342468261,0.8688290119171143,0.0153734851628541,-0.2892281711101532,-0.2197157740592956,0.0593859925866127,0.0,0.0,-0.9762512445449828,-0.6978765726089478
-0.0977892875671386,0.8621528148651123,0.0122040305286645,-0.2960451245307922,-0.2150920927524566,0.0924736335873603,0.0,0.0,-0.9974800944328308,-0.7420794367790222
-0.0976248756051063,0.855322539806366,0.0104908589273691,-0.3027074933052063,-0.2090784907341003,0.1202718988060951,0.0,0.0,-0.99620920419693,-0.2018206119537353
-0.0974087715148925,0.8483120799064636,0.0157169420272111,-0.3107585608959198,-0.2031381726264953,0.1188064441084861,0.0,0.0,-0.9969536066055298,0.8947900533676147
-0.0970664024353027,0.8411088585853577,0.0302857849746942,-0.3196077942848205,-0.1991591602563858,0.0795803144574165,0.0,0.0,-0.9925107359886168,-0.4423609972000122
-0.0966706275939941,0.8337249755859375,0.035720944404602,-0.3276576697826385,-0.19528529047966,0.0774774849414825,0.0,0.0,-0.999878227710724,-0.4906556606292724
-0.0962208732962608,0.8261606097221375,0.0412478074431419,-0.3357076644897461,-0.1915318518877029,0.0750688761472702,0.0,0.0,-0.992936074733734,-0.455052375793457
-0.0957162827253341,0.8184158205986023,0.0468587800860405,-0.3437577486038208,-0.1879136562347412,0.0723639652132988,0.0,0.0,-0.9996303915977478,-0.2291045188903808
-0.0951562896370887,0.8104903101921082,0.0525468587875366,-0.3518079817295074,-0.1844450235366821,0.0693727433681488,0.0,0.0,-0.9912695288658142,-0.7386136054992676
-0.0945906639099121,0.8023985028266907,0.0519743934273719,-0.3590709269046783,-0.1798387616872787,0.092125192284584,0.0,0.0,-0.9997715950012208,-0.4996891617774963
-0.0939684882760047,0.7941264510154724,0.0577975697815418,-0.3671221733093261,-0.175409123301506,0.0885926932096481,0.0,0.0,-0.9995514154434204,-0.394031286239624
-0.0932893753051757,0.7856737971305847,0.0636799782514572,-0.3751733899116516,-0.1711688339710235,0.0848058760166168,0.0,0.0,-0.9952759146690368,-0.5518199801445007
-0.0925988182425499,0.7770472764968872,0.0638709217309951,-0.3828107714653015,-0.1659696549177169,0.1039837151765823,0.0,0.0,-0.983125865459442,0.4928703308105469
-0.0918503776192665,0.7682406306266785,0.0698568597435951,-0.3908627927303314,-0.1609835773706436,0.0997214019298553,0.0,0.0,-0.998936414718628,-0.5817766189575195
-0.0910825729370117,0.7592689990997314,0.071005031466484,-0.3981245458126068,-0.1552084684371948,0.1155023351311683,0.0,0.0,-0.997127652168274,0.404906153678894
-0.0902564078569412,0.7501171827316284,0.0770775824785232,-0.4061771333217621,-0.1496680229902267,0.1108086332678794,0.0,0.0,-0.972691774368286,-0.2822529077529907
-0.0893713980913162,0.7407852411270142,0.0831880345940589,-0.414229542016983,-0.1443722546100616,0.1059157103300094,0.0,0.0,-0.997994065284729,-0.141139268875122
-0.0884275436401367,0.7312730550765991,0.0893331095576286,-0.4222817420959472,-0.1393305510282516,0.1008341684937477,0.0,0.0,-0.9982876181602478,-0.2518531680107116
-0.0874244719743728,0.7215806245803833,0.0955098047852516,-0.4303337037563324,-0.1345518380403518,0.0955744013190269,0.0,0.0,-0.995585024356842,-0.2323983311653137
-0.0863620787858963,0.7117079496383667,0.1017153263092041,-0.4383854866027832,-0.1300445348024368,0.0901464968919754,0.0,0.0,-0.9990015625953674,0.035896897315979
-0.0852400809526443,0.701654851436615,0.1079471558332443,-0.4464370608329773,-0.1258165091276168,0.0845603123307228,0.0,0.0,-0.9949138760566713,-0.7191423773765564
-0.0841066390275955,0.6914308667182922,0.1081451177597045,-0.4539717733860016,-0.1206471696496009,0.1033868342638015,0.0,0.0,-0.99662184715271,-0.5301609039306641
-0.0829538330435752,0.6810287833213806,0.1093602329492569,-0.4618485569953918,-0.1147572249174118,0.1177988424897193,0.0,0.0,-0.9989683032035828,0.1155225038528442
-0.081740953028202,0.6704465746879578,0.1156573519110679,-0.4699011147022247,-0.1091675832867622,0.1117925494909286,0.0,0.0,-0.9950606822967528,-0.1493632793426513
-0.0804679840803146,0.6596839427947998,0.1219725012779235,-0.4779533445835113,-0.1038844138383865,0.1056634932756424,0.0,0.0,-0.9930973649024964,0.1772452592849731
-0.0791347473859787,0.6487412452697754,0.128303974866867,-0.4860051870346069,-0.0989134386181831,0.0994196683168411,0.0,0.0,-0.9987046718597412,-0.3081640005111694
-0.077741339802742,0.6376181840896606,0.1346501857042312,-0.4940566718578338,-0.09425999969244,0.0930688381195068,0.0,0.0,-0.9933388829231262,-0.2827141284942627
-0.0762875527143478,0.6263146996498108,0.1410096585750579,-0.5021077990531921,-0.0899290889501571,0.0866182893514633,0.0,0.0,-0.9907512664794922,-0.4629343748092651
-0.0747733116149902,0.6148308515548706,0.1473810225725174,-0.5101586580276489,-0.0859253481030464,0.080075018107891,0.0,0.0,-0.9928560853004456,-0.3334564566612243
-0.0731986984610557,0.6031664609909058,0.153763011097908,-0.5182092189788818,-0.0822530686855316,0.0734456628561019,0.0,0.0,-0.9967148303985596,-0.7233526110649109
-0.0716256126761436,0.5913272500038147,0.1523600965738296,-0.5259234309196472,-0.0773501768708229,0.0980578511953353,0.0,0.0,-0.996906876564026,-0.5860571265220642
-0.0700312629342079,0.5793192982673645,0.1538090854883194,-0.5334063172340393,-0.0717813596129417,0.1113765686750412,0.0,0.0,-0.9981104135513306,-0.5995475649833679
-0.0684253722429275,0.5671361684799194,0.154046893119812,-0.5411714315414429,-0.0653151124715805,0.1293248236179351,0.0,0.0,-0.9988450407981871,0.2837967872619629
-0.0667589157819747,0.5547729134559631,0.1604596227407455,-0.5492237210273743,-0.0591945461928844,0.1224111914634704,0.0,0.0,-0.9987326860427856,-0.3466310501098633
-0.065031811594963,0.5422292351722717,0.1668775677680969,-0.5572754144668579,-0.0534225925803184,0.1154390946030616,0.0,0.0,-0.9938616752624512,-0.3480552434921264
-0.0632439628243446,0.52950519323349,0.1732998043298721,-0.5653265714645386,-0.0480018146336078,0.108415700495243,0.0,0.0,-0.997348964214325,-0.2241809964179992
-0.0613953582942485,0.5166006684303284,0.1797253787517547,-0.573377251625061,-0.0429345853626728,0.1013448387384414,0.0,0.0,-0.9882397651672364,-0.0992072820663452
-0.0594861023128032,0.5035157203674316,0.1861534416675567,-0.5814274549484253,-0.0382230393588542,0.0942310914397239,0.0,0.0,-0.9914721846580504,-0.3686491250991821
-0.0575161948800087,0.4902501106262207,0.1925831139087677,-0.5894772410392761,-0.0338691025972366,0.0870789214968681,0.0,0.0,-0.979430854320526,-0.7029156684875488
-0.0555551536381244,0.4768058657646179,0.1902914345264434,-0.5974000096321106,-0.0281271543353796,0.1148392409086227,0.0,0.0,-0.9757682085037231,-0.0720145106315612
-0.0535333640873432,0.4631811678409576,0.1967216730117797,-0.605450451374054,-0.0227460358291864,0.1076224222779274,0.0,0.0,-0.96952223777771,-0.2059656381607055
-0.0514510162174701,0.4493758678436279,0.2031510174274444,-0.6135003566741943,-0.0177270751446485,0.1003793329000473,0.0,0.0,-0.9805793166160583,-0.5920276641845703
-0.0493435859680175,0.4353954792022705,0.2051223218441009,-0.6212925314903259,-0.0121773723512887,0.1109941825270652,0.0,0.0,-0.9900612235069276,-0.5845990777015686
-0.0472235679626464,0.421240359544754,0.2055265009403228,-0.6290771961212158,-0.0057850000448524,0.1278472542762756,0.0,0.0,-0.927414059638977,-0.6378777027130127
-0.0450814254581928,0.4069125652313232,0.2071180343627929,-0.6367799043655396,0.0012103733606636,0.139907494187355,0.0,0.0,-0.9385429620742798,-0.6924296021461487
-0.0429267883300781,0.3924044072628021,0.2075308114290237,-0.6448328495025635,0.0090426141396164,0.156644731760025,0.0,0.0,-0.8122392892837524,-0.5253053307533264
-0.0407537445425987,0.3777207732200622,0.2086613476276397,-0.6526826024055481,0.0175657477229833,0.1704627275466919,0.0,0.0,-0.491263210773468,-0.4057856798171997
-0.0385205261409282,0.3628569841384887,0.2150668799877166,-0.6607350707054138,0.0257226135581731,0.1631376594305038,0.0,0.0,0.1044902801513671,-0.8105434775352478
-0.0362364761531353,0.3482683897018432,0.218848317861557,-0.648570716381073,0.0351590327918529,0.1887281388044357,0.0,0.0,-0.0707470774650573,-0.0543001890182495
-0.0338922515511512,0.3334997296333313,0.2252385318279266,-0.656623899936676,0.0442291796207428,0.1814029961824417,0.0,0.0,0.7474257946014404,-0.1728628873825073
-0.0316476821899414,0.3193577527999878,0.2162859439849853,-0.6287962794303894,0.0523052774369716,0.1615218967199325,0.0,0.0,0.7378318309783936,-0.2759201526641845
-0.0293968208134174,0.3059217631816864,0.2174019366502761,-0.5974452495574951,0.0599109604954719,0.1521137058734893,0.0,0.0,-0.0420288443565368,-0.4786475896835327
-0.0270859710872173,0.2923050820827484,0.2237606048583984,-0.605495035648346,0.0671516433358192,0.1448138803243637,0.0,0.0,0.7750780582427979,-0.391667902469635
-0.0246013645082712,0.2791001796722412,0.2408589571714401,-0.5872468948364258,0.0746770575642585,0.1505084037780761,0.0,0.0,0.7793904542922974,-0.4568076133728027
-0.0220073703676462,0.2668278813362121,0.2516762018203735,-0.5458389520645142,0.0823245868086814,0.152950569987297,0.0,0.0,0.3073576688766479,-0.6331655383110046
-0.0194346420466899,0.2553318738937378,0.2485908567905426,-0.5114361047744751,0.0909084230661392,0.171676754951477,0.0,0.0,0.0787622928619384,-0.5941897630691528
