x_pos,y_pos,x_vel,y_vel,angle,ang_vel,leg_1,leg_2,main_booster,lat_booster
-0.0015395164955407,1.403523325920105,-0.1558074057102203,-0.3287600576877594,0.0016669675242155,0.0328750573098659,0.0,0.0,0.2004772424697876,0.5563658475875854
-0.003011894179508,1.3965481519699097,-0.1477296650409698,-0.3100066483020782,0.0021585000213235,0.0098320832476019,0.0,0.0,0.106658935546875,0.5227298736572266
-0.0043639182113111,1.389873504638672,-0.1347398459911346,-0.2966503202915191,0.0016930492129176,-0.0093097975477576,0.0,0.0,-0.059773564338684,-0.1622605919837951
-0.0057363510131835,1.3830972909927368,-0.1366413384675979,-0.3011646866798401,0.0010998778743669,-0.0118643743917346,0.0,0.0,-0.2347456216812133,0.1831837892532348
-0.0071306228637695,1.3762197494506836,-0.1386898458003997,-0.3056730628013611,0.0003754001227207,-0.0144913373515009,0.0,0.0,0.0419745445251464,0.6764795780181885
-0.008396434597671,1.3697534799575806,-0.1244653314352035,-0.2873862981796264,-0.0017127200262621,-0.0417661406099796,0.0,0.0,-0.0480965971946716,-0.055713951587677
-0.0096869468688964,1.3631858825683594,-0.1268051415681839,-0.2919001281261444,-0.0039372271858155,-0.0444940701127052,0.0,0.0,-0.6581360697746277,0.3387244939804077
-0.0110037801787257,1.3565168380737305,-0.1292928159236908,-0.2964085638523102,-0.0063011148013174,-0.0472820661962032,0.0,0.0,-0.2957544922828674,-0.2052401304244995
-0.0123484609648585,1.3497464656829834,-0.1319275349378585,-0.3009176850318908,-0.0088062854483723,-0.0501083917915821,0.0,0.0,-0.2738238573074341,0.2547690868377685
-0.0137224197387695,1.3428747653961182,-0.1347091346979141,-0.3054277300834656,-0.0114546008408069,-0.0529713220894336,0.0,0.0,-0.1822509765625,0.3612725734710693
-0.0151269910857081,1.3359016180038452,-0.1376362144947052,-0.3099379539489746,-0.0142476353794336,-0.0558656938374042,0.0,0.0,-0.6169471144676208,0.4586923122406006
-0.0165637973695993,1.3288272619247437,-0.1407074630260467,-0.3144482970237732,-0.0171867087483406,-0.0587869398295879,0.0,0.0,-0.5306228995323181,0.276180624961853
-0.0180340763181448,1.3216516971588137,-0.1439212709665298,-0.3189588189125061,-0.0202729701995849,-0.0617306232452392,0.0,0.0,-0.4273400902748108,0.3691997528076172
-0.0195395462214946,1.3143746852874756,-0.1472756713628769,-0.3234694898128509,-0.0235073249787092,-0.0646928399801254,0.0,0.0,-0.7038218379020691,0.3318095207214355
-0.0210813526064157,1.3069963455200195,-0.1507685184478759,-0.3279802501201629,-0.0268905069679021,-0.0676696375012397,0.0,0.0,-0.7094675302505493,0.7640767097473145
-0.0225899703800678,1.2995052337646484,-0.1454766243696212,-0.3330500423908233,-0.0322158150374889,-0.1065157651901245,0.0,0.0,-0.203200876712799,0.4931715726852417
-0.0241375919431448,1.2919129133224487,-0.1492327898740768,-0.3375624418258667,-0.0376899316906929,-0.1094920486211776,0.0,0.0,-0.6586768627166748,0.1229231357574462
-0.0257256515324115,1.2842196226119995,-0.1531196683645248,-0.3420751392841339,-0.0433142445981502,-0.1124964356422424,0.0,0.0,-0.796818733215332,-0.4613577127456665
-0.027355384081602,1.2764254808425903,-0.1571339070796966,-0.3465883135795593,-0.0490885898470878,-0.1154975146055221,0.0,0.0,-0.7872292995452881,-0.0923462510108947
-0.0290279388427734,1.268530249595642,-0.1612718552350998,-0.351101815700531,-0.0550130121409893,-0.1184993833303451,0.0,0.0,-0.8030911087989807,0.6183159351348877
-0.0306853298097848,1.2605339288711548,-0.1580957174301147,-0.3556874096393585,-0.0625760480761528,-0.1512743532657623,0.0,0.0,-0.7521976232528687,0.4954538345336914
-0.0323878303170204,1.2524369955062866,-0.1624649912118911,-0.3602035641670227,-0.070288136601448,-0.1542557626962661,0.0,0.0,-0.5447444915771484,0.7647316455841064
-0.0340633392333984,1.24423086643219,-0.157753050327301,-0.3651988804340362,-0.0799999684095382,-0.1942541450262069,0.0,0.0,-0.7354539632797241,0.3343918323516845
-0.0357860550284385,1.2359247207641602,-0.162337452173233,-0.369718849658966,-0.0898599773645401,-0.1972175538539886,0.0,0.0,-0.945708692073822,0.2395983934402465
-0.0375570282340049,1.2275185585021973,-0.1670260429382324,-0.3742394149303436,-0.0998689010739326,-0.2001962959766388,0.0,0.0,-0.7443674206733704,0.5340501070022583
-0.039346981793642,1.2189894914627075,-0.1679375320672989,-0.3798515498638153,-0.1108330190181732,-0.2192822694778442,0.0,0.0,-0.82976233959198,-0.0536648035049438
-0.0411871895194053,1.2103608846664429,-0.1728485077619552,-0.384370744228363,-0.1219468265771865,-0.2222762554883957,0.0,0.0,-0.8310662508010864,0.7169828414916992
-0.0430341735482215,1.2016319036483765,-0.1722558438777923,-0.3890139460563659,-0.1343278884887695,-0.247620940208435,0.0,0.0,-0.8203896284103394,-0.1115511655807495
-0.0449333190917968,1.1928038597106934,-0.1773426085710525,-0.3935361802577972,-0.1468585878610611,-0.2506142854690552,0.0,0.0,-0.9075801968574524,0.5263811349868774
-0.0468457229435443,1.183866262435913,-0.1775377988815307,-0.3986381590366363,-0.1605559736490249,-0.2739475965499878,0.0,0.0,-0.7244979739189148,-0.6643190383911133
-0.0488612167537212,1.174849271774292,-0.189010888338089,-0.4021534621715545,-0.173110157251358,-0.2510833442211151,0.0,0.0,-0.8068034052848816,-0.2159734964370727
-0.0509310737252235,1.1657333374023438,-0.194322407245636,-0.4066763520240783,-0.1858139932155609,-0.2540765702724457,0.0,0.0,-0.729184627532959,-0.3417832851409912
-0.0530559532344341,1.156518578529358,-0.1996981650590896,-0.4111997485160827,-0.1986674815416336,-0.2570698857307434,0.0,0.0,-0.8799742460250854,-0.5397457480430603
-0.0552831664681434,1.1472138166427612,-0.2110083401203155,-0.4151573181152344,-0.2104749679565429,-0.236149787902832,0.0,0.0,-0.7544906139373779,-0.6114655137062073
-0.0576121322810649,1.137825846672058,-0.2222563326358795,-0.4188007414340973,-0.2212345451116562,-0.2151914834976196,0.0,0.0,-0.5992463231086731,-0.8095810413360596
-0.0600572600960731,1.1283644437789917,-0.2353098690509796,-0.4219168126583099,-0.2305580973625183,-0.1864711940288543,0.0,0.0,-0.8047962188720703,-0.6933975219726562
-0.0626156777143478,1.118819236755371,-0.2479351460933685,-0.4254932403564453,-0.2385755777359008,-0.1603497117757797,0.0,0.0,-0.3839612007141113,-0.772882878780365
-0.0652859658002853,1.1091995239257812,-0.26043900847435,-0.428619235754013,-0.2452770620584488,-0.1340294331312179,0.0,0.0,-0.5254226326942444,0.6976330280303955
-0.0679627433419227,1.09946870803833,-0.2596688866615295,-0.433847963809967,-0.2534387707710266,-0.1632344275712967,0.0,0.0,-0.6508879065513611,-0.0578478574752807
-0.0706975013017654,1.0896376371383667,-0.265330970287323,-0.4383643269538879,-0.2617505192756653,-0.1662346869707107,0.0,0.0,-0.6952732801437378,0.3382089138031006
-0.0734903365373611,1.0797065496444702,-0.2710103392601013,-0.4428809583187103,-0.2702123522758484,-0.1692368686199188,0.0,0.0,-0.7028279900550842,-0.859710156917572
-0.0763936042785644,1.0696951150894165,-0.2832787334918976,-0.4462729096412658,-0.2774414718151092,-0.1445825695991516,0.0,0.0,-0.3716969490051269,-0.566118597984314
-0.0793924331665039,1.0595927238464355,-0.2936229109764099,-0.4501948356628418,-0.2838641405105591,-0.1284528225660324,0.0,0.0,-0.1086034178733825,-0.6209062337875366
-0.0824889168143272,1.0494059324264526,-0.3042837083339691,-0.4538019597530365,-0.2893860638141632,-0.1104385629296302,0.0,0.0,-0.6192935109138489,0.0189958810806274
-0.0856435745954513,1.0391185283660889,-0.3099668622016907,-0.4583157300949096,-0.2950587272644043,-0.113452672958374,0.0,0.0,-0.2976642847061157,-0.7672926783561707
-0.0889113396406173,1.028747797012329,-0.3225226104259491,-0.4617975652217865,-0.2994492650032043,-0.0878105238080024,0.0,0.0,-0.5779085755348206,0.0871071815490722
-0.0922368988394737,1.0182762145996094,-0.3281679451465606,-0.4663105607032776,-0.30399090051651,-0.0908326059579849,0.0,0.0,-0.256833553314209,0.1553729772567749
-0.0956201553344726,1.0077043771743774,-0.3337842226028442,-0.4708237946033478,-0.3086838722229004,-0.093859352171421,0.0,0.0,0.4578180313110351,-0.0839632749557495
-0.0989606827497482,0.998079001903534,-0.3288651406764984,-0.4289059937000274,-0.3140699863433838,-0.107722483575344,0.0,0.0,-0.4046705961227417,0.5457668304443359
-0.1023189574480056,0.9883326888084412,-0.329458087682724,-0.4345641732215881,-0.3206833004951477,-0.1322660148143768,0.0,0.0,-0.4361151456832886,-0.3280106782913208
-0.1057333946228027,0.978486180305481,-0.3349449336528778,-0.4390794336795807,-0.3274488151073456,-0.1353103220462799,0.0,0.0,-0.3591510057449341,0.5553245544433594
-0.1091651916503906,0.9685239195823668,-0.3355692028999328,-0.4445089995861053,-0.3353888988494873,-0.15880186855793,0.0,0.0,-0.5918867588043213,-0.4700993299484253
-0.1126517280936241,0.9584618806838988,-0.340932548046112,-0.4490259885787964,-0.343481957912445,-0.1618614792823791,0.0,0.0,-0.6005710363388062,0.6007125377655029
-0.1161466613411903,0.9482810497283936,-0.3404478132724762,-0.4546584486961365,-0.3529590666294098,-0.1895419955253601,0.0,0.0,-0.7800968885421753,0.5387395620346069
-0.1196454018354415,0.9379716515541076,-0.3394363224506378,-0.4608015120029449,-0.363971084356308,-0.2202406376600265,0.0,0.0,-0.9363147020339966,-0.2081592082977295
-0.1231964081525802,0.927562952041626,-0.3445565104484558,-0.4653233885765075,-0.3751375377178192,-0.2233283817768097,0.0,0.0,-0.9677748680114746,0.0596954822540283
-0.1267987191677093,0.9170553088188172,-0.3495785892009735,-0.4698456525802612,-0.3864589035511017,-0.2264273464679718,0.0,0.0,-0.9441216588020324,0.0418993234634399
-0.1304510086774826,0.906448483467102,-0.3544940054416656,-0.4743683040142059,-0.3979358375072479,-0.229538008570671,0.0,0.0,-0.9721446633338928,0.6680395603179932
-0.1340961456298828,0.895715057849884,-0.3522363305091858,-0.4805373847484588,-0.4111126363277435,-0.2635357081890106,0.0,0.0,-0.9651468396186828,0.3323665857315063
-0.1377887725830078,0.8848832249641418,-0.3569139838218689,-0.485063761472702,-0.4244461953639984,-0.2666707634925842,0.0,0.0,-0.8057131171226501,0.4801175594329834
-0.141527459025383,0.8739529848098755,-0.3614584505558014,-0.489590585231781,-0.4379371702671051,-0.269819438457489,0.0,0.0,-0.578296422958374,-0.3988267183303833
-0.1453108787536621,0.8629242777824402,-0.3658604621887207,-0.4941178262233734,-0.4515862762928009,-0.2729819715023041,0.0,0.0,-0.781758725643158,0.0355650186538696
-0.1491374969482422,0.8517976403236389,-0.3701106905937195,-0.4986455142498016,-0.4653941988945007,-0.2761587500572204,0.0,0.0,0.2576782703399658,-0.720790445804596
-0.1528282165527343,0.8412231802940369,-0.3578521311283111,-0.4737845063209533,-0.4778266251087188,-0.2486480474472046,0.0,0.0,0.5543789863586426,-0.1311166286468505
-0.156378835439682,0.8310473561286926,-0.3438014090061188,-0.4561991691589355,-0.4903853237628937,-0.251174122095108,0.0,0.0,0.3640960454940796,-0.2566293478012085
-0.1598277986049652,0.8214909434318542,-0.3331465423107147,-0.4289684891700744,-0.5035778880119324,-0.2638512253761291,0.0,0.0,-0.3695756196975708,-0.9251614809036256
-0.1633702218532562,0.8118956685066223,-0.3441170752048492,-0.4302206933498382,-0.5150322914123535,-0.2290885001420974,0.0,0.0,0.7124242782592773,-0.4300016164779663
-0.1667235344648361,0.8025344014167786,-0.3254697918891907,-0.4198216795921325,-0.5262556672096252,-0.2244675159454345,0.0,0.0,0.7992217540740967,-0.8663381338119507
-0.1696690618991851,0.7943148016929626,-0.2862554788589477,-0.3685515224933624,-0.5357351303100586,-0.1895890533924102,0.0,0.0,0.9476072788238524,-0.6659979820251465
-0.1725076735019683,0.7868442535400391,-0.2764534056186676,-0.3349906504154205,-0.5442593693733215,-0.1704845428466797,0.0,0.0,0.9673559665679932,-0.6704150438308716
-0.1751006096601486,0.7804427146911621,-0.2527720034122467,-0.2871671915054321,-0.5518040060997009,-0.1508923918008804,0.0,0.0,0.9874255657196044,-0.0645226240158081
-0.1772951185703277,0.7748687267303467,-0.2129532545804977,-0.2504172027111053,-0.5593425035476685,-0.1507695615291595,0.0,0.0,0.9934470653533936,-0.3787127733230591
-0.1791033744812011,0.7706145644187927,-0.1736193746328354,-0.1921159476041793,-0.567765474319458,-0.1684597134590149,0.0,0.0,0.9481549263000488,-0.6758350133895874
-0.180531695485115,0.767089307308197,-0.1369380801916122,-0.1592078357934951,-0.5746834874153137,-0.1383602023124694,0.0,0.0,0.6164083480834961,-0.7393305897712708
-0.1818506270647049,0.7640175819396973,-0.1271583139896392,-0.1385775208473205,-0.5802561640739441,-0.1114534363150596,0.0,0.0,0.6959900856018066,-0.7872784733772278
-0.1829917877912521,0.7612448334693909,-0.110785886645317,-0.1246929392218589,-0.5841872692108154,-0.0786224007606506,0.0,0.0,0.277071475982666,-0.8278955817222595
-0.1840805113315582,0.7587697505950928,-0.1068760156631469,-0.1108823493123054,-0.5865398645401001,-0.0470528379082679,0.0,0.0,0.0040477514266967,-0.8204324245452881
-0.1849667578935623,0.756860613822937,-0.0880078747868537,-0.0851259976625442,-0.5872825384140015,-0.0148532539606094,0.0,0.0,-0.3088448047637939,-0.9305246472358704
-0.1859080344438552,0.7549111247062683,-0.0948345139622688,-0.0863317176699638,-0.5864419341087341,0.0168117824941873,0.0,0.0,0.2036830186843872,-0.8009757399559021
-0.1866494119167328,0.7537410855293274,-0.076123870909214,-0.0511209033429622,-0.5840902924537659,0.0470323339104652,0.0,0.0,-0.1802144646644592,-0.6274244785308838
-0.1874425858259201,0.7525147199630737,-0.0825455412268638,-0.0530893057584762,-0.5802783966064453,0.0762383565306663,0.0,0.0,0.1656023263931274,-0.5497334003448486
-0.187934398651123,0.7519014477729797,-0.0533233359456062,-0.0254557114094495,-0.5753918290138245,0.0977314859628677,0.0,0.0,0.0198074579238891,-0.4182024002075195
-0.1882786750793457,0.751686155796051,-0.0382005274295806,-0.0079410383477807,-0.5709601640701294,0.088633507490158,0.0,0.0,-0.2045750617980957,-0.7115751504898071
-0.1886627227067947,0.7514225244522095,-0.0434658601880073,-0.0095628406852483,-0.565025269985199,0.1186973229050636,0.0,0.0,-0.257293164730072,-0.6337125897407532
-0.1890745162963867,0.751102089881897,-0.0473194047808647,-0.0116637842729687,-0.5578662753105164,0.1431793719530105,0.0,0.0,0.1451833248138427,-0.7566874623298645
-0.1892473250627517,0.7511876225471497,-0.0247381217777729,0.0068700243718922,-0.5492079854011536,0.1731661409139633,0.0,0.0,-0.2967950105667114,-0.5874571204185486
-0.1894393861293792,0.7512030601501465,-0.0275858398526906,0.0040835663676261,-0.5395171642303467,0.1938162446022033,0.0,0.0,-0.0878442525863647,-0.5329397916793823
-0.1896388977766037,0.7511431574821472,-0.0290836747735738,0.0009488597279414,-0.5290330648422241,0.2096817940473556,0.0,0.0,-0.2240097522735595,-0.4249944686889648
-0.1898109465837478,0.7509840726852417,-0.026258785277605,-0.0035734963603317,-0.5187066197395325,0.2065288722515106,0.0,0.0,-0.3187488317489624,-0.6492028832435608
-0.1899875700473785,0.7507506012916565,-0.0275643710047006,-0.0066480701789259,-0.5074867010116577,0.2243982255458831,0.0,0.0,-0.0055971145629882,-0.7624068260192871
-0.1901803910732269,0.75046706199646,-0.030567118898034,-0.0084756882861256,-0.4947851300239563,0.2540311515331268,0.0,0.0,-0.2318785190582275,-0.6164841651916504
-0.1903738975524902,0.7501215934753418,-0.0316946133971214,-0.0109771378338336,-0.4809941947460174,0.2758186161518097,0.0,0.0,-0.2071027755737304,-0.5631844401359558
-0.1905564367771148,0.7497041821479797,-0.0313913635909557,-0.0140512306243181,-0.4664082825183868,0.2917184233665466,0.0,0.0,-0.5459177494049072,-0.462872564792633
-0.1906941384077072,0.7491887807846069,-0.0268860049545764,-0.0185802485793828,-0.4519655108451843,0.2888555526733398,0.0,0.0,-0.4071612358093261,-0.4762848615646362
-0.1907838881015777,0.7485750913619995,-0.0220551621168851,-0.0231087636202573,-0.4376618564128876,0.2860730588436126,0.0,0.0,-0.6161830425262451,0.019913911819458
-0.1908225119113922,0.747863233089447,-0.0169048402458429,-0.0276367831975221,-0.4234929382801056,0.283378928899765,0.0,0.0,-0.1961841583251953,-0.096750795841217
-0.1908068656921386,0.7470531463623047,-0.0114417662844061,-0.0321643054485321,-0.4094538688659668,0.2807812094688415,0.0,0.0,-0.6084215044975281,-0.0031213760375976
-0.1907339096069336,0.7461446523666382,-0.0056733256205916,-0.0366913229227066,-0.3955394923686981,0.2782877683639526,0.0,0.0,-0.5507517457008362,0.1884536743164062
-0.1906006783246994,0.7451375722885132,0.0003925252822227,-0.0412178561091423,-0.3817441761493683,0.2759065330028534,0.0,0.0,-0.3291864395141601,-0.0106005072593688
-0.1904042214155197,0.744032084941864,0.006747311912477,-0.0457439012825489,-0.3680619299411773,0.2736451029777527,0.0,0.0,-0.589847207069397,0.2492696046829223
-0.1901417672634124,0.742827832698822,0.0133821200579404,-0.0502694770693779,-0.3544864356517792,0.2715106606483459,0.0,0.0,-0.7703685164451599,0.0459896326065063
-0.1898105591535568,0.7415252327919006,0.0202876739203929,-0.0547945909202098,-0.3410109281539917,0.269509881734848,0.0,0.0,-0.8703519701957703,0.0594427585601806
-0.1894079148769378,0.7401236295700073,0.0274543948471546,-0.0593192651867866,-0.327628493309021,0.2676487565040588,0.0,0.0,-0.9055395126342772,0.3228068351745605
-0.1889313757419586,0.738623321056366,0.034872505813837,-0.0638435110449791,-0.3143318891525268,0.2659325301647186,0.0,0.0,-0.9175233840942384,0.5848140716552734
-0.1883261650800705,0.7370018362998962,0.0491011440753936,-0.0696294978260994,-0.3025120794773102,0.2363967448472976,0.0,0.0,-0.9352652430534364,0.1500252485275268
-0.1876424849033355,0.7352811694145203,0.0569934472441673,-0.0741501823067665,-0.2907628715038299,0.2349841892719268,0.0,0.0,-0.9779760241508484,0.6516811847686768
-0.1868158280849456,0.7334384322166443,0.0729003176093101,-0.0799902901053428,-0.2807145416736603,0.2009668797254562,0.0,0.0,-0.9856200814247132,0.4847612380981445
-0.1859061270952224,0.7314956188201904,0.0812264531850814,-0.084507443010807,-0.2707210779190063,0.1998691111803054,0.0,0.0,-0.9931417107582092,0.4392580986022949
-0.1849114447832107,0.7294528484344482,0.0897538959980011,-0.0890243202447891,-0.2607745826244354,0.1989298313856125,0.0,0.0,-0.9963756799697876,0.7308303117752075
-0.1837669312953949,0.7272849082946777,0.1063775643706321,,-0.2525333762168884,0.164824441075325,0.0,0.0,-0.998045027256012,0.5767116546630859
-0.1824890077114105,0.7250049710273743,0.1208561211824417,-0.1001522988080978,-0.2454701513051986,0.1412646770477295,0.0,0.0,-0.9980466961860656,0.6206423044204712
-0.1810672730207443,0.7226099967956543,0.1366020739078521,-0.1055283918976783,-0.2398054748773574,0.1132935658097267,0.0,0.0,-0.989737331867218,-0.0540993809700012
-0.1795531213283538,0.7201139330863953,0.1458408087491989,-0.1100390926003456,-0.2341566234827041,0.1129774078726768,0.0,0.0,-0.9589003324508668,-0.2616631388664245
-0.1779452264308929,0.7175168395042419,0.1552339792251587,-0.1145496293902397,-0.2285161465406417,0.1128093749284744,0.0,0.0,-0.9262309670448304,-0.5015851855278015
-0.1762887984514236,0.7148340344429016,0.1588661670684814,-0.1182043254375457,-0.2216515094041824,0.1372924745082855,0.0,0.0,-0.991376519203186,-0.4550912976264953
-0.1745354682207107,0.7120502591133118,0.1685422956943512,-0.1227158308029174,-0.2147812396287918,0.1374054849147796,0.0,0.0,-0.9828161597251892,-0.4603320360183716
-0.1726838052272796,0.709165632724762,0.178348034620285,-0.1272272318601608,-0.2078986912965774,0.1376506984233856,0.0,0.0,-0.9912066459655762,0.0062954425811767
-0.1707325875759124,0.7061801552772522,0.1882757246494293,-0.1317385584115982,-0.2009975910186767,0.138022094964981,0.0,0.0,-0.9811418056488036,-0.7201849818229675
-0.1687268316745758,0.7031114101409912,0.1924860477447509,-0.1353121697902679,-0.1928566992282867,0.1628177613019943,0.0,0.0,-0.9897682666778564,-0.1739715337753296
-0.1666191071271896,0.6999419927597046,0.2026354819536209,-0.1398249119520187,-0.1846855729818344,0.1634223014116287,0.0,0.0,-0.999571979045868,-0.0150965452194213
