x_pos,y_pos,x_vel,y_vel,angle,ang_vel,leg_1,leg_2,main_booster,lat_booster
-0.0015995025169104,1.403314471244812,-0.1623864471912384,-0.3380283713340759,0.0021748149301856,0.0429313220083713,0.0,0.0,0.8325573678210061,-0.6401284897480588
-0.0032637596596032,1.3961864709854126,-0.1703647971153259,-0.3168078660964966,0.0060707372613251,0.0779268145561218,0.0,0.0,-0.7918914442871212,0.94631381198246
-0.00491085043177,1.388741970062256,-0.1666705310344696,-0.3308762907981872,0.0080102290958166,0.0387931726872921,0.0,0.0,-0.8487179280041073,0.9987945589497212
-0.0065670013427734,1.3809850215911863,-0.1663016378879547,-0.3447575271129608,0.0086843352764844,0.0134834451600909,0.0,0.0,-0.4386688156647604,-0.6568433472337563
-0.0083345416933298,1.372919678688049,-0.1787780970335006,-0.3584738075733185,0.0106879565864801,0.0400760620832443,0.0,0.0,0.771060002329568,0.6317738717985171
-0.0099693294614553,1.36542010307312,-0.1649621725082397,-0.3333273530006408,0.0121536562219262,0.0293165799230337,0.0,0.0,-0.0520501657236005,-0.6516476558251159
-0.0117249488830566,1.3576092720031738,-0.1786809414625167,-0.3471667170524597,0.0152383726090192,0.061699878424406,0.0,0.0,0.9698309103976436,0.6423889249456738
-0.0133171081542968,1.3506532907485962,-0.1618602573871612,-0.3091870546340942,0.0178495664149522,0.0522289164364337,0.0,0.0,0.8020495077099121,-0.8206350013462245
-0.0150691987946629,1.344762921333313,-0.1797111332416534,-0.261851817369461,0.0223052613437175,0.0891220569610595,0.0,0.0,0.0080540565563103,0.8895966234608861
-0.0168245323002338,1.3392353057861328,-0.178486943244934,-0.2457222491502761,0.025229824706912,0.0584966726601123,0.0,0.0,-0.6861377998822134,0.868060947696023
-0.0185626037418842,1.3334012031555176,-0.1750001311302185,-0.2593090236186981,0.0264043863862752,0.023493368178606,0.0,0.0,-0.560388282337646,0.7186429669776122
-0.0202966686338186,1.3272583484649658,-0.1731775999069214,-0.2730112075805664,0.0261847469955682,-0.0043931421823799,0.0,0.0,0.4349780618131413,0.7046468026623661
-0.021923255175352,1.321727275848389,-0.161440759897232,-0.2458046525716781,0.0249784346669912,-0.0241285450756549,0.0,0.0,-0.6457004619452269,-0.6790823367479197
-0.0236526485532522,1.315877914428711,-0.1730859577655792,-0.259970873594284,0.025122782215476,0.0028871269896626,0.0,0.0,-0.1424634724231237,0.6308098199541741
-0.025374412536621,1.3097275495529177,-0.1709019392728805,-0.2733266055583954,0.0238580573350191,-0.0252968557178974,0.0,0.0,0.592188779228944,0.7364041347910104
-0.0269803050905466,1.303694486618042,-0.1581896841526031,-0.268099308013916,0.0214799642562866,-0.0475662052631378,0.0,0.0,0.5032307991163711,-0.6250092312809101
-0.0285655967891216,1.2985289096832275,-0.1577798128128051,-0.2295775562524795,0.0207399018108844,-0.0148027436807751,0.0,0.0,0.8365719689322526,0.991439312020558
-0.029952336102724,1.2936772108078003,-0.1362784653902053,-0.2156001180410385,0.0183787699788808,-0.0472269840538501,0.0,0.0,0.8610582524161001,0.9477029491725628
-0.0312052723020315,1.289886236190796,-0.1212708130478859,-0.1684469282627105,0.0143925510346889,-0.0797315165400505,0.0,0.0,-0.9388081382044728,0.6127267538706365
-0.0324604026973247,1.2857857942581177,-0.1204347983002662,-0.1821974962949752,0.0093776788562536,-0.1003066301345825,0.0,0.0,0.4501934285518143,0.8359451684322701
-0.0335716232657432,1.2823747396469116,-0.1045456305146217,-0.1515746712684631,0.0028752095531672,-0.1300609856843948,0.0,0.0,0.1698062135963993,-0.9923480048236024
-0.0347923263907432,1.2791180610656738,-0.1174724698066711,-0.1447445899248123,-0.0016755271935835,-0.0910230726003646,0.0,0.0,0.3316796602571634,0.9513642297616536
-0.0358543395996093,0.0,-0.0997208654880523,-0.1293494403362274,-0.0080821644514799,-0.1281439960002899,0.0,0.0,0.7221962912381916,0.9797933511016998
-0.0367904677987098,1.2734640836715698,-0.0852126032114029,-0.1220219060778617,-0.0163888968527317,-0.1661495715379715,0.0,0.0,-0.4976243864542387,0.9110149418785708
-0.0377054214477539,1.2704122066497805,-0.0816179141402244,-0.1357711106538772,-0.0261660497635602,-0.1955604255199432,0.0,0.0,-0.2592182475507398,-0.884425426201348
-0.0387398712337017,1.267038345336914,-0.0956469476222992,-0.1501112580299377,-0.0338664315640926,-0.1540069878101349,0.0,0.0,0.943269010761194,-0.6905890088765978
-0.039825439453125,1.2646428346633911,-0.1020330041646957,-0.1066257953643798,-0.0403102822601795,-0.1288772076368332,0.0,0.0,0.367643173604397,0.7580931523391858
-0.0409728065133094,1.262973666191101,-0.1063668578863143,-0.0744296833872795,-0.0485840030014514,-0.1654743552207946,0.0,0.0,-0.5356737545751205,-0.8882236630063253
-0.0422319397330284,1.2610089778900146,-0.119548812508583,-0.0875394642353057,-0.0548747666180133,-0.1258154213428497,0.0,0.0,0.9046219259351292,-0.7883166320907491
-0.0435736663639545,1.2595810890197754,-0.1291485130786895,-0.0636548921465873,-0.0598414652049541,-0.0993340387940406,0.0,0.0,0.2803111243218625,-0.8046734287876115
-0.0449456200003623,1.2588392496109009,-0.133612722158432,-0.0331170596182346,-0.0633914843201637,-0.0710003226995468,0.0,0.0,0.4416932169141143,-0.8242670069872354
-0.0464559569954872,1.2583688497543335,-0.1487689316272735,-0.0210024248808622,-0.0656243041157722,-0.0446565337479114,0.0,0.0,0.755207876315148,-0.8858476028863983
-0.0480962768197059,1.2588882446289062,-0.1631528437137603,0.0230444315820932,-0.0664915516972541,-0.0173448789864778,0.0,0.0,0.8732043495157031,-0.9509607204216236
-0.0498824119567871,1.2597168684005735,-0.1792597323656082,0.036853015422821,-0.0658518970012664,0.0127931479364633,0.0,0.0,-0.9280039579169944,-0.6690768613979887
-0.0517356880009174,1.2602421045303345,-0.1870134621858596,0.0234205052256584,-0.0641796663403511,0.0334443487226963,0.0,0.0,0.9326270311618952,0.8641461165482095
-0.0534543991088867,1.26177978515625,-0.1715938597917556,0.068326897919178,-0.0644562989473342,-0.0055327070876955,0.0,0.0,-0.0891078444347717,-0.6695587205092979
-0.055241011083126,1.263009786605835,-0.1794890165328979,0.0546947717666626,-0.0636309310793876,0.0165070183575153,0.0,0.0,-0.6922510018254875,0.6506959867542423
-0.0569835677742958,1.2639296054840088,-0.1734011173248291,0.0408477187156677,-0.0644807815551757,-0.0169969610869884,0.0,0.0,-0.9295349607341736,0.6511867550637669
-0.0586872100830078,1.2645423412322998,-0.1679667532444,0.0271308589726686,-0.066849872469902,-0.0473820492625236,0.0,0.0,-0.2577799857196248,0.7447755550940244
-0.0603371635079383,1.2648404836654663,-0.1607100069522857,0.0130494963377714,-0.0710897967219352,-0.0847985595464706,0.0,0.0,-0.2765298015486539,0.8462550248050451
-0.0619383826851844,1.264830470085144,-0.1541050523519516,-0.0007414775318466,-0.0770416110754013,-0.1190360784530639,0.0,0.0,-0.9467878937721252,-0.1493707299232483
-0.063544750213623,1.2645113468170166,-0.1542884856462478,-0.0145229957997798,-0.0833287760615348,-0.1257435232400894,0.0,0.0,-0.9813499450683594,-0.3744425773620605
-0.0651549324393272,1.2638832330703735,-0.1543374806642532,-0.0283050835132598,-0.0899587273597717,-0.1325988620519638,0.0,0.0,-0.988842248916626,-0.5260302424430847
-0.0668025985360145,1.2629497051239014,-0.1586100757122039,-0.0418742336332798,-0.0960632115602493,-0.1220893412828445,0.0,0.0,-0.9936268925666808,-0.2526129484176636
-0.0684518814086914,1.2617073059082031,-0.1584116071462631,-0.0556565970182418,-0.1025235056877136,-0.1292060762643814,0.0,0.0,-0.9978156685829164,-0.5865922570228577
-0.0701447501778602,1.260156273841858,-0.1634931862354278,-0.0693369582295417,-0.1082671582698822,-0.1148731485009193,0.0,0.0,-0.9959220886230468,-0.4873704314231872
-0.0718370452523231,1.2582963705062866,-0.1630765199661255,-0.0831194221973419,-0.1143776923418045,-0.1222103461623191,0.0,0.0,-0.9904364347457886,-0.2426636815071106
-0.0735279098153114,1.2561277151107788,-0.1625620722770691,-0.0969024747610092,-0.1208598986268043,-0.1296440660953521,0.0,0.0,-0.9960043430328368,-0.0976759195327758
-0.0752162933349609,1.253650188446045,-0.1619573831558227,-0.1106861606240272,-0.1277181953191757,-0.1371660232543945,0.0,0.0,-0.984118103981018,-0.5251496434211731
-0.0769445449113845,1.2508705854415894,-0.1666370332241058,-0.1240789741277694,-0.1338717341423034,-0.1230708137154579,0.0,0.0,-0.9964854121208192,0.3541529178619385
-0.078668788075447,1.2477822303771973,-0.1658744812011718,-0.1378627866506576,-0.1404090970754623,-0.1307471692562103,0.0,0.0,-0.995852828025818,-0.6305592656135559
-0.0804423317313194,1.2444007396697998,-0.171798437833786,-0.150822103023529,-0.1459506750106811,-0.1108314618468284,0.0,0.0,-0.990983784198761,-0.4237430095672607
-0.082210823893547,1.2407106161117554,-0.1709084063768386,-0.1646057814359665,-0.1518824696540832,-0.1186358332633972,0.0,0.0,-0.9970493316650392,-0.2421132922172546
-0.0839737877249717,1.2367116212844849,-0.169966235756874,-0.1783900707960128,-0.1582072377204895,-0.126495361328125,0.0,0.0,-0.9937813878059388,-0.2658959031105041
-0.0857308357954025,1.232404112815857,-0.1689794957637787,-0.1921750009059906,-0.1649274826049804,-0.1344047486782074,0.0,0.0,-0.996236264705658,-0.4125087261199951
-0.0874814018607139,1.2277880907058716,-0.1679558008909225,-0.2059606164693832,-0.1720454394817352,-0.1423590928316116,0.0,0.0,-0.9927864074707032,-0.597356915473938
-0.0892640128731727,1.2228792905807495,-0.1717726588249206,-0.218934953212738,-0.1785496324300766,-0.1300840079784393,0.0,0.0,-0.977879285812378,-0.6539989113807678
-0.0910786613821983,1.2176752090454102,-0.1755930185317993,-0.2320118248462677,-0.1844429075717926,-0.1178656592965126,0.0,0.0,-0.9899201989173888,-0.4468559026718139
-0.0928863510489463,1.2121626138687134,-0.1745029538869857,-0.2457972913980484,-0.1907393634319305,-0.1259287744760513,0.0,0.0,-0.9967334270477296,-0.3372759819030761
-0.0946870818734169,1.2063417434692385,-0.1734058111906051,-0.2595833539962768,-0.1974403709173202,-0.1340201944112777,0.0,0.0,-0.9841307997703552,-0.6379038691520691
-0.0965266227722168,1.2002204656600952,-0.1780651807785034,-0.2728534936904907,-0.2033786028623581,-0.1187646389007568,0.0,0.0,-0.9567579627037048,-0.4223495125770569
-0.0983593016862869,1.1937906742095947,-0.1769753694534301,-0.2866396307945251,-0.2097237259149551,-0.1269025802612304,0.0,0.0,-0.9783825278282166,-0.6613689064979553
-0.1002259254455566,1.1870641708374023,-0.1810303032398224,-0.2997744381427765,-0.2154205441474914,-0.1139363050460815,0.0,0.0,-0.962944269180298,-0.7337015271186829
-0.1021403297781944,1.1800481081008911,-0.1868012696504593,-0.3125156164169311,-0.2201063334941864,-0.0937160104513168,0.0,0.0,-0.8083133101463318,0.1196385622024536
-0.1040484458208084,1.1727232933044434,-0.1857756376266479,-0.3263012766838074,-0.2252013832330703,-0.1019010096788406,0.0,0.0,-0.8495911955833435,-0.3448419570922851
-0.1059506386518478,1.1650902032852173,-0.1847854703664779,-0.3400874435901642,-0.2307061851024627,-0.1100961193442344,0.0,0.0,-0.7583075761795044,0.2273650169372558
-0.1078473106026649,1.157148838043213,-0.1838375627994537,-0.353874146938324,-0.2366211116313934,-0.1182988882064819,0.0,0.0,-0.5884483456611633,-0.1885055899620056
-0.1097389236092567,1.1488993167877195,-0.1829385459423065,-0.3676614463329315,-0.2429464757442474,-0.1265069097280502,0.0,0.0,-0.3652631044387817,-0.0906776785850524
-0.1116260513663292,1.1403416395187378,-0.182094931602478,-0.3814493715763092,-0.2496823817491531,-0.1347179859876632,0.0,0.0,-0.6965141296386719,0.1142864227294921
-0.1135092750191688,1.1314759254455566,-0.1813131272792816,-0.3952379524707794,-0.2568288743495941,-0.1429299563169479,0.0,0.0,-0.3838860988616943,0.2591512203216553
-0.1153891533613205,1.122302532196045,-0.1805993616580963,-0.4090271890163421,-0.2643859088420868,-0.1511406898498535,0.0,0.0,-0.8034756183624268,-0.7231067419052124
-0.1173186302185058,1.112843632698059,-0.1865155100822448,-0.4215714335441589,-0.2709630131721496,-0.1315420418977737,0.0,0.0,-0.0057986974716186,-0.6068706512451172
-0.1193010360002517,1.1031064987182615,-0.1928859949111938,-0.4337637722492218,-0.2764512598514557,-0.1097650676965713,0.0,0.0,-0.2127553820610046,-0.210909366607666
-0.1212826743721962,1.0930612087249756,-0.1924107670783996,-0.4475519359111786,-0.2823492884635925,-0.1179613247513771,0.0,0.0,-0.3959349393844604,-0.2222660779953003
-0.1232641190290451,1.0827081203460691,-0.1920267045497894,-0.4613406956195831,-0.2886567413806915,-0.1261490285396576,0.0,0.0,-0.3361523747444153,-0.682476818561554
-0.1252938210964203,1.0720603466033936,-0.1976410150527954,-0.4742963910102844,-0.2941505312919616,-0.1098758950829505,0.0,0.0,0.4896949529647827,0.0614186525344848
-0.1272641122341156,1.0615565776824951,-0.1911793649196624,-0.4680329859256744,-0.300184428691864,-0.1206780299544334,0.0,0.0,0.4591126441955566,-0.4340914487838745
-0.1290373802185058,1.051751971244812,-0.1710559576749801,-0.4370708465576172,-0.3066602051258087,-0.1295155435800552,0.0,0.0,-0.6985758543014526,-0.8723076581954956
-0.1308695822954177,1.0416746139526367,-0.1780770868062973,-0.4489793479442596,-0.3119935095310211,-0.1066663116216659,0.0,0.0,0.9509711265563964,-0.7193347215652466
-0.1325993537902832,1.0327657461166382,-0.1685369908809662,-0.3969049751758575,-0.3165991008281708,-0.0921118035912513,0.0,0.0,0.1386002302169799,-0.4605104923248291
-0.1343492567539215,1.023916244506836,-0.1697717010974884,-0.3944680094718933,-0.3220223486423492,-0.1084648966789245,0.0,0.0,-0.457068383693695,-0.7470430135726929
-0.1361574232578277,1.0147910118103027,-0.1765905320644378,-0.4065150916576385,-0.326419860124588,-0.0879501551389694,0.0,0.0,-0.1019905805587768,-0.8284748792648315
-0.1380466520786285,1.0053942203521729,-0.1862172335386276,-0.4182510077953338,-0.3292436301708221,-0.0564755797386169,0.0,0.0,0.7982710599899292,-0.7530472278594971
-0.1398244798183441,0.9967995882034302,-0.1760457754135131,-0.3823777437210083,-0.3310631513595581,-0.0363903157413005,0.0,0.0,0.9271895885467528,-0.6334083676338196
-0.1414093971252441,0.989088535308838,-0.157567098736763,-0.3429247438907623,-0.3320240974426269,-0.0192191135138273,0.0,0.0,0.9660491943359376,-0.8254199624061584
-0.142735868692398,0.9820277094841005,-0.1331903636455536,-0.313695877790451,-0.3314614593982696,0.0112529564648866,0.0,0.0,0.9732897281646729,-0.8249772787094116
-0.1439777314662933,0.975247323513031,-0.126008465886116,-0.3009298741817474,-0.3295551538467407,0.0381260775029659,0.0,0.0,0.970976948738098,-0.0623104572296142
-0.1449751853942871,0.968786895275116,-0.1016763299703598,-0.2866933643817901,-0.3275337517261505,0.0404273830354213,0.0,0.0,0.750943660736084,-0.8113117814064026
-0.1456930190324783,0.9628256559371948,-0.0752432122826576,-0.2641697227954864,-0.323934257030487,0.0719899982213974,0.0,0.0,0.8614246845245361,-0.7219381928443909
-0.1461816728115081,0.9571287631988524,-0.0537318065762519,-0.2521156370639801,-0.318875253200531,0.1011802777647972,0.0,0.0,0.6291548013687134,-0.738098680973053
-0.1465179473161697,0.9522144198417664,-0.0395570173859596,-0.2171215265989303,-0.3127084374427795,0.1233365312218666,0.0,0.0,0.5952657461166382,-0.6709783673286438
-0.1466682404279709,0.9480518698692322,-0.022001065313816,-0.183521881699562,-0.3054910600185394,0.1443475931882858,0.0,0.0,-0.1488512754440307,-0.5399433374404907
-0.146873190999031,0.9435986876487732,-0.0279409643262624,-0.1963731199502945,-0.2977880239486694,0.1540604680776596,0.0,0.0,-0.5810806155204773,0.1120229959487915
-0.1471023559570312,0.9388378262519836,-0.0300104618072509,-0.2101637572050094,-0.2904714941978454,0.1463303864002227,0.0,0.0,-0.6367011666297913,-0.2773125171661377
-0.1473572701215744,0.9337689280509948,-0.0322265475988388,-0.2239536643028259,-0.2835394442081451,0.138641357421875,0.0,0.0,-0.3309014439582824,-0.1594495773315429
-0.1476393640041351,0.928392231464386,-0.0345888435840606,-0.2377428710460662,-0.2769896686077118,0.1309954077005386,0.0,0.0,-0.7104133367538452,-0.2134655714035034
-0.1479501724243164,0.922707498073578,-0.0370966345071792,-0.2515314519405365,-0.2708199322223663,0.1233946084976196,0.0,0.0,-0.5508559942245483,-0.3164957761764526
-0.1482911109924316,0.9167145490646362,-0.0397488996386528,-0.2653194069862366,-0.2650278508663177,0.115841194987297,0.0,0.0,-0.3506608009338379,0.1945197582244873
-0.1486635208129882,0.910413146018982,-0.0425443053245544,-0.2791067361831665,-0.2596109807491302,0.1083375215530395,0.0,0.0,-0.7765610814094543,0.3875399827957153
-0.1490689218044281,0.9038035869598388,-0.045481227338314,-0.292893499135971,-0.2545666992664337,0.10088612139225,0.0,0.0,-0.7632899880409241,0.1530910730361938
-0.1495086699724197,0.8968855142593384,-0.0485577434301376,-0.306679755449295,-0.2498922049999237,0.0934896618127822,0.0,0.0,-0.9176934361457824,0.1705524921417236
-0.1499841660261154,0.8896589875221252,-0.0517716519534587,-0.3204655349254608,-0.2455846518278122,0.086151011288166,0.0,0.0,-0.699776291847229,-0.7247186899185181
-0.1505626738071441,0.8821496367454529,-0.0634443163871765,-0.33282670378685,-0.2398931831121444,0.1138290613889694,0.0,0.0,-0.5637013912200928,0.3725640773773193
-0.1511794030666351,0.8743317723274231,-0.0669258385896682,-0.3466129302978515,-0.2345623970031738,0.1066155880689621,0.0,0.0,-0.1107990145683288,0.469304084777832
-0.1518357247114181,0.8662053346633911,-0.0705365166068077,-0.3603985905647278,-0.229588896036148,0.0994702130556106,0.0,0.0,-0.2826851606369018,-0.3021404147148132
-0.1525328606367111,0.8577704429626465,-0.0742731317877769,-0.3741836845874786,-0.2249690592288971,0.0923967212438583,0.0,0.0,-0.6081039905548096,-0.1590335965156555
-0.1532720625400543,0.8490267395973206,-0.0781322419643402,-0.387968361377716,-0.2206990867853164,0.0853992849588394,0.0,0.0,0.177709698677063,-0.5543108582496643
-0.1539927423000335,0.8408088684082031,-0.0770246088504791,-0.3645077049732208,-0.2156883329153061,0.1002154797315597,0.0,0.0,-0.7853266596794128,-0.8377538323402405
-0.1548055708408355,0.8323080539703369,-0.0871818512678146,-0.376964122056961,-0.2097252607345581,0.1192615255713462,0.0,0.0,-0.8330627679824829,-0.09579998254776
-0.1556636840105056,0.8234986662864685,-0.0913862735033035,-0.3907493352890014,-0.2040991932153701,0.1125210672616958,0.0,0.0,-0.6572148203849792,-0.2677546739578247
-0.1565681397914886,0.8143804669380188,-0.0956973135471344,-0.4045339524745941,-0.198805347084999,0.1058771982789039,0.0,0.0,-0.4525606036186218,-0.2940950393676758
-0.1575198173522949,0.8049535155296326,-0.100110575556755,-0.4183180630207062,-0.1938385516405105,0.0993360057473182,0.0,0.0,-0.9222081303596495,-0.6062878966331482
-0.1585609465837478,0.7952269315719604,-0.1097782105207443,-0.4315637350082397,-0.1881408840417862,0.1139532774686813,0.0,0.0,-0.7949947118759155,-0.3785631656646728
-0.1596511900424957,0.7851915955543518,-0.1143823638558387,-0.4453477561473846,-0.182759016752243,0.107637345790863,0.0,0.0,-0.677310585975647,0.2967501878738403
-0.1607913970947265,0.7748472690582275,-0.11907459795475,-0.4591312706470489,-0.1776867657899856,0.1014450639486312,0.0,0.0,-0.7944895029067993,-0.6209368109703064
-0.1620323210954666,0.7642073035240173,-0.1301407814025879,-0.4721773862838745,-0.1716283410787582,0.121168628334999,0.0,0.0,-0.8249463438987732,0.0547515153884887
-0.1633247435092926,0.7532585859298706,-0.1349943727254867,-0.4859610497951507,-0.1658659726381302,0.1152477264404296,0.0,0.0,0.3244242668151855,0.3376102447509765
-0.1645183563232422,0.7424013018608093,-0.1253186017274856,-0.4818885028362274,-0.1599079519510269,0.119160458445549,0.0,0.0,-0.8428693413734436,0.7329926490783691
-0.1656979620456695,0.7312222719192505,-0.1219279021024704,-0.4964261054992676,-0.155933678150177,0.0794854238629341,0.0,0.0,-0.9135125279426576,-0.5388625264167786
-0.1669704467058181,0.7197486758232117,-0.1319964826107025,-0.5094492435455322,-0.1511953771114349,0.0947660356760025,0.0,0.0,-0.4663774967193603,-0.4921977519989013
