x_pos,y_pos,x_vel,y_vel,angle,ang_vel,leg_1,leg_2,main_booster,lat_booster
-0.001442527747713,1.4031236171722412,-0.146789401769638,-0.3465058207511902,0.0022705043666064,0.044825755059719,0.0,0.0,-0.5375151038169861,0.9512777328491212
-0.0027236938476562,1.3948453664779663,-0.1288687139749527,-0.3679240942001343,0.0030095058027654,0.0147819127887487,0.0,0.0,-0.5388414263725281,0.884467601776123
-0.00384101876989,1.3860598802566528,-0.1109046787023544,-0.3904667794704437,0.0021956039126962,-0.0162792205810546,0.0,0.0,0.3591364622116089,0.7190465927124023
-0.004934215452522,1.377387762069702,-0.1074687018990516,-0.3854331970214844,0.0003683229151647,-0.0365491099655628,0.0,0.0,-0.6801140904426575,-0.2141813039779663
-0.0059512136504054,1.3682146072387695,-0.1004697084426879,-0.4076935350894928,-0.0008462779805995,-0.0242941714823246,0.0,0.0,-0.5727249979972839,0.0528633594512939
-0.0068936347961425,1.3585407733917236,-0.0936408415436744,-0.4299469292163849,-0.0014358791522681,-0.0117932055145502,0.0,0.0,-0.6810193061828613,0.4229884147644043
-0.0077629089355468,1.3483662605285645,-0.0869861170649528,-0.4522012770175934,-0.001387720927596,0.0009629822452552,0.0,0.0,-0.6823267340660095,0.6381716728210449
-0.0084983827546238,1.3376926183700562,-0.0726469606161117,-0.4743809700012207,-0.0022667103912681,-0.0175814125686883,0.0,0.0,-0.5457513928413391,-0.6844582557678223
-0.0092189786955714,1.3265260457992554,-0.0732446536421775,-0.4962953329086303,-0.001102014677599,0.0232960954308509,0.0,0.0,-0.5798695683479309,-0.5983628034591675
-0.0099190715700387,1.3148624897003174,-0.0730586946010589,-0.5183805227279663,0.0019187740981578,0.0604211688041687,0.0,0.0,-0.6407621502876282,-0.5179467797279358
-0.0105881690979003,1.3026987314224243,-0.0715343430638313,-0.5406259894371033,0.0064982972107827,0.0915987938642501,0.0,0.0,-0.5079156756401062,-0.1914575695991516
-0.0111930845305323,1.290034532546997,-0.0658179372549057,-0.5628834962844849,0.0117656299844384,0.1053560376167297,0.0,0.0,-0.4679785370826721,0.1730538606643676
-0.0117358211427927,1.2768701314926147,-0.0602984242141246,-0.5851411819458008,0.0177292563021183,0.1192832142114639,0.0,0.0,-0.7300088405609131,0.3461593389511108
-0.0122181894257664,1.2632057666778564,-0.0549786873161792,-0.6073999404907227,0.0243966858834028,0.1333606243133545,0.0,0.0,-0.6370459794998169,0.2669047117233276
-0.012642097659409,1.2490415573120115,-0.0498611740767955,-0.62965989112854,0.0317750237882137,0.1475803554058075,0.0,0.0,-0.5231616497039795,0.307262659072876
-0.0130097391083836,1.23437762260437,-0.0449478961527347,-0.6519211530685425,0.0398709326982498,0.1619332134723663,0.0,0.0,-0.752356767654419,0.6994168758392334
-0.0132554052397608,1.219226360321045,-0.0317590907216072,-0.6735964417457581,0.0469835922122001,0.1422658264636993,0.0,0.0,-0.6268207430839539,0.868516206741333
-0.0133637432008981,1.2035739421844482,-0.0166059006005525,-0.6958538889884949,0.0526956319808959,0.1142512932419776,0.0,0.0,-0.7234016060829163,0.7289488315582275
-0.0133550642058253,1.1874339580535889,-0.0039510685019195,-0.7175155282020569,0.0574609600007534,0.0953151434659957,0.0,0.0,-0.0681312084197998,0.7168943881988525
-0.0132490154355764,1.1707978248596191,0.0062940372154116,-0.739556610584259,0.0617335960268974,0.0854604691267013,0.0,0.0,-0.2729692459106445,0.5596170425415039
-0.0130432127043604,1.1536707878112793,0.0168816614896059,-0.7613597512245178,0.0654033571481704,0.0734019130468368,0.0,0.0,-0.6215344667434692,0.6402759552001953
-0.0127412797883152,1.1360450983047483,0.0270463041961193,-0.7835010290145874,0.0685269087553024,0.0624765083193779,0.0,0.0,-0.3346322774887085,0.5043888092041016
-0.0123483659699559,1.1179238557815552,0.0366025194525718,-0.8055152893066406,0.0711863934993743,0.053194411098957,0.0,0.0,0.1191909313201904,0.3485057353973388
-0.0118829729035496,1.0996241569519043,0.0428800024092197,-0.8135000467300415,0.0748254284262657,0.0727870315313339,0.0,0.0,0.1193206310272216,0.5706260204315186
-0.011473273858428,1.0814714431762695,0.0378600135445594,-0.8069483637809753,0.0779124945402145,0.0617464706301689,0.0,0.0,0.1618958711624145,0.8219239711761475
-0.0111176492646336,1.0635359287261963,0.0334015749394893,-0.7972444295883179,0.0800511166453361,0.0427723787724971,0.0,0.0,-0.1999005675315857,0.6678488254547119
-0.0106745716184377,1.045111060142517,0.0427204966545105,-0.8189630508422852,0.0816211029887199,0.0313997007906436,0.0,0.0,0.5908471345901489,0.8302427530288696
-0.0103382114320993,1.027374029159546,0.0331718511879444,-0.7883388996124268,0.0820861905813217,0.0093016317114233,0.0,0.0,0.2678813934326172,0.3986368179321289
-0.0101194381713867,1.010013461112976,0.0210896171629428,-0.7716236710548401,0.0828661173582077,0.0155983315780758,0.0,0.0,-0.144914448261261,0.6831145286560059
-0.0098195075988769,0.992156982421875,0.0297439135611057,-0.793635368347168,0.0831146612763404,0.0049707912839949,0.0,0.0,0.1326053142547607,0.5442826747894287
-0.0094838142395019,0.974681556224823,0.0335980579257011,-0.776686429977417,0.0830867663025856,-0.0005578384152613,0.0,0.0,-0.0884190797805786,0.7234792709350586
-0.0090726856142282,0.9567083716392516,0.0416095145046711,-0.7987862825393677,0.0825919136404991,-0.0098968623206019,0.0,0.0,0.2933671474456787,0.5716216564178467
-0.0087154386565089,0.9391754269599916,0.0367260947823524,-0.779183030128479,0.0816031694412231,-0.0197749268263578,0.0,0.0,0.5750086307525635,0.5767199993133545
-0.0083836559206247,0.9216490983963012,0.0346938632428646,-0.7788645029067993,0.0800993591547012,-0.0300763640552759,0.0,0.0,-0.2284911870956421,0.5731525421142578
-0.0079851150512695,0.9036297798156738,0.0417607836425304,-0.8007587194442749,0.0782166421413421,-0.0376543179154396,0.0,0.0,0.4054597616195678,0.4213396310806274
-0.0076024057343602,0.8860747218132019,0.0392939411103725,-0.780177652835846,0.0772013962268829,-0.0203049965202808,0.0,0.0,0.0958046913146972,0.8340884447097778
-0.0071798325516283,0.8684723973274231,0.0441680289804935,-0.7822310924530029,0.0753157883882522,-0.0377123281359672,0.0,0.0,0.3153474330902099,0.0007593631744384
-0.0067565916106104,0.8512799143791199,0.043280653655529,-0.7640575766563416,0.0743698328733444,-0.0189188905060291,0.0,0.0,-0.0477188825607299,-0.3348661661148071
-0.0063186646439135,0.833587646484375,0.0439311563968658,-0.7863161563873291,0.0742250084877014,-0.0028964439406991,0.0,0.0,0.1389570236206054,0.8319478034973145
-0.0058105466887354,0.816033124923706,0.0518140792846679,-0.7801479697227478,0.0732379481196403,-0.0197413843125104,0.0,0.0,-0.074815809726715,0.8169273138046265
-0.0052375793457031,0.7979916930198669,0.0588276460766792,-0.8017758131027222,0.071714386343956,-0.0304708983749151,0.0,0.0,0.1695263385772705,0.8925285339355469
-0.0045083044096827,0.7800210118293762,0.075412318110466,-0.7985740900039673,0.0692588165402412,-0.0491115376353263,0.0,0.0,0.0631638765335083,0.6907427310943604
-0.0036571503151208,0.7618581056594849,0.0881014913320541,-0.8071069717407227,0.0663029327988624,-0.0591177754104137,0.0,0.0,0.7279562950134277,-0.1782759428024292
-0.002730369567871,0.7440330386161804,0.0943695306777954,-0.792150616645813,0.0646339282393455,-0.0333801880478858,0.0,0.0,0.3415558338165283,0.1173632144927978
-0.0018441199790686,0.7260628342628479,0.0896416902542114,-0.7986354231834412,0.063619427382946,-0.0202896688133478,0.0,0.0,-0.081001341342926,0.7658171653747559
-0.0008857726934365,0.7075909376144409,0.0977069661021232,-0.8208927512168884,0.0617736615240573,-0.0369153618812561,0.0,0.0,0.0735409259796142,0.5713000297546387
0.0001501083315815,0.6890590786933899,0.105715811252594,-0.8235547542572021,0.0596675761044025,-0.0421218052506446,0.0,0.0,0.3791913986206054,-0.6659948825836182
0.0009933471446856,0.6710625290870667,0.0844842419028282,-0.7998431324958801,0.0595070272684097,-0.0032111175823956,0.0,0.0,-0.3267149925231933,0.8415056467056274
0.0018926620250567,0.6525778770446777,0.0905957221984863,-0.8215128779411316,0.0588471479713916,-0.0131976036354899,0.0,0.0,0.0857207775115966,-0.4878400564193725
0.0027623176574707,0.634092390537262,0.086883932352066,-0.821577250957489,0.0589310191571712,0.0016775861149653,0.0,0.0,0.5367233753204346,0.7963614463806152
0.0038151741027832,0.6159207224845886,0.1057509779930114,-0.8076114058494568,0.0584772452712059,-0.0090752262622118,0.0,0.0,0.7972557544708252,-0.8947561979293823
0.0046840668655931,0.5984427332878113,0.0848475098609924,-0.776880145072937,0.0604907646775245,0.0402702838182449,0.0,0.0,-0.7807838916778564,0.8230609893798828
0.0056324959732592,0.5804671049118042,0.0939448848366737,-0.7989523410797119,0.0613762661814689,0.0177099108695983,0.0,0.0,0.1476483345031738,0.0010373592376708
0.0065513611771166,0.5628213286399841,0.0901690870523452,-0.7843302488327026,0.0630778148770332,0.0340311154723167,0.0,0.0,-0.3831911087036133,0.3616682291030884
0.0074723241850733,0.5446754693984985,0.0895565450191497,-0.8065882921218872,0.0655841678380966,0.0501272082328796,0.0,0.0,0.5048509836196899,0.2350622415542602
0.0082800863310694,0.5266637206077576,0.0778399929404258,-0.8006579279899597,0.0684914365410804,0.0581455007195472,0.0,0.0,0.7352464199066162,0.6637978553771973
0.0091911312192678,0.5094271302223206,0.0884443446993827,-0.7661941051483154,0.0711280107498169,0.0527313463389873,0.0,0.0,0.3788236379623413,0.7073498964309692
0.0102474214509129,0.4925552904605865,0.1033600196242332,-0.7499665021896362,0.0733656883239746,0.044753722846508,0.0,0.0,0.3074839115142822,0.5753487348556519
0.0113674160093069,0.4761764407157898,0.1099563986063003,-0.7280515432357788,0.0753858909010887,0.0404040142893791,0.0,0.0,0.1893492937088012,0.5796113014221191
0.0124317165464162,0.4601472020149231,0.1048632264137268,-0.7124912142753601,0.0769390314817428,0.0310628451406955,0.0,0.0,0.0251815319061279,0.3113455772399902
0.0135121345520019,0.4439654052257538,0.1055270582437515,-0.7193211913108826,0.0794330537319183,0.0498804077506065,0.0,0.0,0.5445882081985474,-0.2018380165100097
0.0144495014101266,0.4282532334327698,0.090858481824398,-0.6984730958938599,0.0822845846414566,0.0570304580032825,0.0,0.0,0.1627880334854126,0.5765438079833984
0.0155011173337697,0.412601500749588,0.1024863347411155,-0.6957811713218689,0.0849427431821823,0.0531630739569664,0.0,0.0,0.5214114189147949,0.1677038669586181
0.0165296550840139,0.3972965478897095,0.0992811173200607,-0.6804296374320984,0.0884861350059509,0.0708677992224693,0.0,0.0,0.2746986150741577,0.4297720193862915
0.0175405498594045,0.3819547891616821,0.0966935977339744,-0.6821184158325195,0.0928386375308036,0.0870500952005386,0.0,0.0,0.5302423238754272,0.8401334285736084
0.018443202599883,0.366923063993454,0.0869646742939949,-0.6682868599891663,0.0961074456572532,0.065376229584217,0.0,0.0,0.6989210844039917,0.676769495010376
0.0193427093327045,0.3527247309684753,0.0871887877583503,-0.6312195658683777,0.0988511070609092,0.0548729375004768,0.0,0.0,0.504188060760498,0.6745240688323975
0.020356560125947,0.3384361267089844,0.0990416556596756,-0.6352031230926514,0.1011830866336822,0.0466397479176521,0.0,0.0,0.6981234550476074,0.0030299425125122
0.0213156696408987,0.3249616622924804,0.0926578193902969,-0.5990878939628601,0.1044060066342353,0.0644582733511924,0.0,0.0,0.3056068420410156,0.5354287624359131
0.0222043991088867,0.3115373849868774,0.0861140415072441,-0.5968305468559265,0.1071414798498153,0.0547095946967601,0.0,0.0,0.8143415451049805,0.8328465223312378
0.0229763034731149,0.2987187802791595,0.0755679234862327,-0.5698339343070984,0.1087514609098434,0.03219960257411,0.0,0.0,0.6234865188598633,0.6358504295349121
0.023772906512022,0.2863271236419678,0.0784963518381118,-0.5508228540420532,0.1099108979105949,0.0231885276734828,0.0,0.0,0.8917931318283081,0.6485114097595215
0.024365996941924,0.2748673558235168,0.0591086745262146,-0.5093399286270142,0.1101036816835403,0.003855659160763,0.0,0.0,0.605914831161499,-0.1057156324386596
0.0249788276851177,0.263756513595581,0.0600279383361339,-0.4939068555831909,0.1113541945815086,0.0250101778656244,0.0,0.0,0.9151095151901244,0.7313189506530762
0.0255686752498149,0.2528188228607178,0.0585759095847606,-0.4861518740653991,0.1117671355605125,0.0082588270306587,0.0,0.0,0.9514678716659546,-0.5817485451698303
0.026168156415224,0.241954356431961,0.0574039928615093,-0.4830579161643982,0.1142920702695846,0.0504984930157661,0.0,0.0,0.952322244644165,-0.0131927728652954
0.0266983993351459,0.2311816066503524,0.0499654784798622,-0.4790234565734863,0.1173419207334518,0.060996901243925,0.0,0.0,0.813835859298706,0.5132290124893188
0.0271719936281442,0.2212167382240295,0.0446563437581062,-0.4430996179580688,0.1200231090188026,0.0536239854991436,0.0,0.0,0.9742751121520996,-0.4007830023765564
0.0276398658752441,0.2122212499380111,0.042966429144144,-0.4001110792160034,0.1238198950886726,0.0759358927607536,0.0,0.0,0.659878134727478,-0.0526756644248962
0.0279116630554199,0.2039277851581573,0.0232269577682018,-0.3689320981502533,0.1277545690536499,0.0786938369274139,0.0,0.0,0.964735746383667,0.7352268695831299
0.0280451774597167,0.1956926882266998,0.0106155332177877,-0.3662410974502563,0.1304725855588913,0.0543601438403129,0.0,0.0,0.7119674682617188,-0.1427132487297058
0.0281332023441791,0.1881845146417617,0.0052561904303729,-0.3340120613574981,0.1340121924877166,0.0707921311259269,0.0,0.0,0.914872407913208,0.8563098907470703
0.0280926711857318,0.181156113743782,-0.0062469420954585,-0.3125733435153961,0.1361961811780929,0.0436793379485607,0.0,0.0,0.6147154569625854,0.6582961082458496
0.0279780384153127,0.1746140271425247,-0.01279778778553,-0.2908808588981628,0.1375268399715423,0.0266135372221469,0.0,0.0,0.4113727807998657,0.5597063302993774
0.0278377532958984,0.1684696227312088,-0.0147899584844708,-0.2731578648090362,0.1382836401462555,0.015136094763875,0.0,0.0,0.1768321990966797,0.3115053176879883
0.0277267452329397,0.1624539643526077,-0.0126948254182934,-0.2675091922283172,0.1398769170045852,0.0318651869893074,0.0,0.0,0.3779354095458984,0.6539196968078613
0.0276756286621093,0.1563717871904373,-0.0059673902578651,-0.2704031765460968,0.1407317817211151,0.0170972608029842,0.0,0.0,0.40636146068573,0.6101033687591553
0.027737807482481,0.1503226608037948,0.0058975568972527,-0.2688776552677154,0.1410467773675918,0.0062999054789543,0.0,0.0,0.6630311012268066,0.6918754577636719
0.0279619209468364,0.1446728557348251,0.0226735658943653,-0.2510802149772644,0.1407988220453262,-0.0049589769914746,0.0,0.0,0.8025609254837036,-0.1881482601165771
0.0283065792173147,0.1391942054033279,0.0335612967610359,-0.2435797601938247,0.1416983157396316,0.0179895311594009,0.0,0.0,0.7472107410430908,0.1092110872268676
0.0285645481199026,0.1343941986560821,0.0245090760290622,-0.2134561538696289,0.1429831385612487,0.0256963782012462,0.0,0.0,0.4147059917449951,0.2140560150146484
0.028788948431611,0.1300643235445022,0.020646009594202,-0.1926135569810867,0.1447710692882537,0.0357585027813911,0.0,0.0,-0.1741842627525329,-0.2967255711555481
0.0290472991764545,0.1252344250679016,0.0236966572701931,-0.2148715406656265,0.1469052731990814,0.0426843389868736,0.0,0.0,0.3185921907424927,-0.7737882137298584
0.0293328277766704,0.120289571583271,0.0244339033961296,-0.2201809138059616,0.1510145515203476,0.082185760140419,0.0,0.0,0.1846761703491211,-0.2922751903533935
0.0295625682920217,0.1153779104351997,0.0187600143253803,-0.218732863664627,0.1552220731973648,0.0841506570577621,0.0,0.0,0.2367087602615356,0.3895354270935058
0.029792595654726,0.1109380349516868,0.018269844353199,-0.1978300660848617,0.1599559932947158,0.0946783646941185,0.0,0.0,-0.4011675715446472,0.558135986328125
0.030103301629424,0.1060080602765083,0.0272147767245769,-0.219530776143074,0.1638087779283523,0.0770557597279548,0.0,0.0,0.5516533851623535,-0.771384060382843
0.0301433559507131,0.1016440019011497,-0.0013162253890186,-0.1945527344942093,0.1691316813230514,0.1064580827951431,0.0,0.0,-0.6345996856689453,-0.0876021981239318
0.0302242282778024,0.0967798307538032,0.0026728801894932,-0.2168101370334625,0.1745629161596298,0.1086246594786644,0.0,0.0,-0.1668375730514526,0.5004386901855469
0.0303822513669729,0.0914284288883209,0.0112298922613263,-0.2383840531110763,0.1791427284479141,0.0915964916348457,0.0,0.0,0.2153849601745605,0.5018614530563354
0.0304585453122854,0.0863860920071601,0.0041829184629023,-0.2245246767997741,0.1825911998748779,0.0689697861671447,0.0,0.0,0.4732604026794433,-0.47748863697052
0.0304763801395893,0.0814920961856842,-0.0015275321202352,-0.2179228216409683,0.1859133541584015,0.0664431899785995,0.0,0.0,0.2929552793502807,0.4178757667541504
0.0303624160587787,0.0767658352851867,-0.0142067922279238,-0.2104120254516601,0.1887450367212295,0.0566336885094642,0.0,0.0,0.0462467670440673,0.7940468788146973
0.0301851276308298,0.0720119550824165,-0.0188084486871957,-0.211419403553009,0.1898292899131775,0.0216849483549594,0.0,0.0,0.4967689514160156,0.8362845182418823
0.0301017761230468,0.0677700638771057,-0.007735835853964,-0.1884522438049316,0.1892240941524505,-0.0121037364006042,0.0,0.0,0.2593638896942138,0.7056028842926025
0.0301202777773141,0.0634657964110374,0.0039858529344201,-0.1910286843776703,0.187079831957817,-0.0428851321339607,0.0,0.0,0.6732831001281738,-0.6027999520301819
0.0301519390195608,0.0598345845937728,0.0039509795606136,-0.1612875610589981,0.1862892508506775,-0.0158114805817604,0.0,0.0,-0.2702351808547973,-0.2833744883537292
0.0302330013364553,0.055701982229948,0.0091708013787865,-0.1835367679595947,0.185216948390007,-0.021446393802762,0.0,0.0,0.3088455200195312,-0.2134125232696533
0.0303506851196289,0.0520972348749637,0.0126330908387899,-0.1601042598485946,0.1843462288379669,-0.017414204776287,0.0,0.0,-0.5085841417312622,-0.3664499521255493
0.0305192954838275,0.0479908809065818,0.0180819798260927,-0.1823523193597793,0.1831163763999939,-0.0245973579585552,0.0,0.0,0.4060695171356201,0.0916652679443359
0.0306069366633892,0.0444061607122421,0.0104121007025241,-0.1591204106807708,0.1814625710248947,-0.0330761596560478,0.0,0.0,0.0690504312515258,-0.5229562520980835
0.0306563377380371,0.0410766452550888,0.0059067653492093,-0.147861436009407,0.1805004328489303,-0.0192428268492221,0.0,0.0,-0.1170642971992492,0.4810303449630737
0.0307587627321481,0.0372453778982162,0.011662314645946,-0.1701080650091171,0.1790754199028015,-0.0285000540316104,0.0,0.0,0.5057165622711182,0.2676011323928833
0.0307046882808208,0.033714160323143,-0.0029809973202645,-0.1566491574048996,0.1766408383846283,-0.0486916974186897,0.0,0.0,0.1747546195983886,0.71954345703125
0.0305948257446289,0.0302076917141675,-0.0064845317974686,-0.1553166657686233,0.1721271574497223,-0.0902739614248275,0.0,0.0,0.562556266784668,0.7355811595916748
0.0304834358394145,0.026996336877346,-0.0045670932158827,-0.1419808566570282,0.1655477583408355,-0.1315878927707672,0.0,0.0,0.3173962831497192,0.6797997951507568
0.030432891100645,0.0239308215677738,0.0034223366528749,-0.1353242248296737,0.1570688039064407,-0.1695790737867355,0.0,0.0,0.693828821182251,0.525484561920166
0.0305627826601266,0.0209491346031427,0.0227449499070644,-0.131517693400383,0.1473325490951538,-0.194725289940834,0.0,0.0,0.4054480791091919,-0.2513120174407959
0.0307452194392681,0.018348179757595,0.0282511450350284,-0.114639364182949,0.1373581737279892,-0.1994875371456146,0.0,0.0,0.0215743780136108,-0.5583644509315491
0.0308886524289846,0.0159875489771366,0.023858044296503,-0.1040695384144783,0.1278800815343856,-0.1895618438720703,0.0,0.0,-0.1825883984565735,-0.4865328073501587
0.0310887340456247,0.0131263108924031,0.0301944203674793,-0.1263234466314315,0.117741085588932,-0.2027801573276519,0.0,0.0,-0.0519200563430786,-0.7572490572929382
0.031226348131895,0.0103372428566217,0.0377469398081302,-0.1222476214170456,0.0939136296510696,-0.4765730500221252,0.0,1.0,0.7652995586395264,0.0875271558761596
