x_pos,y_pos,x_vel,y_vel,angle,ang_vel,leg_1,leg_2,main_booster,lat_booster
-0.0015118599403649,1.4030507802963257,-0.1534629911184311,-0.3497422337532043,0.0020420185755938,0.0403013080358505,0.0,0.0,0.681507418416329,0.6395299608376319
-0.0029061317909508,1.3953325748443604,-0.1405978351831436,-0.3430299162864685,0.0031977214384824,0.0231171660125255,0.0,0.0,-0.4223331060238604,-0.8435603702616852
-0.0043416977860033,1.3870340585708618,-0.1463219672441482,-0.3688374757766723,0.0059422864578664,0.0548964217305183,0.0,0.0,-0.3340150221109434,-0.9615348821116032
-0.0058580399490892,1.3781580924987793,-0.157016709446907,-0.3945150077342987,0.011258915066719,0.1063422560691833,0.0,0.0,-0.1238206362315148,-0.8418875641708548
-0.0074178697541356,1.368710994720459,-0.1629952788352966,-0.4199407994747162,0.0181856527924537,0.1385475993156433,0.0,0.0,0.5228616806842841,0.759107784292639
-0.0087795257568359,1.3594460487365725,-0.1422210782766342,-0.4118588268756866,0.0241793040186166,0.1198843121528625,0.0,0.0,-0.4080615361038351,-0.794647194218207
-0.010199355892837,1.349605917930603,-0.1500105559825897,-0.4374910295009613,0.0321172438561916,0.1587732434272766,0.0,0.0,-0.1428209284128982,0.9568428159160284
-0.0115199089050292,1.3392003774642944,-0.1380039453506469,-0.4626088142395019,0.0380058512091636,0.1177829355001449,0.0,0.0,-0.0904294647040724,-0.9519874899726256
-0.0129125593230128,1.328228235244751,-0.1474961042404174,-0.4878877699375152,0.0461393035948276,0.1626840084791183,0.0,0.0,-0.6433209849997807,-0.5746505858547345
-0.0143476482480764,1.316684007644653,-0.1531960070133209,-0.5134015083312988,0.0557363778352737,0.1919590383768081,0.0,0.0,-0.974178263810734,0.5869761833399734
-0.0157279968261718,1.3045722246170044,-0.1467136591672897,-0.5386368036270142,0.0643317699432373,0.1719240099191665,0.0,0.0,0.4113409756669834,-0.9785732095172548
-0.0171442981809377,1.292561411857605,-0.1526518017053604,-0.534324049949646,0.0752613991498947,0.2186125814914703,0.0,0.0,-0.8601677884711445,-0.5221099770864376
-0.0185935981571674,1.2799780368804932,-0.157105267047882,-0.5599181056022644,0.0873379558324813,0.2415528297424316,0.0,0.0,0.5673657596149533,-0.8912798044573564
-0.0200706478208303,1.2673194408416748,-0.1621015965938568,-0.5635049343109131,0.1016339734196662,0.2859460711479187,0.0,0.0,0.6293675068267524,0.5384980773593777
-0.0214436538517475,1.2553383111953735,-0.1513474881649017,-0.5335104465484619,0.1156032010912895,0.2794102132320404,0.0,0.0,0.0738621392110501,0.7601225098969557
-0.0227021221071481,1.2430899143218994,-0.1387578397989273,-0.5454240441322327,0.1284685730934143,0.2573310434818268,0.0,0.0,-0.8581043343492962,-0.5429119642117437
-0.0240001678466796,1.2302708625793457,-0.1438954174518585,-0.5710075497627258,0.1425146460533142,0.2809471189975738,0.0,0.0,0.2225046669222485,-0.9881339204266176
-0.0252994541078805,1.2172950506210327,-0.1463346928358078,-0.5783515572547913,0.1589153707027435,0.3280441462993622,0.0,0.0,-0.3158114837948296,-0.9861725147264702
-0.0266739837825298,1.2037440538406372,-0.1558003276586532,-0.6043327450752258,0.1773161739110946,0.3680492043495178,0.0,0.0,-0.8530408628733848,-0.9159844370773128
-0.0281403549015522,1.1896032094955444,-0.1673573702573776,-0.6310903429985046,0.1981514990329742,0.4167443215847015,0.0,0.0,-0.2795919315085782,0.9073783960465264
-0.0295358654111623,1.174926996231079,-0.1583362966775894,-0.654909074306488,0.2171317040920257,0.3796387016773224,0.0,0.0,-0.062012993807992,0.536378214042879
-0.0309032443910837,1.159693479537964,-0.1547251492738723,-0.6797959208488464,0.2353747934103012,0.3648945689201355,0.0,0.0,0.2726665307618912,-0.8459874031230812
-0.0323379524052143,1.1445194482803345,-0.163505882024765,-0.6777316927909851,0.2557827234268188,0.4081957936286926,0.0,0.0,0.7297415570028849,0.8913321899719919
-0.0337248817086219,1.1292999982833862,-0.1573444008827209,-0.6797831058502197,0.2748892307281494,0.3821643590927124,0.0,0.0,-0.6111030925706349,-0.7702061655409569
-0.035203743726015,1.1134849786758425,-0.1686651408672332,-0.7069427371025085,0.296288251876831,0.4280188083648681,0.0,0.0,0.9216905422491866,0.5880608286227904
-0.0370675101876258,1.0982016324996948,-0.205776572227478,-0.6833341121673584,0.3163598477840423,0.4014316499233246,0.0,0.0,0.6833194642757896,-0.8787606449908588
-0.0392465591430664,1.083382248878479,-0.2392412424087524,-0.6634607315063477,0.3385936319828033,0.444676399230957,0.0,0.0,0.4100677208057226,0.7421147253068855
-0.0417472831904888,1.0689677000045776,-0.2699649930000305,-0.6454600095748901,0.3594835698604584,0.4177986979484558,0.0,0.0,0.6097941010583374,-0.7651626325967547
-0.0447279922664165,1.0549471378326416,-0.3193947672843933,-0.6286438703536987,0.382060557603836,0.4515394568443298,0.0,0.0,-0.1627855002627953,-0.6763543193702212
-0.0477862358093261,1.0403286218643188,-0.3286574482917785,-0.6560197472572327,0.4064550995826721,0.4878908991813659,0.0,0.0,0.1408262617657014,-0.9633814601147246
-0.0511632934212684,1.0259262323379517,-0.3624541759490967,-0.6474454998970032,0.4331993758678436,0.5348857641220093,0.0,0.0,-0.8538253903388977,0.9987571239471436
-0.0545076355338096,1.010998249053955,-0.3575879335403442,-0.670819103717804,0.4585127830505371,0.5062679052352905,0.0,0.0,-0.8993855118751526,0.9994001388549804
-0.0578266158699989,0.9955591559410096,-0.3534591794013977,-0.6934667825698853,0.4823801815509796,0.4773487448692322,0.0,0.0,-0.9167391061782836,0.9918861389160156
-0.0611146911978721,0.9795955419540404,-0.3487923145294189,-0.7166416645050049,0.5047683119773865,0.4477623403072357,0.0,0.0,-0.8295487761497498,0.9994635581970216
-0.0643678680062294,0.9631260633468628,-0.3434825539588928,-0.7388114333152771,0.5253567695617676,0.4117690026760101,0.0,0.0,-0.8556997776031494,0.9990627765655518
-0.0675898566842079,0.9461567401885986,-0.3385668396949768,-0.7606367468833923,0.5441211462020874,0.3752873241901397,0.0,0.0,-0.5488206148147583,0.9954242706298828
-0.070783331990242,0.9286733269691468,-0.3341106176376343,-0.7830941081047058,0.5612362623214722,0.3423020243644714,0.0,0.0,-0.5781660676002502,0.9874370098114014
-0.0739481002092361,0.9106938242912292,-0.3294833600521087,-0.8046289682388306,0.5764639377593994,0.3045529127120971,0.0,0.0,-0.5365453362464905,0.9980251789093018
-0.0770950317382812,0.8922140002250671,-0.3261712491512298,-0.82636559009552,0.5900405645370483,0.2715325057506561,0.0,0.0,-0.5934143662452698,0.9638943672180176
-0.0802168846130371,0.8732317090034485,-0.3220577836036682,-0.8481156826019287,0.6018109917640686,0.235408216714859,0.0,0.0,-0.7183961868286133,0.9896044731140136
-0.083330437541008,0.853740394115448,-0.3199893534183502,-0.8702686429023743,0.6121765375137329,0.207311064004898,0.0,0.0,-0.5879625082015991,0.970698356628418
-0.0864104256033897,0.8337559103965759,-0.314782440662384,-0.891404390335083,0.6203806400299072,0.1640822291374206,0.0,0.0,-0.3682990670204162,0.9694740772247314
-0.0894574150443077,0.8132686614990234,-0.3097570538520813,-0.9129626750946044,0.6265261769294739,0.1229122430086135,0.0,0.0,-0.1478478908538818,0.960662603378296
-0.0924765616655349,0.7922859191894531,-0.3052599728107452,-0.9341903924942015,0.6306077241897583,0.0816308185458183,0.0,0.0,-0.2141090035438537,0.96895170211792
-0.0954785346984863,0.7707852125167847,-0.3022392988204956,-0.9565776586532592,0.6331052184104919,0.0499497652053833,0.0,0.0,-0.1195010542869567,0.9727649688720704
-0.0984559059143066,0.748778223991394,-0.2982256710529327,-0.9783318638801576,0.6337009072303772,0.0119142914190888,0.0,0.0,0.0851936340332031,0.9229168891906738
-0.1015548706054687,0.7266567945480347,-0.3090332150459289,-0.9827498197555542,0.6326354146003723,-0.0213102642446756,0.0,0.0,0.1384357213973999,0.7545157670974731
-0.1050674468278884,0.7046394944190979,-0.3492753207683563,-0.9775779843330384,0.6302151679992676,-0.0484050400555133,0.0,0.0,-0.0864787697792053,0.3756399154663086
-0.1086271256208419,0.6820515990257263,-0.3542699813842773,-1.0030856132507324,0.6281428933143616,-0.0414449162781238,0.0,0.0,-0.3019797801971435,0.7048413753509521
-0.1121910065412521,0.6589376330375671,-0.3537697792053222,-1.0260146856307983,0.6249431371688843,-0.063994787633419,0.0,0.0,0.1174290180206298,0.5344467163085938
-0.1159090027213096,0.6358530521392822,-0.3686290383338928,-1.024469256401062,0.6210989356040955,-0.0768838301301002,0.0,0.0,-0.0894168019294738,0.184099793434143
-0.1196757331490516,0.6121976971626282,-0.3737876713275909,-1.0499769449234009,0.6175930500030518,-0.0701177865266799,0.0,0.0,0.1721421480178833,0.4452025890350342
-0.1236112564802169,0.5884245038032532,-0.3912257850170135,-1.055486798286438,0.6147804260253906,-0.0562512800097465,0.0,0.0,-0.2515208125114441,0.0514616966247558
-0.127596378326416,0.564080536365509,-0.3964634835720062,-1.0809935331344604,0.6122984886169434,-0.0496371388435363,0.0,0.0,-0.1326561570167541,-0.4876712560653686
-0.1316316574811935,0.5391654372215271,-0.4017309546470642,-1.1064997911453247,0.6101431846618652,-0.043106660246849,0.0,0.0,-0.396126925945282,-0.6937620639801025
-0.1357669830322265,0.5136232376098633,-0.413459837436676,-1.135174036026001,0.6100525259971619,-0.0018126614158973,0.0,0.0,-0.3087181448936462,-0.757957398891449
-0.1399962455034256,0.4874728322029114,-0.4242486357688904,-1.1628557443618774,0.6116498708724976,0.0319470390677452,0.0,0.0,-0.1300834417343139,-0.7092940807342529
-0.1443119943141937,0.4607172608375549,-0.4341289401054382,-1.1903386116027832,0.6147368550300598,0.06174011901021,0.0,0.0,-0.5695244669914246,-0.783259391784668
-0.1487251222133636,0.433351069688797,-0.4453330934047699,-1.2181758880615234,0.6196017861366272,0.0972978696227073,0.0,0.0,-0.69149249792099,-0.431992769241333
-0.1531890928745269,0.4054139852523803,-0.4506453573703766,-1.2436822652816772,0.6247685551643372,0.1033352985978126,0.0,0.0,-0.8938854932785034,-0.5274641513824463
-0.157732293009758,0.3768694698810577,-0.4596634805202484,-1.27122700214386,0.6312859654426575,0.1303480267524719,0.0,0.0,-0.9649686217308044,-0.6408496499061584
-0.1623744070529937,0.3477057218551636,-0.4710795879364013,-1.2995418310165403,0.639711320400238,0.1685071289539337,0.0,0.0,-0.9767798781394958,-0.8450341820716858
-0.1671079695224762,0.3179233074188232,-0.4816092550754547,-1.3277881145477295,0.6498859524726868,0.2034928500652313,0.0,0.0,-0.9867786169052124,-0.7447277903556824
-0.1719368994235992,0.2875215113162994,-0.4925382137298584,-1.3561331033706665,0.661896824836731,0.2402178794145584,0.0,0.0,-0.9729195833206176,-0.6318089365959167
-0.1768525093793869,0.2565021514892578,-0.5024126768112183,-1.3843547105789185,0.6755505800247192,0.273074060678482,0.0,0.0,-0.9289657473564148,-0.4752994179725647
-0.1818182915449142,0.2249133884906768,-0.5075278282165527,-1.4098708629608154,0.6894678473472595,0.278344988822937,0.0,0.0,-0.8922858238220215,-0.0760416984558105
-0.1868339478969574,0.1927552074193954,-0.5125842690467834,-1.4353872537612915,0.703641414642334,0.2834716141223907,0.0,0.0,-0.8596668839454651,0.6153087615966797
-0.1918544769287109,0.1600744575262069,-0.5119495391845703,-1.4581505060195925,0.7165326476097107,0.2578245997428894,0.0,0.0,-0.7960690855979919,0.7604638338088989
-0.1968809068202972,0.1268906742334365,-0.5112840533256531,-1.4799038171768188,0.7278889417648315,0.2271259129047393,0.0,0.0,-0.4337774515151977,0.8216265439987183
-0.2019133120775222,0.0931872427463531,-0.5108093023300171,-1.5024720430374146,0.7379454374313354,0.2011293619871139,0.0,0.0,-0.3277686238288879,0.5555713176727295
-0.2069663554430008,0.0589514598250389,-0.5121924877166748,-1.5258013010025024,0.7471751570701599,0.184594452381134,0.0,1.0,0.9925999641418456,0.9997950792312622
-0.2123782187700271,0.0257933475077152,-0.5497186779975891,-1.493727445602417,0.7598533034324646,0.2212291955947876,0.0,1.0,0.9965567588806152,0.9985857009887696
-0.2153616398572921,0.0140631534159183,-0.3397344350814819,-0.4230966567993164,1.0167300701141355,5.783270835876465,0.0,1.0,0.9965567588806152,0.9985857009887696
