x_pos,y_pos,x_vel,y_vel,angle,ang_vel,leg_1,leg_2,main_booster,lat_booster
-0.0015235900646075,1.40326726436615,-0.1537488996982574,-0.3401216864585876,0.0012388582108542,0.0243988651782274,0.0,0.0,-0.4598565697669983,0.745732307434082
-0.0029845237731933,1.3952770233154297,-0.1451391279697418,-0.3551198542118072,0.0003032756503671,-0.0187127199023962,0.0,0.0,0.0311238765716552,-0.0278289914131164
-0.004363345913589,1.3873074054718018,-0.1367900073528289,-0.3542028963565826,-0.0007804705528542,-0.0216767638921737,0.0,0.0,0.2988952398300171,0.6673414707183838
-0.0057953833602368,1.3795678615570068,-0.1400176286697387,-0.3439885973930359,-0.0039305798709392,-0.0630082339048385,0.0,0.0,-0.0069947838783264,0.0432574748992919
-0.0072298049926757,1.3714711666107178,-0.139693334698677,-0.3598634302616119,-0.0076438928954303,-0.0742728635668754,0.0,0.0,-0.0414569973945617,-0.2696725130081177
-0.0086672781035304,1.3630176782608032,-0.1394196152687072,-0.3757340013980865,-0.0119289206340909,-0.0857082605361938,0.0,0.0,0.1142290830612182,0.0182776451110839
-0.0101189613342285,1.3547921180725098,-0.1401781588792801,-0.3656329214572906,-0.0168646313250064,-0.0987232252955436,0.0,0.0,-0.2127835750579834,-0.0606839656829834
-0.0115748401731252,1.3462095260620115,-0.1399982869625091,-0.3815115690231323,-0.0223845057189464,-0.1104076653718948,0.0,0.0,0.0816035270690918,0.1771365404129028
-0.0130309108644723,1.3380926847457886,-0.1393873840570449,-0.3608586192131042,-0.0285321492701768,-0.1229642629623413,0.0,0.0,-0.1377018094062805,0.3963016271591186
-0.0144919399172067,1.3296194076538086,-0.1392931789159774,-0.3767403066158294,-0.0352752953767776,-0.1348755061626434,0.0,0.0,-0.4565984010696411,0.7320488691329956
-0.0158926956355571,1.320786952972412,-0.1309715211391449,-0.3927846252918243,-0.0442774817347526,-0.1800601780414581,0.0,0.0,-0.4561556577682495,0.5907576084136963
-0.0172472950071096,1.3115944862365725,-0.1244317889213562,-0.4089108407497406,-0.0551930963993072,-0.2183326929807663,0.0,0.0,-0.3396749496459961,0.0344219207763671
-0.0186079982668161,1.3020472526550293,-0.1244396567344665,-0.4247939884662628,-0.0667178556323051,-0.2305160462856292,0.0,0.0,0.1961450576782226,0.2554575204849243
-0.0199082382023334,1.292525053024292,-0.1180142983794212,-0.4237871468067169,-0.0786204040050506,-0.238072782754898,0.0,0.0,-0.4976334571838379,-0.5480327606201172
-0.0212479587644338,1.2826578617095947,-0.1221977099776268,-0.4392081797122955,-0.0903047919273376,-0.2337088882923126,0.0,0.0,-0.4938697814941406,-0.2490923404693603
-0.0225948337465524,1.2724359035491943,-0.1222971901297569,-0.4550941586494446,-0.1026104390621185,-0.2461352348327636,0.0,0.0,-0.2008156776428222,-0.2827777862548828
-0.0239490512758493,1.2618601322174072,-0.1224205046892166,-0.4709831178188324,-0.1155401468276977,-0.2586178779602051,0.0,0.0,-0.3352539539337158,-0.2637761831283569
-0.0253108981996774,1.2509305477142334,-0.1225651502609252,-0.4868746697902679,-0.1290971636772155,-0.2711647748947143,0.0,0.0,-0.0361635088920593,-0.8576013445854187
-0.0267359726130962,1.2396661043167114,-0.129728689789772,-0.5018008351325989,-0.1418459862470626,-0.2549994885921478,0.0,0.0,-0.5786875486373901,-0.6887215375900269
-0.0282300002872943,1.228060245513916,-0.1375772058963775,-0.5169803500175476,-0.153669536113739,-0.2364917546510696,0.0,0.0,-0.4860590100288391,-0.5826636552810669
-0.0297675132751464,1.2161129713058472,-0.1422334462404251,-0.5322220325469971,-0.1652087271213531,-0.2308041304349899,0.0,0.0,-0.167115569114685,-0.7821324467658997
-0.0313735976815223,1.2038220167160034,-0.1499951332807541,-0.5474762320518494,-0.1758537888526916,-0.21292045712471,0.0,0.0,0.1266372203826904,-0.6192490458488464
-0.0328738205134868,1.191711187362671,-0.1401685178279876,-0.5394585132598877,-0.185755118727684,-0.1980440616607666,0.0,0.0,0.0789030790328979,-0.833016037940979
-0.0343585014343261,1.1795406341552734,-0.1396538466215133,-0.542039692401886,-0.194616362452507,-0.177240639925003,0.0,0.0,-0.5787984132766724,-0.7545866370201111
-0.0359235778450965,1.167038917541504,-0.1489415019750595,-0.5566467046737671,-0.2022482454776764,-0.1526513993740081,0.0,0.0,-0.5033495426177979,-0.8035421967506409
-0.0375768654048442,1.1541893482208252,-0.1591126322746276,-0.571956992149353,-0.2085180282592773,-0.1253954470157623,0.0,0.0,0.3040221929550171,-0.4187157154083252
-0.0391173362731933,1.1418254375457764,-0.1472066193819046,-0.5504831671714783,-0.2154225260019302,-0.1380903422832489,0.0,0.0,-0.4189262390136719,-0.9163301587104796
-0.040751077234745,1.129144310951233,-0.1581307798624038,-0.5643765926361084,-0.2207257151603698,-0.1060638651251792,0.0,0.0,0.0382716655731201,-0.8274062275886536
-0.0424434654414653,1.1168805360794067,-0.1649829596281051,-0.5456984639167786,-0.2250272333621978,-0.0860307365655899,0.0,0.0,0.8757109642028809,-0.568512499332428
-0.0440896973013877,1.1050927639007568,-0.160785362124443,-0.5244936943054199,-0.2289080917835235,-0.0776171833276748,0.0,0.0,0.0612087249755859,-0.8857288956642151
-0.0456734672188758,1.0937728881835938,-0.1556741446256637,-0.5035197734832764,-0.2316493242979049,-0.0548247098922729,0.0,0.0,-0.0062251091003417,-0.4706979393959045
-0.0472654327750206,1.082098364830017,-0.1558471024036407,-0.5194023847579956,-0.2350451946258545,-0.0679177865386009,0.0,0.0,0.4702908992767334,-0.6285045146942139
-0.0488245002925396,1.0711605548858645,-0.1530030816793441,-0.4865894913673401,-0.2379900515079498,-0.0588973648846149,0.0,0.0,-0.6290495991706848,-0.7728707194328308
-0.0504579544067382,1.059884786605835,-0.1614836156368255,-0.5014417767524719,-0.2398723810911178,-0.0376466400921344,0.0,0.0,-0.2063179016113281,0.0444270372390747
-0.05209856107831,1.048254370689392,-0.1615728586912155,-0.5173246264457703,-0.2424114346504211,-0.0507814772427082,0.0,0.0,-0.2375266551971435,-0.1792259216308593
-999.0,1.036268949508667,-0.1616276949644088,-0.5332077741622925,-0.2456077188253402,-0.0639256760478019,0.0,0.0,0.203162670135498,-0.7216964364051819
-0.055396843701601,1.0244362354278564,-0.1626647561788559,-0.5263015627861023,-0.2480320781469345,-0.048487115651369,0.0,0.0,0.2542243003845215,-0.5153259038925171
-0.056919764727354,1.0130959749221802,-0.1503662914037704,-0.5043347477912903,-0.2500019073486328,-0.0393967106938362,0.0,0.0,-0.2749007940292358,-0.3282839059829712
-0.058448601514101,1.0014010667800903,-0.1502978503704071,-0.5202181935310364,-0.252629667520523,-0.0525554120540618,0.0,0.0,-0.7018721699714661,-0.7887218594551086
-0.0600398071110248,0.9893745183944702,-0.1573952734470367,-0.5348144173622131,-0.254395067691803,-0.0353080295026302,0.0,0.0,0.5767070055007935,-0.6711018085479736
-0.0616067871451377,0.978139102458954,-0.1554274260997772,-0.4995647966861725,-0.2556872367858886,-0.0258436165750026,0.0,0.0,-0.3289055824279785,-0.5827869176864624
-0.0632135421037674,0.9665617346763612,-0.1596819460391998,-0.5147290825843811,-0.25670126080513,-0.0202802158892154,0.0,0.0,-0.6330224275588989,-0.749458909034729
-0.0648734122514724,0.95464026927948,-0.1655830293893814,-0.5299121737480164,-0.2571087181568146,-0.0081488499417901,0.0,0.0,-0.3760594129562378,0.5977225303649902
-0.0664834007620811,0.9423418641090392,-0.1585769653320312,-0.5470209121704102,-0.2595822215080261,-0.0494701489806175,0.0,0.0,0.7375097274780273,-0.0042946338653564
-0.0680576339364051,0.9301542043685912,-0.1541644036769867,-0.5422523617744446,-0.2629095613956451,-0.0665469095110893,0.0,0.0,-0.2522751092910766,-0.8059458136558533
-0.0696916580200195,0.9176269173622132,-0.1609819531440735,-0.5572085976600647,-0.2653928697109222,-0.0496660023927688,0.0,0.0,0.3879671096801758,-0.8378872275352478
-0.0712370872497558,0.9052870273590088,-0.1531842648983001,-0.5486834645271301,-0.2667730450630188,-0.0276032574474811,0.0,0.0,-0.8493828177452087,-0.9170345664024352
-0.0728637725114822,0.8926357626914978,-0.1628351211547851,-0.5622454285621643,-0.2665937542915344,0.0035857215989381,0.0,0.0,-0.9646721482276917,-0.7237185835838318
-0.0745558738708496,0.8796634078025818,-0.1705088019371032,-0.5763145089149475,-0.2652721703052521,0.0264324247837066,0.0,0.0,-0.9138891696929932,-0.8306038975715637
-0.0763127356767654,0.8663608431816101,-0.1780388504266739,-0.5908084511756897,-0.2628624141216278,0.0481950268149375,0.0,0.0,-0.947157084941864,-0.5760651230812073
-0.0781009644269943,0.8527166247367859,-0.1814193427562713,-0.6059440970420837,-0.2602133452892303,0.0529814176261425,0.0,0.0,-0.835819661617279,0.0757932662963867
-0.0798865333199501,0.8387176394462585,-0.1805073916912078,-0.6218281388282776,-0.258211076259613,0.0400446653366088,0.0,0.0,-0.7837468385696411,-0.7075166702270508
-0.0817131027579307,0.8243775963783264,-0.1851414740085601,-0.63690185546875,-0.2556857168674469,0.0505073145031929,0.0,0.0,-0.8601041436195374,-0.3510938882827759
-0.0835351943969726,0.8096827864646912,-0.1840633898973465,-0.6527854800224304,-0.253802627325058,0.0376616828143596,0.0,0.0,-0.8932490944862366,-0.7665451169013977
-0.0853965729475021,0.7946473956108093,-0.1884944289922714,-0.667833685874939,-0.2513954639434814,0.0481435433030128,0.0,0.0,-0.7397893667221069,-0.8386802673339844
-0.0873265266418457,0.7792821526527405,-0.1966546475887298,-0.6822769641876221,-0.2476641982793808,0.0746253058314323,0.0,0.0,-0.866708517074585,-0.2630537748336792
-0.0892492309212684,0.7635621428489685,-0.1953158378601074,-0.6981605291366577,-0.2445662468671798,0.0619592145085334,0.0,0.0,-0.5367244482040405,-0.6139623522758484
-0.091199591755867,0.7475030422210693,-0.1984084248542785,-0.7131770849227905,-0.2411401569843292,0.0685216933488845,0.0,0.0,-0.3437660932540893,-0.548683226108551
-0.0931768417358398,0.7311082482337952,-0.2014359533786773,-0.728056013584137,-0.2373648583889007,0.0755058825016021,0.0,0.0,-0.1256545782089233,-0.1614804863929748
-0.0951439887285232,0.7143585085868835,-0.1998263299465179,-0.7439387440681458,-0.2342107146978378,0.0630827695131301,0.0,0.0,0.1190748214721679,-0.5163455605506897
-0.0970452278852462,0.6976162791252136,-0.1937217563390731,-0.7435347437858582,-0.2305632531642913,0.0729496106505394,0.0,0.0,0.466251015663147,-0.1239598393440246
-0.0988788604736328,0.6814583539962769,-0.185958594083786,-0.7177225351333618,-0.2279382944107055,0.0524992458522319,0.0,0.0,0.6639399528503418,-0.7084010243415833
-0.1005043014883995,0.6656777858734131,-0.1662270873785019,-0.7007988691329956,-0.2242094129323959,0.0745776742696762,0.0,0.0,0.4929854869842529,0.0180509090423584
-0.1019720062613487,0.6503448486328125,-0.1499542891979217,-0.6809791922569275,-0.2209804505109787,0.064578928053379,0.0,0.0,0.0820727348327636,-0.4291996955871582
-0.1033622771501541,0.6350392699241638,-0.1416540443897247,-0.6798549294471741,-0.2183192074298858,0.0532249696552753,0.0,0.0,-0.9022740125656128,-0.6071574091911316
-0.1047929748892784,0.6193975806236267,-0.1465870440006256,-0.6946708559989929,-0.2147677987813949,0.0710282921791076,0.0,0.0,0.1867616176605224,-0.5600644946098328
-0.1061015129089355,0.6043166518211365,-0.1349465548992157,-0.6696736812591553,-0.2106284648180008,0.0827871114015579,0.0,0.0,-0.5116109848022461,-0.0177198648452758
-0.1073921173810958,0.5888803601264954,-0.1326072812080383,-0.6855543851852417,-0.2070551365613937,0.0714669674634933,0.0,0.0,-0.0487772822380065,-0.3717634677886963
-0.1086640357971191,0.5730888247489929,-0.1301794201135635,-0.7014344930648804,-0.2040377855300903,0.060347456485033,0.0,0.0,0.8746438026428223,0.0656701326370239
-0.1099118217825889,0.5577630400657654,-0.1267461478710174,-0.6808748841285706,-0.2020594179630279,0.0395672023296356,0.0,0.0,0.4278497695922851,0.1068894863128662
-0.1110991463065147,0.5429654717445374,-0.1198092252016067,-0.6575223207473755,-0.2009813785552978,0.0215607993304729,0.0,0.0,0.3372762203216553,-0.8218375444412231
-0.1121999770402908,0.5285651087760925,-0.1123090833425521,-0.6397114396095276,-0.1987403929233551,0.044820137321949,0.0,0.0,-0.5048189759254456,-0.3126518726348877
-0.1132781058549881,0.5138092041015625,-0.1095409840345382,-0.6555896997451782,-0.1970059126615524,0.0346895642578601,0.0,0.0,0.7369720935821533,-0.0228840112686157
-0.114138126373291,0.4995678663253784,-0.087585762143135,-0.632736325263977,-0.1954055726528167,0.0320068262517452,0.0,0.0,0.7138770818710327,-0.055717647075653
-0.1149290055036544,0.4855779111385345,-0.0800495594739914,-0.621649980545044,-0.19444240629673,0.0192633252590894,0.0,0.0,0.8233048915863037,-0.3370605707168579
-0.1155515685677528,0.4717382788658142,-0.0630937293171882,-0.6149829030036926,-0.1935901045799255,0.017045758664608,0.0,0.0,0.8207863569259644,-0.9535828828811646
-0.1161888092756271,0.4581170082092285,-0.0659765675663948,-0.6050978899002075,-0.1913295984268188,0.0452099926769733,0.0,0.0,0.7935981750488281,-0.750731885433197
-0.1167019829154014,0.4454343914985657,-0.0546328835189342,-0.5632508397102356,-0.1879980117082595,0.0666316598653793,0.0,0.0,0.0453095436096191,-0.5991700887680054
-0.1170802116394043,0.4331595301628113,-0.0420159846544265,-0.5450218915939331,-0.1837838590145111,0.0842834189534187,0.0,0.0,0.3042944669723511,-0.4571222066879272
-0.1173984557390213,0.4215045869350433,-0.0352342762053012,-0.5175777077674866,-0.1803551465272903,0.0685741826891899,0.0,0.0,-0.6559541821479797,0.1398407220840454
-0.1176865547895431,0.4094935655593872,-0.0318793579936027,-0.5334532856941223,-0.1772782206535339,0.0615385957062244,0.0,0.0,0.0025708675384521,-0.4649865627288818
-0.1178350448608398,0.3978281915187835,-0.017703603953123,-0.5181240439414978,-0.1744145005941391,0.0572743900120258,0.0,0.0,0.1107388734817504,-0.5822256803512573
-0.1180046051740646,0.3864097595214844,-0.0205576606094837,-0.5070650577545166,-0.1708024591207504,0.0722406059503555,0.0,0.0,-0.1601933240890503,-0.1930544972419738
-0.1181414574384689,0.374635100364685,-0.0170216374099254,-0.5229394435882568,-0.1674624234437942,0.0668007582426071,0.0,0.0,0.4625711441040039,0.0659220218658447
-0.1181520447134971,0.3634222447872162,-0.0041052149608731,-0.4980095624923706,-0.1644141674041748,0.0609646849334239,0.0,0.0,-0.4035197496414184,-0.6796795129776001
-0.118173599243164,0.3518642783164978,-0.0061542084440588,-0.5132474303245544,-0.1604144722223281,0.0799941346049308,0.0,0.0,0.6309361457824707,-0.2802264094352722
-0.1180829033255577,0.3404446542263031,0.0051403217948973,-0.5071200728416443,-0.156487837433815,0.0785328149795532,0.0,0.0,0.7472569942474365,-0.2108516693115234
-0.1177929863333702,0.3292765021324157,0.0247573964297771,-0.4959228634834289,-0.152256429195404,0.0846281051635742,0.0,0.0,0.4803986549377441,0.4644272327423095
-0.1172583550214767,0.3184804320335388,0.0487277805805206,-0.4793480932712555,-0.1475312411785125,0.0945037230849266,0.0,0.0,0.0028939247131347,-0.0416688919067382
-0.1165673285722732,0.3076643943786621,0.0640563890337944,-0.4802237451076507,-0.1424970477819442,0.1006841287016868,0.0,0.0,-0.1447280645370483,-0.4514809846878052
-0.1158380508422851,0.2964916825294494,0.0679275840520858,-0.4960959255695343,-0.1375111937522888,0.099717304110527,0.0,0.0,0.4776670932769775,-0.3838508129119873
-0.1149493232369422,0.2859646081924438,0.083752192556858,-0.4674060642719269,-0.1324112713336944,0.1019985228776931,0.0,0.0,-0.0671006441116333,0.1567964553833007
-0.114020824432373,0.2750808000564575,0.0876976996660232,-0.4832774102687835,-0.1272908449172973,0.1024088263511657,0.0,0.0,0.2328134775161743,-0.5667387843132019
-0.1129839867353439,0.264189600944519,0.0971875116229057,-0.4835143089294433,-0.1208278909325599,0.1292593032121658,0.0,0.0,0.4433348178863525,0.0286053419113159
-0.1118980422616005,0.2536124587059021,0.1022184863686561,-0.4695924818515777,-0.1144882589578628,0.1267925351858139,0.0,0.0,-0.0280354619026184,-0.5959591269493103
-0.1108100861310958,0.2426927238702774,0.1012599468231201,-0.4847621619701385,-0.1070011109113693,0.1497431099414825,0.0,0.0,0.1971088647842407,0.1273006200790405
-0.1096526160836219,0.2320342659950256,0.1081319898366928,-0.4731851816177368,-0.0994364842772483,0.1512922644615173,0.0,0.0,-0.32042396068573,0.236721396446228
-0.1084521263837814,0.2210192531347274,0.1122251376509666,-0.4890578389167785,-0.0916840732097625,0.1550481617450714,0.0,0.0,0.6981215476989746,-0.0828966498374939
-0.1070534735918045,0.2107068449258804,0.1314026117324829,-0.4578339457511902,-0.083298772573471,0.1677062958478927,0.0,0.0,0.130502700805664,-0.1449887156486511
-0.1056046485900878,0.2008100599050521,0.1363345682621002,-0.4394069314002991,-0.0748336240649223,0.169302836060524,0.0,0.0,-0.4446557760238647,-0.1319893598556518
-0.1041113883256912,0.1905567944049835,0.1404927372932434,-0.4552806615829468,-0.0660901814699173,0.1748683601617813,0.0,0.0,0.4784219264984131,-0.1945335865020752
-999.0,0.1806164532899856,0.1454963684082031,-0.4414187669754028,-0.0571436658501625,0.178930401802063,0.0,0.0,0.1225978136062622,-0.7517316341400146
-0.1011018753051757,0.1709457039833068,0.1355877369642257,-0.4294346570968628,-0.0464452169835567,0.2139690220355987,0.0,0.0,0.0643794536590576,0.627659797668457
-0.0996360778808593,0.1614272892475128,0.1367978006601333,-0.4227631390094757,-0.0367746241390705,0.1934117674827575,0.0,0.0,0.2648789882659912,-0.6153559684753418
-0.0980627983808517,0.1523792296648025,0.1457436680793762,-0.4018902480602264,-0.0253383088856935,0.2287261039018631,0.0,0.0,-0.1440768837928772,0.1789057254791259
-0.0964431762695312,0.1429757624864578,0.1499744206666946,-0.4177698791027069,-0.0134983174502849,0.2367996871471405,0.0,0.0,0.3550765514373779,0.8274319171905518
-0.0945679694414138,0.1341577321290969,0.1766002923250198,-0.391846090555191,-0.0027248936239629,0.2154686897993087,0.0,0.0,0.1236916780471801,-0.1536541581153869
-0.0926599502563476,0.1257760822772979,0.1795108020305633,-0.3725353479385376,0.0084209088236093,0.2229159623384475,0.0,0.0,-0.0779888033866882,-0.8762773871421814
-0.0907577499747276,0.1170488893985748,0.1771206706762313,-0.3880008161067962,0.0213586036115884,0.2587537169456482,0.0,0.0,0.676609992980957,0.5664424896240234
-0.0886927619576454,0.1088530644774437,0.1938388645648956,-0.3644832670688629,0.0338648036122322,0.250123918056488,0.0,0.0,0.6560249328613281,0.9287663698196412
-0.0865427032113075,0.1015418618917465,0.2037299573421478,-0.3252353370189667,0.0450065210461616,0.2228345423936844,0.0,0.0,-0.0336253643035888,-0.7204378247261047
-0.0843962654471397,0.09387868642807,0.2015474140644073,-0.3410285413265228,0.0579463019967079,0.2587959468364715,0.0,0.0,0.5323305130004883,-0.2366827130317688
-0.0821520835161209,0.08650454133749,0.2104593217372894,-0.3283380568027496,0.0717555284500122,0.2761842012405395,0.0,0.0,0.7895722389221191,0.5680311918258667
-0.080004408955574,0.0797687619924545,0.2018030136823654,-0.300037533044815,0.0845864787697792,0.2566190958023071,0.0,0.0,0.1744077205657959,0.3909163475036621
-0.0779307335615158,0.0732140839099884,0.1943023204803466,-0.2921073138713836,0.0975431948900222,0.2591342628002167,0.0,0.0,0.683756947517395,0.8491712808609009
-0.0758222565054893,0.0671686008572578,0.1989723742008209,-0.269505888223648,0.1093246489763259,0.2356294393539428,0.0,0.0,0.2544615268707275,0.5194692611694336
-0.0736476927995681,0.0613818988204002,0.2060197591781616,-0.2580644488334656,0.1206850633025169,0.2272082865238189,0.0,0.0,0.4705923795700073,0.0824712514877319
-0.0713482871651649,0.0557384602725505,0.2173978835344314,-0.2518774569034576,0.1331605166196823,0.2495094239711761,0.0,0.0,0.4265044927597046,-0.614029049873352
-0.0690366774797439,0.0506306029856205,0.2166420966386795,-0.2283770442008972,0.1476377099752426,0.2895442247390747,0.0,0.0,0.4996678829193115,-0.2097140550613403
-0.0667624473571777,0.0462610349059104,0.2122251689434051,-0.1957762986421585,0.1628133356571197,0.3035125136375427,0.0,0.0,-0.0548570156097412,-0.3158067464828491
