x_pos,y_pos,x_vel,y_vel,angle,ang_vel,leg_1,leg_2,main_booster,lat_booster
-0.0014876365894451,1.4032551050186155,-0.1507837027311325,-0.3406632244586944,0.0018182086059823,0.0358699485659599,0.0,0.0,-0.4131142497062683,0.8374189138412476
-0.0028687478043138,1.3952401876449585,-0.1381302028894424,-0.3562188446521759,0.0018349107122048,0.0003348263562656,0.0,0.0,-0.5214049816131592,0.782825231552124
-0.0041409493423998,1.3868499994277954,-0.1253315657377243,-0.3728963732719421,-2.378279714321252e-05,-0.0371774956583976,0.0,0.0,-0.3036806583404541,0.4576647281646728
-0.0053804395720362,1.3780903816223145,-0.1220601350069046,-0.3893128335475921,-0.0018948185024783,-0.0374241322278976,0.0,0.0,-0.0303173661231994,0.0464818477630615
-0.0065888403914868,1.3689615726470947,-0.118899866938591,-0.4057258367538452,-0.003807058557868,-0.0382485799491405,0.0,0.0,-0.0167920589447021,0.0325918197631835
-0.0077674863860011,1.3594635725021362,-0.1158542782068252,-0.4221387505531311,-0.0057880021631717,-0.0396227911114692,0.0,0.0,-0.0364702343940734,-0.1394808888435363
-0.0089178085327148,1.3495965003967283,-0.1129276379942894,-0.4385518133640289,-0.0078653423115611,-0.0415505990386009,0.0,0.0,-0.3289999365806579,0.4779715538024902
-0.0100412368774414,1.339359998703003,-0.1101240962743759,-0.4549650251865387,-0.0100663788616657,-0.0440247692167758,0.0,0.0,-0.1953266859054565,0.4564418792724609
-0.011139583773911,1.328754425048828,-0.1074474826455116,-0.471378356218338,-0.0124179096892476,-0.0470351576805114,0.0,0.0,0.2803008556365967,-0.1149480938911438
-0.0122077940031886,1.3186240196228027,-0.1042598113417625,-0.4502671062946319,-0.0149490721523761,-0.0506279692053794,0.0,0.0,-0.5971879363059998,0.2494459152221679
-0.0132538797333836,1.30812406539917,-0.1018479838967323,-0.4666876196861267,-0.0176822785288095,-0.0546694286167621,0.0,0.0,0.1239936351776123,-0.3503062725067138
-0.0142251010984182,1.2977930307388306,-0.0943564176559448,-0.459196925163269,-0.0204143822193145,-0.0546470358967781,0.0,0.0,-0.4993238449096679,-0.4053042531013489
-0.015177440829575,1.287092685699463,-0.0922232270240783,-0.4756152331829071,-0.0233968887478113,-0.0596555694937706,0.0,0.0,-0.0483776330947876,-0.5761451721191406
-0.016153048723936,1.2760193347930908,-0.0952874422073364,-0.4921870231628418,-0.0256407279521226,-0.0448808893561363,0.0,0.0,-0.5246514081954956,-0.4970064163208008
-0.0171132087707519,1.2645769119262695,-0.093445710837841,-0.5086010098457336,-0.0281793717294931,-0.0507772788405418,0.0,0.0,0.0654711723327636,-0.9476690292358398
-0.0180448535829782,1.2530412673950195,-0.0921728312969207,-0.5127167105674744,-0.0291624832898378,-0.0196642056107521,0.0,0.0,-0.4065852165222168,-0.4001585841178894
-0.0189645774662494,1.2411363124847412,-0.0906331464648246,-0.5291328430175781,-0.0304806232452392,-0.0263654496520757,0.0,0.0,-0.1115209460258483,-0.585352897644043
-0.019909381866455,1.2288589477539062,-0.0936788544058799,-0.5456771850585938,-0.0312634222209453,-0.0156574770808219,0.0,0.0,0.2711459398269653,-0.2703269720077514
-0.0207513812929391,1.2171348333358765,-0.0833937153220176,-0.5210847854614258,-0.0320659056305885,-0.0160510055720806,0.0,0.0,0.0628786087036132,-0.4566285610198974
-0.0216266624629497,1.2055898904800415,-0.0860827043652534,-0.5131385922431946,-0.0334957502782344,-0.0285994373261928,0.0,0.0,-0.6842036247253418,-0.7416406273841858
-0.0225426666438579,1.1936837434768677,-0.0909291133284568,-0.5291841626167297,-0.0341622605919837,-0.0133315147832036,0.0,0.0,-0.2840837240219116,-0.8177706003189087
-0.0235185623168945,1.1814069747924805,-0.0981073081493377,-0.5456209778785706,-0.033649168908596,0.0102627091109752,0.0,0.0,-0.7283274531364441,-0.3787537217140198
-0.0244925506412982,1.1687610149383545,-0.0974814295768737,-0.5620359778404236,-0.0335619859397411,0.0017435892950743,0.0,0.0,-0.7432506680488586,0.3667058944702148
-0.0254661552608013,1.1557461023330688,-0.0970036014914512,-0.5784505605697632,-0.0339113697409629,-0.0069885095581412,0.0,0.0,-0.5034027695655823,0.2970641851425171
-0.0264409072697162,1.142362117767334,-0.0966725349426269,-0.5948653817176819,-0.0347080826759338,-0.0159359108656644,0.0,0.0,-0.5743963122367859,0.0944205522537231
-0.0274189002811908,1.1285874843597412,-0.0965349897742271,-0.6122332811355591,-0.0359617993235588,-0.0250739362090826,0.0,0.0,-0.0945037007331848,-0.2090852856636047
-0.0284012798219919,1.1144440174102783,-0.0964946001768112,-0.6286459565162659,-0.0376814007759094,-0.0343921184539794,0.0,0.0,0.57328200340271,-0.4341084957122803
-0.0294841770082712,1.10111665725708,-0.1054852828383445,-0.5924046635627747,-0.0404507182538509,-0.0553864054381847,0.0,0.0,-0.1705135703086853,0.5403406620025635
-0.0305406562983989,1.0874227285385132,-0.1015132516622543,-0.6087331771850586,-0.0445428006350994,-0.0818414390087127,0.0,0.0,0.4113337993621826,-0.7919536828994751
-0.0316701903939247,1.0739867687225342,-0.1098788231611251,-0.5972477197647095,-0.0475758835673332,-0.0606617107987403,0.0,0.0,0.4043790102005005,-0.5883097648620605
-0.0328043922781944,1.0612690448760986,-0.1110784783959388,-0.5653119683265686,-0.0498943217098712,-0.0463686175644397,0.0,0.0,-0.8881711363792419,-0.9308447241783142
-0.0340332984924316,1.0481830835342407,-0.1221541911363601,-0.5816197991371155,-0.0506219938397407,-0.0145535171031951,0.0,0.0,-0.9453429579734802,-0.975358784198761
-0.0353622436523437,1.034744143486023,-0.1338797509670257,-0.5972550511360168,-0.049645897001028,0.0195219535380601,0.0,0.0,-0.8526985049247742,0.764319896697998
-0.036651324480772,1.0209252834320068,-0.1280025541782379,-0.6142011284828186,-0.0505402795970439,-0.0178876388818025,0.0,0.0,-0.7750366926193237,-0.5761005282402039
-0.0379998199641704,1.006742238998413,-0.1345507353544235,-0.6303738355636597,-0.0508325472474098,-0.0058453907258808,0.0,0.0,-0.5602275729179382,0.344860315322876
-0.0393645279109478,0.9921900629997252,-0.1356557160615921,-0.6467872858047485,-0.0516420193016529,-0.0161895938217639,0.0,0.0,-0.942140519618988,-0.3747684955596924
-0.0407467857003212,0.9772692322731018,-0.1368677616119384,-0.6632006764411926,-0.0529720857739448,-0.0266015380620956,0.0,0.0,-0.5780178904533386,-0.6163546442985535
-0.0421927459537982,0.9619877934455872,-0.1438908725976944,-0.6792013645172119,-0.0536759383976459,-0.0140772880986332,0.0,0.0,-0.9130383133888244,-0.6305694580078125
-0.0437110885977745,0.9463487267494202,-0.1519394963979721,-0.6950655579566956,-0.0535680726170539,0.0021573693957179,0.0,0.0,-0.7295370101928711,-0.4401048421859741
-0.0452497489750385,0.9303407073020936,-0.1534461975097656,-0.711479127407074,-0.0539891384541988,-0.0084211025387048,0.0,0.0,-0.6036649346351624,-0.2077927589416504
-0.0468097701668739,0.9139639735221864,-0.1550422012805938,-0.7278926372528076,-0.0549413822591304,-0.0190446507185697,0.0,0.0,-0.2504396438598633,-0.3538066744804382
-0.0483921058475971,0.8972184062004089,-0.1567230820655822,-0.7443062663078308,-0.0564268194139003,-0.0297090057283639,0.0,0.0,-0.0423383712768554,-0.549896240234375
-0.0500340461730957,0.8801009058952332,-0.1630791276693344,-0.7608177065849304,-0.0575307458639144,-0.0220784991979599,0.0,0.0,0.1535345315933227,-0.6150287389755249
-0.051650047302246,0.8631636500358582,-0.1612929999828338,-0.7527799606323242,-0.0578287728130817,-0.0059605087153613,0.0,0.0,-0.6000162363052368,-0.5845202803611755
-0.0533400550484657,0.8458548784255981,-0.1694142371416092,-0.7692625522613525,-0.0574245862662792,0.0080836024135351,0.0,0.0,0.2867178916931152,0.2237801551818847
-0.0550046935677528,0.8285639882087708,-0.1664919555187225,-0.7684858441352844,-0.057394478470087,0.0006024743197485,0.0,0.0,-0.2370702028274536,-0.0169346928596496
-0.0566951744258403,0.8109042048454285,-0.1685323119163513,-0.7848995327949524,-0.0579051189124584,-0.0102128451690077,0.0,0.0,0.3254600763320923,0.3029067516326904
-0.0584634765982627,0.7938851118087769,-0.1753388196229934,-0.7564620971679688,-0.0593747571110725,-0.0293929483741521,0.0,0.0,-0.5239134430885315,-0.0488581657409668
-0.0602587684988975,0.7764972448348999,-0.1774938702583313,-0.7728760242462158,-0.0613872297108173,-0.0402497537434101,0.0,0.0,0.0806602239608764,-0.2710384726524353
-0.0620750412344932,0.7592399716377258,-0.1789750754833221,-0.7670983076095581,-0.0640075132250785,-0.0524053946137428,0.0,0.0,-0.6319417953491211,-0.1646449565887451
-0.063919261097908,0.741614043712616,-0.1812291145324707,-0.7835129499435425,-0.0671723037958145,-0.0632957145571708,0.0,0.0,0.5091392993927002,0.1324753761291504
-0.0657993331551551,0.7246320247650146,-0.184009701013565,-0.754942774772644,-0.0711256489157676,-0.0790669322013855,0.0,0.0,-0.2641879320144653,-0.2115286588668823
-0.0677082985639572,0.7072815299034119,-0.1863477081060409,-0.7713584899902344,-0.0756248533725738,-0.0899842754006385,0.0,0.0,-0.5014578104019165,-0.6993826031684875
-0.069701001048088,0.6895750761032104,-0.1955778300762176,-0.7871407866477966,-0.0792833715677261,-0.0731700584292411,0.0,0.0,0.8474839925765991,0.3645883798599243
-0.0715140327811241,0.6722957491874695,-0.1778337657451629,-0.768161416053772,-0.0827180445194244,-0.0686934888362884,0.0,0.0,-0.0551443099975585,0.0866258144378662
-0.0733569115400314,0.6546480059623718,-0.1802707910537719,-0.7845773100852966,-0.0867001041769981,-0.0796411857008934,0.0,0.0,0.0161749124526977,-0.4086633920669555
-0.0751298889517784,0.637356698513031,-0.1729966104030609,-0.7687545418739319,-0.0909624621272087,-0.085247091948986,0.0,0.0,0.8892834186553955,-0.8467846512794495
-0.0767572373151779,0.6208379864692688,-0.1599282324314117,-0.7343333959579468,-0.0937410518527031,-0.0555718354880809,0.0,0.0,0.0694575309753418,0.6964809894561768
-0.0782549828290939,0.6047386527061462,-0.1450686305761337,-0.715830385684967,-0.0984023958444595,-0.0932271927595138,0.0,0.0,-0.0147464871406555,-0.1837782859802246
-0.0797834396362304,0.5882710814476013,-0.1475908905267715,-0.7322477698326111,-0.1036124303936958,-0.1042005196213722,0.0,0.0,0.8975688219070435,-0.8801395893096924
-0.081304170191288,0.5720630288124084,-0.1481581479310989,-0.7206359505653381,-0.1074963063001632,-0.0776776522397995,0.0,0.0,0.5271042585372925,-0.5302619338035583
-0.0829268470406532,0.5564791560173035,-0.1586164236068725,-0.6928869485855103,-0.111123226583004,-0.0725384205579757,0.0,0.0,0.3910102844238281,-0.2123494148254394
-0.084428884088993,0.5411587357521057,-0.1464888751506805,-0.6811872720718384,-0.1148183047771453,-0.0739014372229576,0.0,0.0,-0.7445254921913147,0.3768956661224365
-0.085962101817131,0.5254701972007751,-0.1490464806556701,-0.6976048350334167,-0.1190626323223114,-0.0848867148160934,0.0,0.0,0.061765432357788,-0.5438282489776611
-0.0875331908464431,0.5097997784614563,-0.1533932983875274,-0.6967639923095703,-0.1227634474635124,-0.074016086757183,0.0,0.0,0.9292377233505248,0.2725270986557007
-0.0891943946480751,0.4948152899742126,-0.1611721962690353,-0.666393518447876,-0.1276822835206985,-0.0983767807483673,0.0,0.0,0.4101178646087646,0.6751248836517334
-0.0907197967171669,0.4805434346199035,-0.1457368731498718,-0.634903609752655,-0.1344584822654724,-0.1355243623256683,0.0,0.0,-0.8635146021842957,-0.4590489864349365
-0.0922761932015419,0.4659039378166199,-0.1482844352722168,-0.6513246297836304,-0.1417839229106903,-0.1465089619159698,0.0,0.0,-0.6638994812965393,0.0994995832443237
-0.0938633903861045,0.4508970081806183,-0.1508226841688156,-0.6677467226982117,-0.1496585011482238,-0.1574914753437042,0.0,0.0,0.5028073787689209,-0.2213770151138305
-0.0955016165971756,0.4361806213855743,-0.1549956649541854,-0.6549749970436096,-0.1584780812263488,-0.1763913035392761,0.0,0.0,-0.0584290623664855,-0.5913476347923279
-0.0972232818603515,0.4211122691631317,-0.164165049791336,-0.6705794930458069,-0.1664809286594391,-0.1600571572780609,0.0,0.0,-0.2268771529197693,-0.3007649183273315
-0.0989754647016525,0.4056766927242279,-0.1666595041751861,-0.687003493309021,-0.1750323474407196,-0.1710286736488342,0.0,0.0,0.1338577270507812,-0.2278045415878296
-0.1007435768842697,0.3907534480094909,-0.1673372983932495,-0.6644009351730347,-0.1845410615205764,-0.190174788236618,0.0,0.0,-0.5617929697036743,-0.6378751397132874
-0.1025851219892501,0.375475525856018,-0.1752578914165496,-0.6801475286483765,-0.1934742033481598,-0.1786629557609558,0.0,0.0,0.2938663959503174,-0.112117052078247
-0.104423239827156,0.3602893352508545,-0.1742660105228424,-0.6762139201164246,-0.2030770778656005,-0.1920576840639114,0.0,0.0,0.7618376016616821,-0.361579418182373
-0.1061495766043663,0.3452240526676178,-0.1629049181938171,-0.6709362864494324,-0.2128916829824447,-0.1962917149066925,0.0,0.0,0.5516742467880249,-0.6571600437164307
-0.1079208403825759,0.3302797973155975,-0.1681114137172699,-0.6655110716819763,-0.2220035195350647,-0.1822369843721389,0.0,0.0,0.906052827835083,-0.921343207359314
-0.1095992103219032,0.3163435459136963,-0.1601258218288421,-0.6205719113349915,-0.2298183590173721,-0.1562963724136352,0.0,0.0,0.6874480247497559,-0.9486581087112428
-0.1110981926321983,0.3032607138156891,-0.1436728984117508,-0.5824446082115173,-0.236134797334671,-0.1263286471366882,0.0,0.0,0.8512730598449707,-0.9364835619926452
-0.1126168221235275,0.2912304103374481,-0.1467478424310684,-0.5355107188224792,-0.2413287013769149,-0.1038782745599746,0.0,0.0,0.576714038848877,-0.9404600858688354
-0.1142964363098144,0.2793603837490082,-0.1640232056379318,-0.5282077193260193,-0.2453395724296569,-0.0802170559763908,0.0,0.0,0.8622276782989502,-0.3826075792312622
-0.1157427802681922,0.2684030830860138,-0.1403623521327972,-0.4877108931541443,-0.2496829479932785,-0.086867555975914,0.0,0.0,0.3800489902496338,-0.6400153636932373
-0.1172361373901367,0.2578303813934326,-0.1456422507762909,-0.4705301225185394,-0.253448873758316,-0.0753187090158462,0.0,0.0,0.1927670240402221,-0.8201693296432495
-0.1187390312552452,0.2476457208395004,-0.1476695835590362,-0.4531078636646271,-0.2561264634132385,-0.0535520836710929,0.0,0.0,0.2247933149337768,0.2479469776153564
-0.1201450377702713,0.2378492951393127,-0.137405663728714,-0.4359561800956726,-0.2593843042850494,-0.0651562213897705,0.0,0.0,-0.3462193012237549,-0.3107838630676269
-0.1215763092041015,0.2276857197284698,-0.1394098997116089,-0.4523797333240509,-0.2631797790527344,-0.07590963691473,0.0,0.0,0.3404433727264404,-0.5255410671234131
-0.1229807883501052,0.2175600677728653,-0.1372995525598526,-0.4505969285964966,-0.2664051353931427,-0.0645073726773262,0.0,0.0,0.942902445793152,-0.1643519401550293
-0.1241796463727951,0.2077093422412872,-0.1167021766304969,-0.4383923411369324,-0.2696600258350372,-0.0650975927710533,0.0,0.0,0.8074706792831421,-0.8808822631835938
-0.1251311302185058,0.1983509361743927,-0.0934946984052658,-0.4162331223487854,-0.2713541388511657,-0.0338823795318603,0.0,0.0,0.8760414123535156,-0.8466744422912598
-0.1258837729692459,0.1892232000827789,-0.0750879496335983,-0.4057123064994812,-0.2715334296226501,-0.003585607279092,0.0,0.0,0.923520565032959,-0.9614684581756592
-0.1265030801296234,0.1810320913791656,-0.0631294399499893,-0.3638248145580292,-0.2702973484992981,0.0247215256094932,0.0,0.0,-0.8354843258857727,-0.711357057094574
-0.1271944046020507,0.1725002378225326,-0.0711699724197387,-0.3788232505321502,-0.2682134509086609,0.0416772812604904,0.0,0.0,0.1019669771194458,-0.8143172860145569
-0.1277575492858886,0.1642345935106277,-0.0594925768673419,-0.3667791485786438,-0.2649555206298828,0.0651584565639495,0.0,0.0,-0.138930082321167,-0.880253255367279
-0.1283986121416092,0.1556156277656555,-0.0682347565889358,-0.3823290467262268,-0.2607401907444,0.0843066498637199,0.0,0.0,0.1868224143981933,-0.5865263342857361
-0.1290507316589355,0.1471919119358062,-0.0699226185679435,-0.3735546171665191,-0.2559245824813843,0.096311867237091,0.0,0.0,0.0586670637130737,-0.4711661338806152
-0.1295295655727386,0.1391827017068863,-0.0523562803864479,-0.3551941514015198,-0.2513678669929504,0.0911341831088066,0.0,0.0,0.3712841272354126,-0.698311984539032
-0.1299837082624435,0.1315208077430725,-0.0507423281669616,-0.3396250307559967,-0.2459400594234466,0.1085562333464622,0.0,0.0,-0.2083700299263,-0.9120192527770996
-0.1305384635925293,0.1235316842794418,-0.0625140815973281,-0.3539152443408966,-0.2387825399637222,0.1431507170200348,0.0,0.0,0.7848248481750488,0.0208543539047241
-0.1308406889438629,0.1162407994270324,-0.0372121594846248,-0.3229203224182129,-0.2316844463348388,0.1419620066881179,0.0,0.0,0.6209579706192017,-0.6348230242729187
-0.1310936957597732,0.1096989214420318,-0.0329674556851387,-0.2895660996437073,-0.2239201068878173,0.1552868336439132,0.0,0.0,0.2538818120956421,-0.8291723728179932
-0.1313692033290863,0.1036726832389831,-0.0363370478153228,-0.2665204107761383,-0.2150231897830963,0.1779382824897766,0.0,0.0,0.0393284559249877,0.006043791770935
-0.131608098745346,0.0977436378598213,-0.032153882086277,-0.2623310685157776,-0.2066726088523864,0.1670112162828445,0.0,0.0,0.2438759803771972,-0.152258813381195
-0.1318541467189788,0.092139184474945,-0.0320340879261493,-0.2480672150850296,-0.1991941928863525,0.1495683789253235,0.0,0.0,0.38417649269104,0.4880251884460449
-0.132150650024414,0.0868500098586082,-0.0360425263643264,-0.2342302948236465,-0.1927558481693267,0.128767043352127,0.0,0.0,0.3755875825881958,0.7423670291900635
-0.1321905106306076,0.0820330455899238,-0.0086117265745997,-0.213491752743721,-0.1881065368652343,0.0929863378405571,0.0,0.0,0.3275349140167236,0.2814332246780395
-0.1321386396884918,0.0772713050246238,0.0007644444704055,-0.2110806256532669,-0.183665782213211,0.0888149738311767,0.0,0.0,0.4226022958755493,0.6111488342285156
-0.1317958831787109,0.073064312338829,0.031210571527481,-0.1866005510091781,-0.1805906593799591,0.0615023262798786,0.0,0.0,0.2064604759216308,-0.5817773342132568
-0.1314248144626617,0.0693475604057312,0.0333234407007694,-0.1647337973117828,-0.1767913103103637,0.0759868696331977,0.0,0.0,-0.0141524076461792,0.0687496662139892
-0.1310635507106781,0.0652625858783721,0.0327261611819267,-0.1811520308256149,-0.1733910739421844,0.0680047273635864,0.0,0.0,0.0217049121856689,-0.1570457816123962
-0.1306032240390777,0.0613268949091434,0.0428039282560348,-0.1745493412017822,-0.1701571643352508,0.0646783486008644,0.0,0.0,0.0375007390975952,-0.4287257790565491
-0.1300690621137619,0.05778194591403,0.0505846962332725,-0.157229945063591,-0.1673130691051483,0.0568818040192127,0.0,0.0,0.0749604701995849,0.0430757999420166
-0.1294181793928146,0.0546166524291038,0.0624094828963279,-0.1403794586658477,-0.164638489484787,0.0534914620220661,0.0,0.0,-0.046459674835205,0.3192105293273926
-0.1287743598222732,0.05108293145895,0.0620451681315898,-0.156795784831047,-0.1622980386018753,0.0468094311654567,0.0,0.0,-0.1571910381317138,-0.4092495441436767
-0.1281368285417556,0.0471807084977626,0.0617351830005645,-0.1732116341590881,-0.1602725237607956,0.0405101329088211,0.0,0.0,0.2454522848129272,-0.5117893218994141
-0.1275869309902191,0.0435181707143783,0.0524654909968376,-0.1625105291604995,-0.1577471494674682,0.0505072064697742,0.0,0.0,0.6202741861343384,0.0655385255813598
-0.1269758194684982,0.0403109639883041,0.0589571706950664,-0.1423158496618271,-0.1555926948785781,0.0430889278650283,0.0,0.0,0.2721333503723144,-0.0874505639076232
-0.1262853592634201,0.0373391471803188,0.0670480281114578,-0.1318750530481338,-0.1535963863134384,0.0399262644350528,0.0,0.0,0.2484432458877563,-0.3128972053527832
-0.1254591941833496,0.0343787036836147,0.0803895741701126,-0.1313468068838119,-0.1513705253601074,0.0445169396698474,0.0,0.0,0.2305482625961303,-0.6845344305038452
-0.1245316490530967,0.0318015664815902,0.0892413854598999,-0.1141854599118232,-0.1478618085384369,0.0701742842793464,0.0,0.0,-0.0815367698669433,-0.6315189003944397
-0.1236527413129806,0.0288723092526197,0.0833294689655304,-0.1297429352998733,-0.1433162093162536,0.0909120589494705,0.0,0.0,0.1431611776351928,-0.6730621457099915
