x_pos,y_pos,x_vel,y_vel,angle,ang_vel,leg_1,leg_2,main_booster,lat_booster
-0.0015673637390136,1.403505802154541,-0.1591664850711822,-0.3295168876647949,0.0021740251686424,0.0429153703153133,0.0,0.0,-0.9093798907509074,-0.8165819475728211
-0.003237247467041,1.395992398262024,-0.1710124909877777,-0.3339434564113617,0.0061556263826787,0.0796401873230934,0.0,0.0,0.1138327591559946,0.711549821570382
-0.0047937394119799,1.3887648582458496,-0.1587796360254287,-0.3212364614009857,0.0092491619288921,0.061876468360424,0.0,0.0,0.7680381149653908,-0.9479512337153234
-0.0066148759797215,1.3822150230407717,-0.1873084008693695,-0.2911475896835327,0.0143893444910645,0.1028128489851951,0.0,0.0,0.1840621955282584,-0.777638456556405
-0.0084410663694143,1.376251459121704,-0.1899103224277496,-0.2651324868202209,0.0216056052595376,0.1443384289741516,0.0,0.0,-0.5996920125984224,-0.6986116107691553
-0.0103518487885594,1.3701680898666382,-0.199904128909111,-0.2705267071723938,0.0303253177553415,0.1744106560945511,0.0,0.0,0.1892700135112852,-0.9110773371578016
-0.0124079706147313,1.364586591720581,-0.216680571436882,-0.2483163177967071,0.0412849150598049,0.2192121744155883,0.0,0.0,0.8551403666604764,-0.6680082062688935
-0.0144074438139796,1.359987735748291,-0.2133020162582397,-0.2048187255859375,0.0544946379959583,0.2642189860343933,0.0,0.0,0.5995040534458256,-0.7222484511410969
-0.0165622718632221,1.3564889430999756,-0.2307077199220657,-0.1561315953731537,0.0695713981986045,0.3015631139278412,0.0,0.0,-0.3908670361993955,-0.9963339130769584
-0.0188366882503032,1.35287344455719,-0.2451267540454864,-0.1616044342517852,0.087098591029644,0.3505762219429016,0.0,0.0,0.9036116363012712,-0.6893658845306121
-0.0211589820683002,1.350175857543945,-0.2520058751106262,-0.1211706474423408,0.1067498847842216,0.3930622637271881,0.0,0.0,-0.4087139516780498,0.6070214735449915
-0.0234683044254779,1.3473724126815796,-0.2498112618923187,-0.1260586231946945,0.1255407184362411,0.3758510053157806,0.0,0.0,-0.9309217014291375,0.6365637016510647
-0.0257572177797555,1.3444703817367554,-0.2466760426759719,-0.1305719166994094,0.1432849168777465,0.3549161553382873,0.0,0.0,-0.0129092502052279,-0.9891732636243344
-0.028152847662568,1.3414318561553955,-0.2595482766628265,-0.1371013969182968,0.1632818579673767,0.3999755978584289,0.0,0.0,-0.9504076331420392,-0.6358021306081663
-0.0306259151548147,1.3382784128189087,-0.2687096893787384,-0.1426428109407425,0.1847534030675888,0.4294702410697937,0.0,0.0,0.3660427548557854,0.6780379979163836
-0.0330305099487304,1.3354103565216064,-0.2611190378665924,-0.1301690191030502,0.2055640965700149,0.4162522852420807,0.0,0.0,-0.3455507248231861,-0.8290658201192531
-0.0355237945914268,1.3324254751205444,-0.2716657519340515,-0.1359278112649917,0.2281681597232818,0.4521224498748779,0.0,0.0,0.730927486050269,0.7801767133501153
-0.0379230491816997,1.329973578453064,-0.2614401876926422,-0.1124591529369354,0.2500565648078918,0.4378078877925873,0.0,0.0,-0.4623615242121655,0.8059115361174845
-0.0402890220284462,1.3274450302124023,-0.2566582262516022,-0.1159278973937034,0.2705755531787872,0.410416692495346,0.0,0.0,0.1862799535076973,0.8803652305212426
-0.0427974686026573,1.3253926038742063,-0.2695501148700714,-0.0947920382022857,0.2898107171058655,0.3847382664680481,0.0,0.0,0.0482689270390184,0.9952030257166784
-0.0453103072941303,1.3239960670471191,-0.2683895230293274,-0.0655766129493713,0.3075018525123596,0.3538542687892914,0.0,0.0,0.5504150812846571,0.8205463046817123
-0.0479087829589843,1.323110580444336,-0.2757956087589264,-0.0428200177848339,0.3240825235843658,0.331644058227539,0.0,0.0,-0.91723881305349,0.9848840636286892
-0.0504508018493652,1.322155237197876,-0.2682571709156036,-0.0456680506467819,0.338760644197464,0.293588787317276,0.0,0.0,0.5881368996168059,0.7089622129762543
-0.0530010238289833,1.3215678930282593,-0.2682718336582184,-0.0292768087238073,0.3526827096939087,0.2784669995307922,0.0,0.0,-0.6057934621884986,0.6219409785721544
-0.0555478110909462,1.320887565612793,-0.267447292804718,-0.0334273390471935,0.3661714494228363,0.2697987258434295,0.0,0.0,0.3695822142411071,-0.6903678158721308
-0.0585049614310264,1.320793628692627,-0.3100970685482025,-0.0079211769625544,0.3814065158367157,0.3047009110450744,0.0,0.0,0.4256945995334029,0.6626802702423678
-0.0616740211844444,1.3214943408966064,-0.3304162323474884,0.0274621658027172,0.3958256244659424,0.2883826196193695,0.0,0.0,-0.5305800279830883,-0.9628188684506576
-0.0649585723876953,1.322038650512695,-0.3446379899978637,0.0195802934467792,0.4132036864757538,0.3475610315799713,0.0,0.0,0.8858928555781516,0.9142209743465344
-0.0687121376395225,1.323636531829834,-0.3899271488189697,0.0666723251342773,0.428948700428009,0.3149001598358154,0.0,0.0,0.2384560059359159,0.746597140862886
-0.0726057067513465,1.3256430625915527,-0.4028884470462799,0.0849848538637161,0.4436781704425812,0.2945892810821533,0.0,0.0,0.5551815668413924,-0.6208385918429875
-0.0768947601318359,1.328604221343994,-0.4440483450889587,0.1267207711935043,0.4602862894535064,0.3321631550788879,0.0,0.0,0.4043349498675115,0.744360944105174
-0.0813852325081825,1.331939935684204,-0.4630773663520813,0.1435331255197525,0.4757916033267975,0.3101064562797546,0.0,0.0,-0.0535351625611517,-0.7196469858068415
-0.085957147181034,1.3351258039474487,-0.4731256067752838,0.1360119134187698,0.4935580193996429,0.3553283810615539,0.0,0.0,-0.3691435872719277,-0.8267890857759282
-0.0906109809875488,1.3381435871124268,-0.4833680689334869,0.1275356262922287,0.5138155221939087,0.4051500856876373,0.0,0.0,-0.0398571975970774,0.6696889676746389
-0.0952389687299728,1.341091871261597,-0.4797839522361755,0.1245135739445686,0.5331692695617676,0.3870744705200195,0.0,0.0,-0.43247004876043,-0.976870874147231
-0.0999523177742958,1.3438804149627686,-0.4903339743614197,0.1162858754396438,0.5550775527954102,0.4381658136844635,0.0,0.0,-0.5036231804906102,0.7033263187742703
-0.1046379059553146,1.3465977907180786,-0.4865575730800628,0.1131772100925445,0.576108992099762,0.4206275343894958,0.0,0.0,0.7786836563921522,0.7044210483747921
-0.1097052544355392,1.350322127342224,-0.523762047290802,0.1579995602369308,0.596267580986023,0.4031723141670227,0.0,0.0,-0.8394925805378421,-0.7406623987296561
-0.114841841161251,1.3538920879364014,-0.5323092341423035,0.1500443816184997,0.6186651587486267,0.4479516446590423,0.0,0.0,0.0182212850074625,0.7747929108729082
-0.1201448440551757,1.3578815460205078,-0.5477298498153687,0.1688641160726547,0.6399372220039368,0.4254414439201355,0.0,0.0,0.9425827310125968,-0.9250323776737136
-0.1261789351701736,1.362681865692139,-0.6224340796470642,0.2036991864442825,0.6635368466377258,0.4719922542572021,0.0,0.0,-0.979009449481964,0.9991042613983154
-999.0,1.3674581050872805,-0.614173173904419,0.2032104879617691,0.6850572824478149,0.4304091930389404,0.0,0.0,-0.9894180297851562,0.9989216327667236
-0.1380569487810135,1.3722015619277954,-0.6058899164199829,0.2023770809173584,0.7045969367027283,0.3907926082611084,0.0,0.0,-0.9268957376480104,0.9933265447616576
-0.1439024955034256,1.3769199848175049,-0.5980004072189331,0.20196433365345,0.7221341133117676,0.3507447838783264,0.0,0.0,-0.9972038269042968,0.99652099609375
-0.1496949195861816,1.3815900087356567,-0.5913647413253784,0.2003324031829834,0.7381809949874878,0.3209375739097595,0.0,0.0,-0.952893078327179,0.9992473125457764
-0.1554257422685623,1.3862249851226809,-0.5836637020111084,0.1994902044534683,0.7524006962776184,0.2843934893608093,0.0,0.0,-0.9907830357551576,0.9946521520614624
-0.1610948592424392,1.390830636024475,-0.575980544090271,0.1989755630493164,0.7647314667701721,0.246614933013916,0.0,0.0,-0.9960837960243224,0.9921501874923706
-0.1667248755693435,1.395396113395691,-0.5710526704788208,0.1977232098579406,0.7757826447486877,0.2210237085819244,0.0,0.0,-0.9900801181793212,0.9992673397064208
-0.1723155975341797,1.399918556213379,-0.5661581754684448,0.1963236182928085,0.7856147289276123,0.1966420710086822,0.0,0.0,-0.9906840324401855,0.9987945556640624
-0.1778503358364105,1.404404878616333,-0.5593267679214478,0.1954570561647415,0.793828547000885,0.1642761379480362,0.0,0.0,-0.9977222084999084,0.9990087747573853
-0.1833142340183258,1.4088799953460691,-0.5506230592727661,0.19600610435009,0.799797773361206,0.1193847507238388,0.0,0.0,-0.994736909866333,0.978200912475586
-0.1887286156415939,1.4133193492889404,-0.5446030497550964,0.1951243281364441,0.8043012619018555,0.0900700613856315,0.0,0.0,-0.9965536594390868,0.9826855659484864
-0.1940714865922927,1.4177383184432983,-0.5359917283058167,0.1952122747898101,0.806732714176178,0.0486275032162666,0.0,0.0,-0.994770646095276,0.9959557056427002
-0.1993573158979416,1.422133445739746,-0.5290719270706177,0.1950004994869232,0.8074245452880859,0.0138368140906095,0.0,0.0,-0.997258484363556,0.9855842590332032
-0.204566478729248,1.4265151023864746,-0.5198357105255127,0.1954894065856933,0.8058823347091675,-0.0308441072702407,0.0,0.0,-0.9645546674728394,0.9784972667694092
-0.2097188532352447,1.4308488368988037,-0.5132311582565308,0.1940027177333831,0.8030261993408203,-0.0571241490542888,0.0,0.0,-0.9913131594657898,0.9451273679733276
-0.2148051708936691,1.4351657629013062,-0.5052462816238403,0.1941966414451599,0.7982231378555298,-0.096061073243618,0.0,0.0,-0.9984591603279114,0.605056881904602
-0.219839721918106,1.4394328594207764,-0.499232679605484,0.1925126612186432,0.7922741770744324,-0.1189797967672348,0.0,0.0,-0.995915949344635,0.8486771583557129
-0.2248127460479736,1.4436709880828855,-0.4918978214263916,0.1919991970062255,0.7846945524215698,-0.1515919268131256,0.0,0.0,-0.9914580583572388,0.753629207611084
-0.2297379523515701,1.44785475730896,-0.4863800406455993,0.1899967640638351,0.7761562466621399,-0.1707660257816314,0.0,0.0,-0.9812798500061036,0.7002801895141602
-0.2346024513244629,1.4519827365875244,-0.4794032573699951,0.1880381405353546,0.7664555907249451,-0.1940134465694427,0.0,0.0,-0.9856731295585632,0.7724330425262451
-0.2394160330295562,1.456052541732788,-0.4735730588436126,0.1858313828706741,0.7558364868164062,-0.2123822718858719,0.0,0.0,-0.997891902923584,0.3555893898010254
-0.2442115247249603,1.4600098133087158,-0.4720802903175354,0.1805293560028076,0.7457476854324341,-0.2017755061388015,0.0,0.0,-0.9980595111846924,0.1036648750305175
-0.2489879131317138,1.4638540744781494,-0.4704964756965637,0.1752283573150634,0.7361873388290405,-0.1912073493003845,0.0,0.0,-0.8584176898002625,0.6105111837387085
-0.2537069916725158,1.4676305055618286,-0.4640601277351379,0.1725364029407501,0.7257848978042603,-0.2080484330654144,0.0,0.0,-0.9978306889533995,0.0488245487213134
-0.2584051489830017,1.4712941646575928,-0.4623051583766937,0.1672358065843582,0.7159067392349243,-0.1975647360086441,0.0,0.0,-0.9967506527900696,-0.019418716430664
-0.2630816996097564,1.4748446941375732,-0.4604724049568176,0.1619362533092498,0.7065503597259521,-0.1871280521154403,0.0,0.0,-0.9944472312927246,0.4106837511062622
-0.2677356600761413,1.478282451629639,-0.458565890789032,0.1566377282142639,0.6977132558822632,-0.1767416298389434,0.0,0.0,-0.9937669038772584,0.566264271736145
-0.272334337234497,1.4816557168960571,-0.4523545205593109,0.1540875434875488,0.6880759596824646,-0.1927462220191955,0.0,0.0,-0.9895966053009032,0.7715175151824951
-0.2768688201904297,1.4849612712860107,-0.4451625943183899,0.1514176428318023,0.6775257587432861,-0.2110041826963424,0.0,0.0,-0.994176745414734,0.3031027317047119
-0.2813789248466491,1.4881538152694702,-0.4430557787418365,0.1461188495159149,0.6674861907958984,-0.2007911503314972,0.0,0.0,-0.9992409348487854,0.2648547887802124
-0.2858640253543854,1.491232991218567,-0.4408918023109436,0.1408212035894394,0.6579539179801941,-0.1906454712152481,0.0,0.0,-0.9119818210601808,0.133995771408081
-0.290323406457901,1.4941987991333008,-0.4386743903160095,0.1355246752500534,0.6489253044128418,-0.1805724799633026,0.0,0.0,-0.993567168712616,0.2201799154281616
-0.2947565019130707,1.4970511198043823,-0.4364073872566223,0.1302292197942733,0.6403964161872864,-0.1705778241157531,0.0,0.0,-0.9849972128868104,0.3259270191192627
-0.2991628646850586,1.4997897148132324,-0.4340943396091461,0.1249348297715187,0.6323630213737488,-0.1606679260730743,0.0,0.0,-0.9891313314437866,-0.2209705114364624
-0.3035419881343841,1.5024142265319824,-0.4317388534545898,0.1196414455771446,0.6248205304145813,-0.1508497148752212,0.0,0.0,-0.986852526664734,0.3972511291503906
-0.3078935146331787,1.5049246549606323,-0.4293443560600281,0.1143490523099899,0.6177639961242676,-0.1411308348178863,0.0,0.0,-0.8337012529373169,0.0464807748794555
-0.3122170567512512,1.5073208808898926,-0.4269142746925354,0.1090576276183128,0.6111879944801331,-0.1315196603536605,0.0,0.0,-0.96391099691391,0.5225527286529541
-0.3164767324924469,1.5096465349197388,-0.4198256134986877,0.1062114164233207,0.603797972202301,-0.1478006094694137,0.0,0.0,-0.980840027332306,0.1809302568435669
-0.3207078576087951,1.5118577480316162,-0.417333036661148,0.1009206622838974,0.596876323223114,-0.1384332627058029,0.0,0.0,-0.8948699235916138,0.141910433769226
-0.3249102234840393,1.513954520225525,-0.4148147106170654,0.0956308990716934,0.5904161334037781,-0.1292040348052978,0.0,0.0,-0.9754189252853394,0.4479196071624756
-0.3290835916996002,1.5159367322921753,-0.412273645401001,0.0903420969843864,0.5844098329544067,-0.1201248914003372,0.0,0.0,-0.9849612712860109,0.7079527378082275
-0.3331895768642425,1.517841935157776,-0.4048240780830383,0.087207093834877,0.5775842070579529,-0.1365127116441726,0.0,0.0,-0.5125395059585571,0.6775195598602295
-0.3372273445129394,1.5196739435195925,-0.3972150385379791,0.0842559039592742,0.5698694586753845,-0.1542944610118866,0.0,0.0,-0.8485333919525146,0.2291082143783569
-0.3412358164787292,1.5213913917541504,-0.3946213722229004,0.0789676830172538,0.5625820755958557,-0.1457479745149612,0.0,0.0,-0.8299517631530762,0.5157566070556641
-0.3451762199401855,1.5230307579040527,-0.3870512843132019,0.0757728815078735,0.5544488430023193,-0.1626645028591156,0.0,0.0,-0.8409309983253479,0.2635045051574707
-0.3490872979164123,1.524555206298828,-0.3844373226165771,0.0704855844378471,0.5467211604118347,-0.1545534580945968,0.0,0.0,-0.7384046912193298,0.6940277814865112
-0.352914035320282,1.5260090827941897,-0.3748363852500915,0.0677676349878311,0.5376883149147034,-0.1806574016809463,0.0,0.0,-0.7884536981582642,0.526341438293457
-0.3566678166389465,1.5273871421813965,-0.366612046957016,0.0646997839212417,0.5276429057121277,-0.2009081840515136,0.0,0.0,-0.7343519330024719,0.7633126974105835
-0.3603273332118988,1.5287010669708252,-0.3557124733924866,0.0623256228864192,0.5159777998924255,-0.233302429318428,0.0,0.0,-0.6673245429992676,0.2695567607879638
-0.3639582097530365,1.529900074005127,-0.3530867397785187,0.0570365451276302,0.5046630501747131,-0.2262947112321853,0.0,0.0,-0.3370914459228515,0.4684829711914062
-0.367560476064682,1.5309844017028809,-0.3504661917686462,0.0517489537596702,0.4936821460723877,-0.2196179926395416,0.0,0.0,-0.679837703704834,0.2949720621109009
-0.3711343705654144,1.5319535732269287,-0.3478531539440155,0.0464628264307975,0.4830173850059509,-0.2132954597473144,0.0,0.0,-0.3974088430404663,0.1634126901626587
-0.3746801018714905,1.5328075885772705,-0.3452500104904175,0.0411781333386898,0.4726498425006866,-0.2073508948087692,0.0,0.0,0.1681374311447143,0.4153923988342285
-0.3783949017524719,1.5340015888214111,-0.3622022569179535,0.0561925321817398,0.4623875617980957,-0.2052454948425293,0.0,0.0,-0.1230122447013855,0.5075352191925049
-0.3820434510707855,1.5351155996322632,-0.354653537273407,0.0528638549149036,0.4511605501174927,-0.224539965391159,0.0,0.0,-0.4205754995346069,0.4729641675949096
-0.3856647908687591,1.536113977432251,-0.3520921766757965,0.0475811474025249,0.4401669502258301,-0.219872161746025,0.0,0.0,0.3475551605224609,0.3732658624649048
-0.3896276354789734,1.5378122329711914,-0.3859467506408691,0.0786859467625618,0.4289136230945587,-0.2250663042068481,0.0,0.0,0.3072999715805053,0.4925276041030884
-0.3937310576438904,1.5401909351348877,-0.4004181325435638,0.108704000711441,0.4181638360023498,-0.2149955928325653,0.0,0.0,-0.178804874420166,0.3846235275268554
-0.3978084921836853,1.5424531698226929,-0.3979201912879944,0.1034250482916832,0.4075733721256256,-0.2118090391159057,0.0,0.0,-0.5706912875175476,0.6273708343505859
-0.4018227159976959,1.544628620147705,-0.3906269967556,0.0997529551386833,0.3959886729717254,-0.2316937893629074,0.0,0.0,-0.6912641525268555,0.4940102100372314
-999.0,1.5466878414154053,-0.3881809413433075,0.0944745168089866,0.3845092356204986,-0.2295884639024734,0.0,0.0,0.1205892562866211,0.8478732109069824
-0.4099538326263428,1.5491846799850464,-0.4017781615257263,0.114254206418991,0.3713297843933105,-0.2635887563228607,0.0,0.0,0.2898533344268799,0.4245785474777221
-0.4143298268318176,1.5520730018615725,-0.424662172794342,0.1316684186458587,0.3576555550098419,-0.2734846472740173,0.0,0.0,-0.0091637969017028,0.4206482172012329
-0.4186828136444092,1.5548452138900757,-0.422309011220932,0.1263885200023651,0.344000905752182,-0.2730932533740997,0.0,0.0,0.0296019315719604,0.6898128986358643
-0.422997236251831,1.557870388031006,-0.4170701503753662,0.1378063410520553,0.3289633393287658,-0.3007514774799347,0.0,0.0,-0.0277826189994812,0.0326075553894043
-0.4272900223731994,1.5607795715332031,-0.4147894978523254,0.1325248032808303,0.3138870000839233,-0.3015269041061401,0.0,0.0,0.0922495126724243,0.0143508911132812
-0.431734561920166,1.5642980337142944,-0.4297590851783752,0.159478947520256,0.2986728549003601,-0.3042830526828766,0.0,0.0,0.1075155735015869,0.7627224922180176
-0.4361666738986969,1.568605661392212,-0.4269143044948578,0.194699540734291,0.2818763256072998,-0.3359309732913971,0.0,0.0,-0.5670750737190247,0.0610175132751464
-0.4405792653560638,1.5727978944778442,-0.4247580170631408,0.1894151270389557,0.2649551630020141,-0.3384234607219696,0.0,0.0,0.1420588493347168,-0.5260143280029297
-0.4451669752597809,1.5776782035827637,-0.4430786669254303,0.2196644991636276,0.2489316314458847,-0.3204710185527801,0.0,0.0,-0.5891627669334412,-0.4524306058883667
-0.4497365057468414,1.5824429988861084,-0.4410170614719391,0.2143827080726623,0.2327291220426559,-0.3240501284599304,0.0,0.0,-0.5896250009536743,-0.2692140340805053
-0.4542885720729828,1.5870921611785889,-0.4390048384666443,0.2091006189584732,0.2163218259811401,-0.3281455338001251,0.0,0.0,-0.5771552920341492,0.6445313692092896
-0.4587844908237457,1.5916399955749512,-0.4320763945579529,0.2045960128307342,0.1986502856016159,-0.3534311652183532,0.0,0.0,-0.8467312455177307,-0.0386301279067993
-0.4632644653320312,1.596073031425476,-0.4301671385765075,0.1993099153041839,0.1807255446910858,-0.3584952056407928,0.0,0.0,0.1492228507995605,0.3621996641159057
-0.4678144454956054,1.6009654998779297,-0.4367639124393463,0.2195679992437362,0.1624557375907898,-0.365396112203598,0.0,0.0,-0.6949257850646973,0.2460620403289795
-0.4723499417304992,1.605743408203125,-0.4349648952484131,0.214279755949974,0.1438888907432556,-0.3713372349739074,0.0,0.0,-0.9137052297592164,0.7984392642974854
-0.4767950177192688,1.6104167699813845,-0.4236044287681579,0.209592118859291,0.1230659708380699,-0.4164581894874573,0.0,0.0,-0.8617519736289978,0.3136360645294189
-0.4812272191047668,1.6149768829345703,-0.4219201505184173,0.2042948454618454,0.1019072160124778,-0.4231753945350647,0.0,0.0,-0.7970566153526306,0.805635929107666
-0.4855817258358001,1.619442582130432,-0.4120575785636902,0.1999031752347946,0.0787187367677688,-0.4637700617313385,0.0,0.0,-0.6835941076278687,0.6117384433746338
-0.489871084690094,1.623796463012695,-0.4037620425224304,0.1946466267108917,0.0538151003420352,-0.4980731606483459,0.0,0.0,-0.5123373866081238,0.3615816831588745
