x_pos,y_pos,x_vel,y_vel,angle,ang_vel,leg_1,leg_2,main_booster,lat_booster
-0.0014880180824548,1.4031047821044922,-0.1512718349695205,-0.3473548591136932,0.0022165270056575,0.0437566079199314,0.0,0.0,0.5871741637468859,-0.7942614256542944
-0.0029491423629224,1.3954534530639648,-0.1504794210195541,-0.3400647342205047,0.0065361582674086,0.0864014700055122,0.0,0.0,0.7920071546820151,0.7209283340737501
-0.0041647912003099,1.3879361152648926,-0.125376358628273,-0.334121435880661,0.0103062959387898,0.0754098147153854,0.0,0.0,0.6950535394815789,0.6951019100916503
-0.0054306029342114,1.380664587020874,-0.1292065680027008,-0.3232038915157318,0.0128986304625868,0.0518514886498451,0.0,0.0,-0.8672343742902846,-0.7457876338379921
-0.0067100524902343,1.3728746175765991,-0.1322741061449051,-0.3462590277194977,0.0171773303300142,0.0855820104479789,0.0,0.0,-0.8798520091719846,0.6639894913527402
-0.0078939441591501,1.3645660877227783,-0.1216263547539711,-0.369312584400177,0.0203795488923788,0.0640503838658332,0.0,0.0,-0.9564604984055456,-0.8286224334028303
-0.0091150281950831,1.3557358980178833,-0.1276180893182754,-0.3925338387489319,0.0258336644619703,0.1090921759605407,0.0,0.0,-0.9760672718387228,-0.8903900816764898
-0.0103595731779932,1.346387267112732,-0.1318700611591339,-0.4156401753425598,0.033172782510519,0.1467959433794021,0.0,0.0,-0.2399873065051296,0.6239824527216374
-0.0115279201418161,1.3365288972854614,-0.1236071586608886,-0.4383150935173034,0.0398686490952968,0.1339298039674759,0.0,0.0,0.8434197763688354,-0.8310107697127
-0.0127680776640772,1.3273675441741943,-0.1330341547727584,-0.407425582408905,0.0487880334258079,0.1784040629863739,0.0,0.0,0.2546584491664978,-0.9541940004131256
-0.0140036586672067,1.318365216255188,-0.1351058632135391,-0.4005176424980163,0.0602253228425979,0.2287667095661163,0.0,0.0,0.189557870560542,-0.5141103659050474
-0.0152226444333791,1.309415578842163,-0.1351891458034515,-0.3983579277992248,0.0733982399106025,0.263482391834259,0.0,0.0,0.2918053342399802,0.696920573730303
-0.0162906646728515,1.3007888793945312,-0.1194788590073585,-0.3840753734111786,0.0859708711504936,0.2514757215976715,0.0,0.0,-0.8928972090366805,-0.8399833387300685
-0.0173949245363473,1.2916301488876345,-0.1252005398273468,-0.4079689979553222,0.100633256137371,0.2932743430137634,0.0,0.0,-0.4057214151941508,-0.6315801412582842
-0.0185174942016601,1.281956434249878,-0.128588855266571,-0.4311248064041137,0.1168696507811546,0.3247575461864471,0.0,0.0,0.9105186104153165,-0.6658568582053473
-0.0195776931941509,1.272286891937256,-0.1246245503425598,-0.4313227832317352,0.1354109197854995,0.3708590865135193,0.0,0.0,0.2742429615370065,-0.8165663253042772
-0.0206545833498239,1.2631051540374756,-0.1286360323429107,-0.4101162254810333,0.1563276797533035,0.4183734357357025,0.0,0.0,0.2649259437716056,-0.8570155625708037
-0.0217033382505178,1.2538424730300903,-0.128187358379364,-0.414295881986618,0.1796973347663879,0.4674358367919922,0.0,0.0,-0.0844258544781091,-0.5820283992253282
-0.022776985540986,1.2440640926361084,-0.1321802139282226,-0.4377938210964203,0.2046754211187362,0.4996067583560943,0.0,0.0,0.4941741607932155,-0.7617121942366929
-0.0240809433162212,1.2344847917556765,-0.1570785343647003,-0.4296696782112121,0.2316858470439911,0.5402573347091675,0.0,0.0,-0.7355002567604865,0.6320911230866691
-0.0253167152404785,1.224421739578247,-0.1492094099521637,-0.4514967501163482,0.2577922940254211,0.5221763253211975,0.0,0.0,0.330054423398836,0.9316279796570448
-0.0265522003173828,1.214392900466919,-0.1478150635957718,-0.4501860439777374,0.2826755940914154,0.4977107942104339,0.0,0.0,0.7737141469422952,-0.5166793139869972
-0.027840232476592,1.20474112033844,-0.1549445688724517,-0.4342556595802307,0.3096809983253479,0.5401567816734314,0.0,0.0,-0.4280167187619854,-0.7380753739014294
-0.0291703231632709,1.1945505142211914,-0.1608193963766098,-0.4591175317764282,0.338676393032074,0.5799599289894104,0.0,0.0,0.9159619130222508,-0.8138028235463131
-0.0309755317866802,1.1847903728485107,-0.2099043875932693,-0.4409845471382141,0.3696199357509613,0.6189269423484802,0.0,0.0,0.5635039176538579,0.8955424764017861
-0.0330945029854774,1.175395369529724,-0.2396762818098068,-0.4250209629535675,0.3991848528385162,0.5912984013557434,0.0,0.0,-0.7405208447908744,-0.9907714420309705
-0.0352856628596782,1.1654561758041382,-0.2490423023700714,-0.4504953324794769,0.4314437806606293,0.6451788544654846,0.0,0.0,0.4680785465219212,-0.6402626580525612
-0.037947941571474,1.155908465385437,-0.2972910404205322,-0.4342673420906067,0.4654456675052643,0.6800384521484375,0.0,0.0,-0.3016094988803481,-0.799850384107825
-0.0406839363276958,1.1458141803741455,-0.3065598607063293,-0.4601151645183563,0.5021462440490723,0.7340129613876343,0.0,0.0,-0.2448227769536157,0.895280658151647
-0.0433655753731727,1.135265588760376,-0.2994527518749237,-0.4807192683219909,0.537699818611145,0.7110715508460999,0.0,0.0,0.7782013605900957,-0.7723591778862227
-0.0465573295950889,1.1253693103790283,-0.3518133461475372,-0.4533184468746185,0.5755974054336548,0.7579520344734192,0.0,0.0,-0.921179473400116,0.9984631538391112
-0.0496996864676475,1.115023851394653,-0.3450976610183716,-0.4736326038837433,0.6123142838478088,0.734338641166687,0.0,0.0,-0.886339008808136,0.999387502670288
-0.0528016090393066,1.104243278503418,-0.3392967581748962,-0.4932309687137604,0.6478263139724731,0.7102409601211548,0.0,0.0,-0.9372648000717164,0.998631238937378
-0.0558563247323036,1.0930167436599731,-0.3328193426132202,-0.5132001042366028,0.682084858417511,0.6851704716682434,0.0,0.0,-0.8982500433921814,0.996917724609375
-0.058863066136837,1.0813641548156738,-0.3260729014873504,-0.5320602059364319,0.7147681713104248,0.653666615486145,0.0,0.0,-0.9601198434829712,0.9990015029907228
-0.0618267059326171,1.069291353225708,-0.3198423385620117,-0.5505384206771851,0.7458385229110718,0.6214064955711365,0.0,0.0,-0.9695804119110109,0.9980943202972412
-0.0647480934858322,1.0567851066589355,-0.3139130771160126,-0.5696061849594116,0.7754689455032349,0.592610239982605,0.0,0.0,-0.8296315670013428,0.9972798824310304
-0.0676296204328537,1.043864130973816,-0.308108240365982,-0.5876277089118958,0.8033847212791443,0.5583153963088989,0.0,0.0,-0.8804689049720764,0.991518259048462
-0.0704826340079307,1.030521035194397,-0.3036991059780121,-0.6060457825660706,0.8298666477203369,0.5296385288238525,0.0,0.0,-0.8085015416145325,0.99430513381958
-0.0732983574271202,1.016759753227234,-0.2983225584030151,-0.6240896582603455,0.8546597957611084,0.495863527059555,0.0,0.0,-0.9477806091308594,0.9957232475280762
-0.0760936737060546,1.002566933631897,-0.2950325310230255,-0.6429176330566406,0.8782454133033752,0.4717124998569488,0.0,0.0,-0.9350522756576538,0.9980950355529784
-0.0788460746407508,0.9879704713821412,-0.2889906466007232,-0.6600072383880615,0.8997502326965332,0.4300963878631592,0.0,0.0,-0.9506478309631348,0.9933527708053588
-0.0815551728010177,0.9729612469673156,-0.2830748856067657,-0.6774784326553345,0.9192892909049988,0.3907822966575622,0.0,0.0,-0.8747631311416626,0.997201442718506
-0.0842268913984298,0.9575466513633728,-0.277825653553009,-0.6945607662200928,0.9368163347244264,0.3505395352840423,0.0,0.0,-0.9189345240592957,0.9969751834869384
-0.0868680030107498,0.9417005777359008,-0.2736532092094421,-0.7130574584007263,0.9528775215148926,0.3212235569953918,0.0,0.0,-0.95653235912323,0.9949073791503906
-0.0894743949174881,0.92543762922287,-0.2689332067966461,-0.7306780219078064,0.9671313762664796,0.2850782871246338,0.0,0.0,-0.9927196502685548,0.9940789937973022
-0.0920489281415939,0.908763587474823,-0.2645149827003479,-0.747981607913971,0.9795050024986268,0.2474723309278488,0.0,0.0,-0.9887378215789796,0.994660496711731
-0.0946139320731163,0.8916603922843933,-0.262742280960083,-0.7664056420326233,0.990635097026825,0.2226024121046066,0.0,0.0,-0.955898642539978,0.9909489154815674
-0.0971708297729492,0.874123752117157,-0.2611916661262512,-0.7850492000579834,1.0006049871444702,0.1993982046842575,0.0,0.0,-0.9439953565597534,0.9963996410369872
-0.099706269800663,0.8561661243438721,-0.2580889463424682,-0.802890419960022,1.0089828968048096,0.1675577610731125,0.0,0.0,-0.977671205997467,0.9976108074188232
-0.1022112816572189,0.8378154039382935,-0.2537891268730163,-0.8190966248512268,1.015110969543457,0.1225613206624984,0.0,0.0,-0.9700109958648682,0.9837108850479126
-0.1047043800354003,0.819041907787323,-0.2518004477024078,-0.8370664119720459,1.0197908878326416,0.0935990959405899,0.0,0.0,-0.8884817957878113,0.9978883266448976
-0.1071676239371299,0.7998676300048828,-0.2476865500211715,-0.8536653518676758,1.0223522186279297,0.0512267239391803,0.0,0.0,-0.924791693687439,0.9957047700881958
-0.1096172332763671,0.7802827954292297,-0.2453954517841339,-0.8709195256233215,1.0231895446777344,0.0167460776865482,0.0,0.0,-0.9374987483024596,0.9936963319778442
-0.1120365113019943,0.7603041529655457,-0.2411678284406662,-0.8871166110038757,1.0217547416687012,-0.0286965165287256,0.0,0.0,-0.8402597308158875,0.9909951686859132
-0.1144412979483604,0.7398915886878967,-0.239027053117752,-0.9056382775306702,1.0190092325210571,-0.0549107119441032,0.0,0.0,-0.8567004203796387,0.9932615756988524
-0.1168272048234939,0.7190826535224915,-0.2360127866268158,-0.9220688939094543,1.0141834020614624,-0.0965165346860885,0.0,0.0,-0.5394928455352783,0.9962793588638306
-0.1191880255937576,0.6978818774223328,-0.2322799414396286,-0.9382072687149048,1.0071042776107788,-0.1415832787752151,0.0,0.0,-0.6641321182250977,0.9930535554885864
-0.1215317696332931,0.6762816309928894,-0.2294136732816696,-0.9548376202583312,0.998018205165863,-0.1817198395729065,0.0,0.0,-0.6825297474861145,0.9972636699676514
-0.1238669380545616,0.6542571783065796,-0.2277114391326904,,0.9875073432922364,-0.2102168053388595,0.0,0.0,-0.6063674092292786,0.9975597858428956
-0.1261748373508453,0.6318196058273315,-0.2238150089979171,-0.9902666211128236,0.9751033782958984,-0.2480794489383697,0.0,0.0,-0.4378772974014282,0.9989125728607178
-0.1284733712673187,0.6089518070220947,-0.2219781428575515,-1.0087072849273682,0.9613720178604126,-0.2746274769306183,0.0,0.0,-0.6511297225952148,0.999519109725952
-0.1307415962219238,0.5856838822364807,-0.2175051718950271,-1.025359034538269,0.9454560279846193,-0.3183199763298034,0.0,0.0,-0.4976783990859985,0.9993033409118652
-0.1329884529113769,0.5620020627975464,-0.2140634953975677,-1.0428798198699951,0.9277408719062804,-0.3543026447296142,0.0,0.0,-0.0087330341339111,0.998924970626831
-0.1352095603942871,0.537898063659668,-0.2101568877696991,-1.0608539581298828,0.908307671546936,-0.3886643946170807,0.0,0.0,-0.070279836654663,0.9941773414611816
-0.1374184638261795,0.5133556723594666,-0.2078748643398285,-1.0798612833023071,0.8876611590385437,-0.4129307270050049,0.0,0.0,0.5124439001083374,0.987556219100952
-0.1402043402194976,0.4891661405563354,-0.2641382217407226,-1.0634901523590088,0.8653380274772644,-0.4464629292488098,0.0,0.0,-0.0247692465782165,0.9384807348251344
-0.1429567337036132,0.4645536839962005,-0.2591942548751831,-1.0815869569778442,0.8411932587623596,-0.4828948378562927,0.0,0.0,0.3627760410308838,0.9780819416046144
-0.1461986601352691,0.4402567148208618,-0.3065404295921325,-1.0670109987258911,0.8153974413871765,-0.5159159898757935,0.0,0.0,0.1911982297897339,0.9517641067504884
-0.1497171372175216,0.4157935380935669,-0.3326191306114197,-1.0739699602127075,0.7880647778511047,-0.5466538667678833,0.0,0.0,-0.0783748626708984,0.962959051132202
-0.1532195061445236,0.3908927738666534,-0.3295436501502991,-1.0931808948516846,0.7594684958457947,-0.5719258785247803,0.0,0.0,0.3200680017471313,0.6113276481628418
-0.1570372581481933,0.3661038875579834,-0.359944224357605,-1.0882729291915894,0.730120062828064,-0.5869695544242859,0.0,0.0,-0.0417345166206359,0.6650753021240234
-0.1608544290065765,0.3408546447753906,-0.3588283658027649,-1.108898043632507,0.7001616954803467,-0.5991678237915039,0.0,0.0,0.8070826530456543,-0.1647196412086486
-0.1650425940752029,0.31590136885643,-0.3960828483104706,-1.096593976020813,0.6711311340332031,-0.5806111097335815,0.0,0.0,0.232358694076538,-0.4868290424346924
-0.1694567650556564,0.2907607555389404,-0.4185027182102203,-1.1055432558059692,0.6425303220748901,-0.5720161199569702,0.0,0.0,0.4055608510971069,-0.6539566516876221
-0.1740476638078689,0.2654509544372558,-0.4373900294303894,-1.1143174171447754,0.6160076260566711,-0.5304542779922485,0.0,0.0,-0.1252706050872802,-0.800570547580719
-0.1787119805812835,0.2395692616701126,-0.4462968707084656,-1.141013741493225,0.5918459296226501,-0.483233630657196,0.0,0.0,-0.2154337167739868,-0.9346165060997008
-0.1834629029035568,0.213122546672821,-0.4567867815494537,-1.1673754453659058,0.5702213048934937,-0.4324924349784851,0.0,0.0,-0.0454243421554565,-0.9750218987464904
-999.0,0.1861192733049392,-0.4665473401546478,-1.1931957006454468,0.5508903861045837,-0.386618435382843,0.0,0.0,-0.1064740419387817,-0.9862244725227356
-0.1932272017002105,0.1585399508476257,-0.4791156351566314,-1.2200320959091189,0.5345244407653809,-0.3273188173770904,0.0,0.0,-0.4213300943374634,-0.9926576614379884
-0.1982573568820953,0.1303659528493881,-0.4913722574710846,-1.24764084815979,0.5212094187736511,-0.2663007974624634,0.0,0.0,-0.6123372912406921,-0.9936677813529968
-0.2033725678920745,0.1016304790973663,-0.501911997795105,-1.2734941244125366,0.5103023648262024,-0.2181406468153,0.0,0.0,-0.3206255435943603,-0.992579996585846
-0.2085854560136795,0.0723127201199531,-0.5141886472702026,-1.300382375717163,0.502289354801178,-0.1602604687213897,0.0,1.0,0.9577475786209106,0.999083399772644
-0.2072555124759674,0.0634660124778747,0.0678279548883438,-0.4269804656505584,0.5460817217826843,0.8279409408569336,0.0,1.0,0.993962287902832,0.9891365766525269
-0.2065096795558929,0.0556765161454677,0.0555802211165428,-0.3540837168693542,0.5684196352958679,0.4470689296722412,0.0,1.0,0.9812171459197998,0.9789471626281738
-0.2058857977390289,0.0491462312638759,0.0592384748160839,-0.2915635406970978,0.5719187259674072,0.0697515532374382,0.0,1.0,0.9572185277938844,0.9922213554382324
-0.2049848586320877,0.0448788739740848,0.1227879077196121,-0.1762012094259262,0.5337919592857361,-0.7627823352813721,0.0,1.0,0.4148269891738891,0.7184059619903564
-0.2040297091007232,0.0413339249789714,0.1421075761318206,-0.1402273178100586,0.4810754656791687,-1.0543878078460691,0.0,1.0,-0.6326332688331604,-0.796484649181366
-0.2030656784772873,0.037631832063198,0.1498979479074478,-0.1471614390611648,0.4222708344459533,-1.1761722564697266,0.0,1.0,-0.6813839077949524,-0.6727055311203003
-0.202129989862442,0.0335140340030193,0.1491657644510269,-0.1675978451967239,0.3627621829509735,-1.1902596950531006,0.0,1.0,-0.4219456315040588,-0.9643507599830629
-0.2012594640254974,0.0288617238402366,0.1409365683794021,-0.1942243129014969,0.3063798546791076,-1.127691388130188,0.0,0.0,0.9917495250701904,-0.9985706210136414
-0.2007259428501129,0.0250314567238092,0.105687640607357,-0.1601727306842804,0.2525836825370788,-1.0759657621383667,0.0,0.0,0.8287725448608398,-0.9850035905838012
-0.2003250569105148,0.0218261107802391,0.0904699191451072,-0.1346519589424133,0.2014888972043991,-1.0219359397888184,0.0,0.0,-0.4127563238143921,-0.9989125728607178
-0.2000074386596679,0.0181074235588312,0.0806107521057128,-0.1594137102365493,0.1524623930454254,-0.9805684089660645,0.0,0.0,-0.1831012964248657,-0.991012454032898
-0.1997921019792556,0.0138798328116536,0.0682127624750137,-0.1838112324476242,0.1059584692120552,-0.93011474609375,0.0,0.0,0.1635760068893432,-0.992524027824402
-0.19966621696949,0.0100792506709694,0.0571036823093891,-0.1663856655359268,0.0618276186287403,-0.8826514482498169,0.0,0.0,0.4076497554779053,-0.9876161217689514
-0.1996866166591644,0.0065017556771636,0.0402652099728584,-0.1578161269426345,0.0199987646192312,-0.8366094827651978,0.0,0.0,0.2556767463684082,-0.9189435839653016
-0.1999163627624511,0.0033378219231963,0.0172710381448268,-0.140586718916893,-0.0197475906461477,-0.7949578762054443,0.0,0.0,0.3688187599182129,-0.6730413436889648
-0.2001215517520904,0.0005450701573863,0.0178458783775568,-0.1250871866941452,-0.0576654709875583,-0.7583872079849243,1.0,0.0,0.7606439590454102,-0.5960080623626709
-0.2003143280744552,-0.0009234571480192,0.0029416526667773,-0.0667039230465889,-0.0775450021028518,-0.3948771357536316,1.0,0.0,-0.2631000280380249,0.1852471828460693
-0.2003613412380218,-0.0022595906630158,-0.0035215348470956,-0.0594517849385738,-0.0786762908101081,-0.0225711055099964,1.0,0.0,0.6813950538635254,0.3205878734588623
-0.2002778053283691,-0.002776970854029,-0.0071889096871018,-0.0222617592662572,-0.0632379725575447,0.3088375329971313,1.0,0.0,0.8835299015045166,0.6404381990432739
-0.2001854479312896,-0.0024824643041938,-0.0131200682371854,0.0138729028403759,-0.0410866998136043,0.4430845379829407,1.0,0.0,0.4480952024459839,0.9987101554870604
-0.2001488208770752,-0.0020104669965803,-0.0165701322257518,0.0213942863047122,-0.0210438780486583,0.4009239077568054,1.0,0.0,0.5010184049606323,0.9885299205780028
-0.1999294310808181,-0.0011079215910285,0.0046031158417463,0.0402597934007644,-0.0039076549001038,0.3427570164203644,1.0,0.0,0.5782558917999268,0.9747319221496582
-0.1995660811662674,-0.0002025508874794,0.0208427142351865,0.0402001738548278,0.0114044649526476,0.3062719106674194,0.0,0.0,-0.826503336429596,0.9895880222320556
-0.1991467475891113,0.0003220176731701,0.0331413522362709,0.0232208631932735,0.0200646221637725,0.1731750220060348,0.0,1.0,-0.9369259476661682,0.9162800312042236
-0.1986976563930511,0.0005184268811717,0.0442147627472877,0.0087185846641659,0.0207278933376073,0.0132435960695147,0.0,1.0,-0.9209945797920228,0.5288755893707275
-0.1982396095991134,0.0003566718078218,0.0526067838072776,-0.007109872996807,0.0140099134296178,-0.1343753933906555,0.0,1.0,-0.5312479138374329,0.106319785118103
-0.1978078782558441,-0.0001983666443265,0.0543465539813041,-0.0246006436645984,0.0029545831494033,-0.2211237400770187,0.0,1.0,-0.2953616976737976,0.2861959934234619
-0.1973950415849685,-0.0011802338995039,0.0556398518383502,-0.0436762683093547,-0.0112258354201912,-0.2836272120475769,0.0,1.0,-0.2628248333930969,0.0241438150405883
-0.1969324052333831,-0.0020365738309919,0.0508617758750915,-0.0381313376128673,-0.0156588219106197,-0.0885295569896698,1.0,1.0,-0.5648866891860962,-0.6057164669036865
-0.1964641511440277,-0.0025554918684065,0.0435158833861351,-0.0230533108115196,-0.0123329451307654,0.0665967017412185,1.0,1.0,-0.4562491178512573,-0.5747981071472168
-0.1960446387529373,-0.0026011967565864,0.0365026630461216,-0.0020116993691772,-0.0069072097539901,0.1085680946707725,1.0,1.0,-0.7669047713279724,-0.5147589445114136
-0.1956952065229416,-0.0021354937925934,0.0313715115189552,0.0207017082720994,-0.0033609103411436,0.070969745516777,1.0,1.0,-0.6275272965431213,-0.4161745309829712
-0.1953125,-0.0012262249365448,0.0371779575943946,0.0404093004763126,-0.002255737548694,0.0221279561519622,1.0,1.0,-0.5494044423103333,-0.1820877194404602
-0.1949520111083984,-0.0002879881940316,0.0432481169700622,0.0416647642850875,-0.0093401782214641,-0.1416493952274322,1.0,1.0,-0.7161978483200073,-0.3872992992401123
-0.1945386826992035,0.0006468152860179,0.0485418438911438,0.0414770431816577,-0.0164282321929931,-0.1417263001203537,1.0,1.0,-0.4378973841667175,-0.3592535853385925
-0.1940986663103103,0.0014428591821342,0.0502583868801593,0.0352858453989028,-0.0225625913590192,-0.1226383820176124,1.0,1.0,-0.5516358017921448,-0.2945688962936401
-0.1936490088701248,0.0020260429009795,0.049520343542099,0.0258407704532146,-0.027047149837017,-0.0896709859371185,1.0,1.0,-0.5684318542480469,-0.3819202184677124
-0.1931889504194259,0.0023731922265142,0.0487721040844917,0.0153734656050801,-0.0297691542655229,-0.0544214434921741,1.0,1.0,-0.6291370987892151,-0.3118903040885925
