x_pos,y_pos,x_vel,y_vel,angle,ang_vel,leg_1,leg_2,main_booster,lat_booster
-0.0015314102638512,1.403250813484192,-0.1547453254461288,-0.3408630788326263,0.0014335762243717,0.0282542761415243,0.0,0.0,-0.978237826453457,-0.7985881685126871
-0.0031280517578125,1.3952267169952393,-0.1621856838464737,-0.3566276133060455,0.0039297053590416,0.0499280057847499,0.0,0.0,0.702616378301538,-0.6224980877638042
-0.0046342848800122,1.387449026107788,-0.1544357538223266,-0.3456869423389435,0.0077004563063383,0.0754218026995658,0.0,0.0,0.8127511114619244,-0.7590719249612725
-0.0063542365096509,1.3801151514053345,-0.1766441911458969,-0.3259825110435486,0.0122964410111308,0.0919282883405685,0.0,0.0,-0.5023033060540305,-0.6908438118874073
-0.0081240655854344,1.3724089860916138,-0.1823710501194,-0.3425481021404266,0.0176220573484897,0.1065220236778259,0.0,0.0,-0.915067839042268,0.7331729061270511
-0.00983009301126,1.364330172538757,-0.1738357692956924,-0.3591014444828033,0.0208206176757812,0.0639770403504371,0.0,0.0,0.1184068779503972,0.9680636276834734
-0.0114929201081395,1.356465458869934,-0.1672231256961822,-0.3495506644248962,0.0217567160725593,0.0187233909964561,0.0,0.0,-0.3868726816086461,0.9093240163263194
-0.0130728725343942,1.3482325077056885,-0.1563160568475723,-0.3658873736858368,0.0201013647019863,-0.0331101790070533,0.0,0.0,-0.4066382155595707,-0.7759114221943259
-0.0147212985903024,1.339632272720337,-0.1644060313701629,-0.3822273015975952,0.0196688529103994,-0.0086508532986044,0.0,0.0,-0.7604719303332472,0.8090987237182055
-0.016312027350068,1.3306652307510376,-0.1566738486289978,-0.3985102772712707,0.0172893572598695,-0.0475940778851509,0.0,0.0,-0.5575134656743719,-0.6103225630602485
-0.0179497711360454,1.3213235139846802,-0.1620623171329498,-0.4151634275913238,0.0156037556007504,-0.0337150655686855,0.0,0.0,0.6065712033016406,0.7387471861447793
-0.0194669719785451,1.312380313873291,-0.1483531445264816,-0.3974491059780121,0.0122638419270515,-0.0668047294020652,0.0,0.0,-0.0408608066190427,0.784747109565041
-0.0209142677485942,1.3030686378479004,-0.139092281460762,-0.4138129353523254,0.006690306123346,-0.1114809513092041,0.0,0.0,-0.9955573468302488,0.9005350058371699
-0.022287368774414,1.293376326560974,-0.12930628657341,-0.4307538568973541,-0.0012135677970945,-0.1580917835235595,0.0,0.0,0.5504417248060121,0.7132680514321998
-0.0234622005373239,1.2844786643981934,-0.1080111116170883,-0.3954837620258331,-0.0105784023180603,-0.1873141378164291,0.0,0.0,0.7019523655476545,-0.9344215965561268
-0.0245857238769531,1.2756556272506714,-0.104604385793209,-0.3922092020511627,-0.0182337146252393,-0.153120070695877,0.0,0.0,0.6717350652075447,-0.9621298650969174
-0.0256166458129882,1.2677667140960691,-0.0971635803580284,-0.3507035374641418,-0.0240984391421079,-0.1173053830862045,0.0,0.0,0.8921722988221914,-0.681261638914048
-0.0265192985534667,0.0,-0.0858246460556984,-0.339152455329895,-0.0285018887370824,-0.0880768075585365,0.0,0.0,0.903651197936644,-0.6393536525348952
-0.0273300167173147,1.253524899482727,-0.0778863281011581,-0.293963223695755,-0.031649962067604,-0.0629673600196838,0.0,0.0,-0.0712914196384735,0.8924653702414316
-0.0280834194272756,1.246535301208496,-0.0702730938792228,-0.3107671737670898,-0.0366656780242919,-0.1003233566880226,0.0,0.0,0.0315870094670085,-0.6436322236013685
-0.0287835113704204,1.239878535270691,-0.0660015195608139,-0.2959544956684112,-0.0406290628015995,-0.0792746916413307,0.0,0.0,0.4550159161420046,0.873525681808998
-0.0293906219303607,1.2334227561950684,-0.0546332523226738,-0.2871036231517792,-0.0466429851949214,-0.1202891841530799,0.0,0.0,0.0526390435249068,-0.8881656956100715
-0.0299571044743061,1.2271103858947754,-0.0520370192825794,-0.280705988407135,-0.051209595054388,-0.0913402661681175,0.0,0.0,-0.4908913317525503,-0.8042482300760183
-0.0305829998105764,1.2204198837280271,-0.0590909123420715,-0.2974807024002075,-0.0546857044100761,-0.0695279911160469,0.0,0.0,0.083997052537927,0.9594636978579644
-0.0312237739562988,1.213994026184082,-0.0583400502800941,-0.2858086228370666,-0.060369998216629,-0.1136960610747337,0.0,0.0,-0.3881960023757964,0.8830980812289759
-0.0318150520324707,1.2071737051010132,-0.0517187900841236,-0.3034404814243316,-0.0676990821957588,-0.1465813219547271,0.0,0.0,0.5354360294678924,-0.8440857823775688
-0.0324256904423236,1.201002597808838,-0.0550482049584388,-0.2745575606822967,-0.0736513286828994,-0.1190448775887489,0.0,0.0,0.6013151846253832,-0.8649137400070651
-0.0331888198852539,1.195687174797058,-0.0715185105800628,-0.2364879101514816,-0.078397586941719,-0.094925083220005,0.0,0.0,-0.7877951676843455,-0.9286285187247972
-0.0340429320931434,1.1900166273117063,-0.0825921148061752,-0.2521770596504211,-0.0811933800578117,-0.0559155866503715,0.0,0.0,0.4837107193556649,0.621017915859715
-0.034835435450077,1.1846215724945068,-0.074830949306488,-0.2400234639644622,-0.0855681970715522,-0.0874963700771331,0.0,0.0,-0.6379410244176777,-0.9347619595637676
-0.0357007011771202,1.178873062133789,-0.0836424604058265,-0.255658745765686,-0.088427223265171,-0.057180643081665,0.0,0.0,0.7504486502230179,0.9879453052687152
-0.0365415588021278,1.1734411716461182,-0.0787930637598037,-0.2417348325252533,-0.093669980764389,-0.1048552021384239,0.0,0.0,0.1872735900333397,-0.6754136059061469
-0.0374493598937988,1.1685197353363037,-0.0864837244153022,-0.2190051227807998,-0.097934603691101,-0.0852921903133392,0.0,0.0,-0.3502046592147401,-0.9423440797116648
-0.0384414680302143,1.1632287502288818,-0.096728041768074,-0.235323965549469,-0.1003985255956649,-0.0492786392569541,0.0,0.0,-0.9353038008995904,0.791942149950396
-0.0393710136413574,1.1575562953948977,-0.0885665193200111,-0.2524042427539825,-0.1047503724694252,-0.0870370119810104,0.0,0.0,-0.6189988313276666,0.9242101028525056
-0.0402264595031738,1.1515060663223269,-0.0789971798658371,-0.2693717777729034,-0.1112579032778739,-0.1301505416631698,0.0,0.0,0.9757625415855464,0.751500090836875
-0.0409977920353412,1.1458868980407717,-0.068737044930458,-0.2503904700279236,-0.1195975914597511,-0.166793867945671,0.0,0.0,-0.3332322743227958,-0.6643903839275267
-0.0418187156319618,1.1399089097976685,-0.0747109428048133,-0.2662922441959381,-0.1269359141588211,-0.146766796708107,0.0,0.0,-0.9330878857568056,-0.7300671890435445
-0.042700957506895,1.1335780620574951,-0.082181379199028,-0.2819005846977234,-0.1329516321420669,-0.1203143969178199,0.0,0.0,0.3751158218977297,0.8101776655299451
-0.0434271804988384,1.1276098489761353,-0.064769871532917,-0.2659820318222046,-0.1407773494720459,-0.1565142124891281,0.0,0.0,-0.4141922001728675,-0.7755719176454491
-0.0442251190543174,1.1212902069091797,-0.0735659077763557,-0.2814646363258362,-0.1469893604516983,-0.1242403239011764,0.0,0.0,-0.9846872091293336,-0.7392735481262207
-0.0450700744986534,1.114606499671936,-0.079237200319767,-0.2975848615169525,-0.1522309929132461,-0.104832723736763,0.0,0.0,-0.6382737755775452,-0.8425782322883606
-0.0459718704223632,1.107553243637085,-0.0861517041921615,-0.313900351524353,-0.1562569290399551,-0.0805188566446304,0.0,0.0,-0.4984884262084961,0.1992225646972656
-0.046874426305294,1.1001267433166504,-0.0860407203435897,-0.330514907836914,-0.1604640632867813,-0.084142692387104,0.0,0.0,-0.2557787895202636,-0.6431384086608887
-0.0478319153189659,1.0923326015472412,-0.0927466973662376,-0.3467378616333008,-0.1634700000286102,-0.0601184666156768,0.0,0.0,-0.7223988175392151,0.4046018123626709
-0.0487899780273437,1.084165096282959,-0.0926480963826179,-0.3633515536785126,-0.1666318476200103,-0.0632370114326477,0.0,0.0,-0.3583999872207641,0.3356128931045532
-0.0497485175728797,1.0756243467330933,-0.0925574228167533,-0.379965215921402,-0.1699361205101013,-0.0660855025053024,0.0,0.0,-0.8330670595169067,0.173024296760559
-0.0507076270878315,1.0667102336883545,-0.0924757644534111,-0.3965787887573242,-0.1733687371015548,-0.0686527788639068,0.0,0.0,-0.9583486914634703,-0.2451242208480835
-0.0516670234501361,1.057422757148743,-0.0924042165279388,-0.4131922423839569,-0.1769151389598846,-0.07092797011137,0.0,0.0,-0.8265941739082336,-0.2199892401695251
-0.0526267997920513,1.0477619171142578,-0.0923438742756843,-0.4298055469989776,-0.1805601716041565,-0.0729007124900817,0.0,0.0,-0.9478484988212584,-0.2858792543411255
-0.0535868629813194,1.0377275943756104,-0.0922958105802536,-0.4464187324047088,-0.1842882186174392,-0.0745612904429435,0.0,0.0,-0.9529538154602052,-0.8023320436477661
-0.0546148307621479,1.0273444652557373,-0.1007784008979797,-0.461731344461441,-0.1863162964582443,-0.0405615083873271,0.0,0.0,-0.9949864745140076,0.0917656421661377
-0.055643081665039,1.016587495803833,-0.1007578372955322,-0.4783433079719543,-0.1883949041366577,-0.0415719449520111,0.0,0.0,-0.9645884037017822,-0.689867377281189
-0.0567239746451377,1.0054786205291748,-0.1073681339621543,-0.4938262403011322,-0.1891258358955383,-0.0146185411140322,0.0,0.0,-0.660697340965271,-0.029701292514801
-0.0578052513301372,0.9939959049224854,-0.1073793545365333,-0.5104373693466187,-0.1898733526468277,-0.0149507224559783,0.0,0.0,-0.7194308042526245,-0.70472651720047
-0.0589505210518837,0.9821545481681824,-0.1154111474752426,-0.5261649489402771,-0.1889832764863968,0.017801521345973,0.0,0.0,-0.9720601439476012,-0.3402817249298095
-0.0600960738956928,0.9699395895004272,-0.1154582723975181,-0.5427756905555725,-0.1880749464035034,0.0181662552058696,0.0,0.0,-0.8896277546882629,-0.5888470411300659
-0.0612769126892089,0.9573630690574646,-0.1199234873056411,-0.5587196350097656,-0.1862183064222335,0.0371328517794609,0.0,0.0,-0.9805734157562256,-0.0593894720077514
-0.0624579414725303,0.9444128274917604,-0.1200103312730789,-0.5753298997879028,-0.1843082010746002,0.0382022783160209,0.0,0.0,-0.9744689464569092,-0.6890570521354675
-0.0636988654732704,0.9311115145683287,-0.1276235282421112,-0.5907353162765503,-0.1807659417390823,0.0708450973033905,0.0,0.0,-0.9612781405448914,0.2307169437408447
-0.064940258860588,0.9174363613128662,-0.1277538686990738,-0.6073458194732666,-0.1771351546049118,0.0726156458258628,0.0,0.0,-0.9966793656349182,-0.0120973587036132
-0.0661820396780967,0.903387486934662,-0.1279070973396301,-0.6239560842514038,-0.1733985543251037,0.0747318863868713,0.0,0.0,-0.9767650961875916,0.1596057415008545
-0.0674243941903114,0.8889647722244263,-0.1280840188264846,-0.6405662298202515,-0.1695391237735748,0.0771887153387069,0.0,0.0,-0.8229696154594421,0.6858043670654297
-0.0686116218566894,0.874154806137085,-0.1212976798415184,-0.6579278111457825,-0.1669673323631286,0.0514353886246681,0.0,0.0,-0.8660016655921936,0.1798608303070068
-0.0697997063398361,0.8589709401130676,-0.121523916721344,-0.6745370030403137,-0.1642396748065948,0.0545530393719673,0.0,0.0,-0.8892794251441956,-0.1859709620475769
-0.0709884613752365,0.8434129953384399,-0.1217759400606155,-0.6911461353302002,-0.1613402366638183,0.0579888336360454,0.0,0.0,-0.9564217329025269,-0.4348387718200683
-0.0721780806779861,0.8274810910224915,-0.122054323554039,-0.7077551484107971,-0.1582535803318023,0.0617330484092235,0.0,0.0,-0.7791763544082642,-0.2556363344192505
-0.0733687430620193,0.8111751079559326,-0.1223596483469009,-0.7243641018867493,-0.1549648344516754,0.0657753199338913,0.0,0.0,-0.6756527423858643,-0.2061282396316528
-0.0745605453848838,0.7944950461387634,-0.1226924285292625,-0.7409730553627014,-0.1514596194028854,0.070104569196701,0.0,0.0,-0.7968493700027466,-0.1218236684799194
-0.0757535919547081,0.7774410843849182,-0.1230530738830566,-0.757581889629364,-0.1477241665124893,0.0747091323137283,0.0,0.0,-0.5368066430091858,-0.0994630455970764
-0.0769481658935546,0.7600128650665283,-0.123441994190216,-0.7741909623146057,-0.1437453180551529,0.0795770436525344,0.0,0.0,0.4379582405090332,0.0028789043426513
-0.0780402198433876,0.7430092692375183,-0.1135725528001785,-0.7553049325942993,-0.1393866389989853,0.0871734991669654,0.0,0.0,-0.2400489449501037,0.7160804271697998
-0.0790891647338867,0.7256301045417786,-0.1084091439843177,-0.7720794081687927,-0.1358812153339386,0.0701083987951278,0.0,0.0,0.6665194034576416,0.0477677583694458
-0.0799877196550369,0.7087274789810181,-0.0939925238490104,-0.7508508563041687,-0.1317537277936935,0.0825494527816772,0.0,0.0,-0.0270630121231079,0.3957358598709106
-0.0808882713317871,0.6914510130882263,-0.0944972932338714,-0.7674599289894104,-0.1273363530635833,0.0883470997214317,0.0,0.0,0.3911000490188598,0.695253849029541
-0.0816395729780197,0.6741777658462524,-0.0785814076662063,-0.7674067616462708,-0.123902752995491,0.0686719641089439,0.0,0.0,0.2254567146301269,0.221975564956665
-0.0823855400085449,0.6569096446037292,-0.0782494619488716,-0.767175555229187,-0.1202681064605712,0.0726929754018783,0.0,0.0,0.7132554054260254,-0.0460165143013
-0.0830440521240234,0.6404938101768494,-0.069792054593563,-0.7292786836624146,-0.1163551956415176,0.0782582461833953,0.0,0.0,-0.1789323091506958,0.570650577545166
-0.0836543068289756,0.6237005591392517,-0.0639936551451683,-0.7461329102516174,-0.1134033948183059,0.0590359754860401,0.0,0.0,0.5586555004119873,0.5053126811981201
-0.0842528343200683,0.6076999306678772,-0.0618478432297706,-0.7109882831573486,-0.1114251390099525,0.0395653285086154,0.0,0.0,-0.1123647689819336,0.4154711961746216
-0.0848547965288162,0.5913251638412476,-0.0625281333923339,-0.7275963425636292,-0.109105035662651,0.0464017838239669,0.0,0.0,0.6352894306182861,-0.0263859033584594
-0.0853354483842849,0.575736403465271,-0.0509315319359302,-0.6926286816596985,-0.1062516123056411,0.0570683851838111,0.0,0.0,-0.0528236627578735,-0.1170899271965026
-0.0858198180794715,0.5597733855247498,-0.0516691803932189,-0.7092371582984924,-0.1030432283878326,0.0641677230596542,0.0,0.0,0.7056639194488525,0.1997106075286865
-0.0862924605607986,0.5444892048835754,-0.0506004393100738,-0.6790716052055359,-0.0997357666492462,0.0661492943763732,0.0,0.0,0.6772564649581909,0.3230953216552734
-0.0867107361555099,0.5298923850059509,-0.0454748980700969,-0.6485121250152588,-0.096118114888668,0.0723529160022735,0.0,0.0,-0.7571582198143005,0.4425270557403564
-0.0871334075927734,0.5149214267730713,-0.0462959632277488,-0.6651210784912109,-0.0921290591359138,0.0797812789678573,0.0,0.0,0.2510621547698974,0.7791745662689209
-0.0874557495117187,0.4999446868896484,-0.0350938960909843,-0.6654612421989441,-0.0892974212765693,0.0566329360008239,0.0,0.0,0.3331748247146606,0.4680548906326294
-0.0876794829964637,0.4850692749023437,-0.0259630680084228,-0.660919725894928,-0.0857389941811561,0.0711685046553611,0.0,0.0,0.3096451759338379,0.5180301666259766
-0.0877024680376052,0.4704747200012207,-0.0055332668125629,-0.6484680771827698,-0.0825408995151519,0.0639620274305343,0.0,0.0,0.7062238454818726,-0.0101977586746215
-0.087553784251213,0.4560971260070801,0.010576075874269,-0.6387702226638794,-0.0782885327935218,0.0850472375750541,0.0,0.0,0.1353999376296997,0.2803683280944824
-0.0873741135001182,0.4421183168888092,0.013295279815793,-0.6210467219352722,-0.0736624523997306,0.0925218164920806,0.0,0.0,0.6142559051513672,0.5750899314880371
-0.0870675072073936,0.4288699328899383,0.0266610737890005,-0.5886229872703552,-0.069704532623291,0.0791586190462112,0.0,0.0,-0.1889510154724121,0.6873574256896973
-0.0867011994123458,0.41524338722229,0.0338925421237945,-0.6055009365081787,-0.0669997110962867,0.0540964715182781,0.0,0.0,0.3481279611587524,-0.2833918929100036
-0.0862410515546798,0.4016332626342773,0.0424830093979835,-0.6047421097755432,-0.0635135620832443,0.0697231441736221,0.0,0.0,0.7107808589935303,-0.3447577953338623
-0.0858081802725792,0.3884437382221222,0.0396137200295925,-0.5860490798950195,-0.0598758980631828,0.0727532356977462,0.0,0.0,-0.1509590744972229,0.1982306241989135
-0.0853817909955978,0.3748803436756134,0.0385502316057682,-0.6026589870452881,-0.0558327324688434,0.0808631479740142,0.0,0.0,0.7520076036453247,-0.4110684990882873
-0.0849531143903732,0.3618491888046264,0.0384830720722675,-0.5790083408355713,-0.0514962971210479,0.0867284685373306,0.0,0.0,0.327155590057373,0.5540037155151367
-0.0845632553100586,0.3494114577770233,0.0355315431952476,-0.5526717901229858,-0.0480863936245441,0.0681983977556228,0.0,0.0,0.6114808320999146,0.7712646722793579
-0.0839930549263954,0.3376124501228332,0.0545333437621593,-0.5243236422538757,-0.0456280931830406,0.0491657294332981,0.0,0.0,0.3800086975097656,0.6686818599700928
-0.0833978652954101,0.3263831436634063,0.0580529384315013,-0.4990368187427521,-0.0441749207675457,0.0290631912648677,0.0,0.0,-0.239583134651184,-0.1423506736755371
-0.0828100219368934,0.3147799074649811,0.0568941012024879,-0.5156462788581848,-0.0423070937395095,0.0373564660549163,0.0,0.0,0.1653852462768554,0.2884893417358398
-0.0822323784232139,0.3033301830291748,0.0555343404412269,-0.508812427520752,-0.0401043444871902,0.0440550483763217,0.0,0.0,0.098192811012268,0.8018794059753418
-0.081672765314579,0.2921081781387329,0.0549781844019889,-0.4987314939498901,-0.0391290485858917,0.0195057187229394,0.0,0.0,0.4538224935531616,0.3976943492889404
-0.0812352150678634,0.2812107503414154,0.0429639294743537,-0.4843098819255829,-0.0383477434515953,0.0156262814998626,0.0,0.0,0.0846143960952758,0.7601433992385864
-0.0806471854448318,0.2706429064273834,0.0590562894940376,-0.4696881473064422,-0.038602702319622,-0.0050988728180527,0.0,0.0,0.1776503324508667,0.2340044975280761
-0.0800134688615799,0.2600928246974945,0.0630012527108192,-0.468884140253067,-0.0382347255945205,0.0073595703579485,0.0,0.0,-0.0558987855911254,-0.4190326929092407
-0.0793879479169845,0.2491687089204788,0.0617521815001964,-0.4854936599731445,-0.0374451875686645,0.015790656208992,0.0,0.0,0.3337234258651733,0.0641767978668212
-0.0787656754255294,0.2388108074665069,0.0610787644982337,-0.4603244364261627,-0.0363187342882156,0.0225293114781379,0.0,0.0,0.2980225086212158,-0.508837103843689
-0.0780461281538009,0.229086771607399,0.0690850466489791,-0.432109922170639,-0.0334774777293205,0.0568248815834522,0.0,0.0,-0.3556545376777649,-0.2359551191329956
-0.0773350745439529,0.2189889997243881,0.0678004175424575,-0.448720246553421,-0.0302124638110399,0.0653004422783851,0.0,0.0,-0.163505733013153,0.1890540122985839
-0.0766325965523719,0.2085175067186355,0.0665052905678749,-0.4653309285640716,-0.0265230666846036,0.0737878531217575,0.0,0.0,0.5075621604919434,0.5472838878631592
-0.0758167281746864,0.1987505555152893,0.0783713459968566,-0.43403360247612,-0.0233504232019186,0.0634529963135719,0.0,0.0,-0.1589246988296508,-0.2210623025894165
-0.0750097259879112,0.1886098682880401,0.0770572423934936,-0.4506445229053497,-0.0197524018585681,0.0719601809978485,0.0,0.0,0.3813344240188598,-0.1401009559631347
-0.0743036270141601,0.1788738071918487,0.0670117735862732,-0.4326700568199157,-0.0162016954272985,0.0710142329335212,0.0,0.0,0.2549785375595093,-0.1964278817176818
-0.0736977607011795,0.1693529039621353,0.0570233650505542,-0.423116534948349,-0.0126759149134159,0.0705154165625572,0.0,0.0,0.1955912113189697,0.2298637628555297
-0.0731111541390419,0.1600705981254577,0.0547186620533466,-0.412521094083786,-0.008795877918601,0.0776009708642959,0.0,0.0,-0.1601719856262207,0.8430643081665039
-0.0724642723798751,0.1504121422767639,0.0621053986251354,-0.4292532205581665,-0.006238117814064,0.0511552691459655,0.0,0.0,0.4142600297927856,0.0942004919052124
-0.071712777018547,0.1408406645059585,0.0716032236814498,-0.4253876805305481,-0.0027364622801542,0.0700332075357437,0.0,0.0,0.740423321723938,-0.0165760517120361
-0.0708658248186111,0.1319757103919983,0.0802332758903503,-0.3939964473247528,0.0016670359764248,0.0880697816610336,0.0,0.0,0.2986241579055786,-0.0937982201576232
-0.0700095146894455,0.1236883997917175,0.0806463807821273,-0.3683377802371979,0.0065885833464562,0.0984309166669845,0.0,0.0,-0.3260122537612915,-0.6393110752105713
