x_pos,y_pos,x_vel,y_vel,angle,ang_vel,leg_1,leg_2,main_booster,lat_booster
-0.0016432761913165,1.4031260013580322,-0.1665868163108825,-0.3464002311229706,0.0020209997892379,0.0398852154612541,0.0,0.0,0.4048361161628226,-0.5179523627204055
-0.0034011839888989,1.3954427242279053,-0.179114431142807,-0.3414860665798187,0.0053191459737718,0.0659697577357292,0.0,0.0,0.2051221230540263,-0.6137903388365136
-0.0052213668823242,1.3876988887786863,-0.1869689673185348,-0.3442013561725616,0.0102183893322944,0.0979939252138137,0.0,0.0,-0.274332213144707,-0.5075681529086316
-0.0072098732925951,1.379454493522644,-0.2052343338727951,-0.3664718866348266,0.016517836600542,0.1260009258985519,0.0,0.0,0.0577633531864352,-0.9916936047686192
-0.0093049053102731,1.3713425397872925,-0.2180497199296951,-0.3606533110141754,0.0249632000923156,0.1689233183860778,0.0,0.0,-0.0512049115582615,-0.8548583707674926
-0.0115728378295898,1.3627300262451172,-0.2368625849485397,-0.3829764723777771,0.0349318347871303,0.1993907988071441,0.0,0.0,0.1935086021654679,0.8941277391743152
-0.0139245986938476,1.3542485237121582,-0.2436789572238922,-0.3771747350692749,0.0433427318930625,0.1682331413030624,0.0,0.0,-0.492452056678897,0.9408939158108534
-0.0163047797977924,1.345278263092041,-0.2443948984146118,-0.3988791406154632,0.0496618598699569,0.1263942420482635,0.0,0.0,0.3318871683637574,0.8213586963247343
-0.0187853816896677,1.3368338346481323,-0.2530284821987152,-0.3754822313785553,0.0545792058110237,0.0983559191226959,0.0,0.0,0.8962298318536099,0.5980444845252717
-0.0213855747133493,1.3291475772857666,-0.2640343308448791,-0.3417681157588959,0.0585557892918586,0.0795387104153633,0.0,0.0,0.1661341441507735,0.6581639088933027
-0.0240101814270019,1.3216023445129397,-0.2655126452445984,-0.3354644477367401,0.0615841671824455,0.0605730004608631,0.0,0.0,0.3954556290415669,-0.6419073990007875
-0.0267664901912212,1.3142273426055908,-0.2803667187690735,-0.327983021736145,0.0662814900279045,0.0939549878239631,0.0,0.0,-0.554860101973808,0.5060082560537175
-0.0295935627073049,1.3063616752624512,-0.2864764928817749,-0.3497556149959564,0.0700230747461319,0.0748384743928909,0.0,0.0,0.2167460245472907,-0.6558388852954271
-0.0325520522892475,1.298384189605713,-0.3013073205947876,-0.3548244535923004,0.0754327327013015,0.1082028150558471,0.0,0.0,0.9552329879152052,0.8063845755483561
-0.0354578979313373,1.291404128074646,-0.2951120734214782,-0.3104607462882995,0.0799262225627899,0.0898779332637786,0.0,0.0,0.4505095882567567,0.6635395391219003
-0.0383440032601356,1.2843273878097534,-0.2923102974891662,-0.3147252798080444,0.0835986733436584,0.0734557062387466,0.0,0.0,0.9490546593419452,-0.749155460800197
-0.0413151755928993,1.278284788131714,-0.3030289113521576,-0.2689013481140136,0.0894669964909553,0.1173770278692245,0.0,0.0,0.1640706242537957,0.646831144515086
-0.044262982904911,1.2721551656723022,-0.2998561263084411,-0.272739827632904,0.0945051163434982,0.1007717624306678,0.0,0.0,-0.6228958797928634,0.5252814187115942
-0.0472786910831928,1.2655396461486816,-0.3057106733322143,-0.2942924201488495,0.0986213460564613,0.0823320895433425,0.0,0.0,-0.9217928461107509,-0.6598348724148373
-0.0504677779972553,1.2584173679351809,-0.3248459696769714,-0.3169462084770202,0.1045233905315399,0.1180513724684715,0.0,0.0,-0.3975489435516086,-0.8232675157939218
-0.0538220405578613,1.250795602798462,-0.3429624438285827,-0.3392843306064605,0.1120129227638244,0.1498041749000549,0.0,0.0,-0.6887280136968008,0.5130572844749157
-0.0572479255497455,1.2426807880401611,-0.3493684232234955,-0.3611850142478943,0.1187603920698165,0.1349615454673767,0.0,0.0,0.417829844345231,-0.5078389037486294
-0.0607614517211914,1.2347780466079712,-0.3597553968429565,-0.351916491985321,0.1271228641271591,0.1672642678022384,0.0,0.0,-0.0818962367020428,0.6732356635102679
-0.0643261894583702,1.2263818979263306,-0.3636600077152252,-0.3737827837467193,0.1342901140451431,0.1433576047420501,0.0,0.0,-0.932798637934612,0.8105864435923319
-0.0679520592093467,1.2175006866455078,-0.3688216805458069,-0.3952918648719787,0.1405229568481445,0.1246677488088607,0.0,0.0,-0.8328554994953341,-0.9434448253728844
-0.0717759132385253,1.2080868482589722,-0.3912879228591919,-0.4192610383033752,0.1493996232748031,0.1775330007076263,0.0,0.0,-0.7626686677097758,-0.7717141874699854
-0.0757666602730751,1.1981676816940308,-0.4098002016544342,-0.4419632852077484,0.1601110100746154,0.2142276465892791,0.0,0.0,0.5315106266481555,0.7284272136969785
-0.0800602883100509,1.1888744831085205,-0.4386569559574127,-0.4140676259994507,0.1694180220365524,0.1861399263143539,0.0,0.0,0.4963257285677016,0.7385507753376079
-0.084647461771965,1.1801092624664309,-0.4665983617305755,-0.3904797732830047,0.1773160248994827,0.1579603850841522,0.0,0.0,-0.2393535159055091,-0.6913642309839925
-0.089391328394413,1.1708301305770874,-0.4839860796928406,-0.4135869443416595,0.18694868683815,0.192652627825737,0.0,0.0,-0.0441864926489139,0.8584417376493331
-0.0941673293709755,1.1610833406448364,-0.4856942594051361,-0.4342349767684936,0.1950947344303131,0.1629210114479065,0.0,0.0,-0.3455349206924438,0.998032808303833
-0.0989724174141883,1.1508538722991943,-0.4871681332588196,-0.455531507730484,0.2017925977706909,0.1339573562145233,0.0,0.0,-0.5095497369766235,0.989263653755188
-0.1038079261779785,1.140156865119934,-0.488776832818985,-0.4761504232883453,0.207058385014534,0.1053154096007347,0.0,0.0,0.002659797668457,0.9980669021606444
-0.1087488159537315,1.1292846202850342,-0.4976383149623871,-0.4837096929550171,0.2106438875198364,0.0717102214694023,0.0,0.0,-0.3324612379074096,0.997136116027832
-0.1137010604143142,1.117942452430725,-0.4970150589942932,-0.5043553709983826,0.2124505341053009,0.0361329764127731,0.0,0.0,0.0438745021820068,0.997727870941162
-0.1187520027160644,1.106839895248413,-0.5051649808883667,-0.4934516549110412,0.2125151008367538,0.0012912960955873,0.0,0.0,0.2960083484649658,0.9934141635894777
-0.1239089965820312,1.0957759618759155,-0.5140483975410461,-0.491499125957489,0.2108503878116607,-0.0332938991487026,0.0,0.0,-0.2160311341285705,0.9977864027023317
-0.1290667504072189,1.084248185157776,-0.5122702121734619,-0.5118477940559387,0.2073148041963577,-0.0707118958234787,0.0,0.0,0.2063230276107788,0.983411192893982
-0.1343880593776703,1.0731505155563354,-0.5269165635108948,-0.4925114512443542,0.2020534425973892,-0.1052269116044044,0.0,0.0,0.059971809387207,0.996307611465454
-0.1397643089294433,1.0621602535247805,-0.5306574106216431,-0.4875225126743316,0.1950365751981735,-0.1403374373912811,0.0,0.0,0.1166969537734985,0.991030216217041
-0.1453226059675216,1.0514533519744873,-0.5471386313438416,-0.4747363626956939,0.1862944215536117,-0.1748431921005249,0.0,0.0,0.4768043756484985,0.9954750537872314
-0.150833323597908,1.040994644165039,-0.5407190918922424,-0.4635666310787201,0.1759025305509567,-0.2078378945589065,0.0,0.0,0.3270971775054931,0.9977397918701172
-0.1562834680080413,1.0304454565048218,-0.5329180955886841,-0.4674640893936157,0.1637943983078003,-0.2421627938747406,0.0,0.0,0.1509971618652343,0.9954981803894044
-0.161694049835205,1.0199830532073977,-0.5271756052970886,-0.4635246396064758,0.1499167531728744,-0.2775530219078064,0.0,0.0,-0.0511001348495483,0.9795501232147216
-0.1670869886875152,1.0090303421020508,-0.5237828493118286,-0.4852986335754394,0.1344423592090606,-0.3094880580902099,0.0,0.0,-0.7521185874938965,0.9890737533569336
-0.1724460572004318,0.9975902438163756,-0.5184376835823059,-0.5069684386253357,0.1170622557401657,-0.3476019501686096,0.0,0.0,-0.8435527682304382,0.9806814193725586
-0.1777653694152832,0.9856662154197692,-0.512473464012146,-0.5285453200340271,0.0977372527122497,-0.3865001797676086,0.0,0.0,-0.9104474782943726,0.9689044952392578
-0.1830639839172363,0.9732689261436462,-0.5089706182479858,-0.549756646156311,0.0770373195409774,-0.4139985144138336,0.0,0.0,-0.8686459064483643,0.9839146137237548
-0.18833789229393,0.9603952169418336,-0.5051096677780151,-0.5711658000946045,0.0549981519579887,-0.4407837390899658,0.0,0.0,-0.8722952604293823,0.959248423576355
-0.1935684233903885,0.9470336437225342,-0.499067485332489,-0.5931411385536194,0.0312996059656143,-0.4739710390567779,0.0,0.0,-0.8334402441978455,0.9868220090866088
-0.1987263709306717,0.933186173439026,-0.4895229339599609,-0.6150951981544495,0.005343425553292,-0.5191237330436707,0.0,0.0,-0.8607858419418335,0.9958109855651855
-0.2038317173719406,0.9188572764396667,-0.4825900197029114,-0.6369725465774536,-0.022240525111556,-0.5516791343688965,0.0,0.0,-0.7780440449714661,0.9894249439239502
-0.2088570594787597,0.9040323495864868,-0.4724125266075134,-0.6596009731292725,-0.0519963502883911,-0.5951167941093445,0.0,0.0,-0.7306154370307922,0.994681715965271
-0.2138093411922454,0.8887247443199158,-0.463286817073822,-0.6817590594291687,-0.083596646785736,-0.6320061683654785,0.0,0.0,-0.4435526132583618,0.9397927522659302
-0.2186693698167801,0.8729174137115479,-0.4519224166870117,-0.7047944664955139,-0.1173997819423675,-0.6760632991790771,0.0,0.0,0.5525020360946655,-0.0275505185127258
-0.2235601395368576,0.8573022484779358,-0.45484060049057,-0.6970527768135071,-0.1514944732189178,-0.6818943023681641,0.0,0.0,0.7714672088623047,0.6657564640045166
-0.2281484603881836,0.8424409627914429,-0.4238165915012359,-0.6644449234008789,-0.1865462511777877,-0.7010356783866882,0.0,0.0,0.6626996994018555,0.6252284049987793
-0.232394739985466,0.8280448317527771,-0.3890619874000549,-0.6446975469589233,-0.2223932743072509,-0.7169410586357117,0.0,0.0,0.896294116973877,0.5583332777023315
-0.2362735718488693,0.8145106434822083,-0.3518403172492981,-0.6073700785636902,-0.2590108513832092,-0.7323522567749023,0.0,0.0,0.8647410869598389,-0.8695538640022278
-0.2400490343570709,0.8018501996994019,-0.3434720635414123,-0.5690844058990479,-0.2939554452896118,-0.6988927125930786,0.0,0.0,0.3003666400909424,-0.949731707572937
-0.2437300235033035,0.7891287803649902,-0.3363165259361267,-0.5721570253372192,-0.3268842101097107,-0.6585754752159119,0.0,0.0,0.6752450466156006,-0.9801304936408995
-0.2473185062408447,0.7770289778709412,-0.3292481303215027,-0.5447645783424377,-0.3578815162181854,-0.6199460625648499,0.0,0.0,0.9127821922302246,-0.9899996519088744
-0.2505716383457184,0.7652379870414734,-0.2982398271560669,-0.5310599207878113,-0.3865547776222229,-0.57346510887146,0.0,0.0,0.9300141334533693,-0.9738346934318542
-0.2535413205623626,0.7539798617362976,-0.2721605896949768,-0.5073203444480896,-0.4131285846233368,-0.5314760208129883,0.0,0.0,0.9496846199035645,-0.8078076243400574
-0.2563106417655945,0.7429079413414001,-0.2539845705032348,-0.498997151851654,-0.4379849731922149,-0.4971280097961426,0.0,0.0,0.9306058883666992,-0.9677549600601196
-0.2589345574378967,0.7324331998825073,-0.241323322057724,-0.4722957909107208,-0.461059421300888,-0.4614890515804291,0.0,0.0,0.932358741760254,-0.9533882737159728
-0.2610805630683899,0.7228517532348633,-0.1956303268671035,-0.4322773218154907,-0.4820675551891327,-0.4201626777648926,0.0,0.0,0.6982665061950684,-0.981871783733368
-0.2629992067813873,0.7131531834602356,-0.1750152260065078,-0.437043696641922,-0.5009196400642395,-0.377041757106781,0.0,0.0,0.7279410362243652,-0.9822447896003724
-0.2644444406032562,0.7041768431663513,-0.129718080163002,-0.4044407606124878,-0.5176523923873901,-0.3346551060676574,0.0,0.0,0.9018409252166748,-0.9898614883422852
-0.2657086849212646,0.6955586075782776,-0.113415278494358,-0.3880487382411957,-0.5324862003326416,-0.2966758012771606,0.0,0.0,0.6296631097793579,-0.996402144432068
-0.2666988372802734,0.6874482035636902,-0.0878532975912094,-0.3649047911167145,-0.5453183054924011,-0.2566418051719665,0.0,0.0,0.8506624698638916,-0.9942957758903505
-0.2672674655914306,0.6797670722007751,-0.0476284958422184,-0.3451510965824127,-0.5560117363929749,-0.2138683348894119,0.0,0.0,0.7898533344268799,-0.9566927552223206
-0.2674482762813568,0.6729459166526794,-0.0104550495743751,-0.3063521683216095,-0.56489497423172,-0.177664577960968,0.0,0.0,0.7618619203567505,-0.9933953881263732
-0.2671906352043152,0.6663991808891296,0.031488437205553,-0.2934006154537201,-0.5715989470481873,-0.1340797245502472,0.0,0.0,0.0638091564178466,-0.9893540143966676
-0.266783058643341,0.6597497463226318,0.0447052344679832,-0.2972296178340912,-0.5762339234352112,-0.0927006676793098,0.0,0.0,0.0004053115844726,-0.9914901852607728
-0.2661885321140289,0.6528636813163757,0.0616926625370979,-0.3070175945758819,-0.5788730382919312,-0.0527812130749225,0.0,0.0,0.630805253982544,-0.996033787727356
-0.265399307012558,0.6459850668907166,0.0794448256492614,-0.3059543371200561,-0.579493522644043,-0.0124101769179105,0.0,0.0,0.0054167509078979,-0.9866425395011902
-0.2642994821071625,0.6392897367477417,0.1087636724114418,-0.2970370948314667,-0.5780528783798218,0.0288134608417749,0.0,0.0,0.181888461112976,-0.9793110489845276
-0.2627694010734558,0.6328452825546265,0.1500693708658218,-0.2851513922214508,-0.5745928287506104,0.0692004039883613,0.0,0.0,-0.4821254014968872,-0.9480217695236206
-0.2611916065216064,0.625982403755188,0.1528424769639969,-0.3028939366340637,-0.5687955021858215,0.1159471049904823,0.0,0.0,-0.1991910934448242,-0.9718552827835084
-0.2595748901367187,0.6186883449554443,0.1546452343463897,-0.3212071061134338,-0.5605822205543518,0.164265289902687,0.0,0.0,-0.6384887099266052,-0.943800926208496
-0.2578907608985901,0.6109594702720642,0.1597994267940521,-0.3399416804313659,-0.5505746603012085,0.2001514881849289,0.0,0.0,-0.7483714818954468,-0.9390222430229188
-0.2561550140380859,0.6028012633323669,0.1629755198955536,-0.3582982420921325,-0.5383347272872925,0.2447990179061889,0.0,0.0,-0.5980114340782166,-0.8997529149055481
-0.2543569505214691,0.594209611415863,0.1673865318298339,-0.3769796788692474,-0.5241132378578186,0.2844303250312805,0.0,0.0,-0.793918788433075,-0.7235431671142578
-0.2524790167808532,0.58516925573349,0.1739934831857681,-0.3965562880039215,-0.5084387063980103,0.3134906888008117,0.0,0.0,-0.7842312455177307,-0.7900913953781128
-0.2505168318748474,0.5756732225418091,0.1811272054910659,-0.4165407419204712,-0.4914582371711731,0.3396092355251312,0.0,0.0,-0.7188737988471985,-0.8061585426330566
-0.2484788000583648,0.5657191872596741,0.187236025929451,-0.4366039335727691,-0.4729856550693512,0.3694514632225036,0.0,0.0,-0.6908466815948486,-0.9013047814369202
-0.246362492442131,0.5553069114685059,0.1935711055994033,-0.456741452217102,-0.4530542194843292,0.3986289203166961,0.0,0.0,-0.7398958802223206,-0.8509530425071716
-0.2441567927598953,0.5444349646568298,0.2012255936861038,-0.4770678281784057,-0.431914359331131,0.4227975010871887,0.0,0.0,-0.8750032782554626,-0.8119968771934509
-0.241861343383789,0.5330963730812073,0.2089447677135467,-0.4977750480175018,-0.4096229970455169,0.4458273947238922,0.0,0.0,-0.8840364813804626,-0.6213109493255615
-0.2394725829362869,0.5213000178337097,0.2169795483350753,-0.5181260108947754,-0.3861677944660187,0.4691040515899658,0.0,0.0,-0.7338786125183105,-0.8781617283821106
-0.2370044738054275,0.5090563893318176,0.2232088595628738,-0.5379676222801208,-0.3611299991607666,0.5007560849189758,0.0,0.0,-0.6381857395172119,0.0539865493774414
-0.2343972623348236,0.4963229894638061,0.2370321750640869,-0.5601688623428345,-0.3362393379211426,0.4978132843971252,0.0,0.0,-0.4941350221633911,-0.7108018398284912
-0.2316959351301193,0.4831159114837646,0.2452282458543777,-0.5813904404640198,-0.3102955818176269,0.5188748240470886,0.0,0.0,-0.0074976086616516,-0.6383611559867859
-0.2289063483476638,0.4694433808326721,0.2526129782199859,-0.6022694706916809,-0.2830904424190521,0.5441030263900757,0.0,0.0,-0.457811951637268,0.1056661605834961
-0.2259755581617355,0.4552825391292572,0.2666730284690857,-0.6244804859161377,-0.2560376226902008,0.5410565733909607,0.0,0.0,-0.2456520795822143,0.6774096488952637
-0.2228535115718841,0.4406131505966186,0.2870561480522156,-0.6477933526039124,-0.2304550856351852,0.5116508603096008,0.0,0.0,0.2539031505584717,-0.0014327764511108
-0.2195436507463455,0.4263681173324585,0.3062793016433716,-0.6294407248497009,-0.2054625749588012,0.4998501241207123,0.0,0.0,-0.025417149066925,-0.4824614524841308
-0.2160914838314056,0.4116332530975342,0.32053142786026,-0.6516425609588623,-0.1806231141090393,0.4967892169952392,0.0,0.0,-0.2417364120483398,0.0418282747268676
-0.212496668100357,0.3964084088802337,0.3348364233970642,-0.6738436818122864,-0.1559361517429351,0.4937394261360168,0.0,0.0,0.1301847696304321,0.3359518051147461
-0.2087351381778717,0.3814657032489776,0.3518180251121521,-0.661751389503479,-0.1316624730825424,0.485474020242691,0.0,0.0,0.2013652324676513,-0.1280945539474487
-0.2048007547855377,0.3665747344493866,0.3692619204521179,-0.6598678231239319,-0.1076225191354751,0.4807991981506347,0.0,0.0,-0.062637984752655,-0.303475022315979
-0.2007227838039398,0.3511931598186493,0.3837003111839294,-0.6820653080940247,-0.0837307423353195,0.477835476398468,0.0,0.0,0.1627339124679565,-0.5800801515579224
-0.1966330558061599,0.3358912467956543,0.3840191066265106,-0.678868293762207,-0.0590305551886558,0.4940038621425628,0.0,0.0,0.7827421426773071,-0.672998309135437
-0.1922830641269683,0.3212587833404541,0.4084978997707367,-0.6494986414909363,-0.0328405313193798,0.5238004922866821,0.0,0.0,0.893755316734314,-0.3406789302825928
-0.1877046525478363,0.3067677617073059,0.4311254024505615,-0.6436706185340881,-0.0064658429473638,0.5274940133094788,0.0,0.0,0.8636356592178345,0.6661417484283447
-0.1827472746372223,0.293081134557724,0.4700569212436676,-0.6083782911300659,0.0188846010714769,0.5070092678070068,0.0,0.0,0.9576151371002196,-0.5607515573501587
-0.1777359992265701,0.2802866995334625,0.4745476245880127,-0.5691882371902466,0.0451340712606906,0.5249893665313721,0.0,0.0,0.9236681461334229,-0.0235358476638793
-0.1724591255187988,0.2685053050518036,0.5004957318305969,-0.5246552228927612,0.0720231086015701,0.5377811193466187,0.0,0.0,0.8420041799545288,-0.2482038736343383
-0.1669992506504058,0.2572112083435058,0.5185693502426147,-0.50350421667099,0.0991816669702529,0.5431711077690125,0.0,0.0,0.8113102912902832,-0.0260258913040161
-0.1614913046360016,0.2467632442712783,0.5236127972602844,-0.4663799107074737,0.1261850744485855,0.540068507194519,0.0,0.0,0.4074969291687011,0.2278609275817871
-0.1558718681335449,0.23683463037014,0.5347276926040649,-0.443799614906311,0.1533146053552627,0.5425909161567688,0.0,0.0,0.3360698223114013,0.1253941059112548
-0.1501000374555587,0.2269817739725113,0.5498884916305542,-0.440946877002716,0.1806387454271316,0.5464828014373779,0.0,0.0,0.7304303646087646,0.2436045408248901
-0.1444257795810699,0.2175609171390533,0.5409398674964905,-0.4221459329128265,0.2072703838348388,0.5326330065727234,0.0,0.0,0.4068264961242676,0.5673432350158691
-0.1387692391872406,0.2082693129777908,0.540790855884552,-0.4166398644447326,0.2324068993330001,0.5027307271957397,0.0,0.0,0.6709918975830078,0.3931449651718139
-0.1331205368041992,0.1993120312690735,0.5403516888618469,-0.4021678268909454,0.2573571503162384,0.4990051686763763,0.0,0.0,0.6753623485565186,0.3290839195251465
-0.1274392157793045,0.1906588673591613,0.543728768825531,-0.3890633285045624,0.2823512852191925,0.4998825192451477,0.0,0.0,0.6636059284210205,0.1690994501113891
-0.1215876564383506,0.1820918917655944,0.5603998899459839,-0.3857483565807342,0.3078836500644684,0.5106464624404907,0.0,0.0,0.8541672229766846,0.4938139915466308
-0.1157197952270507,0.1741813719272613,0.5618065595626831,-0.3570866286754608,0.3338602483272552,0.5195324420928955,0.0,0.0,0.8510599136352539,0.2947406768798828
-0.1099769622087478,0.1670754551887512,0.5494474172592163,-0.3217778503894806,0.3599139451980591,0.5210741758346558,0.0,0.0,0.6849701404571533,0.6111092567443848
-0.104089543223381,0.159981831908226,0.5652034282684326,-0.3213787972927093,0.3848445415496826,0.4986125528812408,0.0,0.0,0.8803615570068359,0.4382244348526001
