x_pos,y_pos,x_vel,y_vel,angle,ang_vel,leg_1,leg_2,main_booster,lat_booster
-0.0015414238441735,1.4031773805618286,-0.1565073877573013,-0.3441160917282104,0.0021217102184891,0.0418796204030513,0.0,0.0,-0.9407744314422776,0.8307125214142554
-0.0030302046798169,1.3950071334838867,-0.1495116651058197,-0.3631213903427124,0.0027435899246484,0.0124397259205579,0.0,0.0,-0.1176691023714355,-0.926075519830496
-0.0045940401032567,1.3863825798034668,-0.1588070392608642,-0.3833228051662445,0.0051286974921822,0.0477067194879055,0.0,0.0,-0.8265909543132688,-0.650743019490081
-0.0062380791641771,1.3773084878921509,-0.1687115877866745,-0.4033132195472717,0.0093905022367835,0.0852437391877174,0.0,0.0,0.9174086910619116,0.758098405778279
-0.0076863290742039,1.3689284324645996,-0.1483555883169174,-0.3724770545959472,0.0128844650462269,0.0698857754468917,0.0,0.0,-0.3527369853866304,-0.6410268191160666
-0.009192943572998,1.3600995540618896,-0.1555235236883163,-0.392436146736145,0.0176960192620754,0.096239723265171,0.0,0.0,0.4481407298573892,-0.9140922612827408
-0.0108225820586085,1.351581335067749,-0.1699739545583725,-0.3786920011043548,0.0246262848377227,0.1386183053255081,0.0,0.0,-0.5366597197199925,-0.6776151892124657
-0.0125124929472804,1.3426172733306885,-0.1773526668548584,-0.3985626101493835,0.0329018086194992,0.1655259877443313,0.0,0.0,-0.2174912844845495,0.736774554641613
-0.0141658782958984,1.3332180976867676,-0.172609269618988,-0.4179189801216125,0.0400818362832069,0.1436141431331634,0.0,0.0,0.7469087191679584,-0.8320579581819307
-0.0159372333437204,1.3245251178741455,-0.1863921582698822,-0.3866184651851654,0.0492451786994934,0.1832837164402008,0.0,0.0,0.6243349055962202,-0.798811549220464
-0.0177273750305175,1.316265344619751,-0.1903820484876632,-0.3675159811973572,0.0605025216937065,0.2251673936843872,0.0,0.0,0.4272521894332513,-0.8062009661240499
-0.0195611007511615,1.308242917060852,-0.1967889368534088,-0.3571510910987854,0.0737959668040275,0.2658928632736206,0.0,0.0,-0.8619871227332758,-0.9442152753019796
-0.0214746482670307,1.2997748851776123,-0.2065754234790802,-0.3771808445453644,0.0888919308781623,0.3019469976425171,0.0,0.0,0.700912333664836,0.8656457126039148
-0.0232952125370502,1.2914209365844729,-0.1960030049085617,-0.3721767067909241,0.1027425229549408,0.2770373523235321,0.0,0.0,-0.2037489754468708,0.63412131607666
-0.0250766761600971,1.282638669013977,-0.1908363252878189,-0.3912461102008819,0.1153690218925476,0.2525526881217956,0.0,0.0,-0.4381368075007545,0.7675525844068312
-0.0268081668764352,1.2734150886535645,-0.1843509227037429,-0.4108358323574066,0.1265272796154022,0.2231852114200592,0.0,0.0,0.8466121361189822,-0.8411071699604138
-0.0285810474306345,1.2651993036270142,-0.1908294260501861,-0.3663572072982788,0.1400309801101684,0.270098865032196,0.0,0.0,0.7578407096344566,-0.6382587082753701
-0.0303194038569927,1.2571498155593872,-0.1893579065799713,-0.3592827916145324,0.1555512249469757,0.3104327321052551,0.0,0.0,-0.2578692992627014,-0.6996779526473469
-0.0321266166865825,1.2486534118652344,-0.197719857096672,-0.3794851303100586,0.1725712567567825,0.3404316008090973,0.0,0.0,-0.97066780306407,0.8156153657054671
-0.0339017882943153,1.2397282123565674,-0.1933770477771759,-0.3985963463783264,0.1885077804327011,0.3187593519687652,0.0,0.0,0.0430877164154799,-0.9617320816035272
-0.035769272595644,1.2310726642608645,-0.2047710865736007,-0.387079119682312,0.2066654413938522,0.3631863594055176,0.0,0.0,-0.0176357356406484,-0.9001179973316996
-0.0377275459468364,1.221949338912964,-0.2158500403165817,-0.4084082543849945,0.2269267439842224,0.405262142419815,0.0,0.0,-0.0332465020536068,0.7128330426087905
-0.0396427139639854,1.2124069929122925,-0.2100490033626556,-0.4270711839199066,0.2457699030637741,0.3768972754478454,0.0,0.0,0.3232695347892811,-0.8249439204881079
-0.0416422858834266,1.202777862548828,-0.2204262912273407,-0.4315175116062164,0.2666794657707214,0.4182287156581878,0.0,0.0,0.7062877041147584,-0.9718578653335804
-0.0440744385123252,1.193577766418457,-0.2655836939811706,-0.413128912448883,0.2896606624126434,0.459665298461914,0.0,0.0,-0.9925796103497692,-0.978058775986438
-0.0466196052730083,1.1838828325271606,-0.2794466018676758,-0.4360502362251282,0.3154281973838806,0.5153505802154541,0.0,0.0,0.4746385521217919,0.6672419976867682
-0.0493377670645713,1.1747050285339355,-0.2955392003059387,-0.4132576584815979,0.340160071849823,0.4946380257606506,0.0,0.0,-0.0930295034940926,0.9641429597249382
-0.0520266517996788,1.1651281118392944,-0.2912379801273346,-0.4310906529426574,0.3636555075645447,0.4699078500270843,0.0,0.0,0.0649343191755986,0.67056240864943
-0.0549589172005653,1.1557945013046265,-0.3142945468425751,-0.4203309714794159,0.3859937191009521,0.4467649459838867,0.0,0.0,-0.9932055795532442,-0.9449678724760764
-0.057986069470644,1.1459758281707764,-0.3257676661014557,-0.442829966545105,0.4106697142124176,0.4935201704502105,0.0,0.0,-0.0497400654824564,-0.7604455479613094
-0.0610938072204589,1.135693073272705,-0.3352626860141754,-0.4643507897853851,0.437173843383789,0.530082643032074,0.0,0.0,0.6172039747122688,-0.8360037499554381
-0.064543530344963,1.1254576444625854,-0.3709122538566589,-0.4632648527622223,0.4656078517436981,0.5686804056167603,0.0,0.0,0.9621185895872744,-0.7941663098093866
-0.0686002746224403,1.1159563064575195,-0.4327898919582367,-0.4316765069961548,0.4957742691040039,0.6033291220664978,0.0,0.0,-0.8348622408124773,0.766933873024166
-0.0726345032453537,1.106052279472351,-0.4291044771671295,-0.4497301280498504,0.524807333946228,0.5806609392166138,0.0,0.0,-0.0105241453415385,-0.7574333204572705
-0.076746180653572,1.095671772956848,-0.4380342364311218,-0.4720559120178222,0.5556980967521667,0.6178167462348938,0.0,0.0,-0.3155187216189845,0.7439682929096603
-0.0808368697762489,1.0849086046218872,-0.434274822473526,-0.4891088604927063,0.5852360725402832,0.590759813785553,0.0,0.0,0.5813843815427129,-0.6841707939134611
-0.0852621048688888,1.0741862058639526,-0.468660444021225,-0.4884564280509949,0.6164860725402832,0.6249999403953552,0.0,0.0,-0.6343181586523354,0.7853854099663343
-0.0896650329232215,1.0630903244018557,-0.4646236896514892,-0.5049786567687988,0.6462004780769348,0.5942898988723755,0.0,0.0,0.9821846585774232,0.9812338136931978
-0.0946902260184288,1.052799105644226,-0.5247477293014526,-0.4688620865345001,0.673955500125885,0.5551010966300964,0.0,0.0,0.1677353615407375,0.7646979237905029
-0.099947452545166,1.042651891708374,-0.5464008450508118,-0.4622679948806762,0.7003158926963806,0.5272080302238464,0.0,0.0,-0.1928741024479341,0.8395524951585355
-0.1051945686340332,1.0321234464645386,-0.5439605712890625,-0.4789951741695404,0.7254034280776978,0.5017503499984741,0.0,0.0,-0.9704999923706056,0.9970486164093018
-0.1103985756635665,1.0212464332580566,-0.5374239087104797,-0.4936965703964233,0.7480847239494324,0.4536260664463043,0.0,0.0,-0.99643212556839,0.9451985359191896
-0.115562155842781,1.0100082159042358,-0.5314557552337646,-0.5089898705482483,0.7685842514038086,0.4099903106689453,0.0,0.0,-0.9876067638397216,0.9840648174285888
-0.1206875815987587,0.998419225215912,-0.5256729125976562,-0.5236660242080688,0.7867575287818909,0.3634659051895141,0.0,0.0,-0.9795551300048828,0.9866085052490234
-0.1257832497358322,0.9864553809165956,-0.5211701989173889,-0.5396049618721008,0.8031119704246521,0.3270885944366455,0.0,0.0,-0.9293006658554076,0.974998950958252
-0.1308433562517166,0.9741291403770448,-0.5159517526626587,-0.5547903180122375,0.8173342347145081,0.2844454646110534,0.0,0.0,-0.9919493198394777,0.9421672821044922
-0.135871410369873,0.9614430665969848,-0.5111435651779175,-0.5698087215423584,0.8294241428375244,0.2417983263731002,0.0,0.0,-0.9616655111312866,0.9545077085494996
-0.1408892571926117,0.9483856558799744,-0.5089332461357117,-0.585580050945282,0.8399304747581482,0.2101261615753173,0.0,0.0,-0.9928744435310364,0.9426157474517822
-0.1458981484174728,0.9349522590637208,-0.5069612264633179,-0.6015779376029968,0.8489350080490112,0.1800911128520965,0.0,0.0,-0.9698686599731444,0.9506003856658936
-0.1508837640285492,0.9211516976356506,-0.5032815933227539,-0.6169637441635132,0.8560253381729126,0.1418060958385467,0.0,0.0,-0.9775930643081664,0.9881142377853394
-0.1558318138122558,0.9070119261741638,-0.4977642595767975,-0.6307080984115601,0.8604792952537537,0.0890788659453392,0.0,0.0,-0.9795950055122375,0.9757375717163086
-0.1607632637023925,0.8925077319145203,-0.4948361814022064,-0.6459470987319946,0.8630492687225342,0.0513996370136737,0.0,0.0,-0.9720540046691896,0.9270540475845336
-0.165661334991455,0.877650260925293,-0.4899442791938782,-0.6604387164115906,0.8632524013519287,0.0040631834417581,0.0,0.0,-0.9875328540802002,0.8549079895019531
-0.1705446243286132,0.8624269366264343,-0.4872274398803711,-0.6757408976554871,0.8615908026695251,-0.0332321897149086,0.0,0.0,-0.9831497669219972,0.9234342575073242
-0.1753924340009689,0.8468559384346008,-0.4820109009742737,-0.6899033784866333,0.8573995232582092,-0.0838251858949661,0.0,0.0,-0.9700509309768676,0.7135374546051025
-0.180232435464859,0.8308889865875244,-0.4803529679775238,-0.7068500518798828,0.8519272208213806,-0.1094462126493454,0.0,0.0,-0.9767935872077942,0.5112595558166504
-0.1850688010454177,0.8145302534103394,-0.4791058003902435,-0.7236260175704956,0.8451658487319946,-0.1352270990610122,0.0,0.0,-0.8865686655044556,0.6529446840286255
-0.189889520406723,0.7977962493896484,-0.4763044416904449,-0.7394276857376099,0.8366213440895081,-0.1708904653787613,0.0,0.0,-0.9047900438308716,0.4392387866973877
-0.1947340071201324,0.7806164026260376,-0.4786546230316162,-0.7592979669570923,0.8281135559082031,-0.1701559126377105,0.0,0.0,-0.7726551294326782,0.5997577905654907
-0.1995777189731598,0.7630383968353271,-0.4777057766914367,-0.7764448523521423,0.8184241056442261,-0.1937890201807022,0.0,0.0,-0.5131765604019165,0.7155510187149048
-0.2044015377759933,0.7450753450393677,-0.4744147658348083,-0.7927379608154297,0.8069860339164734,-0.2287616431713104,0.0,0.0,-0.6609076857566833,0.5529465675354004
-0.2092260867357254,0.726706862449646,-0.4736416339874267,-0.8103086948394775,0.7944841384887695,-0.2500378787517547,0.0,0.0,-0.6183285117149353,0.2055354118347168
-0.2140743285417556,0.7078925967216492,-0.4758741855621338,-0.830179750919342,0.7819494605064392,-0.2506949007511139,0.0,0.0,-0.6630687713623047,0.3775578737258911
-0.2189459800720214,0.6886324882507324,-0.4780733585357666,-0.8500499725341797,0.7693648338317871,-0.2516929507255554,0.0,0.0,-0.767684280872345,-0.0546702146530151
-0.2238409519195556,0.6689263582229614,-0.4802364408969879,-0.86991947889328,0.7567135691642761,-0.2530252933502197,0.0,0.0,-0.801257312297821,0.3752639293670654
-0.2287588566541671,0.6487738490104675,-0.4823605418205261,-0.8897882699966431,0.7439793944358826,-0.2546836137771606,0.0,0.0,-0.7617798447608948,0.4461668729782104
-0.2336994707584381,0.6281753778457642,-0.4844425618648529,-0.9096564650535583,0.731146514415741,-0.2566581666469574,0.0,0.0,-0.8751772046089172,-0.1481531262397766
-0.2386623919010162,0.6071304082870483,-0.4864791929721832,-0.9295241832733154,0.718199610710144,-0.2589377462863922,0.0,0.0,-0.8952694535255432,-0.0551785230636596
-0.2436473369598388,0.585639238357544,-0.4884670376777649,-0.9493914246559144,0.7051240801811218,-0.261510282754898,0.0,0.0,-0.9380049109458924,-0.4269582629203796
-0.248653843998909,0.5637016892433167,-0.4904023110866546,-0.969258427619934,0.6919059157371521,-0.2643627822399139,0.0,0.0,-0.8430734872817993,-0.603218674659729
-0.2537238597869873,0.5412679314613342,-0.4977177679538727,-0.9919828176498412,0.6800586581230164,-0.2369452267885208,0.0,0.0,-0.936821460723877,-0.5929844379425049
-0.2588485181331634,0.5183470845222473,-0.5039412379264832,-1.0141568183898926,0.669276773929596,-0.2156378924846649,0.0,0.0,-0.9276065826416016,-0.693713903427124
-0.2640472948551178,0.4949240088462829,-0.5125941634178162,-1.037214994430542,0.66014564037323,-0.1826227158308029,0.0,0.0,-0.9303314685821532,-0.7663406729698181
-0.2693060338497162,0.4710053503513336,-0.5195764899253845,-1.0598127841949463,0.6522936224937439,-0.1570406109094619,0.0,0.0,-0.9646512866020204,-0.698167622089386
-0.2746260166168213,0.4465824365615845,-0.5268085598945618,-1.082833170890808,0.6458575129508972,-0.1287217140197754,0.0,0.0,-0.9830679297447203,-0.8084319829940796
-0.2800042033195495,0.4216543436050415,-0.5337098836898804,-1.1058578491210938,0.6407865285873413,-0.1014197468757629,0.0,0.0,-0.991801917552948,-0.8072613477706909
-0.2854484021663666,0.396212488412857,-0.541629433631897,-1.1293704509735107,0.6373569369316101,-0.0685921758413314,0.0,0.0,-0.9949886798858644,-0.7860010266304016
-0.2909607291221618,0.3702723979949951,-0.5496569871902466,-1.1521159410476685,0.6354175209999084,-0.0387878790497779,0.0,0.0,-0.995614528656006,-0.831072211265564
-0.2965362071990967,0.3438403308391571,-0.5570353865623474,-1.1745084524154663,0.6347914934158325,-0.0125203309580683,0.0,0.0,-0.9969579577445984,-0.7872989773750305
-0.3021870255470276,0.3169012069702148,-0.5660126209259033,-1.1977514028549194,0.6359355449676514,0.0228815712034702,0.0,0.0,-0.9964789748191832,-0.6535158753395081
-0.3078974187374115,0.2894530594348907,-0.5731809735298157,-1.2209733724594116,0.6385640501976013,0.0525700524449348,0.0,0.0,-0.9932427406311036,-0.5327942371368408
-0.3136525154113769,0.2615253329277038,-0.5783095955848694,-1.242620587348938,0.6420057415962219,0.0688343942165374,0.0,0.0,-0.9891753196716307,-0.2912606000900268
-0.3194184303283691,0.2331487089395523,-0.5791637897491455,-1.2624719142913818,0.6451813578605652,0.0635128989815712,0.0,0.0,-0.9853578209877014,-0.0986859202384948
-0.3251939415931701,0.2043230384588241,-0.5799003839492798,-1.282322645187378,0.6480852961540222,0.0580777823925018,0.0,0.0,-0.96870356798172,-0.1484601497650146
-0.3309779167175293,0.1750482618808746,-0.580515444278717,-1.302173137664795,0.6507121920585632,0.0525362007319927,0.0,0.0,-0.9406903386116028,0.0455182790756225
-0.3367691040039062,0.1453244537115097,-0.5810052156448364,-1.3220231533050537,0.6530570387840271,0.0468967854976654,0.0,1.0,0.9638323783874512,0.999964952468872
-0.3361989855766296,0.1404469162225723,-0.0469029769301414,-0.3040326833724975,0.7448188066482544,1.7429653406143188,0.0,1.0,-0.927396297454834,-0.8838318586349487
-0.3344430923461914,0.1444946825504303,0.0914557948708534,0.1141641288995742,0.8442371487617493,1.9522039890289309,0.0,1.0,-0.9986333250999452,-0.7625254392623901
-0.3331426680088043,0.1477660536766052,0.0721143931150436,0.0969382971525192,0.9333788752555848,1.7794702053070068,0.0,1.0,-0.9979493618011476,-0.8681954741477966
-0.3318829536437988,0.1505413800477981,0.0732694938778877,0.0714154541492462,1.0263373851776123,1.859300255775452,0.0,1.0,-0.9993327260017396,-0.9135525822639464
-0.3307326436042785,0.1528425812721252,0.0688291639089584,0.0460083149373531,1.121435046195984,1.902085542678833,0.0,0.0,-0.9998416900634766,0.8388350009918213
-0.3296355605125427,0.1548329889774322,0.0726202502846717,0.0311066769063472,1.214033603668213,1.852100372314453,0.0,0.0,-0.9997791051864624,0.8037313222885132
-0.3285899758338928,0.156510978937149,0.0763332396745681,0.0169519484043121,1.303900122642517,1.79745352268219,0.0,0.0,-0.9998165369033812,0.7382955551147461
-0.3275932669639587,0.1578530818223953,0.0797633677721023,0.0022142834495753,1.391286015510559,1.7478373050689695,0.0,0.0,-0.9997473359107972,0.6827853918075562
-0.3266541957855224,0.1588264852762222,0.0817973166704177,-0.0138313667848706,1.476764440536499,1.7096818685531616,0.0,0.0,-0.9997263550758362,0.5440423488616943
-0.3257780969142914,0.1594235748052597,0.0828783065080642,-0.0297484993934631,1.5603313446044922,1.6714508533477783,0.0,0.0,-0.999796986579895,0.4140371084213257
-0.3249619007110595,0.1595669090747833,0.0839263573288917,-0.049739371985197,1.6435441970825195,1.6643664836883545,0.0,0.0,-0.999819040298462,0.2966097593307495
-0.3242030739784241,0.1592489778995514,0.0851198434829711,-0.0696851015090942,1.7264008522033691,1.657242774963379,0.0,0.0,-0.9997006058692932,0.2283346652984619
-0.3234987258911133,0.1584621965885162,0.0864526182413101,-0.0895852893590927,1.8089003562927248,1.6500988006591797,0.0,0.0,-0.9995959401130676,0.0833028554916381
-0.3228456079959869,0.1571996361017227,0.0879160612821579,-0.1094399467110633,1.891041874885559,1.6429380178451538,0.0,0.0,-0.9993281364440918,0.1000832319259643
-0.3222400248050689,0.155454471707344,0.0895013064146041,-0.1292495280504226,1.9728248119354248,1.6357663869857788,0.0,0.0,-0.9994112849235536,0.0535852909088134
-0.3216781616210937,0.1532204449176788,0.0911991372704505,-0.1490146666765213,2.054248809814453,1.6285864114761353,0.0,0.0,-0.9993599057197572,0.1682205200195312
-0.321155846118927,0.1504916697740554,0.0930000022053718,-0.1687363535165786,2.1353139877319336,1.6214048862457275,0.0,0.0,-0.9994266629219056,-0.0093805789947509
-0.3206686377525329,0.1472627222537994,0.0948941111564636,-0.1884160339832306,2.216020345687866,1.6142278909683228,0.0,0.0,-0.9990347027778624,-0.151609182357788
-0.3202121257781982,0.1435285955667495,0.0968716368079185,-0.2080553919076919,2.29636812210083,1.6070547103881836,0.0,0.0,-0.998576819896698,-0.3562690615653991
-0.319781482219696,0.1392850428819656,0.0989226326346397,-0.2276565730571746,2.3763577938079834,1.5998916625976562,0.0,0.0,-0.9986894726753236,-0.5734472870826721
-0.3193504214286804,0.1344894021749496,0.1039495840668678,-0.249364748597145,2.456972360610962,1.6123926639556885,0.0,0.0,-0.9986975789070128,-0.7069038152694702
-0.3188959062099457,0.1291156113147735,0.1115278005599975,-0.2721685171127319,2.5388505458831787,1.6376636028289795,0.0,0.0,-0.9986263513565063,-0.7498173713684082
-0.3184217512607574,0.1231713369488716,0.1181261092424392,-0.2941137850284576,2.6216166019439697,1.6554203033447266,0.0,0.0,-0.9980589151382446,-0.7770455479621887
-0.317910760641098,0.1166565716266632,0.1262628436088562,-0.3157826066017151,2.7054576873779297,1.676923751831055,0.0,0.0,-0.9978275299072266,-0.7996199131011963
-0.3173488974571228,0.1095581650733947,0.1356468349695205,-0.3377570807933807,2.7906312942504883,1.7035701274871826,0.0,0.0,-0.997032105922699,-0.8261095881462097
-0.3167328238487243,0.1018813252449035,0.1447578221559524,-0.3590916991233825,2.876971244812012,1.7269022464752195,0.0,0.0,-0.9963445663452148,-0.8565566539764404
-0.3160526752471924,0.0936397910118103,0.1543010920286178,-0.3794884383678436,2.964442491531372,1.749529242515564,0.0,0.0,-0.9947496056556702,-0.8918243050575256
-0.3152762055397033,0.084823690354824,0.167121484875679,-0.4000624418258667,3.053697109222412,1.7852007150650024,0.0,0.0,-0.994780659675598,-0.9375975131988524
-0.3143903613090515,0.0754428952932357,0.1807220131158828,-0.4198225438594818,3.144846200942993,1.8230884075164795,0.0,0.0,-0.9918787479400636,-0.954319953918457
-0.3122666478157043,0.0694280266761779,0.3011251986026764,-0.0938718318939209,3.185804605484009,-0.3167552351951599,0.0,0.0,-0.9918787479400636,-0.954319953918457
