x_pos,y_pos,x_vel,y_vel,angle,ang_vel,leg_1,leg_2,main_booster,lat_booster
-0.0015131949912756,1.4035217761993408,-0.1536676734685897,-0.328820139169693,0.0021003677975386,0.0414569452404975,0.0,0.0,0.2506220290578935,-0.9930425250929176
-0.0030493736267089,1.396562576293945,-0.1580110937356948,-0.3093060553073883,0.0064518032595515,0.0870373994112014,0.0,0.0,-0.470616429937069,0.976105295085654
-0.0044823647476732,1.3894939422607422,-0.1456238925457,-0.3141694664955139,0.0087492829188704,0.0459540709853172,0.0,0.0,-0.213606426553075,0.9322614309598368
-0.0058476449921727,1.3823204040527344,-0.1376520693302154,-0.3188329637050628,0.0098588736727833,0.0221937056630849,0.0,0.0,0.5075929532996502,-0.626305567184524
-0.0071317674592137,1.3759397268295288,-0.1313658505678177,-0.2836056053638458,0.0127833364531397,0.0584947280585765,0.0,0.0,-0.9438667763205192,0.9497091249908132
-0.0083168987184762,1.369456768035889,-0.1193996220827102,-0.2881460785865783,0.0136622479185462,0.0175797343254089,0.0,0.0,0.1137206954937195,-0.6313177612414933
-0.0095675466582179,1.3634535074234009,-0.1274502426385879,-0.2668342888355255,0.0160150248557329,0.0470599681138992,0.0,0.0,0.7739990734236442,0.7278881657092786
-0.010591983795166,1.358397126197815,-0.104016862809658,-0.2247494906187057,0.0175673775374889,0.0310500524938106,0.0,0.0,-0.2672793019461894,0.610671645278812
-0.0115650175139307,1.353245496749878,-0.0978903621435165,-0.2289614081382751,0.0181549973785877,0.0117532350122928,0.0,0.0,-0.5721723695344201,-0.9562427797258995
-0.0126100536435842,1.347995400428772,-0.1072290167212486,-0.233376607298851,0.0208466239273548,0.0538373589515686,0.0,0.0,-0.5320614077334811,0.6270237746389069
-0.0135964397341012,1.3426446914672852,-0.1001291275024414,-0.2378289848566055,0.0223101172596216,0.0292727295309305,0.0,0.0,-0.4018721775139053,0.8137813244549043
-0.0145103456452488,1.3371920585632324,-0.0912275686860084,-0.2423401474952697,0.0221525058150291,-0.0031528759282082,0.0,0.0,0.3313472237311889,-0.7549423460966957
-0.0153787611052393,1.33248770236969,-0.0885396152734756,-0.2091087251901626,0.0238318275660276,0.0335895419120788,0.0,0.0,0.5478067492604688,0.9425680169203576
-0.0161091797053813,1.3281757831573486,-0.0731025487184524,-0.1916378289461136,0.0238863751292228,0.001091428217478,0.0,0.0,0.3709915556917111,0.9512094146830388
-0.0166497230529785,1.324804425239563,-0.0524528324604034,-0.1498145163059234,0.0223057605326175,-0.031615100800991,0.0,0.0,0.124777261495397,0.7583242113358271
-0.0170537941157817,1.3216296434402466,-0.0375113002955913,-0.1410604566335678,0.0194284953176975,-0.0575505420565605,0.0,0.0,0.6642704500957568,0.9388848035092776
-0.0172512046992778,1.31966233253479,-0.0152970794588327,-0.0873860567808151,0.0150310499593615,-0.0879569724202156,0.0,0.0,0.2711122531310903,-0.9962078407640772
-0.0174112319946289,1.3180170059204102,-0.0137076918035745,-0.0730975866317749,0.0127648655325174,-0.045327715575695,0.0,0.0,-0.2475404260087956,0.9530260663344866
-0.017493437975645,1.3162800073623655,-0.0038080916274338,-0.0771731659770011,0.0083949705585837,-0.0874059498310089,0.0,0.0,-0.0682170141614397,-0.8171752554167329
-0.0176603309810161,1.314439058303833,-0.0142068145796656,-0.0818119198083877,0.0059512970037758,-0.0488777346909046,0.0,0.0,-0.367044224751534,-0.771462217319343
-0.017888356000185,1.3125004768371582,-0.0216325726360082,-0.0861558094620704,0.0047884392552077,-0.0232595149427652,0.0,0.0,0.2739600492086547,-0.8282000596806294
-0.0181883815675973,1.310965657234192,-0.0305615067481994,-0.0682117044925689,0.0053452588617801,0.0111372591927647,0.0,0.0,-0.209535502173896,0.7484104577671145
-0.0184334758669137,1.3093277215957642,-0.0232994984835386,-0.0727995932102203,0.0041483775712549,-0.0239396095275878,0.0,0.0,-0.2796243834846961,0.9954591471634938
-0.0186096187680959,1.3075764179229736,-0.0142170134931802,-0.0778292343020439,0.0007904199883341,-0.0671655163168907,0.0,0.0,0.3255236601067364,-0.6282000156112326
-0.0189825054258108,1.3064985275268557,-0.0349557325243949,-0.047908641397953,-0.0015138449380174,-0.0460893213748931,0.0,0.0,0.7017303696156156,0.9348250571239108
-0.0194713585078716,1.306389570236206,-0.0444498844444751,-0.0048600859008729,-0.0058924877084791,-0.0875727012753486,0.0,0.0,0.7385238723288594,0.8162059476281165
-0.019911766052246,1.307329177856445,-0.0379938818514347,0.041725005954504,-0.0118639124557375,-0.1194285899400711,0.0,0.0,0.3542180970964781,0.9513538881034056
-0.0204195026308298,1.3091920614242554,-0.0427356287837028,0.0827104896306991,-0.0197969302535057,-0.1586602926254272,0.0,0.0,-0.819943778553079,0.7890500192419475
-0.0209075920283794,1.3109581470489502,-0.0395394712686538,0.0783460065722465,-0.0289503410458564,-0.1830680966377258,0.0,0.0,0.4236038330446514,0.6920379117316563
-0.0213803295046091,1.313248872756958,-0.0365801528096199,0.1015578731894493,-0.0395139157772064,-0.2112716883420944,0.0,0.0,-0.7290246358415533,0.9952165846656372
-0.0218052864074707,1.315444827079773,-0.0297393146902322,0.0972108542919159,-0.0521205775439739,-0.2521332502365112,0.0,0.0,0.0387521478084516,-0.6774110193484384
-0.0223612785339355,1.3179572820663452,-0.0441414192318916,0.11122377961874,-0.0634404271841049,-0.226397156715393,0.0,0.0,-0.1939458655147783,0.8016372346136462
-0.0229001995176076,1.3203712701797483,-0.041053406894207,0.1066888123750686,-0.0761485248804092,-0.2541620135307312,0.0,0.0,-0.2056578888269638,-0.7902287525085965
-0.0235487930476665,1.3226850032806396,-0.0537566244602203,0.1022291928529739,-0.0871351957321167,-0.219733789563179,0.0,0.0,0.0061279597138321,-0.9000999792400675
-0.0242653843015432,1.3254776000976562,-0.0623738281428813,0.1235518679022789,-0.0963511988520622,-0.1843200325965881,0.0,0.0,-0.5126942482146859,-0.967568612701635
-0.0251001361757516,1.3281865119934082,-0.0760482400655746,0.1198950633406639,-0.1037180349230766,-0.1473365724086761,0.0,0.0,-0.8969713773170715,0.6276517105302639
-0.0259347911924123,1.3307828903198242,-0.0748023837804794,0.1147689521312713,-0.1123095899820327,-0.1718312799930572,0.0,0.0,0.3751819633210285,0.6813779720531653
-0.0266585350036621,1.334212303161621,-0.0623865537345409,0.1516367346048355,-0.1222264319658279,-0.1983371824026107,0.0,0.0,-0.1377772715792193,0.9676864502775628
-0.0273612029850482,1.337538242340088,-0.058474164456129,0.1468046158552169,-0.133974403142929,-0.2349594384431839,0.0,0.0,-0.9081429223547448,-0.8725434106769198
-0.0281822197139263,1.3407771587371826,-0.0719498246908187,0.1430092006921768,-0.1440916955471038,-0.2023458778858184,0.0,0.0,-0.0964908439155058,0.9555440446593292
-0.0289960857480764,1.3439096212387085,-0.0696568638086319,0.1380393952131271,-0.1558086723089218,-0.234339639544487,0.0,0.0,-0.6716201901435852,-0.9636672139167786
-0.0299274437129497,1.3469526767730713,-0.0829128175973892,0.1341510862112045,-0.1660258919000625,-0.2043438851833343,0.0,0.0,-0.6279902458190918,-0.9432386159896852
-0.0309809688478708,1.3498997688293457,-0.0966951325535774,0.1299823969602584,-0.1746968477964401,-0.1734194755554199,0.0,0.0,-0.6749803423881531,-0.955862283706665
-0.0321582779288291,1.3527591228485107,-0.1106443852186203,0.1262407451868057,-0.1818003505468368,-0.1420702636241912,0.0,0.0,-0.734183669090271,-0.762269914150238
-0.0334632880985736,1.355525255203247,-0.1250165551900863,0.122247077524662,-0.1873078346252441,-0.1101493462920188,0.0,0.0,-0.6769970059394836,-0.7639694213867188
-0.0348894111812114,1.358196496963501,-0.1385064572095871,0.1182060539722442,-0.1914329528808593,-0.0825021639466285,0.0,0.0,-0.6659958958625793,-0.7510530948638916
-0.0364355072379112,1.360776662826538,-0.1518352478742599,0.1143072396516799,-0.1942323744297027,-0.055988423526287,0.0,0.0,-0.7681412100791931,-0.6105974316596985
-0.0381060615181922,1.3632769584655762,-0.1656917333602905,0.1109502837061882,-0.195596382021904,-0.0272803902626037,0.0,0.0,-0.7885235548019409,-0.7082047462463379
-0.0399134643375873,1.3657007217407229,-0.1810896247625351,0.107766605913639,-0.1952415406703949,0.0070971497334539,0.0,0.0,-0.8854409456253052,-0.3044471144676208
-0.0417933464050293,1.3680217266082764,-0.188322827219963,0.1031984314322471,-0.1949044167995453,0.0067425919696688,0.0,0.0,-0.6843323111534119,-0.4720476865768432
-0.0437473282217979,1.3702398538589478,-0.1957255154848098,0.0986303240060806,-0.1945812255144119,0.006463827099651,0.0,0.0,-0.8889927864074707,-0.7217446565628052
-0.0458376891911029,1.3723782300949097,-0.2109360992908477,0.095284603536129,-0.1926765441894531,0.0380937196314334,0.0,0.0,-0.7862004637718201,-0.5679860711097717
-0.0480419173836708,1.374421238899231,-0.2232339680194854,0.0911676809191703,-0.1898458003997802,0.0566149055957794,0.0,0.0,-0.7343327403068542,-0.8190398216247559
-0.0503870025277137,1.3763874769210815,-0.2389653027057647,0.0879469215869903,-0.1853749006986618,0.089417889714241,0.0,0.0,-0.8267817497253418,-0.6380003690719604
-0.0528499595820903,1.378259301185608,-0.2517100572586059,0.0838583558797836,-0.1799370348453521,0.108757197856903,0.0,0.0,-0.7983521223068237,-0.5906914472579956
-0.0554479584097862,1.3800407648086548,-0.2666005790233612,0.0799840912222862,-0.173117384314537,0.1363928914070129,0.0,0.0,-0.793056309223175,-0.4637219905853271
-0.0581287369132041,1.3817198276519775,-0.2749101817607879,0.075412631034851,-0.1662806719541549,0.1367345750331878,0.0,0.0,-0.7267250418663025,-0.6736928224563599
-0.0609338767826557,1.383309841156006,-0.2884076833724975,0.0715302377939224,-0.1583786904811859,0.1580396294593811,0.0,0.0,-0.6482172608375549,-0.4623111486434936
-0.06382417678833,1.3847980499267578,-0.2969759106636047,0.0669576004147529,-0.1504463702440261,0.1586462259292602,0.0,0.0,-0.6869185566902161,-0.5808441042900085
-0.0668516159057617,1.3862006664276123,-0.3120389580726623,0.0632570162415504,-0.141165092587471,0.185625284910202,0.0,0.0,-0.6350453495979309,-0.2699609994888305
-0.0699664130806922,1.387501835823059,-0.3208440244197845,0.0586825348436832,-0.1318389773368835,0.1865222305059433,0.0,0.0,-0.6868576407432556,-0.422023057937622
-0.0731698051095008,1.38870108127594,-0.3297591209411621,0.0541080236434936,-0.1224602982401847,0.1875732839107513,0.0,0.0,-0.5825125575065613,-0.0142260789871215
-0.0764626488089561,1.389798641204834,-0.3387790024280548,0.0495334602892398,-0.1130210906267166,0.1887838840484619,0.0,0.0,-0.5526337623596191,-0.2276522517204284
-0.079845905303955,1.3907946348190308,-0.3478983342647552,0.0449588187038898,-0.1035131365060806,0.1901590973138809,0.0,0.0,-0.3720989227294922,0.2721997499465942
-0.0833204239606857,1.3916889429092407,-0.3571119904518127,0.040384080260992,-0.0939279496669769,0.1917037218809127,0.0,0.0,-0.5067619681358337,0.1317602396011352
-0.0868869796395301,1.392481565475464,-0.366414725780487,0.0358092226088047,-0.0842568576335907,0.1934221535921096,0.0,0.0,-0.6253497004508972,0.032231330871582
-0.0905464142560958,1.3931725025177002,-0.375801533460617,0.0312342122197151,-0.0744909346103668,0.1953184455633163,0.0,0.0,-0.4948423504829407,0.3995418548583984
-0.09429931640625,1.3937618732452393,-0.385267436504364,0.026659021154046,-0.0646211206912994,0.1973963677883148,0.0,0.0,-0.2140424251556396,0.0781625509262085
-0.0981464385986328,1.394249677658081,-0.3948075473308563,0.0220836177468299,-0.0546381622552871,0.1996591836214065,0.0,0.0,-0.3899885416030884,0.7564666271209717
-0.102038100361824,1.394628405570984,-0.3981005847454071,0.0171307791024446,-0.0458035431802272,0.176692321896553,0.0,0.0,-0.45330810546875,0.5734171867370605
-0.1059865951538086,1.3949050903320312,-0.4029465615749359,0.0125158913433551,-0.0378034263849258,0.1600024402141571,0.0,0.0,-0.387171983718872,0.8439843654632568
-0.1099607497453689,1.3950769901275637,-0.403873860836029,0.007791681215167,-0.0314261205494403,0.1275459975004196,0.0,0.0,-0.4256149530410766,0.538791298866272
-0.1139976531267166,1.395151138305664,-0.4094468951225281,0.0034005581401288,-0.0257391724735498,0.113738976418972,0.0,0.0,-0.5772286653518677,0.5267711877822876
-0.1180845275521278,1.3951207399368286,-0.4134199023246765,-0.0012703543761745,-0.0210665483027696,0.0934525728225708,0.0,0.0,-0.7564656138420105,0.6212756633758545
-0.1222221404314041,1.3949817419052124,-0.4174907803535461,-0.0061371312476694,-0.0173896420747041,0.0735381841659545,0.0,0.0,-0.507695734500885,0.2942719459533691
-0.1264572143554687,1.394739866256714,-0.4274192750453949,-0.0107058743014931,-0.013531812466681,0.0771569088101387,0.0,0.0,-0.7175440192222595,0.3158004283905029
-0.130790039896965,1.394395351409912,-0.4373854696750641,-0.0152747798711061,-0.0094831585884094,0.0809730663895607,0.0,0.0,-0.7592881917953491,0.0980215072631836
-0.1352209150791168,1.3939484357833862,-0.4473849833011627,-0.0198438689112663,-0.0052338358946144,0.0849863439798355,0.0,0.0,-0.5176425576210022,0.3745198249816894
-0.1397498100996017,1.393399000167847,-0.4574135243892669,-0.024413164705038,-0.0007740291184745,0.0891961306333541,0.0,0.0,-0.4570896625518799,0.8726441860198975
-0.1443208754062652,1.3927555084228516,-0.4604157507419586,-0.0285964906215667,0.0024940557777881,0.0653616786003112,0.0,0.0,-0.7467329502105713,0.5881710052490234
-0.1489537209272384,1.3920035362243652,-0.4659028649330139,-0.0334274135529994,0.0050738174468278,0.051595389842987,0.0,0.0,-0.7755870223045349,0.3204478025436401
-0.1536850929260254,1.3911489248275757,-0.4759928584098816,-0.03799594566226,0.0078931497409939,0.0563866309821605,0.0,0.0,-0.826515793800354,0.8754773139953613
-0.1584572792053222,1.3901923894882202,-0.4788642525672912,-0.0425297953188419,0.0095134666189551,0.0324060842394828,0.0,0.0,-0.8646878004074097,0.4811773300170898
-0.1633280813694,1.3891329765319824,-0.4889736175537109,-0.0470980964601039,0.0113921565935015,0.0375739485025405,0.0,0.0,-0.6535576581954956,0.9075316190719604
-0.168226808309555,1.3879765272140503,-0.4902575612068176,-0.0513935685157775,0.011769289150834,0.0075427964329719,0.0,0.0,-0.7311853766441345,0.4218055009841919
-0.1732237786054611,1.3867175579071045,-0.5003689527511597,-0.0559617318212986,0.0124230543151497,0.0130754290148615,0.0,0.0,-0.8336948752403259,0.8830821514129639
-0.1782463043928146,1.385348558425903,-0.5013543367385864,-0.0608411692082881,0.0115374000743031,-0.0177130736410617,0.0,0.0,-0.938008189201355,0.6272058486938477
-0.1833094656467437,0.0,-0.504259467124939,-0.0655582919716835,0.0095065729692578,-0.0406163744628429,0.0,0.0,-0.91484397649765,0.4565432071685791
-0.1884703636169433,1.3822951316833496,-0.5143402218818665,-0.0701267570257186,0.0077782170847058,-0.034566830843687,0.0,0.0,-0.8272755742073059,0.4444139003753662
-0.1937286406755447,1.3806142807006836,-0.5244013071060181,-0.0746950879693031,0.0063604940660297,-0.028354262933135,0.0,0.0,-0.9550588130950928,0.664589524269104
-0.199032112956047,1.378836154937744,-0.5279027819633484,-0.0790204629302024,0.0039520068094134,-0.0481699481606483,0.0,0.0,-0.8049094080924988,0.8433504104614258
-0.204362154006958,1.376962184906006,-0.529106855392456,-0.0832812935113906,0.0001062810697476,-0.0769145786762237,0.0,0.0,-0.8091648817062378,0.2788615226745605
-0.2097885608673095,1.3749854564666748,-0.5390790700912476,-0.0878504142165184,-0.003405972616747,-0.0702450722455978,0.0,0.0,-0.944232165813446,0.920135259628296
-0.2152257412672042,1.3728963136672974,-0.5383466482162476,-0.0928735882043838,-0.0087140398100018,-0.1061613336205482,0.0,0.0,-0.9230538010597228,0.5883980989456177
-0.2207158505916595,1.3707025051116943,-0.542901337146759,-0.0975493192672729,-0.0147429527714848,-0.1205783709883689,0.0,0.0,-0.7875128388404846,0.7448811531066895
-0.2262333333492279,1.3684139251708984,-0.544292151927948,-0.1018069311976432,-0.022107383236289,-0.1472885310649871,0.0,0.0,-0.4911751747131347,0.8177773952484131
-0.2317827641963958,1.3660210371017456,-0.5462656617164612,-0.1065063923597335,-0.0306756850332021,-0.1713659316301345,0.0,0.0,-0.6258756518363953,0.6112750768661499
-0.2373871356248855,0.0,-0.5511541366577148,-0.1109298318624496,-0.0398427061736583,-0.1833405792713165,0.0,0.0,-0.9636858701705932,-0.5629275441169739
-0.2431221008300781,1.360942006111145,-0.565567135810852,-0.1152504757046699,-0.0476807504892349,-0.1567608565092086,0.0,0.0,-0.9345418214797974,0.9741997718811036
-0.2488785237073898,1.3582541942596436,-0.5663059949874878,-0.1197888776659965,-0.0569082275032997,-0.1845497041940689,0.0,0.0,-0.8167735934257507,0.930262804031372
-0.2546621263027191,1.3554658889770508,-0.5678053498268127,-0.1243678629398346,-0.0673514828085899,-0.2088651210069656,0.0,0.0,-0.9606018662452698,0.4015936851501465
-0.260535717010498,1.352575659751892,-0.5771933197975159,-0.1289426982402801,-0.0774105787277221,-0.2011818438768386,0.0,0.0,-0.9719043374061584,0.9471375942230223
-0.2664378583431244,1.3495776653289795,-0.578914999961853,-0.1338653564453125,-0.0886025801301002,-0.2238400280475616,0.0,0.0,-0.9605675339698792,0.8163973093032837
-0.2723795473575592,1.3464702367782593,-0.582046627998352,-0.1388809084892273,-0.1006243824958801,-0.2404360473155975,0.0,0.0,-0.9720977544784546,0.9716975688934326
-0.2783174514770508,1.3432537317276,-0.5797794461250305,-0.1439632475376129,-0.1145284250378608,-0.2780808806419372,0.0,0.0,-0.7863314151763916,0.2641271352767944
-0.2843404710292816,1.3399360179901123,-0.5887131690979004,-0.1485434174537658,-0.1280360668897628,-0.270153135061264,0.0,0.0,-0.8976149559020996,0.6632336378097534
-0.2903821468353271,1.336510419845581,-0.5893597602844238,-0.1535906940698623,-0.1427867412567138,-0.2950137257575989,0.0,0.0,-0.8099393248558044,0.5934510231018066
-0.2964608073234558,1.332979440689087,-0.5923503041267395,-0.1584925055503845,-0.1582765728235244,-0.3097966313362121,0.0,0.0,-0.9836301803588868,0.6730355024337769
-0.3025541305541992,1.329340577125549,-0.5925949215888977,-0.1636007577180862,-0.1750276982784271,-0.3350228667259216,0.0,0.0,-0.6816993951797485,0.0845215320587158
-0.3087262213230133,1.3256014585494995,-0.6009166836738586,-0.1681860089302063,-0.1913776397705078,-0.326998770236969,0.0,0.0,-0.8309261202812195,0.5082254409790039
-0.3149355351924896,1.3217560052871704,-0.6040955185890198,-0.173179805278778,-0.2083311527967453,-0.339070200920105,0.0,0.0,0.0092252492904663,0.4034855365753174
-0.3210839629173279,1.3185045719146729,-0.5986331105232239,-0.1468719989061355,-0.2247127145528793,-0.3276313841342926,0.0,0.0,-0.9711834788322448,0.7390884160995483
-0.3272412717342376,1.3151276111602783,-0.5983099341392517,-0.1528505831956863,-0.2423860132694244,-0.3534660637378692,0.0,0.0,-0.7435495853424072,0.0354015827178955
-0.3334690928459167,1.311650276184082,-0.6058264970779419,-0.1574359238147735,-0.2596614062786102,-0.345507949590683,0.0,0.0,-0.2604028582572937,0.7796652317047119
-0.3397186696529388,1.30805242061615,-0.6072514057159424,-0.163150742650032,-0.2777841687202453,-0.3624553680419922,0.0,0.0,0.1914060115814209,0.2360808849334716
-0.3459373116493225,1.3049471378326416,-0.6045562624931335,-0.1414033621549606,-0.2955857515335083,-0.3560318052768707,0.0,0.0,-0.3650511503219604,0.696619987487793
-0.3521642684936523,1.3017154932022097,-0.6044384241104126,-0.1474439352750778,-0.31447634100914,-0.3778119683265686,0.0,0.0,0.1324942111968994,-0.1468173265457153
-0.358289897441864,1.2986940145492554,-0.5951828360557556,-0.1381630301475525,-0.3325668573379516,-0.3618108630180359,0.0,0.0,0.5568183660507202,-0.3299727439880371
-0.3641754984855652,1.296440601348877,-0.5720556974411011,-0.1040507853031158,-0.3498511016368866,-0.3456849455833435,0.0,0.0,0.6242218017578125,-0.4891095161437988
-0.3698202669620514,1.2951910495758057,-0.5485354661941528,-0.059503935277462,-0.3666449189186096,-0.3358765840530395,0.0,0.0,0.0903058052062988,-0.4543440341949463
-0.3754027783870697,1.2941060066223145,-0.542952835559845,-0.0522269941866397,-0.3828734159469604,-0.3245702385902405,0.0,0.0,0.3367624282836914,-0.608983039855957
