x_pos,y_pos,x_vel,y_vel,angle,ang_vel,leg_1,leg_2,main_booster,lat_booster
-0.0016370773082599,1.403503656387329,-0.1652289927005767,-0.3296140730381012,0.0013660067925229,0.0269159078598022,0.0,0.0,0.4617733866690203,0.5172269598517053
-0.0032997131347656,1.3965997695922852,-0.1662274152040481,-0.3068440854549408,0.0013235196238383,-0.0008490636246278,0.0,0.0,0.469211717511764,-0.8112295631963355
-0.0050097466446459,1.39010751247406,-0.1723073273897171,-0.2885422110557556,0.0026147437747567,0.0258267968893051,0.0,0.0,0.9167791126170596,-0.9756755855810176
-0.0070681571960449,1.3843600749969482,-0.2083196938037872,-0.2554512321949005,0.005063391290605,0.0489775612950325,0.0,0.0,-0.6163054160174719,0.6629584178015351
-0.0091808317229151,1.3784942626953125,-0.2116418182849884,-0.2607008516788482,0.0054283989593386,0.00730104977265,0.0,0.0,0.3687553389268792,-0.969424842800938
-0.0113594057038426,1.3731818199157717,-0.2197757214307785,-0.2361140549182891,0.0073268935084342,0.0379735007882118,0.0,0.0,-0.3425340384017055,-0.906562075412478
-0.0137309078127145,1.3677479028701782,-0.2404451668262481,-0.2415285408496856,0.0105901341885328,0.0652707368135452,0.0,0.0,-0.080361781331,-0.7910372136305395
-0.0162687301635742,1.3621950149536133,-0.2577678561210632,-0.2468290477991104,0.0145342582836747,0.0788895562291145,0.0,0.0,-0.9559401759115838,0.9993062091163982
-0.0188494678586721,1.3565338850021362,-0.2595981955528259,-0.2516169846057892,0.0160391740500926,0.0301011260598897,0.0,0.0,0.809343358676466,-0.9993343768681022
-0.0216431617736816,1.351949691772461,-0.2823801338672638,-0.203782707452774,0.0190235506743192,0.059692658483982,0.0,0.0,0.4074755772291538,0.757391116983839
-0.0244256015866994,1.348008394241333,-0.2793736159801483,-0.1751786917448043,0.0201387945562601,0.0223071128129959,0.0,0.0,0.1982924527887757,-0.7664802057569146
-0.0273388866335153,1.3445193767547607,-0.2935562133789062,-0.1551001965999603,0.0223379097878932,0.0439864173531532,0.0,0.0,0.0082974417629453,0.8619604717179782
-0.0302212722599506,1.3415595293045044,-0.2882254719734192,-0.1315497457981109,0.0223313979804515,-0.000130347412778,0.0,0.0,0.7779058260866392,0.7731849913765577
-0.0330915451049804,1.3390495777130127,-0.2851369380950928,-0.1115307435393333,0.0204660966992378,-0.0373096652328968,0.0,0.0,-0.1304620712810023,-0.9521463928952894
-0.0361414924263954,1.3364267349243164,-0.3040587604045868,-0.1165567189455032,0.0195450317114591,-0.0184229128062725,0.0,0.0,-0.6202069888378219,-0.8550790445009728
-0.0393687263131141,1.3336715698242188,-0.3226899802684784,-0.1224542558193206,0.0195096284151077,-0.0007082553347572,0.0,0.0,-0.3499540402255288,-0.6095066504441518
-0.0427557006478309,1.330801486968994,-0.3390984535217285,-0.1275623887777328,0.0199039857834577,0.0078880097717046,0.0,0.0,0.1513889222162636,0.7174975266726649
-0.0461012832820415,1.3282012939453125,-0.3331337869167328,-0.1155498251318931,0.0185006167739629,-0.0280702020972967,0.0,0.0,-0.2583276929637232,-0.8393622281892184
-0.0496253967285156,1.325486421585083,-0.3518954515457153,-0.1206501722335815,0.0179930310696363,-0.0101525951176881,0.0,0.0,0.2506812661791824,0.6338371185717497
-0.0532978996634483,1.3232927322387695,-0.3648362457752228,-0.0974712297320365,0.0156069053336977,-0.047726821154356,0.0,0.0,-0.0761238107481685,0.6730400339648288
-0.0570290572941303,1.3209846019744873,-0.3685585856437683,-0.1025372445583343,0.0110998973250389,-0.0901485234498977,0.0,0.0,0.0441531205281247,0.6088973509980398
-0.0608299262821674,1.3189733028411863,-0.3738126158714294,-0.0893606320023536,0.0048936018720269,-0.1241369843482971,0.0,0.0,0.4502835300008776,0.949075030450286
-0.0645511597394943,1.3175588846206665,-0.3635548055171966,-0.0628530904650688,-0.0035753443371504,-0.1693938076496124,0.0,0.0,0.3870082959914231,0.6031512943837516
-0.068282701075077,1.316410779953003,-0.3630077242851257,-0.0510831624269485,-0.0136090740561485,-0.2006926536560058,0.0,0.0,-0.4038051453599609,0.7318512577086671
-0.0720931068062782,1.3151445388793943,-0.3692727982997894,-0.0564168542623519,-0.025253091007471,-0.2329011261463165,0.0,0.0,-0.4092528610861368,0.6040819586498254
-0.0759910568594932,1.313740372657776,-0.3765763640403747,-0.0626797750592231,-0.0383060611784458,-0.2610591053962707,0.0,0.0,-0.0104627498157394,-0.7218778463066473
-0.0800691619515419,1.3122259378433228,-0.3955378532409668,-0.0676755681633949,-0.0504311025142669,-0.242500752210617,0.0,0.0,0.8732908716166328,0.5717600734729246
-0.0843359977006912,1.312009572982788,-0.4123217165470123,-0.0101581448689103,-0.0646312832832336,-0.2840036749839782,0.0,0.0,-0.0739444133660101,-0.9084906727396788
-0.088813304901123,1.3116915225982666,-0.435102641582489,-0.014734236523509,-0.0771294236183166,-0.2499628514051437,0.0,0.0,-0.4252644211405156,-0.9433654763464914
-0.0934914574027061,1.3112603425979614,-0.4566460251808166,-0.0197719652205705,-0.0881845876574516,-0.2211033850908279,0.0,0.0,0.0159013025239185,-0.8845012322005081
-0.0983025580644607,1.311505913734436,-0.4712437689304352,0.0103006465360522,-0.0979763492941856,-0.195834994316101,0.0,0.0,-0.5030994415283203,-0.9851202368736268
-0.1033252701163292,1.3116397857666016,-0.494128555059433,0.005392690654844,-0.1060533225536346,-0.1615391671657562,0.0,0.0,-0.6956631541252136,-0.8884545564651489
-0.1085502654314041,1.3116754293441772,-0.5158952474594116,0.0010976499179378,-0.1126131042838096,-0.1311957538127899,0.0,0.0,-0.659724771976471,-0.9029770493507384
-0.1139779090881347,1.3115966320037842,-0.5376526117324829,-0.0038920363876968,-0.1176848039031028,-0.1014339923858642,0.0,0.0,-0.6904805302619934,-0.8256559371948242
-0.1195917129516601,1.3114113807678225,-0.5573967099189758,-0.0085606230422854,-0.1216533333063125,-0.0793706402182579,0.0,0.0,-0.5775155425071716,-0.8727928996086121
-0.1253948211669922,1.3111250400543213,-0.5775128602981567,-0.0129603277891874,-0.1244300752878189,-0.0555348172783851,0.0,0.0,-0.761215329170227,-0.9473171830177308
-0.1313990652561187,1.3107284307479858,-0.5991084575653076,-0.0177297517657279,-0.1257356852293014,-0.0261124670505523,0.0,0.0,-0.4955902695655823,-0.767391562461853
-0.1375821083784103,1.3102288246154783,-0.6179433465003967,-0.0222397278994321,-0.1261035501956939,-0.0073573552072048,0.0,0.0,-0.5925003886222839,-0.3120037317276001
-0.1438881903886795,1.3096094131469729,-0.6297305822372437,-0.027606887742877,-0.126971423625946,-0.0173573307693004,0.0,0.0,-0.5138301849365234,-0.3176475763320923
-0.150316908955574,1.3088700771331787,-0.641501247882843,-0.0329741314053535,-0.128338947892189,-0.0273501984775066,0.0,0.0,-0.5937885642051697,-0.3237650394439697
-0.1568681746721267,1.3080110549926758,-0.6532535552978516,-0.0383415184915065,-0.1302056759595871,-0.0373347923159599,0.0,0.0,-0.7497245669364929,-0.4650726318359375
-0.1635418832302093,1.307032346725464,-0.6649853587150574,-0.043709110468626,-0.1325711756944656,-0.0473100021481514,0.0,0.0,-0.856643795967102,-0.3613315224647522
-0.1703375875949859,1.3059338331222534,-0.6766945123672485,-0.0490769706666469,-0.1354348808526992,-0.0572745129466056,0.0,0.0,0.0246477127075195,-0.0806861519813537
-0.1771498620510101,1.3051906824111938,-0.6781352758407593,-0.0333170294761657,-0.138511374592781,-0.06153005361557,0.0,0.0,-0.514965832233429,0.5147931575775146
-0.1840466558933258,1.3043140172958374,-0.6851257085800171,-0.0393929928541183,-0.1430472582578659,-0.090718075633049,0.0,0.0,0.268054723739624,-0.1794798970222473
-0.1909931153059005,1.3036911487579346,-0.6897681951522827,-0.0281586349010467,-0.1479162573814392,-0.0973800271749496,0.0,0.0,-0.7635095715522766,-0.1630890965461731
-0.1980604231357574,1.3029489517211914,-0.7013610601425171,-0.0335285924375057,-0.1532806456089019,-0.1072879210114479,0.0,0.0,0.3420667648315429,0.4601396322250366
-0.2052350491285324,1.303112506866455,-0.7111746668815613,0.0066101313568651,-0.1595618426799774,-0.125623807311058,0.0,0.0,-0.3380330801010132,0.486872911453247
-0.2125297039747238,1.3031572103500366,-0.7226916551589966,0.0012384190922603,-0.1663365215063095,-0.1354934573173523,0.0,0.0,-0.3803639411926269,0.3964684009552002
-0.2199439108371734,1.303082823753357,-0.7341652512550354,-0.0041340836323797,-0.1736035794019699,-0.1453410685062408,0.0,0.0,-0.1151214838027954,0.620746374130249
-0.2274174243211746,1.3028740882873535,-0.738074779510498,-0.0103937871754169,-0.1829023957252502,-0.185976430773735,0.0,0.0,-0.4660229682922363,0.4360742568969726
-0.2350093424320221,1.3025470972061155,-0.7494505643844604,-0.0157702583819627,-0.1926910430192947,-0.1957728266716003,0.0,0.0,-0.5743816494941711,0.3899992704391479
-0.2427190840244293,1.3021018505096436,-0.7607703804969788,-0.0211478602141141,-0.2029680609703064,-0.2055402547121048,0.0,0.0,0.295986533164978,0.637566089630127
-0.2503670156002044,1.302448034286499,-0.7528659105300903,0.0137007851153612,-0.2150043249130249,-0.240725427865982,0.0,0.0,-0.6418262720108032,0.6687889099121094
-0.2580674290657043,1.302653670310974,-0.755999743938446,0.0070303021930158,-0.2292064726352691,-0.2840432524681091,0.0,0.0,-0.7793676257133484,0.1633728742599487
-0.2658832669258117,1.302742600440979,-0.7671235799789429,0.0016427394002676,-0.2438917011022567,-0.2937044501304626,0.0,0.0,-0.1971328258514404,0.477125883102417
-0.273813784122467,1.302715539932251,-0.7781699895858765,-0.0037464424967765,-0.2590579092502594,-0.3033241033554077,0.0,0.0,-0.1305987238883972,0.1644134521484375
-0.2818580269813537,1.3025727272033691,-0.789132297039032,-0.0091372681781649,-0.2747028172016144,-0.3128982186317444,0.0,0.0,0.1498297452926635,0.6319266557693481
-0.2897542417049408,1.303103804588318,-0.7727779150009155,0.0203444976359605,-0.2920173108577728,-0.3462898135185241,0.0,0.0,-0.1122764348983764,0.199815034866333
-0.2977619171142578,1.3035200834274292,-0.7835519313812256,0.0149470707401633,-0.3098052144050598,-0.3557578325271606,0.0,0.0,-0.2103170156478881,0.5252447128295898
-0.3058379590511322,1.3037970066070557,-0.7889183759689331,0.0082038454711437,-0.3292294442653656,-0.3884847164154053,0.0,0.0,-0.1680234670639038,0.3343973159790039
-0.3140227794647217,1.3039603233337402,-0.7994718551635742,0.0027992816176265,-0.3491207361221313,-0.3978252112865448,0.0,0.0,-0.0441439151763916,0.3518810272216797
-0.3223149180412292,1.304010033607483,-0.8099006414413452,-0.0026071656029671,-0.369475394487381,-0.4070934355258941,0.0,0.0,0.0337216854095459,0.2217328548431396
-0.3305605351924896,1.3044750690460205,-0.8050333261489868,0.0154880620539188,-0.3902212977409363,-0.4149178862571716,0.0,0.0,0.4421273469924927,0.0127915143966674
-0.338770717382431,1.305308818817139,-0.8012687563896179,0.0314858183264732,-0.4113906323909759,-0.4233874380588531,0.0,0.0,0.0551762580871582,-0.2991999387741089
-0.3470046520233154,1.3065961599349976,-0.8030716776847839,0.051147986203432,-0.4333759546279907,-0.4397064745426178,0.0,0.0,-0.109761893749237,-0.5266537070274353
-0.3553732931613922,1.3078017234802246,-0.817305862903595,0.0473949089646339,-0.4547407031059265,-0.4272951185703277,0.0,0.0,0.1265153884887695,0.1604325771331787
-0.3637023866176605,1.309126377105713,-0.8133931159973145,0.0523626729846,-0.4762857556343078,-0.4309011399745941,0.0,0.0,-0.1033681631088256,-0.2414884567260742
-0.3721276223659515,1.3103387355804443,-0.8228357434272766,0.046949353069067,-0.4982635974884033,-0.4395569860935211,0.0,0.0,-0.2926279306411743,-0.6747602820396423
-0.3807012140750885,1.3114798069000244,-0.8389773368835449,0.0438914038240909,-0.5190264582633972,-0.4152575135231018,0.0,0.0,-0.0544353723526001,-0.6847769021987915
-0.3894189298152923,1.3125556707382202,-0.8547024726867676,0.0411866158246994,-0.5385315418243408,-0.3901014924049377,0.0,0.0,-0.0647131204605102,-0.6604762673377991
-0.3982674181461334,1.313556432723999,-0.8687707185745239,0.037958487868309,-0.557111382484436,-0.3715966343879699,0.0,0.0,-0.0397320389747619,-0.5691115856170654
-0.4072458148002624,1.3144910335540771,-0.8828789591789246,0.0352172814309597,-0.5746059417724609,-0.3498915433883667,0.0,0.0,0.4557363986968994,-0.1604267954826355
-0.4159772396087646,1.3158990144729614,-0.8582634925842285,0.0560534372925758,-0.5921914577484131,-0.3517086505889892,0.0,0.0,0.0608243942260742,-0.4199249744415283
-0.4246671199798584,1.317523717880249,-0.8538870811462402,0.0653101205825805,-0.6102561950683594,-0.3612951338291168,0.0,0.0,-0.0940366983413696,-0.3092865943908691
-0.4334343075752258,1.3190340995788574,-0.8615080118179321,0.0599080137908458,-0.6286880373954773,-0.3686370849609375,0.0,0.0,0.0168957710266113,-0.4132788181304931
-0.4421681463718414,1.320701003074646,-0.8580156564712524,0.0664969608187675,-0.6475638747215271,-0.3775169551372528,0.0,0.0,-0.0056880712509155,-0.7036269307136536
-0.4510136544704437,1.3223084211349487,-0.8703765869140625,0.0641755014657974,-0.665213406085968,-0.3529901802539825,0.0,0.0,0.0263636112213134,-0.5581853985786438
-0.4596009850502014,1.3243919610977173,-0.8455158472061157,0.0855852216482162,-0.6818884611129761,-0.3335025608539581,0.0,0.0,0.0474840402603149,-0.6466580033302307
-0.468022882938385,1.327091932296753,-0.8299827575683594,0.1132930740714073,-0.697503924369812,-0.3123094737529754,0.0,0.0,-0.186726689338684,-0.504930853843689
-0.4765422940254211,1.329717755317688,-0.8406942486763,0.1103370413184166,-0.7120669484138489,-0.2912607789039612,0.0,0.0,-0.1901482939720153,-0.5657119750976562
-0.4851450026035309,1.3322709798812866,-0.8498479723930359,0.1074064150452613,-0.725725531578064,-0.2731720507144928,0.0,0.0,-0.2158273458480835,-0.25391685962677
-999.0,1.334707736968994,-0.8548138737678528,0.1020186692476272,-0.7396371960639954,-0.2782337069511413,0.0,0.0,-0.1819370985031128,-0.2915714979171753
-0.502496600151062,1.3370277881622314,-0.8593401908874512,0.096631571650505,-0.7537811994552612,-0.2828806638717651,0.0,0.0,-0.3445272445678711,-0.3400895595550537
-0.5112361907958984,1.3392313718795776,-0.8634144067764282,0.0912452936172485,-0.7681358456611633,-0.2870926260948181,0.0,0.0,-0.052071213722229,-0.3020641207695007
-0.5200117230415344,1.341317892074585,-0.8670254945755005,0.0858599320054054,-0.7826783657073975,-0.2908505201339721,0.0,0.0,-0.1781947016716003,-0.3779640197753906
-0.5288183093070984,1.343287467956543,-0.8701637983322144,0.08047566562891,-0.7973851561546326,-0.2941367030143738,0.0,0.0,-0.2943494319915771,-0.5484446883201599
-0.5376778244972229,1.3451749086380005,-0.8762419819831848,0.077172465622425,-0.8111916184425354,-0.2761294245719909,0.0,0.0,-0.0236055254936218,-0.1219121813774108
-0.5465584397315979,1.3469446897506714,-0.8784106969833374,0.0717924833297729,-0.8251129984855652,-0.2784274220466614,0.0,0.0,-0.0892693996429443,-0.2829737067222595
-0.5554549694061279,1.3485963344573977,-0.8800889849662781,0.0664139688014984,-0.8391236066818237,-0.2802125811576843,0.0,0.0,0.3678028583526611,-0.6399468779563904
-0.5639334321022034,1.3508163690567017,-0.8393643498420715,0.0922933965921402,-0.8517380952835083,-0.2522895336151123,0.0,0.0,-0.205872356891632,-0.1710715293884277
-0.5724178552627563,1.3529175519943235,-0.8400536775588989,0.086920328438282,-0.8643894195556641,-0.2530266642570495,0.0,0.0,-0.0592750906944274,-0.5366455316543579
-0.5809231996536255,1.3549375534057615,-0.8429043889045715,0.0837590023875236,-0.8760714530944824,-0.2336407452821731,0.0,0.0,-0.259285032749176,-0.6638848781585693
-0.589455246925354,1.3568822145462036,-0.8464975357055664,0.0810130387544632,-0.8864790797233582,-0.2081523686647415,0.0,0.0,0.1926853656768798,-0.6660587787628174
-0.5977537035942078,1.359162449836731,-0.8241845965385437,0.0966834351420402,-0.895354151725769,-0.1775020509958267,0.0,0.0,0.1479865312576294,-0.3259189128875732
-0.6055338978767395,1.361815333366394,-0.7726404666900635,0.1133934780955314,-0.9038886427879332,-0.1706904023885727,0.0,0.0,-0.2464693188667297,-0.3867729902267456
-0.6132957935333252,1.3643468618392944,-0.7709246277809143,0.1080340072512626,-0.9123288989067078,-0.1688048988580703,0.0,0.0,-0.447975754737854,-0.3489303588867187
-0.6210346221923828,1.36675763130188,-0.768754780292511,0.1026763692498207,-0.9206497669219972,-0.1664169132709503,0.0,0.0,-0.1799379587173462,-0.2816594839096069
-0.6287460327148438,1.3690464496612549,-0.7661428451538086,0.0973205491900444,-0.9288266897201538,-0.1635394692420959,0.0,0.0,0.1628786325454712,-0.4124749898910522
-0.6360249519348145,1.3717330694198608,-0.7229558229446411,0.1149637252092361,-0.9370102882385254,-0.1636731475591659,0.0,0.0,-0.4100338220596313,-0.4831994175910949
-0.6432677507400513,1.3742973804473877,-0.7195000648498535,0.1096113622188568,-0.9450034499168396,-0.1598632633686065,0.0,0.0,-0.2045943737030029,-0.1125051975250244
-0.6504701375961304,1.3767393827438354,-0.7156440019607544,0.1042607724666595,-0.9527841210365297,-0.1556133180856704,0.0,0.0,-0.1115844249725341,-0.7400950193405151
-0.6576668620109558,1.379141092300415,-0.7164680361747742,0.1037186905741691,-0.9582643508911132,-0.1096050962805748,0.0,0.0,-0.4797137975692749,-0.4514079093933105
-0.6648157835006714,1.381419658660889,-0.7118549346923828,0.0983727648854255,-0.9634910225868224,-0.1045336946845054,0.0,0.0,-0.2333433628082275,-0.6127642393112183
-0.671933114528656,1.3836238384246826,-0.7095649242401123,0.095878005027771,-0.9672556519508362,-0.0752926990389823,0.0,0.0,-0.203708529472351,-0.3759361505508423
-0.6789956092834473,1.3857043981552124,-0.7042607069015503,0.0905354991555213,-0.9707297682762146,-0.0694817975163459,0.0,0.0,-0.1640233993530273,-0.3826121687889099
-0.6860000491142273,1.387661099433899,-0.6986358761787415,0.085194319486618,-0.9738963842391968,-0.0633321031928062,0.0,0.0,-0.492090106010437,-0.2777411937713623
-0.692943274974823,1.3894935846328735,-0.6927064657211304,0.0798543989658355,-0.9767395853996276,-0.0568638145923614,0.0,0.0,-0.4470762610435486,-0.5249192714691162
-0.6998359560966492,1.391242742538452,-0.6883887648582458,0.0768751129508018,-0.978293001651764,-0.0310684852302074,0.0,0.0,-0.304391860961914,0.0080264806747436
-0.7066617012023926,1.3928675651550293,-0.6818972826004028,0.0715376213192939,-0.9794941544532776,-0.0240229349583387,0.0,0.0,-0.5943930745124817,-0.4562132358551025
-0.7134178876876831,1.3943676948547363,-0.6751478910446167,0.0662010982632637,-0.9803299903869628,-0.0167171619832515,0.0,0.0,-0.1892305612564087,-0.0423117280006408
-0.720102071762085,1.395742893218994,-0.6681554913520813,0.060865469276905,-0.9807884693145752,-0.0091693792492151,0.0,0.0,-0.4193044900894165,0.0858591794967651
-0.7267118096351624,1.3969931602478027,-0.660934329032898,0.0555306486785411,-0.980858325958252,-0.0013967173872515,0.0,0.0,-0.370985746383667,-0.0541734099388122
-0.7332448959350586,1.3981183767318726,-0.6534984111785889,0.0501965694129467,-0.9805291295051576,0.0065843709744513,0.0,0.0,-0.5348429083824158,-0.2011006474494934
-0.7396993637084961,1.399118423461914,-0.6458609104156494,0.0448631569743156,-0.979791224002838,0.0147583680227398,0.0,0.0,-0.2515156865119934,-0.3420032858848572
-0.7460731863975525,0.0,-0.6380346417427063,0.0395303294062614,-0.9786356687545776,0.0231105089187622,0.0,0.0,-0.46216481924057,-0.0782630443572998
-0.7523645758628845,1.400743007659912,-0.6300317049026489,0.0341980084776878,-0.9770542979240416,0.0316270440816879,0.0,0.0,-0.6678442358970642,-0.1591822504997253
-0.7585717439651489,1.4013670682907104,-0.6218639016151428,0.0288661327213048,-0.975039541721344,0.0402950532734394,0.0,0.0,-0.4288340806961059,-0.3705678582191467
-0.7646932005882263,1.4018657207489014,-0.6135422587394714,0.0235346220433712,-0.9725844264030457,0.0491022132337093,0.0,0.0,-0.4570545554161072,0.0998070240020752
-0.7707273960113525,1.402238845825195,-0.6050775051116943,0.0182034112513065,-0.9696826338768004,0.0580371208488941,0.0,0.0,-0.494763970375061,0.0934146642684936
