x_pos,y_pos,x_vel,y_vel,angle,ang_vel,leg_1,leg_2,main_booster,lat_booster
-0.0015705109108239,1.4035006761550903,-0.1588911563158035,-0.3297540545463562,0.0016504875384271,0.032549150288105,0.0,0.0,-0.3324726426021318,-0.1276247217108319
-0.0031876564025878,1.3959804773330688,-0.1631993651390075,-0.3342299163341522,0.003115989966318,0.0293134599924087,0.0,0.0,-0.6890653859251392,-0.9224372422334453
-0.0049073221161961,1.388329267501831,-0.1747371107339859,-0.3400697112083435,0.0058683394454419,0.0550521425902843,0.0,0.0,-0.5877525281409484,-0.6789206764722591
-0.0067359926179051,1.3805513381958008,-0.1871537715196609,-0.3457071185111999,0.0101036643609404,0.0847144424915313,0.0,0.0,0.4550485899694481,-0.4322497219807614
-0.0085014346987009,1.373512864112854,-0.1812663674354553,-0.3128532171249389,0.0147670647129416,0.0932768434286117,0.0,0.0,-0.6877139206178162,-0.3472341678225249
-0.0103108407929539,1.3663510084152222,-0.1855448335409164,-0.3183649778366089,0.0193241368979215,0.0911498293280601,0.0,0.0,0.3191691657719926,0.7957870388862424
-0.0121299745514988,1.3597581386566162,-0.1847981065511703,-0.2930566072463989,0.0221814848482608,0.0571520924568176,0.0,0.0,-0.591095174084111,0.3879210205872784
-0.0139912609010934,1.353041410446167,-0.1889289170503616,-0.2985663712024688,0.0249513704329729,0.055402748286724,0.0,0.0,-0.383848675369919,0.9528133761066682
-0.0158205982297658,1.3462140560150146,-0.1837788373231887,-0.3034541010856628,0.0257906876504421,0.0167879723012447,0.0,0.0,-0.424575352716108,0.9008118115808812
-0.017619514837861,1.339271068572998,-0.178869366645813,-0.3085551261901855,0.0247769020497798,-0.0202776454389095,0.0,0.0,-0.6503252048688057,-0.8513702116270089
-0.0195154193788766,1.332202672958374,-0.1899617612361908,-0.3141511678695678,0.0251472536474466,0.0074076578021049,0.0,0.0,0.5552459312727789,-0.1065313023155081
-0.0213957782834768,1.3257588148117063,-0.1886720657348632,-0.2864077985286712,0.0257771499454975,0.0125990286469459,0.0,0.0,0.1767222757306439,0.2231570589369134
-0.0232337955385446,1.3199416399002075,-0.1848286092281341,-0.2585630714893341,0.0267988014966249,0.0204347725957632,0.0,0.0,-0.3256419894325166,-0.4291737282156136
-0.0251082424074411,1.3140004873275757,-0.1884458363056183,-0.26406991481781,0.0277807116508483,0.0196397360414266,0.0,0.0,-0.5219004214312091,0.3198733095243997
-0.0270182602107524,1.3079354763031006,-0.1919672042131424,-0.269571453332901,0.0287304241210222,0.0189962964504957,0.0,0.0,-0.3854404116712677,0.1579344431417891
-0.0289628021419048,1.3017467260360718,-0.1953900456428527,-0.2750744819641113,0.0296546872705221,0.018487062305212,0.0,0.0,-0.7483050061035144,-0.2150013905300208
-0.0309407226741313,1.2954341173171997,-0.1987115293741226,-0.2805784046649933,0.0305600650608539,0.0181094519793987,0.0,0.0,-0.6785370738871135,0.8190815135912517
-0.0328709594905376,1.288994550704956,-0.1918891072273254,-0.2861871123313904,0.0294431205838918,-0.0223408285528421,0.0,0.0,-0.9756084266322458,-0.2403827048259578
-0.0348322875797748,1.28243088722229,-0.1949953436851501,-0.2916910052299499,0.0283206738531589,-0.0224510096013546,0.0,0.0,0.7188899396567132,0.0949236811857331
-0.0369241721928119,1.276623010635376,-0.2076527178287506,-0.2581049799919128,0.0268049072474241,-0.0303181856870651,0.0,0.0,-0.9832547468058848,-0.8287432268720073
-0.0390966422855854,1.2706949710845947,-0.2170256078243255,-0.2634626924991607,0.026591358706355,-0.0042712236754596,0.0,0.0,-0.5604884746086687,0.3135158429077108
-0.0412966720759868,1.2646434307098389,-0.2198070734739303,-0.2689633667469024,0.0263864677399396,-0.004098099656403,0.0,0.0,0.8929840009786338,0.8544474288117285
-0.0433090217411518,1.259411096572876,-0.1996479034423828,-0.2325138598680496,0.0248231925070285,-0.0312684476375579,0.0,0.0,-0.0743415152459394,-0.8830826571495057
-0.0454081520438194,1.2540428638458252,-0.2099258452653885,-0.238589808344841,0.0248314794152975,0.0001658867549849,0.0,0.0,-0.7136697610741691,0.1133183767834187
-0.0475315079092979,1.2485510110855105,-0.2123664915561676,-0.2440903335809707,0.0248611327260732,0.0005930286133661,0.0,0.0,0.1022018086362501,0.5054014864501724
-0.049756146967411,1.2436182498931885,-0.2212878763675689,-0.2192141413688659,0.0237048063427209,-0.0231265779584646,0.0,0.0,0.8390664073342133,-0.180450107038343
-0.0520174019038677,1.239774465560913,-0.225004956126213,-0.1708150655031204,0.0225967932492494,-0.0221600253134965,0.0,0.0,-0.917222370553652,-0.8527594887123118
-0.0543814674019813,1.235813021659851,-0.2374115288257599,-0.1760788708925247,0.0235833618789911,0.0197315029799938,0.0,0.0,0.0763407888306979,0.5134469060220974
-0.0568301193416118,1.2324869632720947,-0.2446898221969604,-0.1478238850831985,0.0234100930392742,-0.0034651816822588,0.0,0.0,0.6954426239427642,0.8634744888393718
-0.0592642799019813,1.229785680770874,-0.2414940148591995,-0.1200249940156936,0.02151570469141,-0.0378876365721225,0.0,0.0,-0.6384158659150088,-0.63595668629629
-0.0617643371224403,1.226966381072998,-0.2493637800216674,-0.125296264886856,0.0208836235105991,-0.0126416655257344,0.0,0.0,-0.986615777015686,0.5551397800445557
-0.0642419829964637,1.224021315574646,-0.2461877614259719,-0.130875289440155,0.0193291511386632,-0.0310895796865224,0.0,0.0,-0.986259400844574,-0.1098570823669433
-0.0667343139648437,1.220952391624451,-0.2477013766765594,-0.1363773792982101,0.0178144872188568,-0.0302932262420654,0.0,0.0,-0.8831257224082947,-0.3230230808258056
-0.0692401900887489,0.0,-0.2491022050380706,-0.1418794691562652,0.0163403339684009,-0.0294830203056335,0.0,0.0,-0.9054455161094666,0.368338942527771
-0.0717586502432823,1.214443325996399,-0.2503917515277862,-0.1473815292119979,0.0149070434272289,-0.0286655314266681,0.0,0.0,-0.8211547136306763,0.1067887544631958
-0.0742883682250976,1.2110029458999634,-0.2515716850757599,-0.1528835743665695,0.0135146901011466,-0.0278472043573856,0.0,0.0,-0.9848218560218812,0.8431117534637451
-0.0767646804451942,1.2074360847473145,-0.2446338683366775,-0.1585052907466888,0.0105595858767628,-0.0591022595763206,0.0,0.0,-0.9377814531326294,0.8273700475692749
-0.0791807174682617,1.203753113746643,-0.2368708550930023,-0.163663312792778,0.0058949165977537,-0.0932934135198593,0.0,0.0,-0.9849931001663208,0.4743932485580444
-0.0816048607230186,1.1999465227127075,-0.2377350628376007,-0.1691669821739196,0.0012693995377048,-0.0925103276968002,0.0,0.0,-0.9663853645324708,-0.081589937210083
-0.0840362533926963,1.1960164308547974,-0.2384990453720092,-0.1746705919504165,-0.0033181926701217,-0.0917514860630035,0.0,0.0,-0.9838017225265504,0.9667500257492064
-0.0864110961556434,1.1919708251953125,-0.2312663048505783,-0.1798294633626938,-0.0094508770853281,-0.1226536780595779,0.0,0.0,-0.981328547000885,0.5936599969863892
-0.0887346267700195,1.187800049781799,-0.2247370481491089,-0.1854388415813446,-0.0169714987277984,-0.1504122912883758,0.0,0.0,-0.9879494309425354,-0.3888772130012512
-0.0910626426339149,1.1835060119628906,-0.2252189218997955,-0.1909453570842743,-0.0244595669209957,-0.1497612446546554,0.0,0.0,-0.9966626167297364,-0.3493188619613647
-0.0933942794799804,1.1790891885757446,-0.2256135195493698,-0.1964518278837204,-0.0319174639880657,-0.1491578668355941,0.0,0.0,-0.9882614016532898,0.6811473369598389
-0.0956787094473838,1.1745387315750122,-0.2196377217769622,-0.2024512141942978,-0.0406122021377086,-0.1738948673009872,0.0,0.0,-0.99785977602005,-0.5190896391868591
-0.0980031937360763,1.1698625087738037,-0.2246404588222503,-0.2080654948949813,-0.048329260200262,-0.1543411910533905,0.0,0.0,-0.9875265955924988,-0.8826301693916321
-0.1003918647766113,1.1650627851486206,-0.2326785773038864,-0.2135330140590667,-0.0544475205242633,-0.1223651394248008,0.0,0.0,-0.8086437582969666,0.0806293487548828
-0.1027811989188194,1.1601396799087524,-0.2327626645565033,-0.2190379053354263,-0.0605478733777999,-0.1220069974660873,0.0,0.0,-0.9949671030044556,-0.2025474309921264
-0.1051705330610275,1.1550931930541992,-0.2327796667814254,-0.2245427817106247,-0.0666340142488479,-0.1217229515314102,0.0,0.0,-0.9884487986564636,-0.1753095388412475
-0.1075593009591102,1.1499236822128296,-0.2327340394258499,-0.230047658085823,-0.0727098956704139,-0.1215177997946739,0.0,0.0,-0.9824843406677246,0.3447988033294678
-0.109946921467781,1.144630789756775,-0.2326304167509079,-0.2355525344610214,-0.0787797197699546,-0.1213962212204933,0.0,0.0,-0.989838719367981,-0.9201947450637816
-0.1124121695756912,1.1392298936843872,-0.2424211800098419,-0.2402602136135101,-0.0828381106257438,-0.0811679512262344,0.0,0.0,-0.9668132662773132,0.4552433490753174
-0.114875316619873,1.133705496788025,-0.2422157078981399,-0.2457634508609771,-0.08689945936203,-0.0812269896268844,0.0,0.0,-0.893621027469635,0.3545922040939331
-0.1173359900712966,1.1280574798583984,-0.2419667690992355,-0.2512666881084442,-0.0909685939550399,-0.0813824981451034,0.0,0.0,-0.960362195968628,-0.031784176826477
-0.119793988764286,1.1222858428955078,-0.2416794747114181,-0.256769984960556,-0.0950505062937736,-0.0816383361816406,0.0,0.0,-0.9791208505630492,-0.4200032949447632
-0.1222488433122634,1.1163907051086426,-0.241358995437622,-0.2622733414173126,-0.0991504117846489,-0.0819981768727302,0.0,0.0,-0.9183728694915771,0.1911107301712036
-0.1247005462646484,1.1103721857070925,-0.2410105913877487,-0.2677767872810364,-0.103273682296276,-0.0824654847383499,0.0,0.0,-0.8739909529685974,0.7086265087127686
-0.1270800530910492,1.104222297668457,-0.232016235589981,-0.2737474143505096,-0.1091617494821548,-0.117761492729187,0.0,0.0,-0.784233570098877,-0.4539438486099243
-0.129455953836441,1.0979490280151367,-0.2316281795501709,-0.2792524397373199,-0.1150843948125839,-0.1184528321027755,0.0,0.0,-0.7583315372467041,0.950947880744934
-0.1317623108625412,1.0915497541427612,-0.2229704111814499,-0.2850225865840912,-0.1227016672492027,-0.1523454636335373,0.0,0.0,-0.9293671250343324,0.4203015565872192
-0.1340649574995041,1.0850276947021484,-0.2225646674633026,-0.290529727935791,-0.130365252494812,-0.1532716453075409,0.0,0.0,-0.9268026351928712,-0.9486538171768188
-0.1364503800868988,1.078404188156128,-0.2330116033554077,-0.2948675751686096,-0.1358686089515686,-0.1100667566061019,0.0,0.0,-0.88666170835495,0.662595272064209
-0.1387699097394943,1.0716431140899658,-0.2247680127620697,-0.3011623620986938,-0.1430268436670303,-0.1431649476289749,0.0,0.0,-0.7092970013618469,-0.0809189081192016
-0.1410861015319824,1.0647591352462769,-0.2243770360946655,-0.3066692352294922,-0.1502498239278793,-0.1444597095251083,0.0,0.0,-0.4995558261871338,0.3151084184646606
-0.1433990448713302,1.0577521324157717,-0.2240023165941238,-0.3121762871742248,-0.1575438380241394,-0.1458803564310073,0.0,0.0,-0.8172767162322998,0.96010160446167
-0.145649716258049,1.0506088733673096,-0.2161625623703003,-0.3184519112110138,-0.1664416193962097,-0.1779552400112152,0.0,0.0,-0.7681686282157898,0.8256330490112305
-0.1478300094604492,1.0433357954025269,-0.2073573619127273,-0.3244772851467132,-0.1771301627159118,-0.2137713134288787,0.0,0.0,-0.9296138286590576,0.5319206714630127
-0.1499618589878082,1.035921931266785,-0.2012320756912231,-0.3309730589389801,-0.189124658703804,-0.2398899048566818,0.0,0.0,-0.9276977181434632,-0.6255086660385132
-0.152137279510498,1.0284067392349243,-0.2067189216613769,-0.3354285359382629,-0.2000117599964141,-0.2177421748638153,0.0,0.0,-0.7740565538406372,-0.1929777264595031
-0.1543112695217132,1.0207695960998535,-0.20651276409626,-0.3409418165683746,-0.211001843214035,-0.219801515340805,0.0,0.0,-0.5814200043678284,0.2491912841796875
-0.1564846932888031,1.0130103826522827,-0.2063572853803634,-0.3464554846286773,-0.2221012860536575,-0.2219888716936111,0.0,0.0,-0.2160805463790893,-0.5893591642379761
-0.1587008535861969,1.0051450729370115,-0.2116601914167404,-0.3511057794094085,-0.232189267873764,-0.201759785413742,0.0,0.0,-0.6001368165016174,0.465733528137207
-0.1609175652265548,0.997157633304596,-0.2116223275661468,-0.3566182851791382,-0.2423993498086929,-0.2042014151811599,0.0,0.0,-0.6083588004112244,0.5560686588287354
-0.1630878448486328,0.9890305995941162,-0.2056354582309723,-0.3631229698657989,-0.2539973855018616,-0.2319608479738235,0.0,0.0,-0.2679569721221924,0.6121940612792969
-0.1652167290449142,0.980760395526886,-0.2002617865800857,-0.3698060214519501,-0.2669025659561157,-0.2581037282943725,0.0,0.0,-0.8423025608062744,-0.1195293068885803
-0.1673484742641449,0.9723690152168274,-0.2004449069499969,-0.3753245174884796,-0.2799482941627502,-0.2609148621559143,0.0,0.0,-0.5731054544448853,0.0610945224761962
-0.1694837510585785,0.9638564586639404,-0.2007120847702026,-0.3808434903621673,-0.2931405901908874,-0.2638460099697113,0.0,0.0,-0.7853634357452393,-0.7963742613792419
-0.1716830283403396,0.95525723695755,-0.2086102962493896,-0.3845113217830658,-0.3048371076583862,-0.233930304646492,0.0,0.0,-0.3987129926681518,-0.03310227394104
-0.173888012766838,0.9465365409851074,-0.2090599089860916,-0.3900280594825744,-0.3166918754577636,-0.2370955497026443,0.0,0.0,0.2282371520996093,-0.5565021634101868
-0.1760378777980804,0.9386290907859802,-0.2043582648038864,-0.3538027703762054,-0.3277440071105957,-0.2210426330566406,0.0,0.0,-0.2262026071548462,0.0695992708206176
-0.1781953871250152,0.930600106716156,-0.2050109654664993,-0.3593188822269439,-0.3389655351638794,-0.2244308441877365,0.0,0.0,0.7619202136993408,-0.1974701881408691
-0.1800409257411956,0.9236207604408264,-0.1738713085651397,-0.3127413690090179,-0.3501628339290619,-0.2239459306001663,0.0,0.0,0.6335278749465942,-0.4396793246269226
-0.1817953139543533,0.9173732995986938,-0.1641943156719207,-0.2804417312145233,-0.3620035350322723,-0.2368136197328567,0.0,0.0,0.7948875427246094,0.0976967811584472
-0.1833557188510894,0.9120694994926452,-0.144415944814682,-0.2387098670005798,-0.3743046522140503,-0.2460222691297531,0.0,0.0,0.7147789001464844,0.5856993198394775
-0.1846319139003753,0.9076430797576904,-0.1147128492593765,-0.2001729905605316,-0.3880312144756317,-0.2745314836502075,0.0,0.0,0.9580652713775636,-0.0317956805229187
-0.1855650842189788,0.9039948582649232,-0.0807482823729515,-0.1656293869018554,-0.4014740586280823,-0.2688571512699127,0.0,0.0,0.9112226963043212,-0.4692060351371765
-0.1863331794738769,0.9007567763328552,-0.0642425790429115,-0.147533118724823,-0.4149888753890991,-0.2702961564064026,0.0,0.0,0.8264627456665039,-0.8092144131660461
-0.1868949830532074,0.8979739546775818,-0.0452438183128833,-0.12693952023983,-0.4268205165863037,-0.2366322576999664,0.0,0.0,0.4475117921829223,-0.7562618255615234
-0.1871910989284515,0.8957006335258484,-0.0201669074594974,-0.1039287075400352,-0.4370753765106201,-0.2050970792770385,0.0,0.0,-0.1573927402496338,-0.8487765789031982
-0.1875547468662262,0.8933325409889221,-0.0280070304870605,-0.107878677546978,-0.4461917281150818,-0.1823267787694931,0.0,0.0,0.7136571407318115,-0.8114095330238342
-0.1876643151044845,0.8919478058815002,-0.0039837746880948,-0.0637910738587379,-0.4538326561450958,-0.1528193652629852,0.0,0.0,-0.4559235572814941,-0.9472516179084778
-0.1878573447465896,0.8904936909675598,-0.013871987350285,-0.0664068385958671,-0.4598037302494049,-0.1194217205047607,0.0,0.0,-0.7207030653953552,-0.9618367552757264
-0.1881267577409744,0.8889603018760681,-0.0227770004421472,-0.0695315971970558,-0.4643947184085846,-0.091819941997528,0.0,0.0,0.0008256435394287,-0.909372627735138
-0.1883344650268554,0.8875601291656494,-0.0180896427482366,-0.0631285086274147,-0.4673557579517364,-0.0592209212481975,0.0,0.0,0.0513365268707275,-0.8942031860351562
-0.1885218620300293,0.886543333530426,-0.0175532437860965,-0.0455940328538417,-0.4686648845672607,-0.0261825080960989,0.0,0.0,-0.751681387424469,-0.8605635166168213
-0.1887863129377365,0.8854522705078125,-0.0264697037637233,-0.0484817847609519,-0.4686380624771118,0.0005361520452424,0.0,0.0,-0.5080960988998413,-0.7836212515830994
-0.1891379356384277,0.8842816948890686,-0.0365150161087513,-0.0515663661062717,-0.4671370685100555,0.0300205685198307,0.0,0.0,-0.235019564628601,-0.8506152629852295
-0.1895904541015625,0.8830499053001404,-0.0483647622168064,-0.053704660385847,-0.4637074768543243,0.0685925185680389,0.0,0.0,0.0117098093032836,-0.8372787237167358
-0.1898863762617111,0.8822748064994812,-0.0340746976435184,-0.03295923396945,-0.4587603211402893,0.0989429056644439,0.0,0.0,-0.0273892283439636,-0.7999451160430908
-0.1902763396501541,0.8814282417297363,-0.0449481196701526,-0.0356838889420032,-0.4522190392017364,0.130825787782669,0.0,0.0,0.4828587770462036,-0.5965630412101746
-0.1905221045017242,0.8814538717269897,-0.0313215255737304,0.0033010083716362,-0.4448349475860595,0.1476815342903137,0.0,0.0,0.2446001768112182,-0.798703670501709
-0.1907207518815994,0.8819174766540527,-0.0279157906770706,0.0231387931853532,-0.4360444843769073,0.1758094727993011,0.0,0.0,-0.2563789486885071,-0.5867441892623901
-0.1910081803798675,0.8822948336601257,-0.0379494950175285,0.0196068976074457,-0.4260332286357879,0.2002250701189041,0.0,0.0,-0.1474806666374206,-0.48041832447052
-0.1913363486528396,0.8825510740280151,-0.0418397039175033,0.0140891754999756,-0.4162607789039612,0.1954492479562759,0.0,0.0,0.3657341003417969,0.0770450830459594
-0.1913863122463226,0.8834478259086609,-0.0142234582453966,0.0425426475703716,-0.4063220620155334,0.1987742483615875,0.0,0.0,-0.4906761646270752,-0.2287667989730835
-0.1914799660444259,0.8842233419418335,-0.0184090174734592,0.0370253287255764,-0.3966217637062073,0.1940052956342697,0.0,0.0,-0.06292724609375,0.1486282348632812
-0.1916189193725586,0.8848773837089539,-0.0227390863001346,0.0315085463225841,-0.3871593475341797,0.1892480552196502,0.0,0.0,-0.4278708696365356,-0.0276395082473754
-0.1918043196201324,0.8854097723960876,-0.0272113680839538,0.0259922854602336,-0.3779339492321014,0.1845079362392425,0.0,0.0,-0.4235140085220337,0.5748395919799805
-0.1919842660427093,0.8857958912849426,-0.0250918120145797,0.0190139766782522,-0.3704010546207428,0.1506575345993042,0.0,0.0,-0.2404737472534179,0.1040143966674804
-0.192213624715805,0.8860598206520081,-0.029839664697647,0.0135006131604313,-0.3631026446819305,0.1459683924913406,0.0,0.0,0.0271617174148559,0.1608959436416626
-0.1923176795244217,0.8869159817695618,-0.0170901343226432,0.0397231243550777,-0.3560577630996704,0.1408974528312683,0.0,0.0,-0.3681665658950805,-0.1602792143821716
-0.1924739778041839,0.8876499533653259,-0.022103127092123,0.0342106632888317,-0.349243700504303,0.1362811028957367,0.0,0.0,-0.5614185929298401,0.1577509641647339
-0.1926836967468261,0.8882616758346558,-0.0272438935935497,0.0286986287683248,-0.3426581919193268,0.1317098885774612,0.0,0.0,-0.5112590193748474,0.3211594820022583
-0.1929480582475662,0.888751208782196,-0.0325090438127517,0.0231870207935571,-0.3362987041473388,0.1271896660327911,0.0,0.0,-0.3228731155395508,0.4955579042434692
-0.1932682991027832,0.8891183733940125,-0.0378950648009777,0.0176758263260126,-0.33016237616539,0.1227265447378158,0.0,0.0,-0.1380399465560913,0.6650159358978271
-0.1935978829860687,0.8893382549285889,-0.0373788699507713,0.0107717784121632,-0.3255570828914642,0.0921055972576141,0.0,0.0,-0.073678970336914,0.4023709297180176
-0.1939856559038162,0.8894354104995728,-0.0429951772093772,0.005262466147542,-0.3211683332920074,0.0877750366926193,0.0,0.0,0.1925022602081298,-0.0612717270851135
-0.1942612677812576,0.8897348046302795,-0.0320017337799072,0.0142813427373766,-0.316556304693222,0.0922403559088707,0.0,0.0,0.1576225757598877,-0.0458154082298278
-0.1943831443786621,0.8905624747276306,-0.0167320929467678,0.0377747528254985,-0.3118370473384857,0.0943852812051773,0.0,0.0,-0.4980319738388061,0.3737115859985351
-0.1945662498474121,0.8912675976753235,-0.0226666275411844,0.0322658978402614,-0.3073219656944275,0.090301476418972,0.0,0.0,-0.4033211469650268,0.1688582897186279
