x_pos,y_pos,x_vel,y_vel,angle,ang_vel,leg_1,leg_2,main_booster,lat_booster
-0.0014642715686932,1.402939796447754,-0.1481808722019195,-0.3546783030033111,0.0015703849494457,0.0309628434479236,0.0,0.0,-0.1380059123039245,0.6165211200714111
-0.0028179169166833,1.3942952156066897,-0.1354159414768219,-0.3842049241065979,0.001615319866687,0.0008994991076178,0.0,0.0,-0.296274721622467,0.6502454280853271
-0.0040528299286961,1.3849610090255735,-0.1217765063047409,-0.414857804775238,-7.084586832206696e-05,-0.0337264128029346,0.0,0.0,-0.5484835505485535,0.2156741619110107
-0.0052329064346849,1.3749419450759888,-0.1161391586065292,-0.4452891647815704,-0.0019166824640706,-0.0369204580783844,0.0,0.0,0.6498792171478271,0.5391709804534912
-0.0061784745194017,1.3652164936065674,-0.0918463096022605,-0.4322514832019806,-0.0046003977768123,-0.053679384291172,0.0,0.0,0.2473242282867431,-0.1233195066452026
-0.006967544555664,1.355420470237732,-0.0765314102172851,-0.4353825449943542,-0.0069474973715841,-0.0469463542103767,0.0,0.0,-0.3395970463752746,-0.5755424499511719
-0.0077546117827296,1.344940423965454,-0.0773614943027496,-0.4657844007015228,-0.0082711763679981,-0.0264762435108423,0.0,0.0,-0.8116837739944458,-0.3711022734642029
-0.0084946630522608,1.3337759971618652,-0.0725046843290329,-0.4962095916271209,-0.0097526051104068,-0.0296314898878335,0.0,0.0,-0.5298337936401367,-0.8842394351959229
-0.0092607494443655,1.3219375610351562,-0.0767617747187614,-0.5261527299880981,-0.0096036363393068,0.0029796292074024,0.0,0.0,-0.2451639175415039,-0.2694464921951294
-0.0099842073395848,1.3094143867492676,-0.0723378583788871,-0.5565806031227112,-0.009611184708774,-0.0001507964916527,0.0,0.0,-0.7546015381813049,-0.7317904829978943
-0.0107166292145848,1.2962079048156738,-0.074335440993309,-0.5869455337524414,-0.0085300700739026,0.0216243360191583,0.0,0.0,-0.0523627996444702,-0.6283106803894043
-0.0114545822143554,1.2823160886764526,-0.075850211083889,-0.6173999905586243,-0.0065038218162953,0.0405288599431514,0.0,0.0,-0.3002256155014038,-0.635627806186676
-0.0121961589902639,1.267743468284607,-0.0770429596304893,-0.6476624011993408,-0.0036422745324671,0.0572360083460807,0.0,0.0,-0.0177104473114013,-0.161867618560791
-0.0129041671752929,1.2524864673614502,-0.0735479146242141,-0.6780910491943359,-0.000932200171519,0.054206509143114,0.0,0.0,0.2594335079193115,-0.3844625949859619
-0.0134730339050292,1.2374873161315918,-0.059990357607603,-0.6666291356086731,0.0021348902955651,0.0613474361598491,0.0,0.0,-0.5536785125732422,-0.6851575374603271
-0.0140576362609863,1.2217954397201538,-0.0625295862555503,-0.6974310278892517,0.0061654523015022,0.0806183964014053,0.0,0.0,-0.738102912902832,-1.728534698486328e-05
-0.0146161075681447,1.2054190635681152,-0.0597696006298065,-0.7278563380241394,0.010048828087747,0.0776746049523353,0.0,0.0,-0.2171890139579773,0.3483000993728637
-0.0151508329436182,1.1883583068847656,-0.0572574324905872,-0.758283793926239,0.0137872481718659,0.0747748985886573,0.0,0.0,-0.2631008625030517,-0.1285474300384521
-0.0156645774841308,1.170613169670105,-0.0549949333071708,-0.788712739944458,0.017382251098752,0.0719065070152282,0.0,0.0,0.5478756427764893,0.0659785270690918
-0.0162442214787006,1.152976632118225,-0.0611016228795051,-0.783879280090332,0.0204825401306152,0.0620111003518104,0.0,0.0,0.304082989692688,0.5533590316772461
-0.0166661255061626,1.1355544328689575,-0.0443165525794029,-0.7743542194366455,0.0225809961557388,0.0419730395078659,0.0,0.0,0.1936181783676147,0.4997928142547607
-0.0170730594545602,1.117927074432373,-0.0427142195403575,-0.7834678888320923,0.0245814211666584,0.0400120317935943,0.0,0.0,-0.2738552093505859,0.0648201704025268
-0.0174686424434185,1.0996150970458984,-0.0414456203579902,-0.8138959407806396,0.0264463648200035,0.037302441895008,0.0,0.0,-0.2304431200027465,0.3660553693771362
-0.0178553573787212,1.0806185007095337,-0.0404230765998363,-0.8443231582641602,0.0281781051307916,0.0346379354596138,0.0,0.0,0.4533256292343139,0.489302396774292
-0.0183764453977346,1.06178081035614,-0.0531419590115547,-0.8372468948364258,0.0291996356099843,0.0204325839877128,0.0,0.0,0.8680613040924072,0.6124825477600098
-0.019044304266572,1.0434284210205078,-0.0659810453653335,-0.8156518936157227,0.0284067951142787,-0.0158570017665624,0.0,0.0,0.9805930852890016,-0.5105757713317871
-0.0197706222534179,1.0256986618041992,-0.072750985622406,-0.7879880666732788,0.0285176467150449,0.0022171570453792,0.0,0.0,0.9884151220321656,0.0433237552642822
-0.0206830985844135,1.0087668895721436,-0.0904916673898696,-0.7525073289871216,0.0277771819382905,-0.0148094994947314,0.0,0.0,0.8567016124725342,-0.6988711357116699
-0.0218363758176565,0.9924526810646056,-0.1154846101999282,-0.7250803709030151,0.0279274750500917,0.0030059460550546,0.0,0.0,-0.5009531378746033,0.2203612327575683
-0.0229946132749319,0.975453794002533,-0.1158624440431594,-0.755506157875061,0.0279588550329208,0.0006276426720432,0.0,0.0,0.2158958911895752,-0.5818228721618652
-0.0242084506899118,0.9587098956108092,-0.122493028640747,-0.7441974878311157,0.0290580280125141,0.0219835080206394,0.0,0.0,-0.9533796310424804,0.5524485111236572
-0.0253933910280466,0.9412797093391418,-0.1185186132788658,-0.7746738195419312,0.0290867742151021,0.0005748744588345,0.0,0.0,0.0229229927062988,-0.1812900304794311
-0.0266550071537494,0.9239068627357484,-0.125843197107315,-0.7721195816993713,0.0287677012383937,-0.0063815875910222,0.0,0.0,-0.6503139138221741,-0.4232614040374756
-0.0279299728572368,0.9058493971824646,-0.1270541399717331,-0.8025453090667725,0.0283399503678083,-0.0085552129894495,0.0,0.0,0.5442032814025879,0.1075145006179809
-0.0292213447391986,0.8879870176315308,-0.1286680549383163,-0.793876051902771,0.0278765019029378,-0.0092689543962478,0.0,0.0,0.0053473711013793,0.1859298944473266
-0.0305314064025878,0.8701304793357849,-0.1304835230112075,-0.7936111688613892,0.0273609850555658,-0.0103101339191198,0.0,0.0,0.3740566968917846,0.2477595806121826
-0.0318922996520996,0.8521562814712524,-0.1353643238544464,-0.7988396286964417,0.0266440864652395,-0.0143380369991064,0.0,0.0,0.7205917835235596,0.494978666305542
-0.0332550033926963,0.8346878886222839,-0.1356341391801834,-0.776367723941803,0.0260130111128091,-0.0126212742179632,0.0,0.0,-0.8074901700019836,0.7921452522277832
-0.0345813743770122,0.816545844078064,-0.1304013133049011,-0.8062750101089478,0.0238139871507883,-0.0439807698130607,0.0,0.0,0.3286153078079223,-0.2431899309158325
-0.0359200462698936,0.798453152179718,-0.1316563338041305,-0.8040868043899536,0.0216285772621631,-0.0437080152332782,0.0,0.0,0.3049416542053222,0.1185106039047241
-0.037381362169981,0.7805953621864319,-0.1434284448623657,-0.7936387658119202,0.0189647451043128,-0.0532768853008747,0.0,0.0,0.8632019758224487,0.5274593830108643
-0.0386905670166015,0.7629428505897522,-0.1275199353694915,-0.7845190763473511,0.0155958207324147,-0.0673783645033836,0.0,0.0,0.2816897630691528,0.3246879577636719
-0.0399559959769248,0.7449724674224854,-0.1233997568488121,-0.7986534833908081,0.0124939531087875,-0.0620373897254467,0.0,0.0,0.8893852233886719,0.2761068344116211
-0.0411443710327148,0.7272265553474426,-0.1161435022950172,-0.7886908054351807,0.0098392302170395,-0.0530946925282478,0.0,0.0,0.6669923067092896,-0.4674897193908691
-0.0424066558480262,0.7092411518096924,-0.1232760772109031,-0.7993344664573669,0.0069202934391796,-0.0583781823515892,0.0,0.0,0.988661289215088,-0.172505497932434
-0.043647576123476,0.6911752223968506,-0.1213283985853195,-0.8029229640960693,0.0041865166276693,-0.0546757690608501,0.0,0.0,0.555496335029602,0.5545713901519775
-0.04481678083539,0.673053503036499,-0.113115906715393,-0.8054025173187256,0.0004371643590275,-0.0749869793653488,0.0,0.0,0.9004607200622559,0.909741759300232
-0.0460901260375976,0.6556958556175232,-0.1213823780417442,-0.7714568376541138,-0.0054444917477667,-0.1176332384347915,0.0,0.0,0.67186439037323,-0.0081946849822998
-0.0475275032222271,0.6388515830039978,-0.1370870321989059,-0.7486697435379028,-0.012005727738142,-0.1312248706817627,0.0,0.0,-0.3176509141921997,0.6398528814315796
-0.0489508621394634,0.621320903301239,-0.1343898773193359,-0.7792304754257202,-0.0198489427566528,-0.1568643748760223,0.0,0.0,0.4217383861541748,-0.3340739607810974
-0.0502766594290733,0.603839635848999,-0.1251606196165084,-0.7770628333091736,-0.0271708164364099,-0.1464375704526901,0.0,0.0,0.8978524208068848,-0.3968459367752075
-0.0516818054020404,0.5869460701942444,-0.1327451169490814,-0.7509825229644775,-0.0348437465727329,-0.1534583568572998,0.0,0.0,0.6288747787475586,0.366507887840271
-0.0530007369816303,0.5700201988220215,-0.1246012821793556,-0.752449095249176,-0.042058378458023,-0.144292414188385,0.0,0.0,0.9200221300125122,-0.6099416017532349
-0.0543623939156532,0.5538080930709839,-0.130062073469162,-0.7207233905792236,-0.0480833947658538,-0.1205003038048744,0.0,0.0,0.5653578042984009,0.4550951719284057
-0.0555987358093261,0.5375937223434448,-0.118166483938694,-0.7208219766616821,-0.0534857288002967,-0.1080468446016311,0.0,0.0,0.7140783071517944,0.2631409168243408
-0.0569462776184082,0.521435558795929,-0.1288027465343475,-0.7183694243431091,-0.0593718998134136,-0.1177234649658203,0.0,0.0,0.5957465171813965,-0.3751966953277588
-0.0581962577998638,0.5057376623153687,-0.1194513663649559,-0.6979120969772339,-0.0648580566048622,-0.1097229719161987,0.0,0.0,0.574221134185791,0.4180927276611328
-0.0593123435974121,0.4903047382831573,-0.1066731363534927,-0.6861299872398376,-0.0697506591677665,-0.0978517234325409,0.0,0.0,0.8486189842224121,-0.0195381641387939
-0.0603202804923057,0.4755573272705078,-0.0962279587984085,-0.6556610465049744,-0.0742658451199531,-0.0903033539652824,0.0,0.0,0.5990934371948242,0.1875619888305664
-0.0613848678767681,0.4612715244293213,-0.1015432253479957,-0.6351770162582397,-0.0791258960962295,-0.0972011387348175,0.0,0.0,-0.3849483728408813,0.8306412696838379
-0.0624183639883995,0.4462859630584717,-0.0966343283653259,-0.6663960814476013,-0.0857816040515899,-0.1331139653921127,0.0,0.0,0.2477811574935913,-0.0409497618675231
-0.0635217651724815,0.4314178228378296,-0.103276327252388,-0.661226212978363,-0.0927805677056312,-0.1399791538715362,0.0,0.0,0.8453068733215332,-0.359513521194458
-0.0644741058349609,0.4167092144489288,-0.0888313055038452,-0.6541244387626648,-0.099128857254982,-0.1269660145044326,0.0,0.0,0.0077265501022338,-0.618354856967926
-0.0654617324471473,0.4018803238868713,-0.0936374589800834,-0.6594120264053345,-0.104207843542099,-0.1015800461173057,0.0,0.0,0.9067869186401368,-0.8021979331970215
-0.0664946585893631,0.3870596587657928,-0.0998342707753181,-0.6589418053627014,-0.1076450496912002,-0.0687440037727356,0.0,0.0,0.9830005168914796,-0.1940464973449707
-0.0676387771964073,0.3726363778114319,-0.1102914661169052,-0.6413358449935913,-0.1117409542202949,-0.0819179564714431,0.0,0.0,0.8505884408950806,-0.2257978320121765
-0.0686916336417198,0.3589536845684051,-0.1013123542070388,-0.6084251999855042,-0.1156917288899421,-0.07901531457901,0.0,0.0,0.74202561378479,0.11489999294281
-0.0696623772382736,0.3450308740139007,-0.0935337394475936,-0.6190673112869263,-0.1192031353712081,-0.0702282413840293,0.0,0.0,0.9435036182403564,-0.3585195541381836
-0.0705210715532302,0.3319135904312134,-0.0825356021523475,-0.5832605361938477,-0.1225235238671302,-0.0664074569940567,0.0,0.0,0.8598924875259399,-0.4590550661087036
-0.0714586228132247,0.3189245462417602,-0.0899761468172073,-0.5776052474975586,-0.1262851357460022,-0.0752326697111129,0.0,0.0,0.7055501937866211,-0.8903773427009583
-0.0725208297371864,0.3063280880451202,-0.104115292429924,-0.560024082660675,-0.1283810585737228,-0.0419184304773807,0.0,0.0,0.6210343837738037,-0.6336398124694824
-0.0735601410269737,0.2939598858356476,-0.1032246127724647,-0.5497592687606812,-0.1290780305862426,-0.0139392912387847,0.0,0.0,0.4357156753540039,-0.6864683032035828
-0.0747181922197341,0.2820406556129455,-0.1163307428359985,-0.5297006368637085,-0.1285626739263534,0.0103072803467512,0.0,0.0,0.5435421466827393,0.508960485458374
-0.075731560587883,0.2702173292636871,-0.1010897979140281,-0.525499165058136,-0.1288037747144699,-0.0048219515010714,0.0,0.0,0.3968374729156494,0.6190121173858643
-0.0767220482230186,0.2581931054592132,-0.0975673645734787,-0.534540593624115,-0.1302756518125534,-0.0294373743236064,0.0,0.0,0.858723521232605,-0.2568756341934204
-0.0776253715157508,0.2460131496191024,-0.08927983045578,-0.5414233803749084,-0.1313193887472152,-0.0208747871220111,0.0,0.0,0.1687988042831421,-0.1168144941329956
-0.0785549134016037,0.2335099726915359,-0.091887429356575,-0.5557918548583984,-0.1323887407779693,-0.0213871710002422,0.0,0.0,0.9471273422241212,-0.4737339615821838
-0.0794058814644813,0.221713975071907,-0.0840579569339752,-0.5243586301803589,-0.1334225535392761,-0.0206761099398136,0.0,0.0,0.9053056240081788,-0.422972559928894
-0.0800745040178299,0.2106134295463562,-0.0663393065333366,-0.4934029877185821,-0.1339450627565384,-0.0104500586166977,0.0,0.0,0.5174746513366699,-0.2625077962875366
-0.0807786956429481,0.1999648362398147,-0.069500483572483,-0.4733542203903198,-0.1348570883274078,-0.0182405430823564,0.0,0.0,-0.5382938981056213,0.037243366241455
-0.0815157890319824,0.1886315494775772,-0.0728832781314849,-0.5037792325019836,-0.1356791108846664,-0.016440499573946,0.0,0.0,0.8914885520935059,-0.456666886806488
-0.0821167975664138,0.1779491305351257,-0.059586077928543,-0.4748211503028869,-0.1361949741840362,-0.0103171719238162,0.0,0.0,0.5129172801971436,0.3275574445724487
-0.0827695876359939,0.1673840135335922,-0.0644230470061302,-0.4696368277072906,-0.1370451301336288,-0.0170031804591417,0.0,0.0,0.4689325094223022,0.4103226661682129
-0.0834188461303711,0.1570397019386291,-0.0639412626624107,-0.4598385095596313,-0.1380236893892288,-0.0195711590349674,0.0,0.0,0.7764774560928345,-0.5185210704803467
-0.0840481743216514,0.1471415609121322,-0.0630529224872589,-0.4399032592773437,-0.1379045397043228,0.0023826661054044,0.0,0.0,0.3578975200653076,-0.2731856107711792
-0.084569551050663,0.1372544318437576,-0.0526923015713691,-0.4393778443336487,-0.1373529732227325,0.01103141810745,0.0,0.0,0.7346638441085815,0.3173853158950805
-0.0850449576973915,0.1272114664316177,-0.0483113154768943,-0.4462848007678985,-0.1365837156772613,0.0153852701187133,0.0,0.0,0.9130350351333618,0.4360561370849609
-0.0853774100542068,0.1171546056866645,-0.0346169546246528,-0.446846604347229,-0.1352134943008422,0.0274044219404459,0.0,0.0,0.9760687351226808,0.1339343786239624
-0.0854693427681922,0.1073925793170929,-0.0114908115938305,-0.4336605966091156,-0.1329238265752792,0.0457931049168109,0.0,0.0,0.9330896139144896,-0.1989722251892089
-0.0853633880615234,0.0975995138287544,0.0074305743910372,,-0.1297730505466461,0.0630159229040145,0.0,0.0,0.990786075592041,0.1593503952026367
-0.085171028971672,0.0884696319699287,0.015997264534235,-0.4054937064647674,-0.1265461295843124,0.0645378679037094,0.0,0.0,0.9747195243835448,-0.5673865675926208
-0.0848922729492187,0.0800096616148948,0.0232703704386949,-0.3756160736083984,-0.1219628453254699,0.0916658267378807,0.0,0.0,0.915630578994751,0.2300970554351806
-0.0843978896737098,0.071990430355072,0.0440444387495517,-0.3559783399105072,-0.116602137684822,0.107214018702507,0.0,0.0,0.6715924739837646,0.3404295444488525
-0.0837845802307128,0.0637611225247383,0.0553535930812358,-0.3652908205986023,-0.1106592789292335,0.1188571602106094,0.0,0.0,0.9612317085266112,0.5471930503845215
-0.0831470489501953,0.0557509027421474,0.0589528754353523,-0.3556612133979797,-0.1058912724256515,0.0953602790832519,0.0,0.0,0.9572027921676636,0.5945740938186646
-0.0822665244340896,0.0485634431242942,0.0840296670794487,-0.3191639184951782,-0.1018981337547302,0.0798628330230712,0.0,0.0,0.8690207004547119,0.1260653734207153
-0.0813642516732215,0.0416562184691429,0.0862102508544921,-0.3067192733287811,-0.0979154407978057,0.0796539485454559,0.0,0.0,0.9470669031143188,0.5385606288909912
-0.0804986953735351,0.0354853495955467,0.0839621052145958,-0.274091899394989,-0.0953493639826774,0.0513215288519859,0.0,0.0,0.5929932594299316,0.1668994426727295
-0.0795009583234787,0.0296226125210523,0.0966840982437133,-0.2603713572025299,-0.0922829881310463,0.0613273493945598,0.0,0.0,0.6392707824707031,0.047661542892456
-0.0785017013549804,0.024194536730647,0.096966728568077,-0.2410689145326614,-0.0893501788377761,0.0586563758552074,0.0,0.0,0.6911783218383789,0.2052690982818603
-0.0775315314531326,0.0192382428795099,0.0943416282534599,-0.220119297504425,-0.0866969153285026,0.0530650541186332,0.0,0.0,0.6653527021408081,-0.2797697186470032
-0.0765548720955848,0.014350757934153,0.0949918776750564,-0.2170691043138504,-0.0840475037693977,0.0529884174466133,0.0,0.0,0.6211540699005127,0.2507226467132568
-0.0756535530090332,0.0096751311793923,0.0878683552145958,-0.2076815664768219,-0.081815592944622,0.0446384027600288,0.0,0.0,0.696436882019043,0.3598325252532959
-0.0747857093811035,0.0058811996132135,0.0661484450101852,-0.1676077097654342,-0.0614145137369632,0.4079781472682953,1.0,0.0,0.8038433790206909,-0.4583895802497864
-0.0736518874764442,0.0031489944085478,0.0763582959771156,-0.1203270256519317,-0.024802217260003,0.7322856187820435,1.0,0.0,0.7797155380249023,0.0436991453170776
-0.0724584609270095,0.0003183340886607,0.0829311609268188,-0.1255946308374405,0.0111440792679786,0.718925952911377,0.0,0.0,0.924717664718628,0.921465277671814
-0.0712471976876258,-0.0012632035650312,0.1063233464956283,-0.0704675614833831,0.0257605519145727,0.2923261821269989,0.0,1.0,-0.8340173959732056,0.8612710237503052
-0.070202350616455,-0.002968015614897,0.1110395342111587,-0.0756692141294479,0.0192992594093084,-0.1292158514261245,0.0,1.0,-0.060534119606018,0.0491538047790527
-0.06928501278162,-0.0041921758092939,0.0989428833127021,-0.0543320812284946,0.0121788745746016,-0.1424078643321991,1.0,1.0,0.6333855390548706,-0.8519945740699768
-0.0684638991951942,-0.0040764119476079,0.0876001939177513,0.0051777306944131,0.0067580454051494,-0.1084159612655639,1.0,1.0,-0.4792811274528503,-0.940376043319702
-0.0678157806396484,-0.0035113238263875,0.0678239911794662,0.0251258891075849,0.0037816937547177,-0.0595254711806774,1.0,1.0,-0.4551169872283935,-0.986063838005066
-0.0673285499215126,-0.0025343203451484,0.0490032136440277,0.0434281416237354,0.0035153173375874,-0.0053287204355001,1.0,1.0,-0.5088841915130615,-0.9095812439918518
-0.066889189183712,-0.0013096237089484,0.0414927676320076,0.0544264055788517,0.0059255138039588,0.0481981001794338,1.0,1.0,-0.800456702709198,-0.7886098623275757
-0.0666639357805252,-0.0003521466278471,0.0298244263976812,0.0425717458128929,-0.001279485411942,-0.144097238779068,1.0,1.0,-0.4278446435928345,-0.8579712510108948
-0.0664958953857421,-4.2977331759175286e-05,0.0192384086549282,0.0137351276353001,-0.0036852424964308,-0.0481149442493915,1.0,1.0,-0.5849868059158325,-0.2175300121307373
-0.0663418769836425,-4.512309897108935e-05,0.0154135841876268,-9.593732829671352e-05,-0.0036865153815597,-2.4472659788443707e-05,1.0,1.0,-0.4867403507232666,-0.0194172859191894
-0.0662522315979003,-4.734039248432964e-05,0.0089601473882794,-9.745108400238678e-05,-0.0036877940874546,-2.4860031771822836e-05,1.0,1.0,-0.7832303047180176,-0.2172474861145019
-0.066227339208126,-4.734039248432964e-05,0.0024850773625075,-6.682415119030338e-07,-0.0036877985112369,-1.6502210087310234e-07,1.0,1.0,-0.7534408569335938,-0.101292073726654
-0.0662403106689453,-4.734039248432964e-05,-0.0013160654343664,4.408219069773623e-07,-0.003667761106044,0.0003902032331097,1.0,1.0,-0.8131513595581055,-0.1274973750114441
-0.0662567168474197,-4.734039248432964e-05,-0.001686374656856,-2.7837717198053724e-07,-0.0036420652177184,0.0005001210956834,1.0,1.0,-0.4959076642990112,0.0260249376296997
