x_pos,y_pos,x_vel,y_vel,angle,ang_vel,leg_1,leg_2,main_booster,lat_booster
-0.0016663551796227,1.4035264253616333,-0.1685710251331329,-0.3286132216453552,0.001732817152515,0.0341792181134223,0.0,0.0,0.9346750629884204,0.990078420127927
-0.0033316612243652,1.3968634605407717,-0.1662807166576385,-0.2961326539516449,0.0014838536735624,-0.0049793124198913,0.0,0.0,0.0370197827462823,0.6668046549427881
-0.0049922941252589,1.390477418899536,-0.1645127981901168,-0.2838190495967865,-4.7442110371775925e-05,-0.030628528445959,0.0,0.0,0.6108688959757087,0.8184293234466999
-0.0068596838973462,1.3847213983535769,-0.1832701712846756,-0.2558262646198272,-0.0034801492001861,-0.0686607807874679,0.0,0.0,0.0051674276899222,0.9785499871879788
-0.0086956024169921,1.379464864730835,-0.1781130284070968,-0.2336528152227401,-0.0089002177119255,-0.1084114462137222,0.0,0.0,-0.9426800251985544,0.9395953373639256
-0.0105822561308741,1.3741079568862915,-0.1808800548315048,-0.2381469309329986,-0.016586048528552,-0.1537307649850845,0.0,0.0,-0.5725538161832147,0.7352005634587289
-0.0125537868589162,1.3686527013778689,-0.1880180090665817,-0.2425882965326309,-0.0256254859268665,-0.1808057427406311,0.0,0.0,0.2398993257125763,-0.8691986011337702
-0.0145924566313624,1.3638283014297483,-0.1966571360826492,-0.2145574241876602,-0.0327580347657203,-0.1426638811826706,0.0,0.0,-0.0540593759475851,-0.6000748454518365
-0.016818905249238,1.358915090560913,-0.2167742699384689,-0.2185079604387283,-0.0385721288621425,-0.1162925735116005,0.0,0.0,0.2887215384560726,-0.7100902848449666
-0.0192193035036325,1.3547608852386477,-0.2357240915298462,-0.1847454756498336,-0.0428441166877746,-0.0854474902153015,0.0,0.0,-0.1166234383366511,0.713422777901085
-0.0216942783445119,1.3505051136016846,-0.2417159080505371,-0.1893235892057418,-0.0485688373446464,-0.1145048290491104,0.0,0.0,0.7492547558567395,0.6213905748454723
-0.0241509433835744,1.3469789028167725,-0.239036351442337,-0.1569519639015197,-0.0551228672266006,-0.1310928612947464,0.0,0.0,0.5676284884606992,0.9197612820653064
-0.0264967922121286,1.3443361520767212,-0.2265366613864898,-0.1177746579051017,-0.0630909278988838,-0.1593758016824722,0.0,0.0,0.0459252021499636,-0.6198397964750109
-0.0289650913327932,1.341926336288452,-0.240344688296318,-0.1073902323842048,-0.0695173814892768,-0.1285407841205597,0.0,0.0,0.7986758187085181,-0.785781456688232
-0.0314009673893451,1.3407585620880127,-0.2393233031034469,-0.05210542678833,-0.0737513452768325,-0.0846871733665466,0.0,0.0,0.4999050639711635,0.7387179370708156
-0.0337851531803607,1.3398690223693848,-0.233168214559555,-0.0398101210594177,-0.0789578706026077,-0.1041396856307983,0.0,0.0,-0.3197903944868465,0.7789867001282205
-0.0362283699214458,1.3388813734054563,-0.2374846190214157,-0.044268112629652,-0.0857421532273292,-0.1356976181268692,0.0,0.0,0.1795064421896921,-0.7931601391848917
-0.038729477673769,1.338181734085083,-0.2453128546476364,-0.0313731394708156,-0.0905020534992218,-0.0952065959572792,0.0,0.0,0.5499053874795194,0.9456952011167586
-0.0411181449890136,1.3384937047958374,-0.2326728850603103,0.0134764229878783,-0.0966526567935943,-0.123023472726345,0.0,0.0,0.949714486619416,0.8481038178651182
-0.0436118133366107,1.3397095203399658,-0.2416433542966842,0.0535222329199314,-0.1043223068118095,-0.1534068882465362,0.0,0.0,-0.7150165272258104,-0.7133145700920829
-0.0462806709110736,1.3408392667770386,-0.2607141435146332,0.0497704893350601,-0.1104615703225135,-0.1227964535355568,0.0,0.0,-0.2509608597479269,0.7798207634553193
-0.04901809617877,1.3418561220169067,-0.2663995623588562,0.0446364022791385,-0.1177618578076362,-0.1460190415382385,0.0,0.0,-0.911208780211304,0.6114069806902781
-0.0518266670405864,1.3427636623382568,-0.2724865674972534,0.0396568439900875,-0.126099482178688,-0.1667673140764236,0.0,0.0,0.5630695235159513,0.7968852802321985
-0.0545919425785541,1.3439782857894895,-0.2671496272087097,0.0531647242605686,-0.1354476362466812,-0.1869798302650451,0.0,0.0,0.8158102991466996,0.6352639001821447
-0.0575053207576274,1.3461718559265137,-0.280757188796997,0.0965020880103111,-0.1460106968879699,-0.2112806290388107,0.0,0.0,-0.6269140762706156,0.8571122687692003
-0.0604955665767192,1.3482400178909302,-0.287635326385498,0.090761162340641,-0.1573784202337265,-0.2273540943861007,0.0,0.0,0.9106258741602338,-0.8247003892611615
-0.0635379776358604,1.3514742851257324,-0.2950426936149597,0.1427434980869293,-0.1665785163640976,-0.184001624584198,0.0,0.0,0.0620918695701067,-0.7992329451327055
-0.0667736083269119,1.3554431200027466,-0.3164543509483337,0.1755794584751129,-0.1736977696418762,-0.1423849463462829,0.0,0.0,-0.7124514828547333,0.726666591218417
-0.070086196064949,1.3593076467514038,-0.3235557675361633,0.170833483338356,-0.1814265698194503,-0.1545758843421936,0.0,0.0,0.0622360691253094,-0.8947332018539093
-0.0735483169555664,1.363555908203125,-0.3408363461494446,0.1881453990936279,-0.1868248581886291,-0.1079658269882202,0.0,0.0,0.5774337946002821,0.8278455073064727
-0.0768939033150672,1.3688820600509644,-0.3281225860118866,0.2358900159597396,-0.1932996064424514,-0.1294948458671569,0.0,0.0,-0.3702701911160608,0.8422551201172834
-0.0803002342581749,1.3740878105163574,-0.3332793116569519,0.2303873598575592,-0.2006939351558685,-0.1478869169950485,0.0,0.0,0.3735312277513707,-0.8245135181267352
-0.0838272124528884,1.3802242279052734,-0.347476452589035,0.272013247013092,-0.2059518843889236,-0.1051592454314231,0.0,0.0,-0.2586500641625486,-0.9508310042752428
-0.0875493064522743,1.3862781524658203,-0.3696579337120056,0.2687076926231384,-0.2085302472114563,-0.0515669398009777,0.0,0.0,-0.6089693132197342,0.7420766527956328
-0.0913227051496505,1.392215371131897,-0.3738473951816559,0.2633788287639618,-0.212061658501625,-0.0706284791231155,0.0,0.0,-0.7769778944794696,0.8379852556931661
-0.0951365455985069,1.398037672042847,-0.3767516911029815,0.2580969929695129,-0.2167408168315887,-0.0935827791690826,0.0,0.0,0.2798614121272418,0.8478340177470941
-0.0989377051591873,1.4042589664459229,-0.3743684887886047,0.2756433188915252,-0.2225598096847534,-0.1163799613714218,0.0,0.0,0.919994861697907,0.8038272150777156
-0.1025362014770507,1.4116439819335938,-0.3531928956508636,0.3272085785865783,-0.2292964607477188,-0.1347331255674362,0.0,0.0,-0.9049201339744632,-0.7712506313174766
-0.1062958687543869,1.4189600944519043,-0.3715481460094452,0.3244629800319671,-0.233771800994873,-0.0895070284605026,0.0,0.0,0.4143753847190783,0.723110341573205
-0.109949305653572,1.4269075393676758,-0.3601351976394653,0.3523834347724914,-0.2390596568584442,-0.1057575494050979,0.0,0.0,-0.3528084563553206,-0.7140724779934342
-0.113758847117424,1.4347845315933228,-0.3780291676521301,0.3496103584766388,-0.242041602730751,-0.0596386715769767,0.0,0.0,-0.5281644463539124,0.4743061065673828
-0.1176576614379882,1.4425616264343262,-0.387541264295578,0.3452609777450561,-0.2444168031215667,-0.0475043803453445,0.0,0.0,-0.4774413108825683,0.3736889362335205
-0.1216417327523231,1.450238823890686,-0.3966681957244873,0.3409119546413421,-0.2461835891008377,-0.0353356972336769,0.0,0.0,-0.4512187838554382,0.4753475189208984
-0.125707060098648,1.4578157663345337,-0.4053876996040344,0.3365632593631744,-0.2473407387733459,-0.023142846301198,0.0,0.0,-0.3526670932769775,0.3136523962020874
-0.1298491507768631,1.4652926921844482,-0.4136772751808166,0.3322148323059082,-0.2478875517845153,-0.0109362844377756,0.0,0.0,-0.4038482904434204,0.2910603284835815
-0.1340636312961578,1.4726693630218506,-0.4215147495269775,0.3278664648532867,-0.2478238046169281,0.0012748040026053,0.0,0.0,-0.4743866920471191,0.4805501699447632
-0.1383458077907562,1.4799461364746094,-0.4288784563541412,0.32351815700531,-0.2471497654914856,0.0134807853028178,0.0,0.0,-0.3892825841903686,0.2124701738357544
-0.1426906585693359,1.4871225357055664,-0.4357472360134125,0.3191697001457214,-0.2458661496639251,0.0256721712648868,0.0,0.0,-0.6086825132369995,-0.1530616283416748
-0.1470931023359298,1.4941991567611694,-0.4421009123325348,0.3148211240768432,-0.2439741492271423,0.0378401950001716,0.0,0.0,-0.4802006483078003,0.1626060009002685
-0.1515477150678634,1.5011756420135498,-0.4479205012321472,0.3104722201824188,-0.2414752840995788,0.0499771758913993,0.0,0.0,-0.5694339275360107,-0.2720917463302612
-0.1560490578413009,1.508052110671997,-0.4531885087490082,0.3061229586601257,-0.2383715510368347,0.062074739485979,0.0,0.0,-0.4300180673599243,-0.0951047539710998
-0.1605914086103439,1.5148288011550903,-0.4578891694545746,0.3017732203006744,-0.2346652895212173,0.0741251111030578,0.0,0.0,-0.4848839044570923,0.2448363304138183
-0.1651690453290939,1.5215058326721191,-0.462008535861969,0.2974229454994201,-0.2303592264652252,0.0861212760210037,0.0,0.0,-0.5793454051017761,0.1073302030563354
-0.1697759628295898,1.528083086013794,-0.4655349850654602,0.2930719554424286,-0.2254563868045807,0.0980563834309578,0.0,0.0,-0.4063621163368225,0.044310450553894
-0.1744062453508377,1.5345609188079834,-0.4684590697288513,0.2887202501296997,-0.2199602127075195,0.1099235415458679,0.0,0.0,-0.5905431509017944,-0.0259206891059875
-0.179053783416748,1.540939211845398,-0.4707738757133484,0.2843676507472992,-0.2138743698596954,0.1217168420553207,0.0,0.0,-0.5729454159736633,-0.0731017589569091
-0.1837124824523925,1.5472183227539062,-0.4724752306938171,0.2800141274929046,-0.2072028368711471,0.1334306746721267,0.0,0.0,-0.7356464862823486,-0.3095525503158569
-0.1883761435747146,1.553398370742798,-0.4735614359378814,0.2756596207618713,-0.1999498605728149,0.1450595706701278,0.0,0.0,-0.7069864869117737,-0.3850922584533691
-0.1930386573076248,1.5594794750213623,-0.4740334153175354,0.271304041147232,-0.1921199113130569,0.1565987318754196,0.0,0.0,-0.8407441973686218,-0.0539324283599853
-0.1976940184831619,1.5654618740081787,-0.4738946855068207,0.2669472992420196,-0.1837177276611328,0.1680435538291931,0.0,0.0,-0.8569784164428711,-0.1363666653633117
-0.2023361623287201,1.5713460445404053,-0.4731514453887939,0.2625892758369446,-0.1747482270002365,0.1793898195028305,0.0,0.0,-0.9138545989990234,-0.1475181579589843
-0.2069590985774994,1.5771316289901731,-0.4718121886253357,0.258229911327362,-0.1652165502309799,0.1906336843967437,0.0,0.0,-0.9197858572006226,0.0100710391998291
-0.2115571051836013,1.5828192234039309,-0.4698875844478607,0.2538692057132721,-0.1551279723644256,0.2017714977264404,0.0,0.0,-0.9478886723518372,0.4782438278198242
-0.21612448990345,1.5884090662002563,-0.4673903882503509,0.2495070099830627,-0.1444879621267318,0.2127999812364578,0.0,0.0,-0.966345489025116,0.6435579061508179
-0.2206050902605056,1.5938851833343506,-0.4579738080501556,0.2443123459815979,-0.134608119726181,0.1975968182086944,0.0,0.0,-0.9681783318519592,0.7026225328445435
-0.2250004261732101,1.599255084991455,-0.4488794207572937,0.2394710332155227,-0.1253033280372619,0.1860957592725753,0.0,0.0,-0.9492971897125244,0.4664031267166137
-0.2293490469455719,1.6045268774032593,-0.4447572231292724,0.2351085692644119,-0.1154643297195434,0.1967797577381134,0.0,0.0,-0.9936792850494384,0.7837749719619751
-0.2335767298936844,1.6096795797348022,-0.431415319442749,0.2296521216630935,-0.1068782955408096,0.1717206686735153,0.0,0.0,-0.989912748336792,0.6319832801818848
-0.2376954555511474,1.614733338356018,-0.4197285771369934,0.2251466363668441,-0.0990845263004303,0.1558754593133926,0.0,0.0,-0.944201111793518,0.1448101997375488
-0.2417531013488769,1.619688868522644,-0.4141474366188049,0.2207849770784378,-0.0907749012112617,0.1661923229694366,0.0,0.0,-0.9823102355003356,0.6921684741973877
-0.2456989288330078,1.624543309211731,-0.4023017883300781,0.216198056936264,-0.0831239819526672,0.1530183404684066,0.0,0.0,-0.978035032749176,0.0244070291519165
-0.2495750933885574,1.6292997598648071,-0.3958498537540436,0.2118357867002487,-0.0749700739979744,0.1630779951810836,0.0,0.0,-0.987272083759308,0.7267160415649414
-0.2533320784568786,1.63396155834198,-0.3832964599132538,0.2075496166944503,-0.0674553364515304,0.1502946317195892,0.0,0.0,-0.9957883358001708,0.3243194818496704
-0.257011741399765,1.6385256052017212,-0.3760567009449005,0.2031867802143097,-0.0594509802758693,0.1600870192050933,0.0,0.0,-0.9833810925483704,0.5203713178634644
-0.2605718672275543,1.642984390258789,-0.3636004328727722,0.1984494179487228,-0.0519425459206104,0.1501685380935669,0.0,0.0,-0.9938029050827026,0.7749574184417725
-0.2639797627925873,1.647331714630127,-0.3471296429634094,0.1934256553649902,-0.04567626491189,0.1253257244825363,0.0,0.0,-0.9897340536117554,0.765296459197998
-0.2672430872917175,1.6515696048736572,-0.3316894769668579,0.1885051727294922,-0.0403854958713054,0.1058153510093689,0.0,0.0,-0.9827659130096436,0.8020211458206177
-0.2703532576560974,1.6557128429412842,-0.3152478337287903,0.1842540949583053,-0.0362059101462364,0.0835916548967361,0.0,0.0,-0.9926760196685792,0.3599449396133423
-0.2733702063560486,1.65975821018219,-0.3063859045505523,0.1798931062221527,-0.0315726362168788,0.0926654040813446,0.0,0.0,-0.982721507549286,0.882920503616333
-0.2762342989444732,0.0,-0.2901061475276947,0.1757756769657135,-0.0279213618487119,0.0730253607034683,0.0,0.0,-0.991399347782135,0.2565759420394897
-0.2790001332759857,1.6675666570663452,-0.2807229161262512,0.1714146733283996,-0.0238319803029298,0.0817877203226089,0.0,0.0,-0.9918466210365297,0.7081995010375977
-0.2816054821014404,1.671328067779541,-0.2635922133922577,0.1672149300575256,-0.02081492356956,0.0603411197662353,0.0,0.0,-0.9767524600028992,0.7024679183959961
-0.2840619087219238,0.0,-0.2479517161846161,0.1627709567546844,-0.0185381304472684,0.0455358251929283,0.0,0.0,-0.9617481231689452,0.699730396270752
-0.2863633632659912,1.6785547733306885,-0.2315872013568878,0.1584629714488983,-0.0171128250658512,0.0285061486065387,0.0,0.0,-0.98196542263031,-0.3414266109466553
-0.2885583043098449,1.6820216178894043,-0.2213487923145294,0.1541025042533874,-0.0152829820290207,0.0365968570113182,0.0,0.0,-0.9896811246871948,-0.1291182041168213
-0.2906450629234314,1.6853902339935305,-0.2109313458204269,0.1497418284416198,-0.0130575373768806,0.0445088222622871,0.0,0.0,-0.9873153567314148,-0.1978696584701538
-0.2926220893859863,1.6886608600616455,-0.2003474533557891,0.1453809440135955,-0.0104456664994359,0.0522372499108314,0.0,0.0,-0.9815733432769777,-0.3321884870529175
-0.2944878935813904,1.691833257675171,-0.1896088868379593,0.1410197913646698,-0.0074567897245287,0.0597774498164653,0.0,0.0,-0.9481126070022584,0.0381317138671875
-0.2962411940097809,1.6949079036712646,-0.178726851940155,0.1366583853960037,-0.004100555088371,0.0671246498823165,0.0,0.0,-0.9864588975906372,0.3000384569168091
-0.2978807091712951,0.0,-0.1677119135856628,0.1322966665029525,-0.0003868516359943,0.0742741003632545,0.0,0.0,-0.9746592044830322,0.5113174915313721
-0.2993651926517486,1.7007665634155271,-0.1515444219112396,0.1280988603830337,0.0026669630315154,0.0610761642456054,0.0,0.0,-0.963154911994934,0.547516942024231
-0.3006882071495056,1.7035552263259888,-0.1345777213573455,0.1239319145679473,0.0049129771068692,0.0449201986193656,0.0,0.0,-0.9843111634254456,-0.1379218101501464
-0.3018944263458252,1.7062458992004397,-0.1232219710946083,0.1195704787969589,0.0074853948317468,0.051448255777359,0.0,0.0,-0.9861169457435608,0.1386721134185791
-0.3029828667640686,1.7088383436203003,-0.111770212650299,0.1152088418602943,0.0103733940050005,0.0577599592506885,0.0,0.0,-0.9841938018798828,0.2793624401092529
-0.3039528429508209,1.7113330364227295,-0.1002304777503013,0.1108469888567924,0.0135659417137503,0.0638509690761566,0.0,0.0,-0.9825553894042968,0.1404125690460205
-0.3048036098480224,1.7137298583984375,-0.0886103883385658,0.106484904885292,0.0170517973601818,0.0697171092033386,0.0,0.0,-0.9707552790641784,-0.0935456752777099
-0.3055346608161926,1.7160286903381348,-0.0769171640276908,0.1021225973963737,0.020819516852498,0.0753544047474861,0.0,0.0,-0.9883657097816468,-0.0835158824920654
-0.3061453402042389,1.7182296514511108,-0.0651577115058898,0.0977600514888763,0.0248574707657098,0.080759160220623,0.0,0.0,-0.9799695014953612,0.2394182682037353
-0.3066352307796478,1.7203328609466553,-0.0533385761082172,0.0933972597122192,0.0291538722813129,0.0859279483556747,0.0,0.0,-0.9903892278671264,-0.2064867615699768
-0.3070038855075836,1.7223381996154783,-0.0414660386741161,0.0890342220664024,0.0336967594921588,0.0908576324582099,0.0,0.0,-0.9879953861236572,-0.0974237322807312
-0.3072509765625,1.7242460250854492,-0.0295461062341928,0.0846709460020065,0.0384740307927131,0.0955455228686332,0.0,0.0,-0.9812564849853516,0.1145191192626953
-0.3073762357234955,1.7260559797286987,-0.0175845492631196,0.0803074315190315,0.0434734970331192,0.0999891683459281,0.0,0.0,-0.9769983887672424,0.4009221792221069
-0.3073793947696686,1.7277684211730957,-0.0055869221687316,0.0759436935186386,0.0486828312277793,0.1041866540908813,0.0,0.0,-0.9778226613998412,0.54945969581604
-0.3072276711463928,1.729384183883667,0.0105333440005779,0.0716576129198074,0.0532697215676307,0.0917378887534141,0.0,0.0,-0.9613897800445556,0.0352954864501953
-0.3069535195827484,1.7309024333953855,0.0225871242582798,0.0672941356897354,0.0580416768789291,0.0954389423131942,0.0,0.0,-0.9748161435127258,0.4092811346054077
-0.3065568804740906,1.7323228120803833,0.0346613451838493,0.0629305094480514,0.0629861950874328,0.0988905504345893,0.0,0.0,-0.942316234111786,0.1833730936050415
-0.3060378134250641,1.7336456775665283,0.0467510782182216,0.0585667453706264,0.0680908188223838,0.1020926013588905,0.0,0.0,-0.9175108075141908,-0.1632511615753173
-0.3053962290287018,1.7348707914352417,0.0588514991104602,0.0542028397321701,0.0733430981636047,0.1050454825162887,0.0,0.0,-0.9230793714523317,0.6304354667663574
-0.3045710623264313,1.73601233959198,0.0786453187465667,0.0505415350198745,0.0771757066249847,0.076652243733406,0.0,0.0,-0.873149573802948,0.1701393127441406
-0.3036235868930816,1.737056016921997,0.090752825140953,0.0461786352097988,0.0811312049627304,0.0791098922491073,0.0,0.0,-0.8886175155639648,0.4333124160766601
-0.3025539517402649,1.738002061843872,0.1028569787740707,0.04181569814682,0.0851973220705986,0.0813224092125892,0.0,0.0,-0.9049786925315856,0.1751641035079956
-0.3013624250888824,1.7388503551483154,0.1149531975388526,0.0374527387320995,0.0893619284033775,0.0832922011613845,0.0,0.0,-0.8775429129600525,0.0888450145721435
-0.3000491261482239,1.7396007776260376,0.1270368993282318,0.0330897606909275,0.0936130359768867,0.0850221887230873,0.0,0.0,-0.8246819376945496,0.4114397764205932
-0.298614501953125,1.740253448486328,0.139103502035141,0.0287267863750457,0.0979388281702995,0.086515873670578,0.0,0.0,-0.8584791421890259,0.379367470741272
-0.2970587611198425,1.740808129310608,0.1511484533548355,0.0243638288229703,0.1023276895284652,0.08777716755867,0.0,0.0,-0.8620198965072632,0.7109665870666504
-0.2953283786773681,1.741273045539856,0.1699421107769012,0.0204464104026556,0.1054013445973396,0.0614729151129722,0.0,0.0,-0.8182453513145447,0.2825795412063598
-0.293477714061737,1.7416400909423828,0.1819297820329666,0.0160843860357999,0.1085155084729194,0.0622830800712108,0.0,0.0,-0.8374021649360657,0.2376950979232788
-0.2915073037147522,1.7419090270996094,0.193881869316101,0.0117224287241697,0.1116592735052108,0.0628752782940864,0.0,0.0,-0.85821133852005,-0.0430526733398437
-0.2894175052642822,1.7420802116394043,0.2057936191558838,0.0073605491779744,0.1148220375180244,0.0632552951574325,0.0,0.0,-0.8718733787536621,-0.2303066849708557
-0.2872089743614197,1.742153286933899,0.2176602333784103,0.0029987539164721,0.1179935038089752,0.0634293854236602,0.0,0.0,-0.7928701043128967,0.7051153182983398
-0.284820407629013,1.7421314716339111,0.2372266501188278,-0.0011015665950253,0.119610920548439,0.0323485136032104,0.0,0.0,-0.7706559300422668,0.8728294372558594
