x_pos,y_pos,x_vel,y_vel,angle,ang_vel,leg_1,leg_2,main_booster,lat_booster
-0.0015102386241778,1.4031157493591309,-0.1523954719305038,-0.346858948469162,0.0012240995420143,0.0241067521274089,0.0,0.0,0.1140597937522758,-0.6940527332402588
-0.0030203820206224,1.3952889442443848,-0.1531094014644622,-0.3478554785251617,0.003301267279312,0.0415477529168129,0.0,0.0,-0.7813253493729961,-0.950107661728459
-0.0045711519196629,1.3869459629058838,-0.158110037446022,-0.3708141148090362,0.0063036223873496,0.0600526630878448,0.0,0.0,0.9757964758190798,-0.9977015120992376
-0.0063426969572901,1.378985047340393,-0.1813386976718902,-0.3538418114185333,0.0104480413720011,0.0828956589102745,0.0,0.0,-0.6990090864012124,0.8323150083367542
-0.0080134393647313,1.370518922805786,-0.1687036752700805,-0.3762732148170471,0.0120564997196197,0.0321723893284797,0.0,0.0,0.9081472022090058,-0.7561609029353761
-0.009556102566421,1.3624863624572754,-0.1572833657264709,-0.3570367097854614,0.0150440242141485,0.0597560480237007,0.0,0.0,-0.4467015192013859,-0.8397559821097794
-0.0111425397917628,1.3539432287216189,-0.1628627777099609,-0.3797395527362823,0.0192187931388616,0.0835032016038894,0.0,0.0,0.3516981486748873,0.778114514150853
-0.0125140193849802,1.3456933498382568,-0.1394830048084259,-0.3666911125183105,0.0215181857347488,0.0459920838475227,0.0,0.0,-0.7903928742106536,0.9218982097158792
-0.0137866977602243,1.3369468450546265,-0.1272363811731338,-0.3887326121330261,0.0214940030127763,-0.0004835527797695,0.0,0.0,0.7713034698130479,0.7614305931940804
-0.014987563714385,1.3288662433624268,-0.117994800209999,-0.3591128885746002,0.0194269176572561,-0.0413457825779914,0.0,0.0,-0.4746473877445418,0.6158573879209844
-0.0161020271480083,1.320278525352478,-0.1074080690741539,-0.3816208243370056,0.0154345193877816,-0.0798553824424743,0.0,0.0,-0.1477966577489657,0.9336068635016928
-0.0171019546687603,1.311182737350464,-0.0933290794491767,-0.4042047560214996,0.0088461292907595,-0.1317799389362335,0.0,0.0,-0.7267924796159051,-0.6596180869258745
-0.018109131604433,1.301581621170044,-0.0945530459284782,-0.4266961216926574,0.0027567679062485,-0.1217984184622764,0.0,0.0,-0.6339666796441557,-0.7005079831153359
-0.0191304199397563,1.2914655208587646,-0.0966858640313148,-0.4496088624000549,-0.0026280696038156,-0.1077063530683517,0.0,0.0,0.4553101345592263,-0.9939737524058468
-0.020049761980772,1.2819401025772097,-0.0880854502320289,-0.4233583807945251,-0.0064399549737572,-0.0762445256114006,0.0,0.0,0.8589147533128749,-0.7221415044330143
-0.0208536144345998,1.272398591041565,-0.077774628996849,-0.4240823090076446,-0.009020747616887,-0.0516201555728912,0.0,0.0,0.4108854996839044,-0.6757014580702028
-0.0215367320924997,1.2634512186050415,-0.0667755380272865,-0.3976778090000152,-0.0105322944000363,-0.0302339754998683,0.0,0.0,0.3088482400218622,-0.9833188532386188
-0.0221247673034667,1.2544310092926023,-0.0587913319468498,-0.4009009897708893,-0.0105395894497632,-0.0001458543993066,0.0,0.0,0.1961487148671572,0.8328912443758307
-0.022520637139678,1.2457793951034546,-0.0374529436230659,-0.3845309019088745,-0.0126497717574238,-0.0422074347734451,0.0,0.0,0.2816356521769885,-0.7669085892356935
-0.0230021476745605,1.2372798919677734,-0.0469631813466548,-0.3777718842029571,-0.0138319181278347,-0.0236451253294944,0.0,0.0,-0.3680242039449308,-0.937765065978742
-0.0235014911741018,1.2282795906066897,-0.0497137010097503,-0.400011658668518,-0.0140496548265218,-0.0043552261777222,0.0,0.0,0.6407644821426011,-0.9379499860963328
-0.024014662951231,1.2194260358810425,-0.052487414330244,-0.3934874236583709,-0.0128858368843793,0.0232783108949661,0.0,0.0,0.3258763049408988,0.926449191176386
-0.0242872238159179,1.2107139825820925,-0.0261575542390346,-0.3872126936912536,-0.0139710009098052,-0.0217052418738603,0.0,0.0,-0.2390316987442653,0.8969042484845884
-0.0244384761899709,1.2014816999435425,-0.0115159163251519,-0.4103609323501587,-0.0175350122153759,-0.0712865218520164,0.0,0.0,-0.42554408649409,0.7660919102778909
-0.0245005600154399,1.1917420625686646,-0.0009407650795765,-0.4329430758953094,-0.022746006026864,-0.1042292267084121,0.0,0.0,0.2302683766915534,-0.6522256659766998
-0.0246805194765329,1.1822683811187744,-0.0133611131459474,-0.4211322069168091,-0.0273259077221155,-0.0915977880358696,0.0,0.0,-0.7501284636604979,0.917864248569774
-0.0247441288083791,1.1722893714904783,0.0006235822220332,-0.4436543583869934,-0.0342141315340995,-0.1377646476030349,0.0,0.0,0.5457356191524885,0.937544275064158
-0.0248015411198139,1.1629735231399536,0.0037511666305363,-0.4142886102199554,-0.0435916818678379,-0.1875512450933456,0.0,0.0,-0.9072873048318127,0.6425767580805036
-0.0247752182185649,1.1531531810760498,0.0135947093367576,-0.43681401014328,-0.0544270612299442,-0.216707706451416,0.0,0.0,-0.0927611367990317,-0.9867726673849132
-0.0247858054935932,1.1428287029266355,0.0082972422242164,-0.4592300355434418,-0.063680276274681,-0.1850641071796417,0.0,0.0,0.5424817805313358,0.6973731835407202
-0.0246274955570697,1.1331815719604492,0.0269917659461498,-0.4292818009853363,-0.0747231915593147,-0.2208586484193802,0.0,0.0,0.614712583670092,-0.6397009230405764
-0.0245261192321777,1.1236793994903564,0.0206286925822496,-0.4228751361370086,-0.0851124450564384,-0.2077852487564087,0.0,0.0,0.5035781890799134,0.777816810073649
-0.0243401527404785,1.1147711277008057,0.031204218044877,-0.3966823816299438,-0.0976070985198021,-0.2498929947614669,0.0,0.0,0.9059138227344729,0.7952541701681918
-0.0240872390568256,1.1059739589691162,0.0400747433304786,-0.3920224010944366,-0.1122749894857406,-0.2933578193187713,0.0,0.0,-0.3975337746161593,-0.7728668673195487
-0.0238492004573345,1.0966827869415283,0.0374538749456405,-0.4140220880508423,-0.1258445829153061,-0.2713919579982757,0.0,0.0,-0.8499699400174465,-0.7522763132211583
-0.02362403832376,1.086902379989624,0.0350748561322689,-0.4357936084270477,-0.1383468210697174,-0.2500447630882263,0.0,0.0,-0.5432810482199417,0.8633607741149318
-0.0232908241450786,1.0765985250473022,0.0478870347142219,-0.4593663215637207,-0.1528822928667068,-0.2907094061374664,0.0,0.0,0.1193771456742724,-0.968627063430572
-0.0228801723569631,1.066571593284607,0.0540346428751945,-0.4470211565494537,-0.1658479422330856,-0.2593130767345428,0.0,0.0,-0.4621473705939636,0.9123669774178662
-0.0223587043583393,1.05603289604187,0.0671510845422744,-0.4701345860958099,-0.1808724850416183,-0.3004909753799438,0.0,0.0,0.9569333152484576,0.9895171421970952
-0.0215508453547954,1.0460222959518433,0.0979853719472885,-0.4471089541912079,-0.1981632113456726,-0.3458147048950195,0.0,0.0,-0.0077965452384618,-0.8146467531792142
-0.0207736976444721,1.035536527633667,0.0932881012558937,-0.4681964814662933,-0.2138534039258957,-0.3138037621974945,0.0,0.0,-0.3939787149429321,-0.9960315823554992
-0.0200155265629291,1.024563550949097,0.0900679603219032,-0.4898143112659454,-0.2282693535089492,-0.2883194386959076,0.0,0.0,-0.3192281126976013,-0.9630439877510072
-0.0192791931331157,1.013096570968628,0.0865323320031166,-0.5116948485374451,-0.2413697093725204,-0.2620068192481994,0.0,0.0,-0.4988532066345215,-0.9947137832641602
-0.0185656547546386,1.001145362854004,0.0828623622655868,-0.5330945253372192,-0.2530843913555145,-0.2342936992645263,0.0,0.0,-0.8158574104309082,-0.9995164275169371
-0.017894934862852,0.9887080192565918,0.0767110586166381,-0.5544593334197998,-0.2629274725914001,-0.1968617141246795,0.0,0.0,-0.1814923286437988,-0.9863430857658386
-0.0172554962337017,0.9757825136184692,0.0720328167080879,-0.5759432911872864,-0.2711956202983856,-0.1653627902269363,0.0,0.0,-0.3690145611763,-0.994349718093872
-0.0166455265134573,0.962372899055481,0.0675415694713592,-0.5972089171409607,-0.2779029905796051,-0.1341472417116165,0.0,0.0,-0.8213998079299927,-0.9637917876243592
-0.0160815231502056,0.9485029578208924,0.0608816854655742,-0.6173040866851807,-0.2825104296207428,-0.0921485796570777,0.0,0.0,-0.7752918004989624,-0.9916954636573792
-0.0155694959685206,0.9341735243797302,0.0534906312823295,-0.6373094916343689,-0.2848672568798065,-0.047136478126049,0.0,0.0,-0.9226204752922058,-0.9924557209014891
-0.0150985717773437,0.9193675518035888,0.0475470535457134,-0.6581315994262695,-0.2853392958641052,-0.0094409668818116,0.0,0.0,-0.6098753809928894,-0.9590995907783508
-0.0146466251462697,0.9040777087211608,0.0443890914320945,-0.6793917417526245,-0.2845103144645691,0.0165798366069793,0.0,0.0,-0.8423470258712769,-0.9932981133461
-0.0142400739714503,0.8883222937583923,0.0378511399030685,-0.6996966600418091,-0.281631737947464,0.0575714483857154,0.0,0.0,-0.8382954001426697,-0.9858603477478028
-0.0138609884306788,0.8720802664756775,0.0336653888225555,-0.7210569977760315,-0.2772710621356964,0.0872127264738082,0.0,0.0,-0.8403783440589905,-0.990096628665924
-0.0135209085419774,0.8553710579872131,0.0279334150254726,-0.7414922714233398,-0.2710384130477905,0.1246532797813415,0.0,0.0,-0.9651636481285096,-0.9791138768196106
-0.0132043836638331,0.8381738662719727,0.0242208447307348,-0.7629565000534058,-0.263433963060379,0.1520889103412628,0.0,0.0,-0.9818296432495116,-0.9798754453659058
-0.0129427909851074,0.8205003142356873,0.0165522079914808,-0.7837997078895569,-0.2536371648311615,0.1959361135959625,0.0,0.0,-0.954212248325348,-0.3705043792724609
-0.0126502038910985,0.8023197054862976,0.0197353567928075,-0.8064161539077759,-0.24392631649971,0.1942169964313507,0.0,0.0,-0.968545138835907,0.1332404613494873
-0.0123272892087697,0.7836319208145142,0.0228045433759689,-0.8290320038795471,-0.234285682439804,0.1928126513957977,0.0,0.0,-0.9153267741203308,0.6428203582763672
-0.0119185447692871,0.764423131942749,0.0328409746289253,-0.8524720072746277,-0.2261517196893692,0.1626795530319214,0.0,0.0,-0.8699824810028076,0.0806810855865478
-0.0114818569272756,0.7447065711021423,0.035676285624504,-0.8750849366188049,-0.2180570214986801,0.1618943363428115,0.0,0.0,-0.7091946601867676,-0.0433376431465148
-0.0110179902985692,0.7244822382926941,0.0383913628757,-0.8976975679397583,-0.209986463189125,0.1614115238189697,0.0,0.0,-0.6744685769081116,-0.2989193797111511
-0.0105281826108694,0.7037503123283386,0.0409846045076847,-0.9203099012374878,-0.2019252032041549,0.1612255573272705,0.0,0.0,-0.0918250679969787,-0.7401667833328247
-0.0100591657683253,0.6825226545333862,0.0377050191164016,-0.9422221779823304,-0.1926776319742202,0.1849514693021774,0.0,0.0,0.4233448505401611,-0.9265388250350952
-0.0095142368227243,0.6615809798240662,0.0434022210538387,-0.9293413162231444,-0.1815282702445984,0.2229873389005661,0.0,0.0,0.7681128978729248,-0.9367891550064088
-0.0089333532378077,0.6407758593559265,0.0450374111533165,-0.9231226444244384,-0.1684569418430328,0.2614266276359558,0.0,0.0,0.9532818794250488,-0.3062842488288879
-0.0083580017089843,0.6205344200134277,0.0450952015817165,-0.8982599377632141,-0.1560159027576446,0.2488208264112472,0.0,0.0,0.6458508968353271,-0.665490448474884
-0.0076577188447117,0.6010643243789673,0.0561101213097572,-0.8639429211616516,-0.1421275734901428,0.2777669429779053,0.0,0.0,0.8122252225875854,-0.0530958175659179
-0.0068035125732421,0.5815451145172119,0.070991113781929,-0.8662055134773254,-0.1277503669261932,0.287544310092926,0.0,0.0,0.576693058013916,-0.7288752794265747
-0.0058553693816065,0.5627462267875671,0.0787414014339447,-0.834208071231842,-0.1117751002311706,0.3195051252841949,0.0,0.0,0.2002438306808471,0.0701091289520263
-0.0049196244217455,0.5439658761024475,0.0776916593313217,-0.8335682153701782,-0.0960197299718856,0.3151074051856994,0.0,0.0,0.5968813896179199,0.3524352312088012
-0.003993606660515,0.5256699919700623,0.0770128592848777,-0.8122236132621765,-0.0805671364068985,0.3090518712997436,0.0,0.0,0.8041906356811523,0.7166327238082886
-0.0029050826560705,0.5078744292259216,0.0944815576076507,-0.7902013063430786,-0.0663405433297157,0.2845320105552673,0.0,0.0,0.1421924829483032,0.2490515708923339
-0.0018529891967773,0.4904554486274719,0.091105006635189,-0.7736108303070068,-0.0523966550827026,0.2788777649402618,0.0,0.0,0.2448068857192993,0.3378036022186279
-0.000710392021574,0.4731777906417846,0.0997556447982788,-0.7674509286880493,-0.0380574204027652,0.2867847084999084,0.0,0.0,0.6065336465835571,0.7106778621673584
0.0004783630429301,0.4559572339057922,0.1057067513465881,-0.7650759816169739,-0.0250564347952604,0.2600196897983551,0.0,0.0,0.2678204774856567,0.2489008903503418
0.0017357826000079,0.4386024177074432,0.1121714115142822,-0.771155059337616,-0.0116561260074377,0.2680059969425201,0.0,0.0,0.6250753402709961,0.6421829462051392
0.0030233382713049,0.4212350845336914,0.1163888946175575,-0.7718289494514465,0.0005566245527006,0.2442550212144851,0.0,0.0,0.8858065605163574,0.3225210905075073
0.0043090819381177,0.4047191739082336,0.1160728558897972,-0.7340900301933289,0.0128999948501586,0.2468673288822174,0.0,0.0,0.7815942764282227,0.5142958164215088
0.0057230950333178,0.3890236616134643,0.1294814348220825,-0.6977195739746094,0.0246661324054002,0.2353225946426391,0.0,0.0,0.6103825569152832,0.6228678226470947
0.007054328918457,0.3740195333957672,0.1225459203124046,-0.66705322265625,0.0351075679063797,0.2088288366794586,0.0,0.0,0.0384051799774169,0.8583946228027344
0.0083557125180959,0.3588099777698517,0.1211047992110252,-0.6762177348136902,0.0440299734473228,0.1784478724002838,0.0,0.0,0.3272567987442016,0.6816327571868896
0.0097230914980173,0.3440565466880798,0.1288231909275055,-0.6559632420539856,0.0518573187291622,0.1565471738576889,0.0,0.0,0.2575621604919433,-0.2017852067947387
0.0109942434355616,0.3294456005096435,0.1193459257483482,-0.6496651768684387,0.0595369413495063,0.1535923033952713,0.0,0.0,0.7551794052124023,0.3658567667007446
0.0121669769287109,0.3153998851776123,0.1095655336976051,-0.6245769262313843,0.0671617239713668,0.15249565243721,0.0,0.0,0.6697778701782227,0.2172564268112182
0.0132820131257176,0.30190309882164,0.1036318391561508,-0.6002318263053894,0.074950210750103,0.155769944190979,0.0,0.0,0.6479742527008057,0.7242616415023804
0.0145068168640136,0.2887838780879974,0.1156397461891174,-0.5834338665008545,0.08171396702528,0.1352753043174743,0.0,0.0,0.5585882663726807,0.4894695281982422
0.0157277099788188,0.2756423950195312,0.1149263530969619,-0.584473729133606,0.0888096839189529,0.1419141739606857,0.0,0.0,0.6779919862747192,0.364168643951416
0.017005730420351,0.2626168131828308,0.1199701279401779,-0.5793998837471008,0.0965735241770744,0.1552769392728805,0.0,0.0,0.8273756504058838,0.6204512119293213
0.018444538116455,0.2500589191913605,0.1366093307733535,-0.558619499206543,0.103786863386631,0.1442669332027435,0.0,0.0,0.7263851165771484,0.3569738864898681
0.0199838634580373,0.2376308590173721,0.1457445323467254,-0.5529471039772034,0.1119127869606018,0.1625182181596756,0.0,0.0,0.7836521863937378,0.5326986312866211
0.0214653965085744,0.225914180278778,0.1408250331878662,-0.5213104486465454,0.1191974356770515,0.1456932574510574,0.0,0.0,0.6591098308563232,0.6814479827880859
0.0229403488337993,0.2148450911045074,0.1412177234888076,-0.4924737215042114,0.1254372149705886,0.1247954815626144,0.0,0.0,0.3518344163894653,0.2639387845993042
0.0244448669254779,0.2040997296571731,0.1434641927480697,-0.4781741499900818,0.1323939263820648,0.1391338407993316,0.0,0.0,0.6261634826660156,0.0691447257995605
0.0260017402470111,0.1933442950248718,0.1479982733726501,-0.4787220954895019,0.1400568336248397,0.1532580852508545,0.0,0.0,0.71626877784729,0.4292306900024414
0.0274268146604299,0.1828557103872299,0.1348232179880142,-0.466899037361145,0.1477154493331909,0.1531722843647003,0.0,0.0,0.9154789447784424,0.2004296779632568
0.0287974365055561,0.1733656227588653,0.1286851167678833,-0.4226348996162414,0.1560769230127334,0.1672295928001403,0.0,0.0,0.627295970916748,-0.1864110231399536
0.0300536155700683,0.1641935408115387,0.117116592824459,-0.4085597991943359,0.1645815223455429,0.1700921654701233,0.0,0.0,0.7319315671920776,-0.3542627096176147
0.031039809808135,0.1557162553071975,0.0904782563447952,-0.377689778804779,0.1727321743965149,0.1630127876996994,0.0,0.0,0.9326117038726808,0.6575384140014648
0.0320393554866313,0.1479827761650085,0.0926114171743393,-0.3445802628993988,0.1800925284624099,0.1472069919109344,0.0,0.0,0.9543952941894532,0.8333301544189453
0.0328708663582801,0.1410566717386245,0.0773941054940223,-0.3085393607616424,0.1858819127082824,0.1157876253128051,0.0,0.0,0.9816498756408693,-0.6831254363059998
0.0333731658756732,0.1349073946475982,0.0431272462010383,-0.2742097079753876,0.1930155456066131,0.1426727175712585,0.0,0.0,0.9274418354034424,0.8158061504364014
0.0337915420532226,0.1291125416755676,0.0362033620476722,-0.2582923471927643,0.1986925452947616,0.1135396510362625,0.0,0.0,0.9104905128479004,0.1458693742752075
0.0339357368648052,0.123792827129364,0.0091584911569952,-0.237146645784378,0.2039900571107864,0.1059502214193344,0.0,0.0,0.6081724166870117,0.881089448928833
0.0338799469172954,0.1186836808919906,-0.0090799815952777,-0.2275619655847549,0.2075254470109939,0.0707078799605369,0.0,0.0,-0.0863602757453918,0.0648565292358398
0.0338197723031044,0.1130667030811309,-0.0097518479451537,-0.2501740157604217,0.211301103234291,0.0755127891898155,0.0,0.0,0.1567388772964477,0.8176388740539551
0.0338140502572059,0.1073495969176292,-0.0029582504648715,-0.2544335126876831,0.213705912232399,0.0480961836874485,0.0,0.0,0.3553178310394287,0.7299966812133789
0.0338572487235069,0.1021082028746604,0.0029634435195475,-0.2331478148698806,0.2150687575340271,0.0272571332752704,0.0,0.0,0.5894157886505127,0.1988348960876464
0.0337162986397743,0.0974458083510398,-0.0155769381672143,-0.207432821393013,0.21656134724617,0.0298514515161514,0.0,0.0,-0.0877026915550232,0.5243861675262451
0.0336215011775493,0.0922978967428207,-0.0098817069083452,-0.2288566976785659,0.2169715911149978,0.0082049556076526,0.0,0.0,0.3164000511169433,0.6537948846817017
0.0335411056876182,0.0873569101095199,-0.0074738012626767,-0.2195166051387787,0.2164042890071869,-0.0113459108397364,0.0,0.0,0.5437076091766357,0.8130500316619873
0.0333494171500206,0.083051785826683,-0.0171935688704252,-0.1910500973463058,0.2144026905298233,-0.0400318056344985,0.0,0.0,0.5109870433807373,0.8289215564727783
0.0331268310546875,0.0793422535061836,-0.0189192444086074,-0.1643885523080825,0.2110317051410675,-0.0674199238419532,0.0,0.0,-0.3163391351699829,0.9047389030456544
0.0329835899174213,0.0751459226012229,-0.0091413874179124,-0.1857732832431793,0.2058114558458328,-0.1044052615761756,0.0,0.0,0.403518795967102,-0.0503780841827392
0.0326316840946674,0.0711813271045684,-0.0297350082546472,-0.1754564493894577,0.2003166079521179,-0.1098969727754592,0.0,0.0,-0.117749273777008,0.8791325092315674
0.0323348045349121,0.0667231380939483,-0.0230495948344469,-0.1972583383321762,0.1936341822147369,-0.133648544549942,0.0,0.0,0.6080329418182373,0.9369584321975708
0.0319838523864746,0.0625791624188423,-0.026738291606307,-0.1831055730581283,0.1852363049983978,-0.1679572165012359,0.0,0.0,0.5513043403625488,0.3823496103286743
0.0315675735473632,0.0586731545627117,-0.0335622355341911,-0.1726141571998596,0.1771409064531326,-0.1619079560041427,0.0,0.0,0.4100322723388672,0.4819264411926269
0.0312108043581247,0.0547423213720321,-0.0282911099493503,-0.173841044306755,0.1697447597980499,-0.1479230970144271,0.0,0.0,0.1990242004394531,0.9411993026733398
0.0309296604245901,0.0510817132890224,-0.019037639722228,-0.1616811007261276,0.1606597304344177,-0.1817004382610321,0.0,0.0,0.3528804779052734,0.9434775114059448
0.0306448936462402,0.0479247197508811,-0.0176832433789968,-0.1391815990209579,0.1498680114746093,-0.2158344984054565,0.0,0.0,0.0486860275268554,0.6765955686569214
0.0304368026554584,0.0445695966482162,-0.008837173692882,-0.1479544937610626,0.1379353106021881,-0.2386543452739715,0.0,0.0,0.0183098316192626,0.0531171560287475
