x_pos,y_pos,x_vel,y_vel,angle,ang_vel,leg_1,leg_2,main_booster,lat_booster
-0.0014911651378497,1.4033654928207395,-0.1515993177890777,-0.3357625305652618,0.0022255359217524,0.0439354963600635,0.0,0.0,-0.5539095037766639,-0.9636217149820404
-0.0030189515091478,1.3955702781677246,-0.1572135388851165,-0.3464685678482055,0.0066079390235245,0.0876571461558342,0.0,0.0,0.1245366719280012,0.8914306308799995
-0.0043395040556788,1.3879234790802002,-0.1352171450853347,-0.3398760557174682,0.0097400862723588,0.0626484081149101,0.0,0.0,-0.8866850268897852,0.586307429622837
-0.0055903433822095,1.3800163269042969,-0.1277749389410019,-0.3514507412910461,0.0124068930745124,0.0533411800861358,0.0,0.0,0.3675394522451516,-0.9944100149981197
-0.0067699430510401,1.3726638555526731,-0.1232032775878906,-0.3268214166164398,0.0175939295440912,0.103749930858612,0.0,0.0,0.8792500132967451,0.8543250048279898
-0.0076892850920557,1.3659844398498535,-0.0962929874658584,-0.2969235777854919,0.0219089947640895,0.0863093882799148,0.0,0.0,0.3664645674332643,0.7575503852278614
-0.0085477828979492,1.3597636222839355,-0.0891226977109909,-0.2765282690525055,0.025147158652544,0.0647690221667289,0.0,0.0,0.3051435283033286,0.8817527561654424
-0.0091819763183593,1.3540607690811155,-0.0655201151967048,-0.2534970939159393,0.0272213891148567,0.0414887033402919,0.0,0.0,0.2009623606548256,-0.7799824845754012
-0.0098717687651515,1.349016785621643,-0.0730819478631019,-0.2242566645145416,0.0312773920595645,0.0811275169253349,0.0,0.0,-0.992693971356546,-0.974746971341072
-0.0106061939150094,1.343716740608215,-0.0799424722790718,-0.2357064336538314,0.0377099178731441,0.1286620497703552,0.0,0.0,-0.2664903018032829,-0.981308280232788
-0.0113745685666799,1.3381556272506714,-0.0854689329862594,-0.2473973780870437,0.0462485514581203,0.1707888543605804,0.0,0.0,0.9575134695176823,0.9324420162929296
-0.0119739528745412,1.3332841396331787,-0.0673185586929321,-0.2167570888996124,0.0535526424646377,0.1460949778556823,0.0,0.0,-0.9827234854440304,0.8367705883760969
-0.0124612804502248,1.328165054321289,-0.0545048527419567,-0.2277341037988662,0.059268232434988,0.1143225282430648,0.0,0.0,-0.1999868686791521,-0.7905128733614217
-0.0129713062196969,1.3227758407592771,-0.0586099848151207,-0.2398478686809539,0.0668008401989936,0.1506657749414444,0.0,0.0,-0.2877347276111019,0.5652233799936727
-0.0133948326110839,1.3171396255493164,-0.0489771179854869,-0.2508006989955902,0.0733658894896507,0.1313126981258392,0.0,0.0,-0.2696801846022916,0.888794869053626
-0.0137033462524414,1.3112441301345823,-0.0357836186885833,-0.262273758649826,0.0782621204853057,0.0979335159063339,0.0,0.0,0.9885535098620116,-0.7576311431380095
-0.0139414789155125,1.3066530227661133,-0.0311229825019836,-0.2044451981782913,0.0855055525898933,0.1448820680379867,0.0,0.0,0.5843777782144108,-0.6871472065768849
-0.014083576388657,1.3023474216461182,-0.0236091092228889,-0.1919242590665817,0.0948353707790374,0.1866131424903869,0.0,0.0,0.9216143615230084,0.7324296203067117
-0.0141036985442042,1.299211025238037,-0.0106355305761098,-0.1399627774953842,0.1033936440944671,0.1711812913417816,0.0,0.0,-0.649655990502263,0.7517415912670107
-0.0140413288027048,1.2958242893218994,-0.001462731626816,-0.1510663777589798,0.1110444217920303,0.1530295759439468,0.0,0.0,0.5321333382994213,0.9923172489266758
-0.0138135906308889,1.293262004852295,0.0165578890591859,-0.1143501326441764,0.1172295287251472,0.123713195323944,0.0,0.0,0.5472254921077278,-0.9320725860107252
-0.0136635778471827,1.291043043136597,0.006534325890243,-0.0993013456463813,0.1256642490625381,0.1687095612287521,0.0,0.0,-0.911455579293654,-0.631817872212443
-0.0135214803740382,1.2885587215423584,0.0043935035355389,-0.1112755611538887,0.1354526728391647,0.1957863569259643,0.0,0.0,0.4530534134399349,0.570808122317581
-0.0132743837311863,1.2862414121627808,0.0155305285006761,-0.1038472726941108,0.1446135640144348,0.1832338571548462,0.0,0.0,0.7676774489228437,-0.511454754142061
-0.0132961273193359,1.2846466302871704,-0.0122325345873832,-0.0718806982040405,0.1546810120344162,0.2013670206069946,0.0,0.0,0.3040439376894563,-0.7854281259411864
-999.0,1.2835572957992554,-0.0383168011903762,-0.0496846511960029,0.1665051132440567,0.2364818304777145,0.0,0.0,0.7426533782710794,0.6210322531202572
-0.0138704301789402,1.2833620309829712,-0.0418332330882549,-0.0099355764687061,0.1774238795042038,0.2183752059936523,0.0,0.0,-0.3344258795623445,-0.7398239276590287
-0.0142207145690917,1.282899260520935,-0.0480108000338077,-0.0221765153110027,0.1904633492231369,0.2607896029949188,0.0,0.0,-0.7108860015526528,-0.9983583116324044
-0.0146364215761423,1.282161831855774,-0.0572557151317596,-0.0348684750497341,0.2062457203865051,0.3156470656394958,0.0,0.0,0.2359687121400464,0.6735030019646435
-0.0150621412321925,1.2817132472991943,-0.0571418404579162,-0.0220356807112693,0.2209495902061462,0.2940775752067566,0.0,0.0,-0.4545488441487106,-0.8227211573427452
-0.0155217172577977,1.2809981107711792,-0.0623203217983245,-0.0343233570456504,0.2375398725271225,0.3318056166172027,0.0,0.0,-0.8973730802536011,0.9887747764587402
-0.0158854480832815,1.280046463012695,-0.0512482151389122,-0.0447691231966018,0.2526744306087494,0.3026909828186035,0.0,0.0,-0.8344860076904297,0.9975802898406982
-0.0161564834415912,1.2788738012313845,-0.0404705628752708,-0.054475013166666,0.2663257122039795,0.2730257213115692,0.0,0.0,-0.9497795701026917,0.9946880340576172
-0.0163298603147268,1.2774641513824463,-0.0291537791490554,-0.0648433566093444,0.2784371972084045,0.2422303259372711,0.0,0.0,-0.9001047015190125,0.9386653900146484
-0.0164024345576763,1.2758314609527588,-0.0173650905489921,-0.0745324417948722,0.2888319790363312,0.20789535343647,0.0,0.0,-0.8836575746536255,0.9947439432144164
-0.0163710601627826,1.273983359336853,-0.0051514049991965,-0.0838056877255439,0.2973654270172119,0.170668676495552,0.0,0.0,-0.9055120944976808,0.9783878326416016
-0.0162406917661428,1.2719051837921145,0.006406582891941,-0.0937240123748779,0.3042153716087341,0.1369997560977935,0.0,0.0,-0.9021254181861876,0.9803506135940552
-0.0160062797367572,1.26961350440979,0.0186846312135458,-0.1028547435998916,0.3091367185115814,0.0984268933534622,0.0,0.0,-0.9480438232421876,0.9927403926849364
-0.0156777389347553,1.267107605934143,0.0297651626169681,-0.1120345741510391,0.312343567609787,0.0641373395919799,0.0,0.0,-0.9203604459762572,0.9903676509857178
-0.0152451517060399,1.2643824815750122,0.0420350730419158,-0.1213862672448158,0.3136093318462372,0.0253151021897792,0.0,0.0,-0.8823544979095459,0.9978313446044922
-0.0147268297150731,1.2614365816116333,0.0520833544433116,-0.1308674663305282,0.3133520781993866,-0.0051451222971081,0.0,0.0,-0.9530975222587584,0.9936580657958984
-0.0140927312895655,1.2582740783691406,0.065874695777893,-0.1400318592786789,0.3108017146587372,-0.0510070025920867,0.0,0.0,-0.975308120250702,0.999415636062622
-0.0133440969511866,1.2548846006393433,0.0794710665941238,-0.1496627181768417,0.3060288727283478,-0.0954567193984985,0.0,0.0,-0.9770535826683044,0.9977878332138062
-0.0124832149595022,1.2512764930725098,0.0928786024451255,-0.1589448899030685,0.2990079522132873,-0.1404182016849517,0.0,0.0,-0.923097550868988,0.9964537620544434
-0.0115259168669581,1.2474318742752075,0.1042461171746254,-0.1691507995128631,0.2902111411094665,-0.1759363561868667,0.0,0.0,-0.9482987523078918,0.994133710861206
-0.0104627609252929,1.2433561086654663,0.1168948858976364,-0.1790733635425567,0.2793384492397308,-0.2174538820981979,0.0,0.0,-0.8861844539642334,0.9462138414382936
-0.0092969890683889,1.239052653312683,0.1291650384664535,-0.1889131814241409,0.2664304077625274,-0.2581610977649688,0.0,0.0,-0.8105863928794861,-0.2277966737747192
-0.0081093786284327,1.234492540359497,0.1313391774892807,-0.2004382759332656,0.2535817623138428,-0.2569729089736938,0.0,0.0,-0.7636922001838684,0.1806343793869018
-0.0069005964323878,1.229675531387329,0.1334577947854995,-0.2119629234075546,0.2407784312963485,-0.2560665607452392,0.0,0.0,-0.5915749073028564,-0.1096119880676269
-0.0056713102385401,1.224601984024048,0.1355171501636505,-0.2234871983528137,0.228006511926651,-0.2554383873939514,0.0,0.0,-0.4672629833221435,-0.315672218799591
-0.0044221878051757,1.2192714214324951,0.1375133544206619,-0.2350111603736877,0.2152523398399353,-0.2550838887691498,0.0,0.0,-0.1948089599609375,-0.5289293527603149
-0.0031992911826819,1.2136726379394531,0.1337695866823196,-0.2472012341022491,0.2036659866571426,-0.2317270338535308,0.0,0.0,-0.2566533088684082,-0.5282480716705322
-0.0019911765120923,1.20780348777771,0.1314606964588165,-0.2594295442104339,0.1929418742656707,-0.214482307434082,0.0,0.0,-0.0596432089805603,-0.4044986963272095
-0.0007658004760742,1.201676607131958,0.133241981267929,-0.2709489464759826,0.1821960061788559,-0.2149178087711334,0.0,0.0,-0.2110968828201294,-0.4334725737571716
0.0004761695745401,1.195292353630066,0.1349438279867172,-0.2824682295322418,0.1714158356189727,-0.2156035006046295,0.0,0.0,-0.3029549121856689,-0.7616358995437622
0.0016654015053063,1.1886290311813354,0.1279647201299667,-0.2951327264308929,0.1623596101999282,-0.1811243742704391,0.0,0.0,-0.0076069235801696,-0.4477100968360901
0.0028691291809082,1.1817076206207275,0.1294946670532226,-0.3066490888595581,0.1532451212406158,-0.1822893768548965,0.0,0.0,-0.2425662875175476,-0.4714844822883606
0.0040863989852368,1.1745281219482422,0.1309330761432647,-0.3181653618812561,0.1440610438585281,-0.1836819946765899,0.0,0.0,-0.1201381683349609,-0.9024367332458496
0.0052535058930516,1.1670863628387451,0.1244194060564041,-0.3300240933895111,0.136371910572052,-0.1537826061248779,0.0,0.0,-0.7682403326034546,-0.9466555118560792
0.00634765625,1.159376859664917,0.1150973290205001,-0.3421342074871063,0.130718395113945,-0.113070324063301,0.0,0.0,-0.5889170169830322,-0.5479040145874023
0.0074133872985839,1.1513960361480713,0.1113432273268699,-0.3542883694171905,0.1259671449661255,-0.0950247943401336,0.0,0.0,-0.8715802431106567,-0.4728509187698364
0.0084882732480764,1.14315664768219,0.1123783811926841,-0.3657993674278259,0.1211048886179924,-0.0972451046109199,0.0,0.0,-0.8213627338409424,-0.8551405668258667
0.0095180515199899,1.13464617729187,0.106622003018856,-0.3779495358467102,0.1174802035093307,-0.0724938958883285,0.0,0.0,-0.8462488055229187,-0.7194993495941162
0.0105002401396632,1.1258682012557983,0.1006120443344116,-0.3899489641189575,0.1151056885719299,-0.0474902465939521,0.0,0.0,-0.9308971762657166,-0.2097039222717285
0.0114881517365574,1.1168309450149536,0.101315401494503,-0.4014584124088287,0.1125937178730964,-0.0502393469214439,0.0,0.0,-0.9248582124710084,-0.91190767288208
0.0123940464109182,1.107520580291748,0.0910529643297195,-0.4137627780437469,0.1121295094490051,-0.0092838583514094,0.0,0.0,-0.8376866579055786,-0.2254551649093628
0.0133030889555811,1.0979509353637695,0.0915265977382659,-0.4252716600894928,0.1115124374628067,-0.0123416371643543,0.0,0.0,-0.7523747682571411,-0.0965396761894226
0.0142141338437795,1.088122010231018,0.0918841436505317,-0.4367805123329162,0.1107353940606117,-0.0155407963320612,0.0,0.0,-0.8851238489151001,-0.5573967695236206
0.015083503909409,1.078033447265625,0.0868240967392921,-0.4483938217163086,0.1108511909842491,0.0023161536082625,0.0,0.0,-0.72650545835495,0.6838045120239258
0.01599807664752,1.067690134048462,0.092665396630764,-0.4596117436885834,0.1096443086862564,-0.0241374783217906,0.0,0.0,-0.8961454033851624,-0.5710129141807556
0.016858959570527,1.0570814609527588,0.0861624032258987,-0.4714919626712799,0.109570562839508,-0.0014747675741091,0.0,0.0,-0.7588316202163696,-0.4484796524047851
0.0177169796079397,1.0462136268615725,0.0860580056905746,-0.4830005764961242,0.1093127354979515,-0.0051563354209065,0.0,0.0,-0.8438947200775146,0.0437538623809814
0.0185708999633789,1.0350863933563232,0.0858409777283668,-0.4945091903209686,0.1088658273220062,-0.008938506245613,0.0,0.0,-0.6335099339485168,-0.2635650634765625
0.0194195751100778,1.0236997604370115,0.0855132862925529,-0.506017804145813,0.1082251369953155,-0.0128136333078145,0.0,0.0,-0.7853369116783142,-0.2597838640213012
0.0202619545161724,1.0120540857315063,0.0850772410631179,-0.5175263285636902,0.1073864251375198,-0.0167742408812046,0.0,0.0,-0.6707321405410767,-0.1535292863845825
0.0210968013852834,1.000149130821228,0.084535501897335,-0.5290349125862122,0.1063457652926445,-0.0208130553364753,0.0,0.0,-0.8972989320755005,-0.3663856387138366
0.0219231601804494,0.9879848957061768,0.0838909819722175,-0.5405434370040894,0.105099618434906,-0.0249228905886411,0.0,0.0,-0.913178324699402,-0.7307910323143005
0.0226812362670898,0.9755587577819824,0.0757840648293495,-0.5522747039794922,0.1051198989152908,0.0004057910409756,0.0,0.0,-0.8251657485961914,0.2509551048278808
0.0234287269413471,0.96287339925766,0.0749436169862747,-0.5637832283973694,0.1049286276102066,-0.0038255029357969,0.0,0.0,-0.8761397004127502,0.7705707550048828
0.0242135040462017,0.9499443173408508,0.0801489204168319,-0.5745144486427307,0.1032698675990104,-0.033175304532051,0.0,0.0,-0.811418890953064,0.0295298099517822
0.0249858852475881,0.9367558360099792,0.0791266411542892,-0.5860231518745422,0.1013947874307632,-0.0375015512108802,0.0,0.0,-0.6961703896522522,0.2765452861785888
0.0257449150085449,0.9233081936836244,0.0780189856886863,-0.5975319743156433,0.0993014872074127,-0.0418657064437866,0.0,0.0,-0.6943384408950806,-0.0188901424407959
0.0264899246394634,0.9096013307571412,0.0768297165632247,-0.6090408563613892,0.0969884097576141,-0.0462615713477134,0.0,0.0,-0.6358566880226135,-0.5152847170829773
0.0271755214780569,0.895630955696106,0.0699924752116203,-0.620814323425293,0.0955741852521896,-0.0282846894115209,0.0,0.0,-0.8213093280792236,0.5539878606796265
0.0278882030397653,0.8814102411270142,0.0740009099245071,-0.6318548321723938,0.0928545072674751,-0.0543933138251304,0.0,0.0,-0.5032056570053101,0.3219783306121826
0.0285843852907419,0.8669306039810181,0.0725893750786781,-0.6433640122413635,0.0899120718240737,-0.0588484108448028,0.0,0.0,-0.3243588209152221,-0.5236624479293823
0.0292243007570505,0.8521810173988342,0.0661667808890342,-0.6554009914398193,0.0877506360411644,-0.0432290434837341,0.0,0.0,-0.6759418249130249,0.6173892021179199
0.0299028400331735,0.8371755480766296,0.0716997385025024,-0.6666967868804932,0.0839475989341735,-0.0760607123374939,0.0,0.0,-0.1942217350006103,-0.5556244850158691
0.0305300708860158,0.8219065070152283,0.0659452155232429,-0.6784464716911316,0.0807579383254051,-0.0637932866811752,0.0,0.0,-0.3874198794364929,-0.7445803284645081
0.0310936924070119,0.8063671588897705,0.0586551912128925,-0.6905147433280945,0.0784870386123657,-0.0454180128872394,0.0,0.0,-0.4061545133590698,0.6045572757720947
0.0316848754882812,0.7905787825584412,0.0628509819507598,-0.7015181183815002,0.0748000219464302,-0.0737406983971595,0.0,0.0,-0.1544675827026367,-0.7459614872932434
0.032200239598751,0.7745305895805359,0.0540564730763435,-0.7131274938583374,0.0722995549440383,-0.0500091612339019,0.0,0.0,-0.6558292508125305,0.7527639865875244
0.0327668190002441,0.7582342028617859,0.0612339489161968,-0.7240772247314453,0.0677694678306579,-0.0906015560030937,0.0,0.0,-0.184079885482788,-0.8866105675697327
0.0332547202706337,0.74166339635849,0.0521131344139575,-0.7363325953483582,0.0644928365945816,-0.0655325949192047,0.0,0.0,-0.1053065061569213,-0.5371139049530029
0.0336755737662315,0.7248275876045227,0.0444418415427207,-0.7481599450111389,0.0621624179184436,-0.0466083660721778,0.0,0.0,-0.5753693580627441,-0.7880619764328003
0.0340210907161235,0.7077369689941406,0.0357613749802112,-0.7595301270484924,0.0609633326530456,-0.0239817276597023,0.0,0.0,0.2010538578033447,-0.1336575746536255
0.0343026146292686,0.691005289554596,0.0296639688313007,-0.7435733079910278,0.0594733022153377,-0.0298005677759647,0.0,0.0,-0.5626286864280701,0.2703912258148193
0.0345621109008789,0.6740143895149231,0.0276651941239833,-0.7550827860832214,0.0577732548117637,-0.0340009741485118,0.0,0.0,-0.4184002876281738,0.0417780876159668
0.0347990989685058,0.6567642688751221,0.025635365396738,-0.766592264175415,0.0558658875524997,-0.0381475165486335,0.0,0.0,-0.1214732527732849,-0.5685276985168457
0.0349644646048545,0.6392552256584167,0.0174240563064813,-0.7781481146812439,0.054985299706459,-0.0176118779927492,0.0,0.0,-0.3103878498077392,0.8694174289703369
0.0351659767329692,0.6214982867240906,0.022752072662115,-0.7891076803207397,0.052409578114748,-0.0515141598880291,0.0,0.0,0.0265703201293945,-0.6151793003082275
0.035262107849121,0.6039383411407471,0.0112059284001588,-0.7803826928138733,0.0508396178483963,-0.0313994511961936,0.0,0.0,-0.5843936204910278,0.0383832454681396
0.0353349670767784,0.5861194133758545,0.0090727116912603,-0.7918923497200012,0.0490754023194313,-0.0352844223380088,0.0,0.0,0.5069575309753418,0.1482789516448974
0.035223864018917,0.5687471032142639,-0.0084902411326766,-0.7720197439193726,0.0464858151972293,-0.0517915673553943,0.0,0.0,0.0744402408599853,-0.5311770439147949
0.0351016037166118,0.5518215894699097,-0.0106267081573605,-0.7521993517875671,0.0448988080024719,-0.0317399688065052,0.0,0.0,0.2250795364379882,-0.3364548087120056
0.0349885933101177,0.5350499749183655,-0.0097138900309801,-0.7453578114509583,0.0433400347828865,-0.0311754550784826,0.0,0.0,0.1321169137954712,-0.6918559074401855
0.0348868370056152,0.5188118815422058,-0.0099453320726752,-0.7216861248016357,0.0431072488427162,-0.0046557118184864,0.0,0.0,-0.4001129865646362,-0.6959738731384277
0.0347037315368652,0.5023168325424194,-0.0193507969379425,-0.7331448793411255,0.0441376641392707,0.0206084065139293,0.0,0.0,-0.2630358934402466,0.2388710975646972
0.0344965942203998,0.4855626821517944,-0.0215866714715957,-0.7446547150611877,0.0449998155236244,0.0172429345548152,0.0,0.0,0.3364796638488769,0.074493408203125
0.0343058593571186,0.4692562818527221,-0.0200656242668628,-0.7247616648674011,0.045984111726284,0.0196857582777738,0.0,0.0,-0.1351708173751831,-0.0325906872749328
0.0340909957885742,0.4526907205581665,-0.0223241131752729,-0.7362714409828186,0.0468102768063545,0.0165234580636024,0.0,0.0,0.793177604675293,0.6225152015686035
0.0339317321777343,0.4371608197689056,-0.0155400512740015,-0.6902052164077759,0.0464237667620182,-0.0077303098514676,0.0,0.0,-0.2434360980987548,-0.3627783060073852
0.0337481498718261,0.4213719069957733,-0.0178160965442657,-0.7017151117324829,0.0458899512887001,-0.0106764379888772,0.0,0.0,0.8158564567565918,-0.1734452247619629
0.0333748832345008,0.4063329398632049,-0.036014586687088,-0.6683590412139893,0.0445924885571002,-0.0259488262236118,0.0,0.0,0.1487793922424316,-0.5929754972457886
0.0328153595328331,0.3915599584579468,-0.0555280558764934,-0.6565649509429932,0.0441776849329471,-0.0082960911095142,0.0,0.0,-0.2743645906448364,0.1760876178741455
0.0322317108511924,0.3765279352664947,-0.0578216314315795,-0.6680748462677002,0.0436328575015068,-0.0108968848362565,0.0,0.0,-0.3553112745285034,0.7408857345581055
0.0316847786307334,0.361239492893219,-0.0524479523301124,-0.6794221997261047,0.041426558047533,-0.0441260151565074,0.0,0.0,0.9734988212585448,0.4626750946044922
0.0312519073486328,0.3463455140590668,-0.0416689924895763,-0.6619102358818054,0.0398238189518451,-0.0320545360445976,0.0,0.0,0.8518185615539551,0.5449637174606323
0.030923556536436,0.3323532342910766,-0.0303384251892566,-0.6218152642250061,0.0373545624315738,-0.04938505589962,0.0,0.0,0.972947597503662,0.2147948741912841
0.030565071851015,0.3195475339889526,-0.0333838984370231,-0.5690815448760986,0.0349181368947029,-0.0487286522984504,0.0,0.0,-0.2594191431999206,0.4369716644287109
0.0301824565976858,0.3064829409122467,-0.0356849804520607,-0.5805920958518982,0.0323825441300869,-0.050711952149868,0.0,0.0,0.931306004524231,-0.7411376237869263
