x_pos,y_pos,x_vel,y_vel,angle,ang_vel,leg_1,leg_2,main_booster,lat_booster
-0.0015356063377112,1.4035040140151978,-0.1555507332086563,-0.3296006917953491,0.001786109409295,0.0352341458201408,0.0,0.0,-0.2557363510131836,0.2921967506408691
-0.0030839920509606,1.3959906101226809,-0.1566029489040374,-0.333923190832138,0.0035332415718585,0.0349468514323234,0.0,0.0,-0.6308112740516663,0.4434139728546142
-0.0046455385163426,1.3883565664291382,-0.1579359918832779,-0.3392967283725738,0.0052861175499856,0.0350606478750705,0.0,0.0,-0.5221154093742371,0.798513650894165
-0.0061706542037427,1.3805997371673584,-0.1530096232891082,-0.3447440266609192,0.0057779299095273,0.009837182238698,0.0,0.0,-0.2756128907203674,0.8667435646057129
-0.007627582643181,1.3727262020111084,-0.1440896242856979,-0.3499336540699005,0.0041964943520724,-0.031631700694561,0.0,0.0,0.0516637563705444,0.771125316619873
-0.0089391712099313,1.365250825881958,-0.1280931830406189,-0.3322362005710602,0.0011685499921441,-0.0605647042393684,0.0,0.0,-0.1435359716415405,-0.0110069513320922
-0.0102663990110158,1.357655048370361,-0.1296668201684951,-0.3375909626483917,-0.0018504485487937,-0.0603856854140758,0.0,0.0,-0.1014972329139709,0.4505270719528198
-0.0116097452118992,1.3499391078948977,-0.1313027143478393,-0.3429402709007263,-0.0048603611066937,-0.0602033846080303,0.0,0.0,0.3021407127380371,-0.0989955067634582
-0.0129763605073094,1.3430922031402588,-0.1335837543010711,-0.3043185770511627,-0.0079057654365897,-0.0609134621918201,0.0,0.0,0.1414747238159179,0.3248041868209839
-0.01435689907521,1.3368775844573977,-0.1349948346614837,-0.2762201428413391,-0.0109434416517615,-0.0607587099075317,0.0,0.0,-0.5941011905670166,-0.0255047082901
-0.0157556533813476,1.330542802810669,-0.1368104517459869,-0.2815732061862945,-0.0139703312888741,-0.0605432018637657,0.0,0.0,-0.4796102643013,-0.0323145389556884
-0.0171729084104299,1.3240877389907837,-0.1386836320161819,-0.2869218289852142,-0.0169859882444143,-0.0603184774518013,0.0,0.0,-0.8190491795539856,-0.3850401639938354
-0.0186093337833881,1.3175125122070312,-0.140613168478012,-0.2922720611095428,-0.0199899245053529,-0.0600839555263519,0.0,0.0,-0.6505421996116638,-0.3908143639564514
-0.0200654976069927,1.310817003250122,-0.1425976902246475,-0.2976230680942535,-0.0229816548526287,-0.0598398558795452,0.0,0.0,-0.4886583089828491,0.4713046550750732
-0.0215418823063373,1.3040012121200562,-0.1446356624364853,-0.3029741942882538,-0.0259607098996639,-0.0595861971378326,0.0,0.0,-0.7954478859901428,0.5132632255554199
-0.022991370409727,1.2970571517944336,-0.1407328248023986,-0.3086971938610077,-0.030130811035633,-0.0834094285964965,0.0,0.0,-0.8933893442153931,0.2304530143737793
-0.0244620330631732,1.2899930477142334,-0.1428693234920501,-0.3140489757061004,-0.0342866033315658,-0.0831233561038971,0.0,0.0,-0.8615942597389221,0.0737973451614379
-0.0259544365108013,1.2828088998794556,-0.1450548768043518,-0.3194008767604828,-0.0384283773601055,-0.0828429237008094,0.0,0.0,-0.7545490264892578,0.5233784914016724
-0.0274209026247262,1.2755067348480225,-0.1412577629089355,-0.3246879577636719,-0.0437618158757686,-0.1066784858703613,0.0,0.0,-0.6227684617042542,0.2949157953262329
-0.028909970074892,1.2680846452713013,-0.1435324549674987,-0.3300413191318512,-0.0490793958306312,-0.106360912322998,0.0,0.0,-0.8774691224098206,-0.6161286234855652
-0.0304601676762104,1.260549545288086,-0.1506462693214416,-0.3350373208522796,-0.0534153133630752,-0.0867257118225097,0.0,0.0,-0.9055192470550536,-0.3227888345718384
-0.0320338234305381,1.252894401550293,-0.1530106365680694,-0.340389996767044,-0.0577354878187179,-0.086411066353321,0.0,0.0,-0.8940832018852234,0.719388484954834
-0.0335623733699321,1.2451122999191284,-0.1467586010694503,-0.3461204767227173,-0.0637783929705619,-0.1208688616752624,0.0,0.0,-0.8437527418136597,0.3218730688095093
-0.0351151451468467,1.2372101545333862,-0.1491969972848892,-0.3514747321605682,-0.0698033049702644,-0.1205091476440429,0.0,0.0,-0.5902761816978455,0.4811784029006958
-0.0366925224661827,1.229188323020935,-0.1516731083393097,-0.3568291664123535,-0.0758108645677566,-0.1201619282364845,0.0,0.0,-0.9667483568191528,-0.1490490436553955
-0.0382959358394146,1.221024990081787,-0.1542927920818328,-0.3631345331668854,-0.0818008184432983,-0.1197990551590919,0.0,0.0,-0.7787215113639832,0.5654081106185913
-0.0398797020316123,1.2127397060394287,-0.1512048840522766,-0.368637353181839,-0.0889057591557502,-0.1420987546443939,0.0,0.0,-0.7594990134239197,0.9118924140930176
-0.0414324775338172,1.2043368816375732,-0.1466817557811737,-0.3739903569221496,-0.0974128544330596,-0.1701418608427047,0.0,0.0,-0.6874609589576721,0.7828235626220703
-0.0429623611271381,1.1958143711090088,-0.1432056725025177,-0.3794534802436828,-0.1071222200989723,-0.1941875219345092,0.0,0.0,-0.8311208486557007,0.6824400424957275
-0.0444668754935264,1.1871616840362549,-0.1393762528896331,-0.3853894174098968,-0.1181281805038452,-0.2201195657253265,0.0,0.0,-0.9298672676086426,-0.0870530605316162
-0.0459979996085166,1.1783905029296875,-0.1420598179101944,-0.3907478153705597,-0.1291158646345138,-0.219753548502922,0.0,0.0,-0.8760781288146973,-0.3118066787719726
-0.0475557334721088,1.169500470161438,-0.1447696089744568,-0.396106094121933,-0.1400851160287857,-0.2193849980831146,0.0,0.0,-0.786163330078125,-0.3717867732048034
-0.0491405501961708,1.160491704940796,-0.1475041657686233,-0.4014643132686615,-0.1510357707738876,-0.2190131396055221,0.0,0.0,-0.95535147190094,0.0155305862426757
-0.05075254291296,1.1513640880584717,-0.1502620279788971,-0.4068224728107452,-0.1619677096605301,-0.2186388969421386,0.0,0.0,-0.739745557308197,-0.409067153930664
-0.0523920059204101,1.142117619514465,-0.153041809797287,-0.4121805727481842,-0.1728808283805847,-0.2182622700929641,0.0,0.0,-0.7370281219482422,0.2405805587768554
-0.0540590286254882,1.132752537727356,-0.1558420956134796,-0.4175386130809784,-0.1837749928236007,-0.2178835868835449,0.0,0.0,-0.6814064979553223,-0.4079189300537109
-0.0557538978755474,1.1232683658599854,-0.1586615145206451,-0.422896534204483,-0.1946501433849334,-0.2175030261278152,0.0,0.0,-0.7189089059829712,0.2397435903549194
-0.0574766173958778,1.1136653423309326,-0.1614987552165985,-0.4282544553279876,-0.2055061906576156,-0.2171209305524826,0.0,0.0,-0.957136571407318,-0.5128289461135864
-0.0592690482735633,1.1039621829986572,-0.1695875078439712,-0.4326261878013611,-0.2152406126260757,-0.1946883499622345,0.0,0.0,-0.8789342641830444,-0.3501383066177368
-0.0610896125435829,1.0941396951675415,-0.1724559068679809,-0.4379820525646209,-0.2249558269977569,-0.1943041682243347,0.0,0.0,-0.4910475611686706,-0.343427300453186
-0.0629386901855468,1.084198236465454,-0.1753382682800293,-0.4433378577232361,-0.2346517741680145,-0.1939189136028289,0.0,0.0,-0.3856445550918579,-0.5196852087974548
-0.0648482292890548,1.0741475820541382,-0.1822429597377777,-0.4481083154678345,-0.2434960454702377,-0.1768854409456253,0.0,0.0,-0.8283273577690125,0.4152543544769287
-0.0667864829301834,1.0639774799346924,-0.1851490885019302,-0.4534627795219421,-0.2523210048675537,-0.1764990091323852,0.0,0.0,-0.8741900324821472,-0.5109383463859558
-0.0687861442565918,1.053699612617493,-0.1921871453523636,-0.4581568539142608,-0.260265052318573,-0.1588811129331588,0.0,0.0,-0.7803772687911987,-0.5178806185722351
-0.0708580017089843,1.043312907218933,-0.20052370429039,-0.4628317654132843,-0.267076700925827,-0.1362332105636596,0.0,0.0,-0.3225703835487366,-0.5702589154243469
-0.0730000510811805,1.0328171253204346,-0.2086051404476165,-0.4675122797489166,-0.2728075981140136,-0.1146183013916015,0.0,0.0,-0.2000265717506408,-0.1564403772354126
-0.0751711875200271,1.0222012996673584,-0.2115440368652343,-0.4728629291057586,-0.2785191237926483,-0.114231027662754,0.0,0.0,-0.0100399851799011,-0.3452696800231933
-0.0773714035749435,1.011465549468994,-0.2144885510206222,-0.4782136082649231,-0.2842113077640533,-0.1138436645269393,0.0,0.0,0.5633530616760254,0.0958154201507568
-0.0795123130083084,1.0017365217208862,-0.2080093175172805,-0.4336029589176178,-0.2904649078845978,-0.1250713318586349,0.0,0.0,-0.3691361546516418,-0.0803598761558532
-0.081682302057743,0.9918873310089112,-0.2109619677066803,-0.4389541447162628,-0.2966991066932678,-0.1246841996908187,0.0,0.0,-0.8268558979034424,-0.1110097169876098
-0.0838816612958908,0.9819183945655824,-0.2139168530702591,-0.444305270910263,-0.3029139935970306,-0.124297484755516,0.0,0.0,0.0578787326812744,-0.7942649126052856
-0.0860690101981163,0.972557008266449,-0.2143013030290603,-0.4169977605342865,-0.3075035512447357,-0.0917908996343612,0.0,0.0,-0.1368851661682129,-0.4972598552703857
-0.0882857292890548,0.9630752801895142,-0.2172565460205078,-0.4223473966121673,-0.3120738267898559,-0.0914055556058883,0.0,0.0,0.3820538520812988,-0.2796098589897156
-0.0903242081403732,0.9544247984886168,-0.1994780004024505,-0.3854125142097473,-0.31661257147789,-0.0907746627926826,0.0,0.0,0.1215740442276001,-0.3996578454971313
-0.0921928435564041,0.9460787773132324,-0.1829609274864196,-0.3717940747737884,-0.3206642270088196,-0.0810331776738166,0.0,0.0,-0.2866555452346802,-0.2186534404754638
-0.0940906554460525,0.9376122951507568,-0.1859087198972702,-0.3771433234214782,-0.3246967494487762,-0.0806504115462303,0.0,0.0,0.1580277681350708,-0.6338487863540649
-0.0958156585693359,0.9298140406608582,-0.1699889600276947,-0.3471566140651703,-0.3273067772388458,-0.0522002689540386,0.0,0.0,0.7486634254455566,-0.3003616333007812
-0.0972018241882324,0.9228388667106628,-0.1367899775505066,-0.3104262351989746,-0.329222172498703,-0.0383072569966316,0.0,0.0,-0.1803539395332336,-0.8432555198669434
-0.0986701995134353,0.9157795310020448,-0.1464775055646896,-0.3138270676136017,-0.3295996189117431,-0.0075490213930606,0.0,0.0,0.2615091800689697,-0.4470251798629761
-0.1000284180045127,0.909479558467865,-0.1352202594280243,-0.2801325619220733,-0.3302271962165832,-0.012551724910736,0.0,0.0,0.5107017755508423,0.0653263330459594
-0.101261518895626,0.9035170674324036,-0.1229285150766372,-0.2650908827781677,-0.3306194245815277,-0.0078443810343742,0.0,0.0,0.6045057773590088,-0.6844026446342468
-0.102452851831913,0.8984817862510681,-0.1199165359139442,-0.223609983921051,-0.3298076689243316,0.0162353832274675,0.0,0.0,0.5546438694000244,-0.3494411706924438
-0.1034053787589073,0.8939604163169861,-0.0965583771467208,-0.2006549537181854,-0.3284396231174469,0.027360949665308,0.0,0.0,0.0052759647369384,-0.1404809951782226
-0.1042525321245193,0.8898410797119141,-0.0861033052206039,-0.1827623099088668,-0.3269866704940796,0.0290589667856693,0.0,0.0,0.6305341720581055,0.0839498043060302
-0.104993537068367,0.8861596584320068,-0.0755524784326553,-0.163291648030281,-0.3254795670509338,0.0301424376666545,0.0,0.0,0.5525145530700684,-0.3539050817489624
-0.1056953445076942,0.8832029700279236,-0.0711329355835914,-0.1311948597431183,-0.3244921863079071,0.0197475217282772,0.0,0.0,0.898362398147583,-0.813473105430603
-0.1061446219682693,0.8815505504608154,-0.0475523844361305,-0.0728513151407241,-0.3217602670192718,0.0546385645866394,0.0,0.0,-0.26167893409729,-0.2107691764831543
-0.1066216453909874,0.8797778487205505,-0.0503465309739112,-0.0781999081373214,-0.3190101981163025,0.0550012066960334,0.0,0.0,0.6229885816574097,0.0009804964065551
-0.1068379431962966,0.8790668845176697,-0.024409495294094,-0.0309909880161285,-0.3161193430423736,0.0578169748187065,0.0,0.0,-0.8389539122581482,-0.3724232316017151
-0.1070814132690429,0.8782356381416321,-0.0271537862718105,-0.0363396629691123,-0.313210666179657,0.058173794299364,0.0,0.0,0.0292195081710815,-0.119310975074768
-0.1072763428092002,0.8779123425483704,-0.0220587607473135,-0.0138153620064258,-0.3105489313602447,0.0532348677515983,0.0,0.0,-0.3573194742202759,-0.511398434638977
-0.1075341254472732,0.8774873614311218,-0.0293154083192348,-0.0181410573422908,-0.3068799078464508,0.0733807459473609,0.0,0.0,-0.1836026906967163,0.2799675464630127
-0.1078182235360145,0.8769418597221375,-0.0319679044187068,-0.0234901681542396,-0.3031935691833496,0.0737266540527343,0.0,0.0,0.1527075767517089,-0.0219689607620239
-0.1079589873552322,0.8768301606178284,-0.0178902316838502,-0.0041768820956349,-0.2992530167102813,0.078810766339302,0.0,0.0,-0.0182785391807556,0.386090874671936
-0.1081253066658973,0.8765982985496521,-0.0204684622585773,-0.0095261819660663,-0.2952956259250641,0.0791477262973785,0.0,0.0,-0.0520508289337158,0.4009835720062256
-0.1083168014883995,0.8762460947036743,-0.0230051781982183,-0.0148755060508847,-0.2913216352462768,0.0794796794652938,0.0,0.0,-0.1428619623184204,-0.0790191888809204
-0.108533002436161,0.8757737278938293,-0.025497268885374,-0.0202248562127351,-0.2873313128948211,0.0798061937093734,0.0,0.0,0.1520055532455444,0.2390992641448974
-0.1086223572492599,0.8759793043136597,-0.012799059972167,0.0098908878862857,-0.2833519876003265,0.0795866400003433,0.0,0.0,-0.3280087113380432,0.5598803758621216
-0.1086863502860069,0.8760488033294678,-0.0090378075838088,0.0036056723911315,-0.2806389629840851,0.054260529577732,0.0,0.0,-0.168721318244934,0.6653425693511963
-0.1087312698364257,0.8759868741035461,-0.0060845157131552,-0.0024504095781594,-0.2790025472640991,0.0327284075319767,0.0,0.0,-0.176469624042511,0.4538279771804809
-0.1087987869977951,0.8758044838905334,-0.0083630327135324,-0.0077987536787986,-0.2773511409759521,0.0330282226204872,0.0,0.0,-0.6734375357627869,0.1840862035751342
-0.1088883429765701,0.875501811504364,-0.0105787524953484,-0.0131471129134297,-0.2756851315498352,0.0333199314773082,0.0,0.0,-0.4575594663619995,-0.1928417086601257
-0.1089992523193359,0.8750787973403931,-0.0127275139093399,-0.0184954889118671,-0.2740049958229065,0.0336029604077339,0.0,0.0,-0.256676435470581,-0.0150534510612487
-0.1091307625174522,0.874535322189331,-0.0148049918934702,-0.0238438807427883,-0.2723111808300018,0.0338767692446708,0.0,0.0,0.2180354595184326,0.423728346824646
-0.1091519370675087,0.8746200203895569,-0.0037488415837287,0.0040607233531773,-0.2706449627876282,0.0333243198692798,0.0,0.0,-0.5981059074401855,0.6318845748901367
-0.1091373413801193,0.8745614886283875,0.0012567725498229,-0.0025636425707489,-0.2704316973686218,0.0042655630968511,0.0,0.0,-0.2100502848625183,-0.1404154300689697
-0.10914096981287,0.8743825554847717,-0.0005792354349978,-0.0079118488356471,-0.2702063024044037,0.0045078797265887,0.0,0.0,-0.6868811249732971,-0.4934345483779907
-0.1091618537902832,0.8740831613540649,-0.0023251823149621,-0.0132600693032145,-0.2699693739414215,0.0047383750788867,0.0,0.0,-0.2660137414932251,0.0511817932128906
-0.1091992408037185,0.8736634254455566,-0.0039761052466928,-0.0186083018779754,-0.2697215676307678,0.0049563641659915,0.0,0.0,-0.1104477047920227,-0.4995580911636352
-0.1092519760131836,0.8731234073638916,-0.0055269878357648,-0.0239565502852201,-0.2694635093212127,0.0051611894741654,0.0,0.0,0.0854184627532959,-0.28300940990448
-0.109191320836544,0.8731780648231506,0.0058260490186512,0.0024748442228883,-0.2692131400108337,0.0050074378959834,0.0,0.0,-0.3667173385620117,0.3109557628631592
-0.1091438308358192,0.8731123805046082,0.0044903345406055,-0.0028734384104609,-0.2689539492130279,0.0051839593797922,0.0,0.0,-0.31401526927948,0.0362129211425781
-0.1091085448861122,0.8729262948036194,0.0032696574926376,-0.0082217380404472,-0.2686866819858551,0.0053453743457794,0.0,0.0,-0.3094223737716675,-0.2458909749984741
-0.1090842261910438,0.8726198673248291,0.002168848644942,-0.0135700544342398,-0.2684121429920196,0.0054910238832235,0.0,0.0,-0.2859107851982116,0.2891455888748169
-0.1090695410966873,0.8721930384635925,0.0011925694998353,-0.0189183913171291,-0.2681311368942261,0.0056202700361609,0.0,0.0,-0.7089572548866272,-0.0863412618637085
-0.1090633422136306,0.8716458678245544,0.0003452539094723,-0.0242667458951473,-0.2678444981575012,0.0057325204834342,0.0,0.0,-0.5777190923690796,-0.5715038180351257
-0.1091093048453331,0.8709968328475952,-0.0060592400841414,-0.0285832807421684,-0.266351044178009,0.0298694781959056,0.0,0.0,-0.34107506275177,0.2207396030426025
-0.1091609969735145,0.8702273368835449,-0.0066365911625325,-0.0339318476617336,-0.2648537456989288,0.029946219176054,0.0,0.0,-0.448777437210083,-0.1731975078582763
-0.109217070043087,0.8693375587463379,-0.0070736119523644,-0.0392804332077503,-0.2633535265922546,0.0300045069307088,0.0,0.0,-0.5107101798057556,0.2049626111984253
-0.1092761009931564,0.8683274984359741,-0.0073673478327691,-0.0446290448307991,-0.2618513405323028,0.0300439037382602,0.0,0.0,-0.1587198376655578,0.2449955940246582
-0.109336569905281,0.8671970963478088,-0.0075153508223593,-0.0499776750802993,-0.2603481411933899,0.0300640612840652,0.0,0.0,-0.2718815803527832,0.2509058713912964
-0.1093970313668251,0.8659464120864868,-0.0075157219544053,-0.055326335132122,-0.2588449120521545,0.0300647802650928,0.0,0.0,0.1018487215042114,0.2310103178024292
-0.1094285026192665,0.8651868104934692,-0.0042683575302362,-0.0335612259805202,-0.2577025592327118,0.0228472426533699,0.0,0.0,-0.0570615530014038,-0.0271986126899719
-0.1094570159912109,0.8643068671226501,-0.0039701093919575,-0.0389098487794399,-0.2565621435642242,0.022808514535427,0.0,0.0,0.1907397508621215,0.2694272994995117
-0.1092758178710937,0.8640291094779968,0.016660701483488,-0.0120915602892637,-0.2550715208053589,0.0298123359680175,0.0,0.0,-0.6527968645095825,0.2304956912994384
-0.1090886145830154,0.8636309504508972,0.017257772386074,-0.0174402967095375,-0.2535848319530487,0.0297340843826532,0.0,0.0,-0.1354027390480041,0.2139037847518921
-0.1088940650224685,0.8631126880645752,0.0180027838796377,-0.0227890517562627,-0.2521030306816101,0.0296362098306417,0.0,0.0,-0.2133398056030273,0.502242922782898
-0.1086529716849327,0.862463653087616,0.0236110165715217,-0.0287560690194368,-0.2516000866889953,0.0100591480731964,0.0,0.0,-0.6768447160720825,-0.2508528232574463
-0.1084016785025596,0.8616945147514343,0.0246459133923053,-0.0341047085821628,-0.251103937625885,0.0099229160696268,0.0,0.0,-0.7024087309837341,-0.2294496893882751
-0.108138658106327,0.8608049750328064,0.0258215460926294,-0.0394533611834049,-0.2506155371665954,0.0097680119797587,0.0,0.0,-0.8729220032691956,-0.167136549949646
-0.1078625693917274,0.8597952127456665,0.0271344520151615,-0.0448020286858081,-0.2501357793807983,0.0095949191600084,0.0,0.0,-0.1246973872184753,-0.156661570072174
-0.1075721755623817,0.8586649298667908,0.0285806953907012,-0.0501507259905338,-0.2496655732393264,0.0094041340053081,0.0,0.0,-0.3142774105072021,-0.6726114749908447
-0.1073112487792968,0.8574284315109253,0.0244932025671005,-0.0546907000243663,-0.2480314373970031,0.0326826646924018,0.0,0.0,-0.4563186168670654,0.4474482536315918
-0.1070332527160644,0.856071412563324,0.0261927340179681,-0.0600396208465099,-0.24640853703022,0.0324582271277904,0.0,0.0,-0.0940638184547424,-0.2698569297790527
-0.1067373305559158,0.8545942902565002,0.0280116740614175,-0.0653885453939437,-0.2447976320981979,0.0322178825736045,0.0,0.0,-0.4928700923919678,-0.3971863985061645
-0.1064222306013107,0.852996826171875,0.0299448780715465,-0.0707374885678291,-0.2431995123624801,0.0319622866809368,0.0,0.0,-0.5136191844940186,-0.7851749658584595
-0.1061445251107215,0.8512991070747375,0.0247206632047891,-0.0749509334564209,-0.240099236369133,0.0620055310428142,0.0,0.0,-0.7891542911529541,0.3190507888793945
-0.1058454513549804,0.8494812250137329,0.0268662124872207,-0.080300472676754,-0.2370131760835647,0.0617213360965251,0.0,0.0,-0.5619402527809143,-0.3195393085479736
-0.1055241599678993,0.8475431799888611,0.0291099306195974,-0.0856500118970871,-0.2339419722557068,0.0614239089190959,0.0,0.0,-0.5191650986671448,0.6182785034179688
-0.1051292419433593,0.845473051071167,0.0377605780959129,-0.0917314141988754,-0.2321803122758865,0.0352329574525356,0.0,0.0,-0.6951743364334106,0.2671519517898559
