x_pos,y_pos,x_vel,y_vel,angle,ang_vel,leg_1,leg_2,main_booster,lat_booster
-0.0016052245628088,1.402983546257019,-0.1625366508960724,-0.3527325689792633,0.0018110927194356,0.0357288643717765,0.0,0.0,-0.104849636554718,0.3548040390014648
-0.0032920837402343,1.3944294452667236,-0.1704594045877456,-0.3801870942115783,0.0035541751421988,0.0348657295107841,0.0,0.0,0.3463270664215088,0.9864647388458252
-0.0048580169677734,1.3857215642929075,-0.1564395874738693,-0.3870109319686889,0.003408336546272,-0.0029168729670345,0.0,0.0,0.5825755596160889,0.8946149349212646
-0.0065639493986964,1.3770875930786133,-0.1684220135211944,-0.3837323784828186,0.0012602992355823,-0.0429648049175739,0.0,0.0,0.4899033308029175,0.7625589370727539
-0.0081617357209324,1.3686975240707395,-0.1562804281711578,-0.3728903234004974,-0.0022017285227775,-0.069247081875801,0.0,0.0,0.2747565507888794,-0.1120491623878479
-0.0097324373200535,1.3602948188781738,-0.1540338546037674,-0.373455673456192,-0.0052037681452929,-0.0600464232265949,0.0,0.0,-0.1527234315872192,0.3665676116943359
-0.0113821979612112,1.3512513637542725,-0.161897987127304,-0.4019399881362915,-0.0082578686997294,-0.0610871687531471,0.0,0.0,0.5776007175445557,0.7330414056777954
-0.0128908157348632,1.3424936532974243,-0.1465682685375213,-0.3892661333084106,-0.0124991498887538,-0.0848334804177284,0.0,0.0,-0.0193214416503906,0.3269568681716919
-0.0144771579653024,1.3330951929092407,-0.1542870700359344,-0.4177569150924682,-0.0168012771755456,-0.0860504657030105,0.0,0.0,0.1611216068267822,0.5966800451278687
-0.0160855296999216,1.323824405670166,-0.1552276760339737,-0.4121075570583343,-0.0223522167652845,-0.1110291108489036,0.0,0.0,0.5753002166748047,0.7770042419433594
-0.0176053047180175,1.3147586584091189,-0.144905537366867,-0.4030423164367676,-0.0293424203991889,-0.1398167312145233,0.0,0.0,0.349543809890747,0.0777088403701782
-0.0191297531127929,1.3056972026824951,-0.1455889642238617,-0.4028857350349426,-0.0361324734985828,-0.1358135938644409,0.0,0.0,-0.1830980777740478,0.0696117877960205
-0.0207284931093454,1.2959954738616943,-0.152935653924942,-0.4313735663890838,-0.0430003441870212,-0.1373697519302368,0.0,0.0,-0.2954771518707275,0.2024942636489868
-0.0224004741758108,1.285653591156006,-0.1601698547601699,-0.4598581194877624,-0.0499490872025489,-0.1389876902103424,0.0,0.0,0.2393438816070556,-0.0295826792716979
-0.0240077022463083,1.2755900621414185,-0.1541269719600677,-0.4475040733814239,-0.056483756750822,-0.1307053864002227,0.0,0.0,0.1086742877960205,0.8395137786865234
-0.0255231857299804,1.265162229537964,-0.1432178318500518,-0.4637915790081024,-0.0647326707839965,-0.1649931967258453,0.0,0.0,0.5938451290130615,0.910020112991333
-0.026833152398467,1.255319356918335,-0.1209809035062789,-0.4379301071166992,-0.0746659860014915,-0.1986844390630722,0.0,0.0,-0.6127838492393494,-0.8236352205276489
-0.0282608028501272,1.2448348999023438,-0.1339069008827209,-0.466431051492691,-0.0834441110491752,-0.1755784600973129,0.0,0.0,-0.3911099433898926,-0.0586856007575988
-0.0297544486820697,1.233711004257202,-0.1404208391904831,-0.4949163496494293,-0.0923195928335189,-0.1775256693363189,0.0,0.0,-0.5276074409484863,0.3614962100982666
-0.0313123688101768,1.2219473123550415,-0.1467548757791519,-0.523406445980072,-0.1012942939996719,-0.1795101910829544,0.0,0.0,0.1392257213592529,0.1650242805480957
-0.0327926650643348,1.2103043794631958,-0.1393115073442459,-0.5180763006210327,-0.1099608689546585,-0.17334745824337,0.0,0.0,-0.6715725660324097,0.0340967178344726
-0.0343333259224891,1.198021650314331,-0.1452457904815673,-0.5465734601020813,-0.1187329441308975,-0.1754571944475174,0.0,0.0,-0.2096925973892212,-0.3240596055984497
-0.0359320640563964,1.1850991249084473,-0.1509545296430587,-0.5750636458396912,-0.127612754702568,-0.1776122599840164,0.0,0.0,0.4751996994018554,-0.5622776746749878
-0.0375286117196083,1.171940803527832,-0.1519242972135543,-0.5854864716529846,-0.1353242397308349,-0.1542434245347976,0.0,0.0,0.6683526039123535,-0.6698623299598694
-0.0392975807189941,1.1591525077819824,-0.1700445562601089,-0.5689989328384399,-0.1421601772308349,-0.1367306113243103,0.0,0.0,0.8335180282592773,-0.6602712869644165
-0.0412323959171772,1.1469147205352783,-0.1874102652072906,-0.5444887280464172,-0.1482202261686325,-0.1212003380060195,0.0,0.0,0.1566088199615478,0.8476060628890991
-0.0430700294673442,1.1347813606262207,-0.175889179110527,-0.5400676727294922,-0.156092032790184,-0.1574362516403198,0.0,0.0,-0.0638369917869567,0.688709020614624
-0.0449096672236919,1.1220054626464844,-0.1748901009559631,-0.568795919418335,-0.1651632636785507,-0.1814245283603668,0.0,0.0,0.4523167610168457,0.6690845489501953
-0.0467504486441612,1.109621524810791,-0.1733230948448181,-0.551638662815094,-0.1759390234947204,-0.215515062212944,0.0,0.0,0.6815119981765747,-0.0499441623687744
-0.0485634803771972,1.097337007522583,-0.1703390479087829,-0.547320544719696,-0.1869443953037262,-0.2201071232557296,0.0,0.0,0.8509774208068848,0.2306363582611084
-0.0502141937613487,1.0858056545257568,-0.1540814787149429,-0.5139274001121521,-0.1979868710041046,-0.220849871635437,0.0,0.0,0.3562572002410888,0.1732134819030761
-0.051887322217226,1.074183464050293,-0.155934140086174,-0.5181071758270264,-0.2094622254371643,-0.2295072078704834,0.0,0.0,0.116840124130249,-0.8135765790939331
-0.0535996444523334,1.062765121459961,-0.1613214910030365,-0.5089210271835327,-0.2194703817367553,-0.2001631259918213,0.0,0.0,-0.2984148263931274,-0.7838082313537598
-0.0554028525948524,1.05072283744812,-0.1719918847084045,-0.5364719033241272,-0.2278830707073211,-0.1682539731264114,0.0,0.0,-0.266802966594696,-0.3163256645202636
-0.0572247505187988,1.038041114807129,-0.1737384796142578,-0.5649608969688416,-0.2364434599876403,-0.1712078750133514,0.0,0.0,0.8805654048919678,-0.2684643268585205
-0.0588392242789268,1.025968074798584,-0.1529695689678192,-0.5379611849784851,-0.2450592517852783,-0.1723161041736602,0.0,0.0,-0.1282060146331787,-0.7859824299812317
-0.0605273246765136,1.0132755041122437,-0.1618198752403259,-0.5653067231178284,-0.2521765828132629,-0.142346441745758,0.0,0.0,-0.3417766094207763,-0.0428159832954406
-0.0622212402522563,0.99994295835495,-0.1622572839260101,-0.5937946438789368,-0.2594518065452575,-0.1455046236515045,0.0,0.0,-0.255078911781311,-0.9418964385986328
-0.0639910697937011,0.9860113859176636,-0.171703428030014,-0.6201285123825073,-0.2648488581180572,-0.1079409718513488,0.0,0.0,0.4423108100891113,-0.8800225257873535
-0.065658763051033,0.9722253680229188,-0.1631028354167938,-0.613379180431366,-0.2685973346233368,-0.0749697610735893,0.0,0.0,0.8797366619110107,-0.6470748782157898
-0.067257784307003,0.959157943725586,-0.157045766711235,-0.581302285194397,-0.2715275585651397,-0.0586045756936073,0.0,0.0,0.5240964889526367,-0.908225417137146
-0.0686609297990799,0.9461233019828796,-0.1392296850681305,-0.579517662525177,-0.2726409137248993,-0.0222670324146747,0.0,0.0,-0.9040740132331848,-0.8588735461235046
-0.0701043158769607,0.9324624538421632,-0.1444960832595825,-0.6071244478225708,-0.2724775075912475,0.0032681915909051,0.0,0.0,-0.167758822441101,-0.8692648410797119
-0.0715826004743576,0.9181826710700988,-0.1492474675178527,-0.6343912482261658,-0.271021693944931,0.0291159246116876,0.0,0.0,-0.3759980797767639,-0.5874473452568054
-0.0730850249528884,0.903276026248932,-0.1527261584997177,-0.6620625853538513,-0.2684818208217621,0.0507975704967975,0.0,0.0,-0.3341612815856933,-0.3213356733322143
-0.074558638036251,0.8877292275428772,-0.1496699452400207,-0.6905476450920105,-0.2661247849464416,0.0471407398581504,0.0,0.0,-0.5801796913146973,-0.5475106239318848
-0.0760376006364822,0.8715548515319824,-0.1509862542152404,-0.7183042764663696,-0.2629596590995788,0.0633017644286155,0.0,0.0,0.6096224784851074,-0.3579373359680176
-0.077374555170536,0.8559597134590149,-0.1361146867275238,-0.69268798828125,-0.2604891955852508,0.0494092181324958,0.0,0.0,-0.6069037318229675,-0.6743324995040894
-0.0787330642342567,0.8397552967071533,-0.139715701341629,-0.7195137739181519,-0.256538838148117,0.0790072232484817,0.0,0.0,0.3514294624328613,-0.71745365858078
-0.0800160393118858,0.8235415816307068,-0.1333817988634109,,-0.2513612508773803,0.1035520657896995,0.0,0.0,0.1652313470840454,-0.3353368639945984
-0.0810540169477462,0.8072353601455688,-0.1091522425413131,-0.7238117456436157,-0.2459105849266052,0.1090132594108581,0.0,0.0,-0.3801147937774658,0.1032018661499023
-0.0820421203970909,0.7902895212173462,-0.1039705127477645,-0.7522985935211182,-0.2406567931175232,0.1050754636526107,0.0,0.0,-0.3594091534614563,-0.0119637250900268
-0.082977294921875,0.7727036476135254,-0.0984961539506912,-0.780785322189331,-0.2356017380952835,0.1011009961366653,0.0,0.0,0.1640055179595947,-0.1863777041435241
-0.0837235450744628,0.755297064781189,-0.0794178992509841,-0.7728732824325562,-0.2307367175817489,0.0973004549741745,0.0,0.0,0.1492266654968261,0.3127511739730835
-0.0842331871390342,0.7377100586891174,-0.0560377612709999,-0.7808548808097839,-0.2255941927433014,0.1028504371643066,0.0,0.0,-0.1115169525146484,-0.2039288282394409
-0.0846822708845138,0.7194833159446716,-0.0497931465506553,-0.8093413710594177,-0.2206549942493438,0.0987843126058578,0.0,0.0,0.5434908866882324,-0.2484679222106933
-0.0848199874162674,0.7016776204109192,-0.0188582465052604,-0.7906142473220825,-0.2155140489339828,0.1028188616037368,0.0,0.0,-0.1752406358718872,-0.0848026275634765
-0.0848929435014724,0.6832320094108582,-0.0121850883588194,-0.8191006183624268,-0.2105787098407745,0.098706416785717,0.0,0.0,0.2042645215988159,-0.4096273183822632
-0.0847206115722656,0.6650097370147705,0.0123018622398376,-0.8091848492622375,-0.2055980265140533,0.099614106118679,0.0,0.0,-0.6295291185379028,-0.7038687467575073
-0.0845401734113693,0.6461727619171143,0.0117160445079207,-0.8363317847251892,-0.1992262452840805,0.1274359375238418,0.0,0.0,0.4031355381011963,-0.6200407147407532
-0.0842294692993164,0.6271536946296692,0.0236118137836456,-0.8443050980567932,-0.1917253583669662,0.1500177085399627,0.0,0.0,0.4566404819488525,-0.2830152511596679
-0.0838162451982498,0.6084311008453369,0.0344770476222038,-0.8312501311302185,-0.1848420798778534,0.1376654058694839,0.0,0.0,0.1083253622055053,-0.6718354821205139
-0.0832265838980674,0.5895674228668213,0.050872229039669,-0.8373942971229553,-0.1767143309116363,0.1625552475452423,0.0,0.0,0.5681284666061401,0.0600237846374511
-0.0824383720755577,0.570917546749115,0.0708147510886192,-0.8279520273208618,-0.1686925143003463,0.1604363024234771,0.0,0.0,0.5836224555969238,-0.8044241070747375
-0.0815654769539833,0.5522045493125916,0.0778620690107345,-0.8306476473808289,-0.159258559346199,0.1886787265539169,0.0,0.0,0.6211494207382202,-0.3814115524291992
-0.0806442275643348,0.5337399840354919,0.0834650173783302,-0.8197411298751831,-0.1505961865186691,0.1732473820447921,0.0,0.0,0.2115572690963745,-0.575884997844696
-0.0795784965157508,0.515579879283905,0.0969130024313926,-0.8061684370040894,-0.1409561336040496,0.1928008496761322,0.0,0.0,0.4285368919372558,-0.4104360342025757
-0.0783287063241005,0.4971410930156708,0.1151853054761886,-0.8186022043228149,-0.1311972439289093,0.19517782330513,0.0,0.0,0.6158430576324463,-0.4979485273361206
-0.0768644362688064,0.4792996048927307,0.1367109417915344,-0.792129397392273,-0.121525265276432,0.1934393644332885,0.0,0.0,0.6141773462295532,-0.7907147407531738
-0.0754276290535926,0.4615340828895569,0.1327562183141708,-0.7887254357337952,-0.1106638088822364,0.2172290086746215,0.0,0.0,0.7037756443023682,-0.3044849634170532
-0.0739273056387901,0.4441862106323242,0.1397430002689361,-0.7702856063842773,-0.1004487201571464,0.2043015658855438,0.0,0.0,0.700263500213623,-0.5254498720169067
-0.0722892731428146,0.427157312631607,0.1525562107563018,-0.7561201453208923,-0.0893004238605499,0.2229660451412201,0.0,0.0,0.5544224977493286,-0.7283573150634766
-0.0706886276602745,0.4107104539871216,0.1478042155504226,-0.7302818894386292,-0.0771552845835685,0.2429024428129196,0.0,0.0,0.57342529296875,0.3401720523834228
-0.068893626332283,0.3944394588470459,0.1671081483364105,-0.7225638031959534,-0.0648925900459289,0.2452539950609207,0.0,0.0,0.3380409479141235,-0.4588555097579956
-0.0670226067304611,0.3780063688755035,0.1750259697437286,-0.7298740744590759,-0.0529613532125949,0.2386251240968704,0.0,0.0,0.9434537887573242,-0.1958792209625244
-0.0649685859680175,0.3615011274814605,0.1931682676076889,-0.7331799268722534,-0.0408640578389167,0.2419457137584686,0.0,0.0,0.9500751495361328,-0.2495229244232177
-0.0628519058227539,0.3449597656726837,0.1997963488101959,-0.7348894476890564,-0.0291420686990022,0.2344396561384201,0.0,0.0,0.9555819034576416,-0.1264286637306213
-0.0606340393424034,0.3291876018047333,0.2101693600416183,-0.7007983326911926,-0.0176672879606485,0.2294955253601074,0.0,0.0,0.8263909816741943,-0.3510817289352417
-0.0582276359200477,0.3141265213489532,0.2288081347942352,-0.6692779660224915,-0.0059831286780536,0.2336832284927368,0.0,0.0,0.8836185932159424,-0.5954951643943787
-0.0559149757027626,0.2998320758342743,0.2188020646572113,-0.6353051662445068,0.0063158734701573,0.2459799796342849,0.0,0.0,0.817928671836853,-0.3540360927581787
-0.053662396967411,0.285443902015686,0.213670015335083,-0.6395581364631653,0.0177598446607589,0.2288794964551925,0.0,0.0,0.9549295902252196,-0.3459561467170715
-0.0512936599552631,0.2718207836151123,0.2252521812915802,-0.6056469678878784,0.0292300395667552,0.22940394282341,0.0,0.0,0.7307922840118408,-0.0659418106079101
-0.0489635467529296,0.2584578096866607,0.2220918238162994,-0.5941582322120667,0.0400167517364025,0.2157341688871383,0.0,0.0,0.8007690906524658,-0.5990933775901794
-0.0466890335083007,0.2455586791038513,0.2156897038221359,-0.5736472010612488,0.051636703312397,0.2323992550373077,0.0,0.0,0.9321568012237548,-0.5366166830062866
-0.0444285385310649,0.2332438975572586,0.2134551107883453,-0.5478028655052185,0.0640925392508506,0.2491165399551391,0.0,0.0,0.6274327039718628,0.2921805381774902
-0.0420332923531532,0.2211563736200332,0.2267244160175323,-0.5378172397613525,0.0767602026462555,0.253353476524353,0.0,0.0,0.8123215436935425,-0.4516539573669433
-0.0395550727844238,0.2089945822954177,0.2350997179746627,-0.5412242412567139,0.0893653407692909,0.252102643251419,0.0,0.0,0.893836498260498,-0.3214696645736694
-0.0369260795414447,0.1968977600336074,0.2498729676008224,-0.538466215133667,0.1022823080420494,0.258339375257492,0.0,0.0,0.9528781175613404,-0.3083178400993347
-0.0341068282723426,0.1851960271596908,0.2682802975177765,-0.5210660696029663,0.1158266067504882,0.2708860337734222,0.0,0.0,0.893972635269165,-0.1265453100204467
-0.0310949329286813,0.1735571026802063,0.2870048880577087,-0.5184469819068909,0.1299361437559127,0.2821907997131347,0.0,0.0,0.8014447689056396,0.2260226011276245
-0.0281089786440134,0.162496879696846,0.2846372723579407,-0.4928426146507263,0.1438463479280471,0.2782042324542999,0.0,0.0,0.8955262899398804,-0.1982406973838806
-0.0251262672245502,0.1520976424217224,0.2843486964702606,-0.4635927975177765,0.1577534973621368,0.2781426608562469,0.0,0.0,0.726311445236206,-0.2159209847450256
-0.0220378879457712,0.1421230435371399,0.2944927811622619,-0.4448969960212707,0.1720988452434539,0.286906898021698,0.0,0.0,0.6344089508056641,-0.109828770160675
-0.0188199989497661,0.1320129036903381,0.3071814179420471,-0.4510954618453979,0.1867457628250122,0.2929382026195526,0.0,0.0,0.816914439201355,-0.2469974160194397
-0.0156764034181833,0.1220736354589462,0.3002271652221679,-0.4435866773128509,0.200969323515892,0.284471333026886,0.0,0.0,0.8158299922943115,-0.1682567596435547
-0.0125442501157522,0.1129175052046775,0.2988461554050445,-0.4089553654193878,0.2154711037874221,0.2900355458259582,0.0,0.0,0.5462498664855957,-0.4313781261444092
-0.0094605442136526,0.1038964092731475,0.2942875921726227,-0.403057187795639,0.2297240942716598,0.2850597500801086,0.0,0.0,0.7207596302032471,-0.5756714344024658
-0.0066591263748705,0.0953890904784202,0.2654589116573334,-0.3804606795310974,0.2446300238370895,0.2981185913085937,0.0,0.0,0.5573074817657471,-0.2371743321418762
-0.0038506507407873,0.0872305929660797,0.2659801840782165,-0.3651461899280548,0.2597762644290924,0.3029254078865051,0.0,0.0,0.75240159034729,-0.2633677721023559
-0.0012146949302405,0.0795654878020286,0.2491743266582489,-0.3432952463626861,0.2745252847671509,0.2949803173542022,0.0,0.0,0.317290186882019,-0.2258229255676269
0.0012826919555664,0.0720969289541244,0.23580202460289,-0.3346145749092102,0.2888392508029938,0.2862801253795624,0.0,0.0,0.1309908628463745,-0.3101576566696167
0.0037534714210778,0.0644726604223251,0.2333977222442627,-0.3416317105293274,0.3029493987560272,0.2822027802467346,0.0,0.0,0.6043627262115479,-0.059211254119873
0.0060286521911621,0.0569948069751262,0.2145273685455322,-0.3351112902164459,0.3164152801036834,0.2693177163600921,0.0,0.0,0.6694430112838745,0.0230032205581665
0.0080815311521291,0.0495614372193813,0.1931406706571579,-0.3330783247947693,0.3290625512599945,0.2529448270797729,0.0,0.0,0.9122841358184814,0.4656668901443481
0.0100686075165867,0.0427289567887783,0.1861706376075744,-0.3065741956233978,0.342166543006897,0.2620794475078583,0.0,0.0,0.78354811668396,0.3725522756576538
0.0120712276548147,0.0358535610139369,0.1875956952571869,-0.3086374700069427,0.355471521615982,0.2660992443561554,0.0,1.0,0.9992825984954834,0.9996203184127808
0.0140018463134765,0.0308857541531324,0.1977587342262268,-0.2200397849082946,0.3493282198905945,-0.1246325373649597,0.0,1.0,0.997348427772522,0.906590223312378
0.0155336381867527,0.0274923667311668,0.1786247938871383,-0.1448884159326553,0.3226596713066101,-0.5334444642066956,0.0,1.0,0.9788076877593994,-0.7630365490913391
0.0167772285640239,0.0256017297506332,0.1612695306539535,-0.0762969776988029,0.284382700920105,-0.7656575441360474,0.0,1.0,0.827195405960083,-0.8657569289207458
0.0178333278745412,0.0242565497756004,0.1461932957172393,-0.0524398423731327,0.2427998930215835,-0.831755518913269,0.0,1.0,0.6197490692138672,-0.9245816469192504
0.0186401363462209,0.0234099011868238,0.1185779944062233,-0.0318387523293495,0.2044019848108291,-0.7679989337921143,0.0,1.0,0.3198319673538208,-0.8482847213745117
0.0193074233829975,0.0228663068264722,0.1030395403504371,-0.0195633936673402,0.1679011434316635,-0.7300471067428589,0.0,0.0,-0.9974926114082336,-0.4613391160964966
0.0200605392456054,0.0216995812952518,0.1119400411844253,-0.0481308177113533,0.1313007920980453,-0.7320374250411987,0.0,0.0,-0.9734123349189758,-0.7799285054206848
0.0208261497318744,0.0198958497494459,0.1115803942084312,-0.0774565711617469,0.096479594707489,-0.6964527368545532,0.0,0.0,-0.6020527482032776,-0.9426804780960084
0.0215953830629587,0.0174410194158554,0.1094734892249107,-0.1073189750313758,0.0642498359084129,-0.644595742225647,0.0,0.0,0.6619834899902344,-0.9497576951980592
0.0223156921565532,0.0151970479637384,0.1028401851654052,-0.0986892208456993,0.0337908454239368,-0.609180212020874,0.0,0.0,0.7745208740234375,-0.981163501739502
0.0230569839477539,0.0131785962730646,0.1030458956956863,-0.0893022567033767,0.0052453391253948,-0.5709103941917419,0.0,0.0,0.7098402976989746,-0.9839664101600648
0.0239575393497943,0.0110792489722371,0.1168649196624755,-0.0934223011136055,-0.0212215725332498,-0.5293385982513428,0.0,0.0,0.8761708736419678,-0.9781789183616638
0.0250073429197073,0.0095150927081704,0.129691869020462,-0.0700476616621017,-0.045620571821928,-0.4879799485206604,0.0,0.0,0.6369065046310425,-0.9294189810752868
0.0261354446411132,0.0085271093994379,0.1356391906738281,-0.0447608567774295,-0.0682011395692825,-0.4516112804412842,0.0,0.0,0.2074859142303466,-0.655372142791748
0.0273656845092773,0.0072386120446026,0.1445052772760391,-0.0583799555897712,-0.089466705918312,-0.4253115057945251,1.0,0.0,0.5950441360473633,-0.8824745416641235
