x_pos,y_pos,x_vel,y_vel,angle,ang_vel,leg_1,leg_2,main_booster,lat_booster
-0.0015222548972815,1.4030561447143557,-0.1542000323534011,-0.349518209695816,0.0017739137401804,0.0349927768111228,0.0,0.0,-0.4919219613075256,0.6609618663787842
-0.0029875754844397,1.3946435451507568,-0.1468609273433685,-0.3738934397697449,0.0020867525599896,0.0062583363614976,0.0,0.0,0.0347335338592529,0.1250050067901611
-0.0043703080154955,1.3860417604446411,-0.1389980912208557,-0.3823052942752838,0.0028046735096722,0.0143599389120936,0.0,0.0,0.1144514083862304,0.7414860725402832
-0.0057888985611498,1.377374291419983,-0.1410064995288849,-0.3852222859859466,0.0019628291483968,-0.0168389119207859,0.0,0.0,-0.4931775331497192,0.8880343437194824
-0.007124900817871,1.3681412935256958,-0.1305970102548599,-0.4103555977344513,-0.0010061612119898,-0.0593854375183582,0.0,0.0,-0.0004900693893432,0.560025691986084
-0.0084097860381007,1.3583390712738037,-0.1241199225187301,-0.4356622397899627,-0.0053300685249269,-0.0864860117435455,0.0,0.0,0.45868980884552,0.6129204034805298
-0.0096693038940429,1.3487333059310913,-0.1203096061944961,-0.4269547164440155,-0.0109117208048701,-0.1116432175040245,0.0,0.0,-0.1794973611831665,-0.4735323190689087
-0.010933494195342,1.3385591506958008,-0.1207796335220336,-0.4522310495376587,-0.0164873823523521,-0.1115235835313797,0.0,0.0,0.1603798866271972,0.2777789831161499
-0.0122018810361623,1.328698992729187,-0.1211683005094528,-0.4383116960525512,-0.0220979582518339,-0.1122214943170547,0.0,0.0,0.3140654563903808,-0.0029031634330749
-0.0134644508361816,1.3191367387771606,-0.1205804124474525,-0.4250810444355011,-0.0277055837213993,-0.1121627837419509,0.0,0.0,-0.4604310393333435,-0.0358076691627502
-0.0147339822724461,1.3090064525604248,-0.1212860941886901,-0.4503550231456756,-0.0333072729408741,-0.1120440736413002,0.0,0.0,-0.4293301701545715,0.3151435852050781
-0.0160111431032419,1.2983078956604004,-0.1220643520355224,-0.4756228327751159,-0.0389030650258064,-0.1119258180260658,0.0,0.0,-0.0140159726142883,0.1884924173355102
-0.0172966960817575,1.2870413064956665,-0.1229124888777732,-0.5008928775787354,-0.0444929860532283,-0.1118084415793418,0.0,0.0,-0.3513692617416382,0.3090693950653076
-0.018591308966279,1.2752066850662231,-0.1238275617361068,-0.526163637638092,-0.0500771403312683,-0.1116932481527328,0.0,0.0,0.5880750417709351,-0.3808128833770752
-0.0197205543518066,1.263980746269226,-0.1079387068748474,-0.4991032183170318,-0.0550168454647064,-0.0988030880689621,0.0,0.0,0.2919387817382812,0.267596960067749
-0.020761776715517,1.2525274753570557,-0.0995491221547126,-0.5092089176177979,-0.0595485344529151,-0.0906418189406395,0.0,0.0,0.2364988327026367,-0.9890521764755248
-0.0217326171696186,1.241472244262695,-0.0945273116230964,-0.4914495348930359,-0.0620730780065059,-0.0504954867064952,0.0,0.0,-0.6175037622451782,0.0720722675323486
-0.0227149967104196,1.2298483848571775,-0.0956890955567359,-0.5167248845100403,-0.064594030380249,-0.0504236742854118,0.0,0.0,-0.4134163856506347,-0.839663028717041
-0.0237646102905273,1.2176693677902222,-0.1038318425416946,-0.5413386225700378,-0.0657085999846458,-0.0222935602068901,0.0,0.0,-0.3506872653961181,-0.6085115671157837
-0.0248812679201364,1.20492684841156,-0.1119228601455688,-0.5663226842880249,-0.0654485970735549,0.0052007837221026,0.0,0.0,-0.0953573584556579,-0.8438265919685364
-0.026063060387969,1.191627025604248,-0.1197923272848129,-0.5910295248031616,-0.0638617649674415,0.0317393988370895,0.0,0.0,0.0854800939559936,0.3694744110107422
-0.0272323600947856,1.1781933307647705,-0.1185668334364891,-0.5969887375831604,-0.0622370690107345,0.0324968285858631,0.0,0.0,-0.2270689010620117,0.2006314992904663
-0.0284156799316406,1.1641910076141355,-0.1199698597192764,-0.6222604513168335,-0.0606103092432022,0.032538004219532,0.0,0.0,-0.0470099449157714,-0.2068008184432983
-0.0296133048832416,1.1496200561523438,-0.1214101463556289,-0.6475287675857544,-0.0589822642505168,0.0325638875365257,0.0,0.0,0.6919991970062256,0.5338821411132812
-0.0308998115360736,1.1354793310165403,-0.1287906169891357,-0.6284806728363037,-0.0588394328951835,0.0028565402608364,0.0,0.0,-0.7820857167243958,-0.2560129165649414
-0.0322021469473838,1.1207484006881714,-0.1303775608539581,-0.6547052264213562,-0.0586957447230815,0.0028739017434418,0.0,0.0,-0.2738927602767944,-0.3598963022232055
-0.0335197448730468,1.1054489612579346,-0.1319098770618438,-0.6799716353416443,-0.0585524104535579,0.0028664956334978,0.0,0.0,-0.3164069652557373,-0.742824912071228
-0.0349241271615028,1.0895949602127075,-0.1424003541469574,-0.7045456767082214,-0.0566093660891056,0.0388606525957584,0.0,0.0,-0.1924254298210144,-0.6815802454948425
-0.0364096648991107,1.0731838941574097,-0.1521843075752258,-0.7292519211769104,-0.0530167631804943,0.0718520954251289,0.0,0.0,-0.7097198963165283,-0.0909423232078552
-0.0379112251102924,1.056204319000244,-0.1537905931472778,-0.7545193433761597,-0.049426969140768,0.071796029806137,0.0,0.0,0.2622213363647461,0.2541813850402832
-0.0393829345703125,1.0396244525909424,-0.1508580297231674,-0.7367628216743469,-0.0457747280597686,0.0730448588728904,0.0,0.0,-0.2456293106079101,0.6487064361572266
-0.0408265106379985,1.0224695205688477,-0.1469094604253769,-0.7623695135116577,-0.043251633644104,0.0504615791141986,0.0,0.0,0.7346808910369873,0.1560940742492675
-0.0423368439078331,1.006013035774231,-0.1531815230846405,-0.7313392758369446,-0.0411350987851619,0.0423310324549675,0.0,0.0,-0.8882356882095337,0.5863993167877197
-0.0438227653503418,0.988980233669281,-0.1496655046939849,-0.7569853067398071,-0.0400688685476779,0.0213245451450347,0.0,0.0,-0.1508644819259643,-0.3059741854667663
-0.0453255660831928,0.9713789820671082,-0.1513476967811584,-0.7822517156600952,-0.0390099920332431,0.0211774576455354,0.0,0.0,0.80405592918396,0.3071509599685669
-0.046793270856142,0.9544458389282228,-0.1479236781597137,-0.752549946308136,-0.0378676354885101,0.0228470768779516,0.0,0.0,-0.0535749197006225,-0.226783275604248
-0.0482779517769813,0.9369442462921144,-0.1496208757162094,-0.7778164148330688,-0.0367345958948135,0.0226611904799938,0.0,0.0,-0.3001217842102051,-0.7703326344490051
-0.0498368255794048,0.918883502483368,-0.1584684550762176,-0.8026440143585205,-0.0341755710542202,0.0511803217232227,0.0,0.0,0.1262905597686767,0.6204495429992676
-0.0513738617300987,0.9011210799217224,-0.1549924910068512,-0.7894056439399719,-0.0329046733677387,0.0254180543124675,0.0,0.0,-0.2898759841918945,-0.3487385511398315
-0.0529280677437782,0.8827903866767883,-0.1566967219114303,-0.8146721124649048,-0.03164604306221,0.0251726955175399,0.0,0.0,0.8677594661712646,0.5497605800628662
-0.0545563697814941,0.8652195334434509,-0.1626122891902923,-0.7809313535690308,-0.0318582467734813,-0.0042440784163773,0.0,0.0,-0.200958251953125,0.2534699440002441
-0.0562017448246479,0.8470801115036011,-0.1643112599849701,-0.8061977624893188,-0.0320847146213054,-0.0045294724404811,0.0,0.0,-0.3091382980346679,0.3545169830322265
-0.0578641891479492,0.8283722996711731,-0.1660047471523285,-0.8314641118049622,-0.0323264561593532,-0.0048347976990044,0.0,0.0,0.0602228641510009,0.1561684608459472
-0.0594690330326557,0.8096015453338623,-0.1605235338211059,-0.8342576622962952,-0.0322897173464298,0.0007346268976107,0.0,0.0,0.9112039804458618,0.8305020332336426
-0.0610657706856727,0.7907624244689941,-0.1579136997461319,-0.8373309373855591,-0.0340293683111667,-0.0347929410636425,0.0,0.0,0.7078436613082886,-0.2746130228042602
-0.0626200661063194,0.7718703746795654,-0.1538793444633484,-0.8396856188774109,-0.0355676114559173,-0.0307643860578537,0.0,0.0,0.9549117088317872,0.5547230243682861
-0.0640519112348556,0.7531930804252625,-0.1407192051410675,-0.830163836479187,-0.0380068086087703,-0.0487837865948677,0.0,0.0,0.9931302070617676,0.4642722606658935
-0.0655976310372352,0.7354628443717957,-0.151446908712387,-0.7880939841270447,-0.0410934500396251,-0.0617327280342578,0.0,0.0,0.3898019790649414,-0.4386947751045227
-0.0672440528869628,0.71816486120224,-0.1609719842672348,-0.7689073085784912,-0.0447175167500972,-0.072481170296669,0.0,0.0,0.6776783466339111,0.0335491895675659
-0.0689050704240799,0.7010738253593445,-0.1623118668794632,-0.7597150206565857,-0.0484630577266216,-0.0749109536409378,0.0,0.0,-0.5755760669708252,-0.3538862466812134
-0.0705821961164474,0.6834146976470947,-0.1638964116573333,-0.7849826216697693,-0.052231591194868,-0.0753707066178321,0.0,0.0,0.7406909465789795,0.5615992546081543
-0.072254940867424,0.666355311870575,-0.1621295511722564,-0.7583832144737244,-0.0573147237300872,-0.1016627922654151,0.0,0.0,0.5730167627334595,0.1017453670501709
-0.0738151520490646,0.6493526697158813,-0.1513392627239227,-0.7558582425117493,-0.0619411766529083,-0.0925291627645492,0.0,0.0,0.2964305877685547,0.0465607643127441
-0.0753494277596473,0.6327188014984131,-0.148739755153656,-0.7394866347312927,-0.0665817111730575,-0.0928105637431144,0.0,0.0,-0.0860142111778259,0.2522013187408447
-0.0768988579511642,0.6155166029930115,-0.1502296030521392,-0.7647548913955688,-0.0712487325072288,-0.0933406502008438,0.0,0.0,0.9549837112426758,0.3109704256057739
-0.0785363167524337,0.5985926985740662,-0.1584704518318176,-0.7524346113204956,-0.0764661207795143,-0.1043479815125465,0.0,0.0,0.8434979915618896,0.3184229135513305
-0.0800157561898231,0.58241868019104,-0.1431374102830886,-0.7190991044044495,-0.0812264159321785,-0.0952058434486389,0.0,0.0,0.7683924436569214,-0.0543060302734375
-0.0813036933541297,0.566737711429596,-0.1246475130319595,-0.6971611380577087,-0.0853323489427566,-0.0821184664964675,0.0,0.0,-0.046457827091217,-0.3829391002655029
-0.082605555653572,0.5504885315895081,-0.1260186284780502,-0.7224291563034058,-0.0894679501652717,-0.0827120617032051,0.0,0.0,0.9237730503082277,-0.3857628107070923
-0.0839277282357215,0.5350499749183655,-0.1275974065065384,-0.6864386796951294,-0.0940442383289337,-0.0915257036685943,0.0,0.0,0.7504911422729492,-0.4595527648925781
-0.0851723700761795,0.5196215510368347,-0.1200682148337364,-0.6859891414642334,-0.0984007492661476,-0.0871302336454391,0.0,0.0,0.8977853059768677,0.1086225509643554
-0.0864653587341308,0.5048446655273438,-0.1243437379598617,-0.6570835113525391,-0.1033219099044799,-0.0984232053160667,0.0,0.0,-0.109959065914154,0.4456205368041992
-0.0877710357308387,0.4894998073577881,-0.1255751550197601,-0.6823521256446838,-0.1082755029201507,-0.0990721434354782,0.0,0.0,0.5281603336334229,-0.4379757046699524
-0.0890059471130371,0.4744285643100738,-0.1185747236013412,-0.6701950430870056,-0.1131613627076149,-0.0977169498801231,0.0,0.0,0.4001147747039795,-0.0787845849990844
-0.0902077704668045,0.4592944681644439,-0.1152646392583847,-0.6730091571807861,-0.1180502250790596,-0.0977770686149597,0.0,0.0,0.910824418067932,-0.1417360305786132
-0.0914827361702919,0.4446357488632202,-0.1218783110380172,-0.6519527435302734,-0.1236356347799301,-0.1117081642150878,0.0,0.0,0.2965902090072632,0.3539367914199829
-0.092669203877449,0.4304056465625763,-0.1130741983652114,-0.6329205632209778,-0.1291778832674026,-0.1108449921011924,0.0,0.0,0.6386454105377197,0.0312849283218383
-0.0937481895089149,0.4160232245922088,-0.102674201130867,-0.6396803259849548,-0.1343787759542465,-0.1040177345275878,0.0,0.0,0.7928578853607178,-0.5711270570755005
-0.0947262793779373,0.4024590253829956,-0.0937890261411666,-0.6032214760780334,-0.1383867263793945,-0.0801587104797363,0.0,0.0,-0.6224812269210815,-0.7085869908332825
-0.0957786589860916,0.3883368968963623,-0.1028232127428054,-0.627877414226532,-0.1407949179410934,-0.0481638424098491,0.0,0.0,0.9599814414978028,-0.2362778186798095
-0.0968355163931846,0.3748623132705688,-0.1027323454618454,-0.5991507172584534,-0.1437435895204544,-0.0589734017848968,0.0,0.0,0.1139671802520752,-0.7186821103096008
-0.0978738814592361,0.3614507913589477,-0.102312758564949,-0.5962144136428833,-0.1452690660953521,-0.0305095221847295,0.0,0.0,0.4574042558670044,0.029934287071228
-0.0989253968000412,0.3486013412475586,-0.1030585914850235,-0.5712934732437134,-0.1473574191331863,-0.0417667143046855,0.0,0.0,0.6423335075378418,0.0191444158554077
-0.0998284369707107,0.3360191583633423,-0.0885126367211341,-0.55938720703125,-0.1491453498601913,-0.035758588463068,0.0,0.0,-0.4905707836151123,0.5861907005310059
-0.1006962805986404,0.3228543698787689,-0.083849124610424,-0.5853999257087708,-0.1520802527666092,-0.0586976483464241,0.0,0.0,0.8241550922393799,-0.7877763509750366
-0.1014982238411903,0.3096405863761902,-0.0789614170789718,-0.5874043107032776,-0.1533121764659881,-0.0246384404599666,0.0,0.0,-0.0650233626365661,-0.8215204477310181
-0.1023754104971885,0.2958660423755646,-0.0881663188338279,-0.6121571063995361,-0.1528566479682922,0.0091105680912733,0.0,0.0,0.8312106132507324,-0.7561812996864319
-0.1031931862235069,0.2828491032123565,-0.0836981385946273,-0.5783336162567139,-0.1509445458650589,0.0382421687245368,0.0,0.0,0.8160724639892578,-0.4094576239585876
-0.1037949547171592,0.2705738246440887,-0.0624672695994377,-0.5453400015830994,-0.1486636251211166,0.0456186085939407,0.0,0.0,0.8630766868591309,0.1489616632461547
-0.1043908149003982,0.2591255009174347,-0.0612436719238758,-0.5086483359336853,-0.1470062136650085,0.0331482179462909,0.0,0.0,-0.0717964172363281,-0.7710351943969727
-0.1050656288862228,0.2471172958612442,-0.0709812492132186,-0.5333568453788757,-0.1435178518295288,0.0697676390409469,0.0,0.0,0.6848126649856567,0.787513017654419
-0.1055225357413292,0.2357213348150253,-0.0476576276123523,-0.5062955617904663,-0.141553521156311,0.0392865240573883,0.0,0.0,0.0881950855255127,-0.0686025023460388
-0.1059961318969726,0.224334105849266,-0.0489785894751548,-0.5059462785720825,-0.1399356871843338,0.0323564782738685,0.0,0.0,0.7837107181549072,0.3282533884048462
-0.1064298599958419,0.2134778797626495,-0.0446853302419185,-0.4823792278766632,-0.138629212975502,0.0261297523975372,0.0,0.0,0.7004367113113403,-0.1192435622215271
-0.1067796722054481,0.2031249105930328,-0.0361886024475097,-0.4600176811218261,-0.1374169290065765,0.0242454688996076,0.0,0.0,0.196326732635498,-0.2105504274368286
-0.107011891901493,0.1928166449069976,-0.0247030388563871,-0.4580132067203522,-0.1359495222568512,0.0293485075235366,0.0,0.0,0.6998651027679443,-0.3020915985107422
-0.107174776494503,0.1824583858251571,-0.0178344678133726,-0.4602274298667907,-0.1344058066606521,0.0308743305504322,0.0,0.0,0.7340595722198486,0.3416017293930053
-0.1071866005659103,0.1721403151750564,-0.0031437366269528,-0.4584035575389862,-0.132447749376297,0.0391610786318779,0.0,0.0,0.8340972661972046,0.0300765037536621
-0.1069543808698654,0.1621641516685485,0.0205285642296075,-0.4431488215923309,-0.1297696828842163,0.0535610727965831,0.0,0.0,0.7416138648986816,-0.4505763649940491
-0.1065238937735557,0.1522095799446106,0.039701759815216,-0.4421409070491791,-0.126446783542633,0.0664583295583725,0.0,0.0,0.838896632194519,-0.6781466603279114
-0.106048583984375,0.1429473012685775,0.0428887531161308,-0.4112680852413177,-0.1218181699514389,0.0925721675157547,0.0,0.0,0.6258111000061035,-0.8219462633132935
-0.1055134758353233,0.1342403441667556,0.047178529202938,-0.3864739835262298,-0.1155230104923248,0.1259032785892486,0.0,0.0,0.5566444396972656,0.3965988159179687
-0.1047895401716232,0.1258816570043563,0.0655375868082046,-0.370981901884079,-0.1087177321314811,0.1361052095890045,0.0,0.0,0.3620182275772095,-0.3722513914108276
-0.1039537414908409,0.117342934012413,0.0763694196939468,-0.3789907097816467,-0.1015596240758895,0.1431621611118316,0.0,0.0,0.4945324659347534,-0.7012322545051575
-0.1031783074140548,0.1089384630322456,0.0690505504608154,-0.3729800581932068,-0.0931327491998672,0.1685374975204467,0.0,0.0,0.8146860599517822,-0.2866024971008301
-0.1022214889526367,0.1013688445091247,0.0867780372500419,-0.335897833108902,-0.0843056067824363,0.1765426695346832,0.0,0.0,0.4093692302703857,0.4285330772399902
-0.1012427359819412,0.0939600095152854,0.0890930145978927,-0.3288124203681946,-0.0755991041660308,0.1741300672292709,0.0,0.0,0.1991701126098632,0.8752660751342773
-0.1002539619803428,0.0868590921163559,0.0919256657361984,-0.3152610659599304,-0.068718634545803,0.1376092135906219,0.0,0.0,-0.2041580080986023,0.3782455921173095
-0.0992638617753982,0.0791903361678123,0.0920859724283218,-0.3405315279960632,-0.061864249408245,0.1370879262685775,0.0,0.0,0.8829342126846313,0.5263316631317139
-0.0982419997453689,0.072239764034748,0.0965197309851646,-0.3086932003498077,-0.0562705658376216,0.1118734329938888,0.0,0.0,0.4668824672698974,0.2959092855453491
-0.0972544699907302,0.0657229274511337,0.0934695899486541,-0.2894477844238281,-0.0510398894548416,0.104613646864891,0.0,0.0,0.3302512168884277,0.4459041357040405
-0.0962644591927528,0.059240136295557,0.0938249751925468,-0.2879562079906463,-0.0459235049784183,0.1023275405168533,0.0,0.0,0.3037705421447754,0.7431186437606812
-0.0952951461076736,0.0529041141271591,0.0934142619371414,-0.2814991176128387,-0.0424450188875198,0.0695695653557777,0.0,0.0,0.2974096536636352,0.646066427230835
-0.0943859070539474,0.0466196648776531,0.0889530330896377,-0.2792534232139587,-0.0404958724975585,0.0389827191829681,0.0,0.0,0.7110497951507568,0.8781840801239014
-0.0932527557015419,0.0408757291734218,0.1129274740815162,-0.2552730739116668,-0.0401094630360603,0.0077281733974814,0.0,0.0,0.6789979934692383,-0.130336046218872
-0.0920397788286209,0.0351216420531272,0.1206294074654579,-0.2557201087474823,-0.0394492819905281,0.013203740119934,0.0,0.0,0.4737420082092285,0.0118783712387084
-0.0906680077314376,0.0298113673925399,0.1359041929244995,-0.2359765470027923,-0.0382032766938209,0.0249204523861408,0.0,0.0,0.5937716960906982,-0.7280793190002441
-0.0893467888236045,0.0250656455755233,0.1294497698545456,-0.2108585834503173,-0.0355657711625099,0.0527497828006744,0.0,0.0,0.4141550064086914,-0.5053642988204956
-0.0879053100943565,0.0208489280194044,0.1401447504758834,-0.1873199194669723,-0.0316040404140949,0.0792346820235252,0.0,0.0,0.6373264789581299,-0.8637024760246277
-0.086427018046379,0.0169245339930057,0.1419491022825241,-0.1743029803037643,-0.0257986243814229,0.116108164191246,0.0,0.0,0.3768396377563476,-0.9486637115478516
-0.0850103348493576,0.0134652713313698,0.1338880658149719,-0.153629720211029,-0.0181149374693632,0.1536738872528076,0.0,0.0,0.5375658273696899,-0.4423403143882751
-0.0835213661193847,0.0105360839515924,0.1408602148294448,-0.1301102936267852,-0.0101718790829181,0.1588610857725143,0.0,0.0,0.0354965925216674,-0.8620142340660095
-0.0820353478193283,0.0074662421829998,0.1388045102357864,-0.1363990604877472,-0.0005100198322907,0.1932369768619537,0.0,0.0,0.073665976524353,-0.670348048210144
-0.0806900039315223,0.0044332360848784,0.1234865933656692,-0.1348291486501693,0.0103907911106944,0.2180164754390716,0.0,0.0,0.4862935543060303,-0.213710069656372
-0.0794626250863075,0.0015260076615959,0.1122334152460098,-0.1293106526136398,0.0207628272473812,0.2074406445026397,0.0,0.0,0.0513763427734375,0.8464456796646118
-0.0783645659685134,-0.0007856273441575,0.1206474304199218,-0.1026289239525795,0.0100474199280142,-0.2143163681030273,0.0,1.0,-0.1847238540649414,0.0785074234008789
-0.0773669257760047,-0.0030786658171564,0.1271001100540161,-0.1019588187336921,-0.0169572941958904,-0.5401174426078796,1.0,1.0,0.4632818698883056,-0.974060833454132
-0.0762838348746299,-0.0048288251273334,0.1228372305631637,-0.0783793181180954,-0.0298736412078142,-0.2565122246742248,1.0,1.0,0.852710485458374,-0.9726521372795104
-0.0751126259565353,-0.0050663971342146,0.1188960522413253,-0.0106031876057386,-0.0316017307341098,-0.0345251262187957,1.0,1.0,-0.228996992111206,-0.9873046875
-0.0740949660539627,-0.0047797942534089,0.099601000547409,0.0127746043726801,-0.0294271372258663,0.0435241684317588,1.0,1.0,-0.6886657476425171,-0.9482539296150208
