x_pos,y_pos,x_vel,y_vel,angle,ang_vel,leg_1,leg_2,main_booster,lat_booster
-0.0015007972251623,1.402906060218811,-0.1521807014942169,-0.3561824560165405,0.0018771716859191,0.0370377451181411,0.0,0.0,0.6110292171709892,-0.7135716577268374
-0.0029803276993334,1.3948678970336914,-0.1514737457036972,-0.3572567999362945,0.0053539685904979,0.0695433989167213,0.0,0.0,-0.0187195046357711,0.8844539143961928
-0.0043522836640477,1.386104941368103,-0.1386570930480957,-0.3894666135311126,0.0068008247762918,0.0289397425949573,0.0,0.0,-0.2943793972540081,-0.7992725416086837
-0.0057767867110669,1.3766204118728638,-0.1459266543388366,-0.4215583503246307,0.0102434838190674,0.0688594132661819,0.0,0.0,0.240662785572685,0.9637132688560348
-0.0069949151948094,1.367157816886902,-0.1235154271125793,-0.4205707013607025,0.0119295064359903,0.033723197877407,0.0,0.0,-0.4664891654425489,-0.8610159605904232
-0.008242798037827,1.356974720954895,-0.1279210150241851,-0.4526166319847107,0.0150228319689631,0.061872411519289,0.0,0.0,-0.8487671581118408,-0.8811280804616434
-0.0095403669402003,1.346071720123291,-0.1347947418689727,-0.4846367835998535,0.0200081095099449,0.099714770913124,0.0,0.0,0.2888252238649749,0.9295305997490436
-0.0106180189177393,1.335216403007507,-0.111123539507389,-0.4825099110603332,0.0233287550508976,0.0664190277457237,0.0,0.0,-0.8142513949407171,-0.6480328874144836
-0.0117258075624704,1.3236477375030518,-0.115523412823677,-0.514238178730011,0.0280304923653602,0.0940430462360382,0.0,0.0,0.2332319529848741,0.97427039640821
-0.0127509115263819,1.3121832609176636,-0.1053700000047683,-0.5095871090888977,0.0308652985841035,0.0567012317478656,0.0,0.0,0.2385692042804035,0.9162695168370298
-0.0136206625029444,1.3006759881973269,-0.0881205275654792,-0.5114617347717285,0.0319919250905513,0.0225346107035875,0.0,0.0,-0.0899729598502432,0.7935053111155187
-0.0143987657502293,1.2884517908096311,-0.0772307068109512,-0.5432817935943604,0.0314158499240875,-0.0115225156769156,0.0,0.0,0.0734516744587334,0.6342130943893907
-0.015024185180664,1.2762008905410769,-0.0608603134751319,-0.5444554686546326,0.0297597516328096,-0.0331252887845039,0.0,0.0,-0.476340957992855,-0.8213324839665854
-0.0156850814819335,1.263221025466919,-0.0659225732088089,-0.5768757462501526,0.0295907240360975,-0.0033808150328695,0.0,0.0,-0.0416433781764633,0.6359864007339712
-0.0162629131227731,1.2495322227478027,-0.0560717359185218,-0.6083596348762512,0.027901442721486,-0.0337889268994331,0.0,0.0,0.5994414635861538,-0.9571810261920336
-0.0167829506099224,1.2355470657348633,-0.0524035468697547,-0.6215686202049255,0.0283005647361278,0.007983086630702,0.0,0.0,0.7533077457306561,0.9366776149201832
-0.0170708652585744,1.2222256660461426,-0.0275980792939662,-0.5920436382293701,0.0271272845566272,-0.0234676413238048,0.0,0.0,0.9001714508387506,-0.9344320334979724
-0.0172418598085641,1.208828091621399,-0.0181478820741176,-0.5954648852348328,0.0281633734703063,0.0207234434783458,0.0,0.0,-0.610309852704713,0.9503733139879208
-0.0173052791506052,1.194724678993225,-0.0051874439232051,-0.626793622970581,0.0270233489573001,-0.0228024907410144,0.0,0.0,-0.7716843432679952,0.711189776197777
-0.0172994621098041,1.1799046993255615,0.0029556520748883,-0.6586288809776306,0.0246746819466352,-0.0469778254628181,0.0,0.0,-0.2624124133804266,-0.7780640118957705
-0.0173218734562397,1.164370059967041,-0.0011075052898377,-0.6904094815254211,0.0235530026257038,-0.0224358700215816,0.0,0.0,-0.0606199839596366,0.729572563514014
-0.0172654148191213,1.1481150388717651,0.008276087231934,-0.7224094271659851,0.0209574215114116,-0.0519162490963935,0.0,0.0,0.1998845072828183,0.9921343809502692
-0.017007540911436,1.1317392587661743,0.0303819719702005,-0.7277547717094421,0.0164048392325639,-0.091059885919094,0.0,0.0,-0.4949732307039325,-0.9274546137968692
-0.0167947765439748,1.114633083343506,0.0242304448038339,-0.7602406740188599,0.0134798800572752,-0.0585042163729667,0.0,0.0,-0.9902879382328028,-0.9828908652314162
-0.0166588779538869,1.0968095064163208,0.0141150187700986,-0.7921590209007263,0.0129618756473064,-0.0103606879711151,0.0,0.0,0.3109531683200506,-0.8202506676032486
-0.0167073253542184,1.0790842771530151,-0.0058181853964924,-0.7877919673919678,0.0139232780784368,0.019228134304285,0.0,0.0,0.1636747396411675,0.9970956913919312
-0.0166621208190917,1.0614161491394043,0.0055673262104392,-0.7852426171302795,0.0128869023174047,-0.0207274686545133,0.0,0.0,0.2646421001763215,-0.8589939651868688
-0.0167895313352346,1.0439823865890503,-0.0133115034550428,-0.7748362421989441,0.0134487599134445,0.0112370494753122,0.0,0.0,-0.9116852849961246,-0.6154710166484193
-0.0169583316892385,1.0258342027664185,-0.0189290381968021,-0.8066074252128601,0.0154792759567499,0.0406101532280445,0.0,0.0,-0.8849587443126234,0.719275437899529
-0.0170543678104877,1.006966233253479,-0.0102465506643056,-0.8385874629020691,0.0161065906286239,0.012546551413834,0.0,0.0,-0.0359487528378272,-0.7872709635684774
-0.0171936992555856,0.987387239933014,-0.0160784255713224,-0.8702046871185303,0.0182251296937465,0.0423704758286476,0.0,0.0,0.7781978569121233,0.920365129440804
-0.0173449516296386,0.9677913784980774,-0.0152415875345468,-0.8709344863891602,0.0183353871107101,0.00220517674461,0.0,0.0,0.2359342867362726,0.9091344328796286
-0.0174906738102436,0.9483847618103028,-0.012778690084815,-0.8624902367591858,0.0165698453783988,-0.0353106930851936,0.0,0.0,0.1130526548605201,-0.676398318483918
-0.0177265163511037,0.9286155104637146,-0.0230694580823183,-0.8786242008209229,0.0160624906420707,-0.010147170163691,0.0,0.0,0.7035007750167155,-0.9771303506519876
-0.0180157665163278,0.9090986251831056,-0.0303739160299301,-0.8674386739730835,0.0174906607717275,0.0285632275044918,0.0,0.0,0.6653619104866431,0.9179054278220504
-0.0182104110717773,0.8900159001350403,-0.01905432716012,-0.8481147289276123,0.0170887317508459,-0.008038455620408,0.0,0.0,0.7336079875521242,-0.7957730386865636
-0.0184920318424701,0.8709248900413513,-0.0292649213224649,-0.8485042452812195,0.0181762669235467,0.0217507742345333,0.0,0.0,-0.3409505769070917,0.8370265041763445
-0.0186896324157714,0.8511238694190979,-0.019026830792427,-0.8800411820411682,0.0174578316509723,-0.0143689168617129,0.0,0.0,0.8784182258070536,-0.8106833739025276
-0.0190038681030273,0.832047164440155,-0.0321952998638153,-0.847863495349884,0.0182129498571157,0.0151024740189313,0.0,0.0,-0.2150922618387463,0.8465245340356776
-0.019235610961914,0.8122550249099731,-0.022113436833024,-0.879639208316803,0.0171688124537467,-0.0208831429481506,0.0,0.0,-0.999246939115006,0.6667642157998531
-0.0194122307002544,0.7917513251304626,-0.0154571933671832,-0.9112575650215148,0.0149965435266494,-0.0434455350041389,0.0,0.0,0.9832507371902466,-0.5384989380836487
-0.0194727890193462,0.7714729905128479,-0.0053815552964806,-0.9012540578842164,0.0143242450430989,-0.0134457945823669,0.0,0.0,0.9575188159942628,0.3724949359893799
-0.0194132812321186,0.7510358691215515,0.0061295130290091,-0.9083099961280824,0.014147924259305,-0.0035262946039438,0.0,0.0,0.9501149654388428,0.4896386861801147
-0.0192358009517192,0.7308188676834106,0.0174118243157863,-0.8985415101051331,0.0144776664674282,0.006594827864319,0.0,0.0,0.7472174167633057,0.7281657457351685
-0.0190431587398052,0.7103419303894043,0.0205292385071516,-0.9100695848464966,0.0132233025506138,-0.025087084621191,0.0,0.0,0.8823564052581787,0.3256624937057495
-0.0187953952699899,0.6897188425064087,0.0258469488471746,-0.9165773391723632,0.0121766263619065,-0.0209337547421455,0.0,0.0,0.6408827304840088,-0.0096654891967773
-0.0184851642698049,0.6690440773963928,0.0318288169801235,-0.918873369693756,0.0113768223673105,-0.0159959681332111,0.0,0.0,0.925062894821167,0.2386128902435302
-0.0183107368648052,0.6491057276725769,0.0189043395221233,-0.886134922504425,0.0099391462281346,-0.0287538114935159,0.0,0.0,0.9323205947875975,0.1901235580444336
-0.0182950980961322,0.629829466342926,0.0037722489796578,-0.8567129373550415,0.0077530746348202,-0.0437214598059654,0.0,0.0,0.6076207160949707,-0.0093437433242797
-0.0182994846254587,0.6105768084526062,0.0019078733166679,-0.8556594252586365,0.005442863330245,-0.0462041124701499,0.0,0.0,0.6762104034423828,-0.2835794687271118
-0.0181577689945697,0.5914760828018188,0.0158549305051565,-0.8489157557487488,0.0037788504268974,-0.0332802794873714,0.0,0.0,0.6579084396362305,-0.1451483368873596
-0.018073845654726,0.572765588760376,0.0103679550811648,-0.8315759301185608,0.0018225414678454,-0.0391260012984275,0.0,0.0,0.7801990509033203,0.0939821004867553
-0.0178712848573923,0.5540555119514465,0.0217146351933479,-0.8315575122833252,0.0003883830504491,-0.028683241456747,0.0,0.0,0.832038164138794,0.0435770750045776
-0.0176645275205373,0.5359538793563843,0.0221336260437965,-0.8045180439949036,-0.0010498019400984,-0.0287634078413248,0.0,0.0,0.6012377738952637,-0.3273053169250488
-0.017312716692686,0.5178423523902893,0.0359702371060848,-0.8049548864364624,-0.0018378070089966,-0.0157598983496427,0.0,0.0,0.781752347946167,-0.7093086838722229
-0.0171290393918752,0.4997720122337341,0.0180122032761573,-0.8031261563301086,-0.001483429223299,0.0070874420925974,0.0,0.0,0.8529937267303467,-0.1491001844406128
-0.0168401710689067,0.4823237657546997,0.0280381646007299,-0.7754743099212646,-0.0006536457221955,0.0165957175195217,0.0,0.0,0.7560737133026123,-0.3703510165214538
-0.0164068229496479,0.4652323722839355,0.0418201386928558,-0.7596193552017212,0.0008453635964542,0.0299799498170614,0.0,0.0,0.5716171264648438,-0.4689943194389343
-0.0159064289182424,0.4485974013805389,0.0481957867741584,-0.7393323183059692,0.0026669034268707,0.0364307388663291,0.0,0.0,0.561039924621582,0.0466324090957641
-0.0154841421172022,0.4323574304580688,0.0407209731638431,-0.7217778563499451,0.0041524753905832,0.0297116003930568,0.0,0.0,0.8264970779418945,-0.4706137776374817
-0.0150119783356785,0.4160135686397552,0.0454440042376518,-0.7264007329940796,0.0059001585468649,0.0349536016583442,0.0,0.0,0.8370163440704346,-0.4385913610458374
-0.014661693945527,0.4001201391220093,0.0337766706943511,-0.7063792943954468,0.0071357935667037,0.0247127078473567,0.0,0.0,0.9282444715499878,-0.3765757083892822
-0.0141780851408839,0.3844152688980102,0.0464273691177368,-0.6980051398277283,0.0090455263853073,0.0381947681307792,0.0,0.0,0.9196877479553224,-0.53329998254776
-0.0137212751433253,0.3690609633922577,0.0425724573433399,-0.6824368834495544,0.012111771851778,0.0613248161971569,0.0,0.0,0.8961077928543091,0.2326912879943847
-0.0132690425962209,0.3536785244941711,0.0420660004019737,-0.6836937665939331,0.0152341648936271,0.0624481663107872,0.0,0.0,0.914726734161377,-0.1371945142745971
-0.0129792215302586,0.3386017978191376,0.0264767259359359,-0.6701051592826843,0.0177113395184278,0.0495434179902076,0.0,0.0,0.9564943313598632,0.3326934576034546
-0.0126910209655761,0.324327290058136,0.0261671654880046,-0.6344538927078247,0.0203283559530973,0.0523404479026794,0.0,0.0,0.9305131435394288,0.0233787298202514
-0.0123236654326319,0.3098499476909637,0.0336104817688465,-0.6434842944145203,0.0234153233468532,0.0617394931614398,0.0,0.0,0.9665361642837524,0.4534602165222168
-0.0119582172483205,0.2961791753768921,0.0332374200224876,-0.607643723487854,0.0266813151538372,0.06531972438097,0.0,0.0,0.9794917106628418,0.5249395370483398
-0.0116963386535644,0.2826350927352905,0.0242634490132331,-0.6019932627677917,0.0285792592912912,0.0379589088261127,0.0,0.0,0.9868370294570924,0.747658371925354
-0.0115294456481933,0.269594132900238,0.0165279880166053,-0.5796015858650208,0.0287440177053213,0.0032950018066912,0.0,0.0,0.9431478977203368,0.4509530067443847
-0.0113591197878122,0.2569338977336883,0.0166494287550449,-0.5626878142356873,0.029118537902832,0.007490670774132,0.0,0.0,0.9810070991516112,0.3825435638427734
-0.0113849639892578,0.2450667172670364,-0.0022844008635729,-0.5274230241775513,0.028825094923377,-0.0058689820580184,0.0,0.0,0.9193955659866332,0.4355945587158203
-0.0113574024289846,0.2334907352924347,0.0025995587930083,-0.5144898295402527,0.0289772432297468,0.0030428762547671,0.0,0.0,0.9126813411712646,0.8639981746673584
-0.0113304136320948,0.2218696177005767,0.0043183574452996,-0.5164637565612793,0.027382094413042,-0.0319028198719024,0.0,0.0,0.7847268581390381,0.188236117362976
-0.0112529750913381,0.2100596725940704,0.008956748060882,-0.5248652100563049,0.0261857584118843,-0.0239269118756055,0.0,0.0,0.9168431758880616,-0.2342963814735412
-0.0112361907958984,0.1981204152107238,0.0029955334030091,-0.5306115746498108,0.0248829498887062,-0.0260562039911746,0.0,0.0,0.8729410171508789,0.4451678991317749
-0.0112652778625488,0.1868108659982681,-0.0016159939114004,-0.5026288628578186,0.023603493347764,-0.0255891047418117,0.0,0.0,0.8855228424072266,0.1726822853088379
-0.011239337734878,0.1761822253465652,0.0033876677043735,-0.4723722636699676,0.0228178836405277,-0.0157123114913702,0.0,0.0,0.8957498073577881,0.7161681652069092
-0.0113321300595998,0.1662459671497345,-0.0067822160199284,-0.4415744245052337,0.0203524213284254,-0.0493092574179172,0.0,0.0,0.7267463207244873,0.6975423097610474
-0.0115386005491018,0.156100645661354,-0.01649153791368,-0.4508521258831024,0.0162521563470363,-0.082005351781845,0.0,0.0,0.7539877891540527,-0.031786024570465
-0.0117308618500828,0.146496906876564,-0.0153638245537877,-0.426798403263092,0.0124333417043089,-0.076376087963581,0.0,0.0,0.6075453758239746,-0.1876604557037353
-999.0,0.1370129734277725,-0.0270726345479488,-0.4214791357517242,0.0082457959651947,-0.0837510749697685,0.0,0.0,0.5396687984466553,0.1700173616409301
-0.0124289514496922,0.1277576982975006,-0.0341016352176666,-0.4113274812698364,0.0039130705408751,-0.0866544246673584,0.0,0.0,0.5968408584594727,-0.7438732981681824
-0.0129037853330373,0.1188013404607772,-0.0446619987487793,-0.3980559408664703,0.0011303077917546,-0.055655114352703,0.0,0.0,0.4063121080398559,0.630145788192749
-0.0132636073976755,0.1098698675632476,-0.0321610160171985,-0.3969554901123047,-0.0026449933648109,-0.0755058974027633,0.0,0.0,0.6481547355651855,-0.1217713952064514
-0.013614940457046,0.1007323339581489,-0.0315168164670467,-0.4061258733272552,-0.0062086153775453,-0.0712724179029464,0.0,0.0,0.8701000213623047,-0.0963307619094848
-0.0138744357973337,0.091559037566185,-0.0229419879615306,-0.4077149033546448,-0.0091806687414646,-0.0594411864876747,0.0,0.0,0.8579981327056885,-0.2255951762199401
-0.0139788631349802,0.0826284289360046,-0.0083137964829802,-0.39693084359169,-0.0112780462950468,-0.0419478714466095,0.0,0.0,0.924645185470581,-0.3466091752052307
-0.0139320371672511,0.0736657679080963,0.0059356871061027,-0.3983502089977264,-0.0125116035342216,-0.0246710143983364,0.0,0.0,0.982032299041748,-0.4725474119186401
-0.0138971330597996,0.0653366148471832,0.0046572154387831,-0.3701948225498199,-0.0136607810854911,-0.0229838192462921,0.0,0.0,0.9653701782226562,-0.2417517900466919
-0.0138295171782374,0.0576417557895183,0.007628078572452,-0.3420049250125885,-0.0145207392051815,-0.0171994380652904,0.0,0.0,0.9473342895507812,-0.5342625379562378
-0.0136538501828908,0.0504071563482284,0.0167735069990158,-0.3215291798114776,-0.0137368813157081,0.0156772546470165,0.0,0.0,0.91705060005188,-0.6478419899940491
-0.0134153366088867,0.0430139862000942,0.0212941188365221,-0.3285658955574035,-0.0112145785242319,0.0504459626972675,0.0,0.0,0.967885971069336,-0.4692046642303467
-0.013249397277832,0.0358132235705852,0.0142093151807785,-0.3200171589851379,-0.0088541414588689,0.0472087189555168,0.0,0.0,0.9963653087615968,-0.6383441686630249
-0.0130319595336914,0.0294647552073001,0.0176314767450094,-0.2821337282657623,-0.0047991820611059,0.0810990557074546,0.0,0.0,0.9442827701568604,0.5436866283416748
-0.0128142358735203,0.0234023910015821,0.0187133159488439,-0.269430935382843,-0.0017776978202164,0.0604295842349529,0.0,0.0,0.9402139186859132,-0.5319955348968506
-0.0128086088225245,0.0180284604430198,-0.0032412626314908,-0.2388409227132797,0.0019793815445154,0.0751415193080902,0.0,0.0,0.9226630926132202,0.5653696060180664
-0.012668895535171,0.0131577113643288,0.0108539899811148,-0.2164835482835769,0.0050555798225104,0.0615241341292858,0.0,0.0,0.8779006004333496,0.7253978252410889
-0.0125589370727539,0.0088530154898762,0.0093563273549079,-0.1913264095783233,0.0066753714345395,0.0323957130312919,0.0,0.0,0.7659763097763062,0.4389021396636963
-0.0125596048310399,0.0050296522676944,-0.0014372335281223,-0.1699364334344864,0.0080275451764464,0.0270432736724615,0.0,0.0,0.5188612937927246,0.8517645597457886
-0.0125391008332371,0.0011721706250682,0.0022914106957614,-0.1714422553777694,0.0077933873981237,-0.0046831965446472,0.0,0.0,0.4970192909240722,0.5010590553283691
-0.0126134874299168,-0.002586712827906,-0.0060326466336846,-0.1670538336038589,0.0064117205329239,-0.0276336185634136,0.0,1.0,0.9580695629119872,0.7547445297241211
-0.0127783771604299,-0.0050221229903399,-0.0206596795469522,-0.1084926798939704,0.0097557781264185,0.0658982694149017,1.0,1.0,0.3626793622970581,0.9945874214172364
-0.0127802845090627,-0.0060047414153814,-0.0014514530776068,-0.0436883904039859,0.0109919570386409,0.0247246511280536,1.0,1.0,-0.3684120178222656,0.210248589515686
-0.0127817150205373,-0.0064572836272418,-0.0014535604277625,-0.0201287772506475,0.0122849689796566,0.0258610881865024,1.0,1.0,-0.9093369245529176,0.1797646284103393
-0.0127820018678903,-0.0064141536131501,-0.0013978399801999,0.0019061490893363,0.0136433830484747,0.0271685067564249,1.0,1.0,-0.7659444808959961,0.5184550285339355
-0.0127444267272949,-0.0060554170049726,0.0034618396311998,0.0159378908574581,0.0139372088015079,0.0058770179748535,1.0,1.0,-0.6749091744422913,0.0995290279388427
-0.012706184759736,-0.0053851152770221,0.0034603371750563,0.0297855213284492,0.0142905013635754,0.0070665651001036,1.0,1.0,-0.7805361151695251,0.4126904010772705
-0.0126703260466456,-0.0044325375929474,0.0034097947645932,0.0423342734575271,0.0144617175683379,0.0034241906832903,1.0,1.0,-0.757057249546051,0.5846002101898193
-0.0125844003632664,-0.0032604122534394,0.009143304079771,0.0520992167294025,0.0139091908931732,-0.0110490452498197,1.0,1.0,-0.8228598237037659,0.3044236898422241
-0.012581443414092,-0.0022747183684259,0.007749781012535,0.0438608266413211,0.0065581877715885,-0.1470167189836502,1.0,1.0,-0.768833339214325,-0.7028364539146423
-0.0126247406005859,-0.0014722370542585,0.00179515092168,0.0356789752840995,0.000516922737006,-0.1208230629563331,1.0,1.0,-0.7064023613929749,0.0587646961212158
-0.0126488683745265,-0.0008854770567268,0.0021158247254788,0.0260736420750617,-0.0039568650536239,-0.0894744992256164,1.0,1.0,-0.8398385643959045,-0.193752646446228
-0.0126257892698049,-0.0008808994316495,0.0023352489806711,0.0001995224156416,-0.0039746104739606,-0.0003454989928286,1.0,1.0,-0.5095718502998352,0.0210667848587036
-0.0126219745725393,-0.0008848333382047,0.0003901215968653,-0.0001764282642398,-0.0039795786142349,-9.586825035512447e-05,1.0,1.0,-0.8394144773483276,0.0966976881027221
-0.0126269338652491,-0.00088490487542,-0.000506222306285,-4.270789759175386e-06,-0.0039719361811876,0.0001492743031121,1.0,1.0,-0.7219280004501343,0.0990744829177856
-0.0126314163208007,-0.00088490487542,-0.0004559701192192,7.824966701264202e-07,-0.0039650574326515,0.0001339381124125,1.0,1.0,-0.7089603543281555,0.087160587310791
-0.0126327518373727,-0.00088490487542,-0.0001319102302659,-7.194770290652741e-08,-0.0039630751125514,3.874528920277953e-05,1.0,1.0,-0.75310879945755,-0.0220320224761962
-0.0126320840790867,-0.00088490487542,6.245829717954621e-05,4.57450681778937e-08,-0.0039640171453356,-1.834084105212241e-05,1.0,1.0,-0.8799563050270081,-0.2181703448295593
-0.0126312253996729,-0.00088490487542,8.349092240678146e-05,7.114855549161804e-08,-0.0039652986451983,-2.4511149604222737e-05,1.0,1.0,-0.78131103515625,0.0722048282623291
