x_pos,y_pos,x_vel,y_vel,angle,ang_vel,leg_1,leg_2,main_booster,lat_booster
-0.0016196251381188,1.403300404548645,-0.1640636622905731,-0.3386537134647369,0.0018719725776463,0.036934595555067,0.0,0.0,-0.7351465916836097,-0.9249064313370248
-0.0034028054215013,1.39537513256073,-0.1818886995315551,-0.3522400557994842,0.0054023587144911,0.0706153661012649,0.0,0.0,-0.65192631658188,0.8438813686891429
-0.0052020074799656,1.3871198892593384,-0.1814645379781723,-0.3669031262397766,0.0069258604198694,0.0304729044437408,0.0,0.0,0.9043126226726386,-0.8014011625683553
-0.0073151588439941,1.3793997764587402,-0.2141408026218414,-0.3431375920772552,0.009721009992063,0.0559082217514514,0.0,0.0,-0.1852047379325441,0.9776720628016882
-0.0094324108213186,1.3713597059249878,-0.2121990919113159,-0.3573364615440368,0.0101970480754971,0.0095214629545807,0.0,0.0,0.6862783792976941,-0.9434648840541268
-0.011569881811738,1.3638269901275637,-0.2163931131362915,-0.3348011970520019,0.0128148421645164,0.052360862493515,0.0,0.0,0.5358017476622046,-0.6734565351759534
-0.0138877872377634,1.3567742109298706,-0.2357593029737472,-0.3135024011135101,0.0167400781065225,0.0785116255283355,0.0,0.0,-0.7766016751347311,0.97763917847692
-0.0162074081599712,1.3494023084640503,-0.2335138022899627,-0.3276490271091461,0.0182745158672332,0.0306914206594228,0.0,0.0,-0.256052961626001,0.6747459809393698
-0.0185727123171091,1.3417154550552368,-0.2367856502532959,-0.3416436612606048,0.0185232199728488,0.0049745058640837,0.0,0.0,-0.0949876512930936,0.7940160051634411
-0.0209734924137592,1.3337111473083496,-0.2387548983097076,-0.3557298481464386,0.0172223579138517,-0.0260193534195423,0.0,0.0,0.2075080147465706,-0.7246966669124509
-0.023465346544981,1.326035499572754,-0.2494415342807769,-0.3411504328250885,0.0174719039350748,0.0049913073889911,0.0,0.0,-0.2128706462205059,0.6785017700391006
-0.0259953495115041,1.31803560256958,-0.2517525851726532,-0.355533629655838,0.0162364095449447,-0.0247121807187795,0.0,0.0,0.905336851997159,-0.7147669048801902
-0.0285303108394145,1.3109278678894043,-0.2541027665138244,-0.3159047961235046,0.0168400052934885,0.0120730567723512,0.0,0.0,0.2955428932136952,-0.729231278522122
-0.031164551153779,1.3039069175720217,-0.2656076550483703,-0.3120699822902679,0.018993966281414,0.0430832281708717,0.0,0.0,0.200178943405046,0.7444238804767874
-0.0337334647774696,1.2974727153778076,-0.2577225267887115,-0.2859735786914825,0.0198211316019296,0.0165451988577842,0.0,0.0,0.2719932828360518,-0.7926788743085317
-0.0363714210689067,1.2910493612289429,-0.2663577497005462,-0.285519927740097,0.0223455149680376,0.0504920668900013,0.0,0.0,0.0103314583756466,0.8332723941306013
-0.0389543548226356,1.2851016521453855,-0.2591962516307831,-0.2643541991710663,0.0232420321553945,0.0179317835718393,0.0,0.0,-0.2456132493239626,-0.8197930441842468
-0.0416845306754112,1.278821349143982,-0.2751953303813934,-0.2791682779788971,0.025391761213541,0.0429987274110317,0.0,0.0,-0.0147325165424558,-0.719491212045702
-0.0445606224238872,1.272221922874451,-0.2909961640834808,-0.2933679223060608,0.0287456214427948,0.0670834332704544,0.0,0.0,-0.1469350131358062,-0.6315511678183022
-0.0475913062691688,1.2652958631515503,-0.3078996241092682,-0.3079220652580261,0.0335270427167415,0.0956367328763008,0.0,0.0,0.4733911127693131,-0.9940850370743411
-0.0506908409297466,1.259061336517334,-0.3168992400169372,-0.2772587537765503,0.0403986610472202,0.1374447345733642,0.0,0.0,0.8291674689762689,-0.6694486710585024
-0.0539469718933105,1.2532312870025637,-0.3339438140392303,-0.2593524754047394,0.0486371666193008,0.1647848933935165,0.0,0.0,-0.323764892213046,0.8905706061294534
-0.0572156906127929,1.2470831871032717,-0.3330172598361969,-0.2734708487987518,0.0547236390411853,0.1217405423521995,0.0,0.0,0.8588604721422,0.8504033215954367
-0.0604475960135459,1.241140365600586,-0.3278072774410248,-0.2642980217933655,0.0592894330620765,0.0913239791989326,0.0,0.0,-0.8170459648411563,0.9956987185924446
-0.0637174621224403,1.2348817586898804,-0.3300524353981018,-0.2782871425151825,0.0623387061059474,0.0609906911849975,0.0,0.0,0.4486462815708403,-0.8366893149403494
-0.0673321709036827,1.2291868925094604,-0.3660407662391662,-0.2533015608787536,0.0668619647622108,0.0904649943113327,0.0,0.0,-0.3088620608988817,0.9669739388730466
-0.0709676742553711,1.223181962966919,-0.3661631941795349,-0.2670064270496368,0.0694421753287315,0.0516040213406086,0.0,0.0,-0.6882558428223549,0.8986591426260844
-0.074645422399044,1.2168680429458618,-0.3689582347869873,-0.2806712090969085,0.0706128925085067,0.0234143231064081,0.0,0.0,-0.0918284690282533,-0.6802874038355345
-0.078485868871212,1.2102289199829102,-0.3868893980979919,-0.2952100932598114,0.0734223201870918,0.0561886802315712,0.0,0.0,-0.1501492989267445,0.9937440018556758
-0.0823474898934364,1.2032703161239624,-0.3870618641376495,-0.3093121647834778,0.0743132010102272,0.0178176201879978,0.0,0.0,-0.330465359433256,0.6713405582382349
-0.0862516388297081,1.196001410484314,-0.3899134397506714,-0.3230375945568084,0.0738122463226318,-0.0100191570818424,0.0,0.0,0.6520980887527525,-0.7985291745448853
-0.0904332175850868,1.1890428066253662,-0.4190921187400818,-0.3093146085739136,0.0747353285551071,0.0184615813195705,0.0,0.0,-0.1742350383554107,-0.821076997129985
-0.0947852134704589,1.1817598342895508,-0.4379983842372894,-0.3238356411457062,0.0775011628866195,0.0553168766200542,0.0,0.0,0.1470313216676944,0.8787388129338249
-0.0992344841361045,1.1745213270187378,-0.4459190964698791,-0.3217625916004181,0.0784836634993553,0.0196499843150377,0.0,0.0,0.3884604127242059,0.6581922895812277
-0.1037540435791015,1.1677563190460205,-0.4516343474388122,-0.3006507754325866,0.0781652927398681,-0.0063673965632915,0.0,0.0,-0.7626176120379999,0.7032249237731745
-0.1083123236894607,1.1606791019439695,-0.4540255963802337,-0.3144439160823822,0.0763838365674018,-0.035629067569971,0.0,0.0,0.7929111116470262,0.9813726498637854
-0.11295747756958,1.1540173292160034,-0.4606834053993225,-0.2958878874778747,0.072582796216011,-0.0760207176208496,0.0,0.0,0.9208470387405632,0.7051658385140898
-0.1176587119698524,1.1483725309371948,-0.4649546146392822,-0.2506406009197235,0.0674710050225257,-0.1022360324859619,0.0,0.0,-0.4889955942201101,0.8812898287524948
-0.1223897933959961,1.142420530319214,-0.4662580490112304,-0.2642421424388885,0.0606947243213653,-0.1355257332324981,0.0,0.0,-0.5410642044667358,-0.8093650607456091
-0.1272759437561035,1.1361403465270996,-0.4832819998264313,-0.2789112627506256,0.0554304644465446,-0.1052851229906082,0.0,0.0,-0.8710504352813624,0.766090428442475
-0.1322059631347656,1.129547357559204,-0.4863811135292053,-0.2927970886230469,0.0488864928483963,-0.1308795511722564,0.0,0.0,-0.499983549118042,0.9596662521362304
-0.1371374130249023,1.1226354837417605,-0.4841745793819427,-0.3069241344928741,0.0400170311331748,-0.1773893535137176,0.0,0.0,-0.9102946519851683,0.7229334115982056
-0.1420947015285492,1.1153969764709473,-0.4850321412086487,-0.3214645385742187,0.02945277094841,-0.2112852334976196,0.0,0.0,-0.794897198677063,0.941929578781128
-0.1470568627119064,1.107838153839111,-0.4832804799079895,-0.3357468247413635,0.0166798550635576,-0.2554582059383392,0.0,0.0,-0.9369353652000428,0.7763454914093018
-0.1520526856184005,1.099949836730957,-0.4851532578468323,-0.3504908978939056,0.0024407131131738,-0.2847827076911926,0.0,0.0,-0.9206013083457948,0.9832522869110109
-0.1570549011230468,1.0917308330535889,-0.4836350977420807,-0.3653376698493957,-0.0139303868636488,-0.3274223804473877,0.0,0.0,-0.9019865393638612,0.9851908683776855
-0.1620605438947677,1.083184838294983,-0.4817730784416199,-0.3801010549068451,-0.0324875935912132,-0.3711445927619934,0.0,0.0,-0.9450841546058656,0.9662007093429564
-0.1670921295881271,1.0743272304534912,-0.4827631115913391,-0.3942392766475677,-0.0526354126632213,-0.402956485748291,0.0,0.0,-0.920145869255066,0.9369925260543824
-0.1721528023481369,1.0651551485061646,-0.4841997027397156,-0.4085620045661926,-0.0742645189166069,-0.4325823187828064,0.0,0.0,-0.9470166563987732,0.6712645292282104
-0.177248477935791,1.0556578636169434,-0.486394464969635,-0.4234065115451813,-0.0972133427858352,-0.4589765965938568,0.0,0.0,-0.9128774404525756,0.9599766731262208
-0.1823348999023437,1.0458306074142456,-0.4831261038780212,-0.4386272132396698,-0.1225615665316581,-0.5069648623466492,0.0,0.0,-0.8724387288093567,0.8203294277191162
-0.1874456405639648,1.0356829166412354,-0.4841165542602539,-0.4534413516521454,-0.1494185030460357,-0.5371390581130981,0.0,0.0,-0.8850271105766296,0.7527141571044922
-0.1925685852766037,1.025201678276062,-0.4836287498474121,-0.4689637124538421,-0.1780868023633957,-0.5733665227890015,0.0,0.0,-0.9011489748954772,0.2332442998886108
-0.1977707892656326,1.0144071578979492,-0.4916794896125793,-0.4834334552288055,-0.2067855596542358,-0.573975145816803,0.0,0.0,-0.8258923292160034,-0.2099690437316894
-0.2030504643917083,1.0032994747161863,-0.4995609819889068,-0.4979030787944793,-0.235515221953392,-0.5745938420295715,0.0,0.0,-0.5591033697128296,0.6152153015136719
-0.2083662003278732,0.9918619990348816,-0.5023011565208435,-0.5132908225059509,-0.265322744846344,-0.596150279045105,0.0,0.0,-0.3313286900520324,-0.9132055044174194
-0.2138120234012603,0.9801432490348816,-0.5170427560806274,-0.5260664820671082,-0.293594092130661,-0.5654268264770508,0.0,0.0,-0.3529642820358276,-0.877769410610199
-0.2193789929151535,0.9681371450424194,-0.5306903123855591,-0.5390844345092773,-0.3205191493034363,-0.5385013222694397,0.0,0.0,0.0656118392944336,-0.8279553651809692
-0.2248538434505462,0.9565839171409608,-0.5233045220375061,-0.5190364718437195,-0.3457653820514679,-0.5049244165420532,0.0,0.0,0.4348375797271728,-0.8630771040916443
-0.2302959412336349,0.9457567930221558,-0.5218156576156616,-0.48676398396492,-0.3693507611751556,-0.4717074334621429,0.0,0.0,0.5027599334716797,-0.7944626808166504
-0.2356915920972824,0.935082733631134,-0.5189349055290222,-0.479884922504425,-0.3912682831287384,-0.4383505880832672,0.0,0.0,0.7230584621429443,-0.691206693649292
-0.2410232573747635,0.9252040386199952,-0.5137906074523926,-0.4445224702358246,-0.4120348989963531,-0.4153326153755188,0.0,0.0,0.8225448131561279,-0.2484300136566162
-0.2460592687129974,0.9157088994979858,-0.4849535822868347,-0.4275746941566467,-0.4322066903114319,-0.4034357964992523,0.0,0.0,0.4036493301391601,-0.1016177535057067
-0.2509133815765381,0.9065916538238524,-0.466987669467926,-0.4110170602798462,-0.4523214697837829,-0.4022954106330871,0.0,0.0,0.5804837942123413,-0.297825813293457
-0.2556440234184265,0.8976677060127258,-0.4548183977603912,-0.4026649594306946,-0.4724373519420624,-0.4023174345493316,0.0,0.0,0.1522263288497924,-0.1999905109405517
-0.2603110373020172,0.8890342712402344,-0.4482527375221252,-0.3901328146457672,-0.4929883182048797,-0.4110194742679596,0.0,0.0,0.2233905792236328,-0.4750360250473022
-0.2647072374820709,0.8809082508087158,-0.4214038848876953,-0.3678287267684936,-0.5135015249252319,-0.4102643132209778,0.0,0.0,0.7935886383056641,-0.4554598331451416
-0.268908828496933,0.8728121519088745,-0.4024829864501953,-0.3666085004806518,-0.5336382389068604,-0.4027344584465027,0.0,0.0,0.87613844871521,-0.7761806845664978
-0.2726723551750183,0.8656768798828125,-0.360346257686615,-0.3235465884208679,-0.5520792603492737,-0.3688202500343323,0.0,0.0,0.7194488048553467,-0.8554113507270813
-0.2763585448265075,0.8589851260185242,-0.3541732430458069,-0.3034483194351196,-0.5689046382904053,-0.3365076780319214,0.0,0.0,0.9293493032455444,-0.6610804200172424
-0.2797843813896179,0.8531084060668945,-0.3292261064052582,-0.2669633328914642,-0.5846250653266907,-0.3144087791442871,0.0,0.0,0.98591947555542,-0.7780284881591797
-0.2828357219696045,0.8478643298149109,-0.2933593094348907,-0.2383347600698471,-0.5986200571060181,-0.2798994183540344,0.0,0.0,0.9722020626068116,-0.455030083656311
-0.2854631841182709,0.8436779379844666,-0.2504669725894928,-0.1917236149311065,-0.6133599281311035,-0.2947970628738403,0.0,0.0,0.878998875617981,-0.976262867450714
-0.2877110838890075,0.8399605751037598,-0.2144537419080734,-0.1701223403215408,-0.6258921027183533,-0.2506430149078369,0.0,0.0,0.5913248062133789,-0.9486133456230164
-0.2898384928703308,0.836469829082489,-0.2041027992963791,-0.1593489348888397,-0.6364458799362183,-0.2110755890607834,0.0,0.0,0.7632209062576294,-0.985770344734192
-0.2917632162570953,0.8330622315406799,-0.1856800019741058,-0.1548257321119308,-0.6448108553886414,-0.1673000007867813,0.0,0.0,0.8332157135009766,-0.9118911623954772
-0.2935512959957123,0.8298743367195129,-0.1735683232545852,-0.1443234831094741,-0.6512916684150696,-0.1296161115169525,0.0,0.0,0.7533817291259766,-0.8990017175674438
-0.2948825359344482,0.827445924282074,-0.1294671595096588,,-0.6558376550674438,-0.0909200459718704,0.0,0.0,0.4232423305511474,-0.8324600458145142
-0.2957603931427002,0.8255237340927124,-0.0856480598449707,-0.0865328088402748,-0.6584987044334412,-0.0532226078212261,0.0,0.0,-0.3351529836654663,-0.7504773736000061
-0.296673834323883,0.8233467936515808,-0.0907669886946678,-0.097054548561573,-0.6592236757278442,-0.0144998077303171,0.0,0.0,-0.0805566310882568,-0.7913082242012024
-0.2976292669773102,0.8209080100059509,-0.0966168195009231,-0.1078370809555053,-0.6578822135925293,0.0268294773995876,0.0,0.0,-0.5080631375312805,-0.6162065863609314
-0.2985927164554596,0.8181905150413513,-0.0984256714582443,-0.1197127625346183,-0.6552928686141968,0.0517860278487205,0.0,0.0,0.1250642538070678,-0.6147201061248779
-0.2993868887424469,0.815729022026062,-0.0824947357177734,-0.1078261584043502,-0.6514699459075928,0.0764585211873054,0.0,0.0,0.0548683404922485,-0.8344443440437317
-0.2999675273895263,0.8135587573051453,-0.0626176297664642,-0.0941508486866951,-0.6458290815353394,0.1128177866339683,0.0,0.0,-0.4153392314910888,-0.3436048030853271
-0.3005104959011078,0.8110649585723877,-0.0588630437850952,-0.1085547879338264,-0.6401979327201843,0.1126226633787155,0.0,0.0,-0.4730295538902282,-0.5742437243461609
-0.3010424077510834,0.8082817792892456,-0.0586378760635852,-0.121008351445198,-0.6335045099258423,0.1338680684566497,0.0,0.0,-0.0954196453094482,-0.7205156087875366
-0.3015750050544739,0.8052173256874084,-0.0599607303738594,-0.1329491734504699,-0.6253227591514587,0.1636342853307724,0.0,0.0,-0.3318325281143188,-0.8703433871269226
-0.30210742354393,0.8018746376037598,-0.0612931326031684,-0.1447259038686752,-0.6155552268028259,0.1953501999378204,0.0,0.0,-0.5950692296028137,-0.648024320602417
-0.3026185035705566,0.7982417345046997,-0.0600934922695159,-0.1572640538215637,-0.6047250032424927,0.2166047990322113,0.0,0.0,-0.3188915252685547,0.287697434425354
-0.3030738830566406,0.7942860722541809,-0.0545977428555488,-0.1716731190681457,-0.5938878655433655,0.2167423218488693,0.0,0.0,0.37697434425354,-0.5047626495361328
-0.3031554222106933,0.7908262610435486,-0.0182068459689617,-0.1492926627397537,-0.5819588899612427,0.2385797798633575,0.0,0.0,-0.336139440536499,-0.7045791149139404
-0.3032167851924896,0.7870913147926331,-0.0175040159374475,-0.1610676199197769,-0.5685715079307556,0.2677475810050964,0.0,0.0,-0.659641683101654,-0.0099050402641296
-0.3032137751579284,0.7830343842506409,-0.0111854802817106,-0.1754807382822036,-0.5551662445068359,0.2681051790714264,0.0,0.0,-0.5413974523544312,-0.35439133644104
-0.3031439781188965,0.7786551713943481,-0.0046260948292911,-0.1898938566446304,-0.5417393445968628,0.2685384452342987,0.0,0.0,-0.1146214008331298,-0.6468093395233154
-0.3030527234077453,0.7739949822425842,-0.0038992315530776,-0.2019729316234588,-0.5267930626869202,0.2989251017570495,0.0,0.0,-0.1090437769889831,-0.0631119012832641
-0.3028901517391205,0.7690131068229675,0.0030907422769814,-0.2163891494274139,-0.5118175745010376,0.2995097935199737,0.0,0.0,-0.1990470886230468,-0.4430334568023681
-0.302654355764389,0.7637096047401428,0.0102747725322842,-0.2308054268360138,-0.4968090355396271,0.300170749425888,0.0,0.0,0.1946579217910766,-0.2418172359466552
-0.3021484315395355,0.7589072585105896,0.0375176519155502,-0.2087845802307129,-0.4821798801422119,0.2925834059715271,0.0,0.0,-0.2631179094314575,-0.293956995010376
-0.3015658259391784,0.7537832856178284,0.045049138367176,-0.2232001572847366,-0.4675100147724151,0.2933967113494873,0.0,0.0,-0.1909882426261901,-0.3611500263214111
-0.3009049892425537,0.74833744764328,0.0527348741888999,-0.2376158386468887,-0.4527957439422607,0.2942851781845093,0.0,0.0,-0.3718979358673095,-0.1124954223632812
-0.3001644015312195,0.7425699234008789,0.0605631880462169,-0.2520316839218139,-0.4380333721637726,0.2952477037906647,0.0,0.0,-0.0478084087371826,-0.1971482038497924
-0.2993428707122803,0.7364806532859802,0.0685231760144233,-0.2664476633071899,-0.4232192039489746,0.2962831258773803,0.0,0.0,-0.6161786317825317,0.0625597238540649
-0.2984391152858734,0.7300698161125183,0.0766046568751335,-0.2808637917041778,-0.4083496928215027,0.297389954328537,0.0,0.0,-0.3099111318588257,0.0021843910217285
-0.297451913356781,0.7233372926712036,0.0847981721162796,-0.2952801287174225,-0.3934213817119598,0.2985666692256927,0.0,0.0,-0.0782874226570129,0.2886377573013305
-0.2963803708553314,0.7162832617759705,0.0930948853492736,-0.3096966743469238,-0.3784308135509491,0.2998113632202148,0.0,0.0,-0.393924355506897,0.1978936195373535
-0.2952234148979187,0.7089075446128845,0.1014866232872009,-0.3241134285926819,-0.3633747100830078,0.3011221289634704,0.0,0.0,-0.6150566935539246,0.2359921932220459
-0.2939801812171936,0.7012104392051697,0.1099658012390136,-0.338530421257019,-0.3482498824596405,0.3024969696998596,0.0,0.0,-0.2718911170959472,0.0226826667785644
-0.2926498055458069,0.6931918263435364,0.1185253858566284,-0.3529476225376129,-0.3330532014369964,0.3039336502552032,0.0,0.0,-0.8042606711387634,-0.1377501487731933
-0.291231632232666,0.6848516464233398,0.1271588206291198,-0.3673651814460754,-0.3177816867828369,0.305429995059967,0.0,0.0,-0.1347577571868896,0.3753845691680908
-0.2897249758243561,0.6761903166770935,0.1358600556850433,-0.3817830085754394,-0.3024325370788574,0.3069837391376495,0.0,0.0,-0.490376353263855,0.5063161849975586
-0.2880905568599701,0.6671945452690125,0.1494686305522918,-0.3969728052616119,-0.2880159020423889,0.2883328795433044,0.0,0.0,-0.2204948663711547,0.1461127996444702
-0.2863665521144867,0.6578772068023682,0.1582901924848556,-0.4113888442516327,-0.2735161185264587,0.2899956703186035,0.0,0.0,-0.6956066489219666,0.2940914630889892
-0.2845524251461029,0.6482381224632263,0.1671638190746307,-0.4258051514625549,-0.2589306235313415,0.2917092442512512,0.0,0.0,-0.6667555570602417,0.2090537548065185
-0.2826476097106933,0.6382774710655212,0.1760850250720977,-0.4402217864990234,-0.2442570626735687,0.2934713065624237,0.0,0.0,-0.8915320038795471,0.1481921672821045
-0.2806516587734222,0.6279954314231873,0.1850496530532837,-0.4546387791633606,-0.2294930815696716,0.2952795922756195,0.0,0.0,-0.8302206993103027,0.2929527759552002
-0.2785643637180328,0.6173917651176453,0.1940537989139557,-0.4690561294555664,-0.2146365046501159,0.2971318364143371,0.0,0.0,-0.7261132001876831,0.1124235391616821
-0.2763851583003998,0.6064667105674744,0.2030938416719436,-0.4834738075733185,-0.1996852308511734,0.2990258634090423,0.0,0.0,-0.5900522470474243,0.3775532245635986
-0.2741138339042663,0.5952203273773193,0.212166354060173,-0.4978918731212616,-0.1846372634172439,0.3009595572948456,0.0,0.0,-0.7658211588859558,0.5203760862350464
-0.2717029452323913,0.5836414694786072,0.2271995097398758,-0.5129440426826477,-0.1707022786140442,0.2786997854709625,0.0,0.0,-0.8612893223762512,0.5554900169372559
-0.269153743982315,0.5717343688011169,0.2420518398284912,-0.5277771353721619,-0.1578230857849121,0.2575838267803192,0.0,0.0,-0.6364694237709045,0.3466311693191528
