x_pos,y_pos,x_vel,y_vel,angle,ang_vel,leg_1,leg_2,main_booster,lat_booster
-0.0016325950855389,1.4034204483032229,-0.1654410064220428,,0.0019548367708921,0.0385752655565738,0.0,0.0,-0.4168658256530761,0.6997919082641602
-0.0033149719238281,1.3957364559173584,-0.1687558591365814,-0.3415081202983856,0.0024638439062982,0.0101818796247243,0.0,0.0,-0.4760552048683166,0.8083497285842896
-0.0050289155915379,1.387842297554016,-0.1700335592031479,-0.3508484661579132,0.0011226388160139,-0.0268264561891555,0.0,0.0,0.08706796169281,0.465266466140747
-0.0069303512573242,1.3802369832992554,-0.1885075122117996,-0.3380123674869537,-0.0004958305507898,-0.032372448593378,0.0,0.0,-0.4587808847427368,0.5210115909576416
-0.0088904378935694,1.372429132461548,-0.1932127177715301,-0.3470178842544555,-0.0032710274681448,-0.0555092319846153,0.0,0.0,-0.0135316252708435,0.6016623973846436
-0.0109006883576512,1.3644163608551023,-0.1968299150466919,-0.3561424314975738,-0.0074164154939353,-0.0829151794314384,0.0,0.0,-0.0927586555480957,0.6955037117004395
-0.0129659650847315,1.356199026107788,-0.2010815441608429,-0.3652478456497192,-0.0127994297072291,-0.1076702252030372,0.0,0.0,-0.3074327111244201,0.5652858018875122
-0.0150830270722508,1.3477786779403689,-0.2049320489168167,-0.3743077516555786,-0.0194946974515914,-0.1339176595211029,0.0,0.0,-0.2392922043800354,0.1367915868759155
-0.0173068046569824,1.339154839515686,-0.2156967371702194,-0.3833826184272766,-0.0261092260479927,-0.1323026418685913,0.0,0.0,-0.6684064865112305,0.8762445449829102
-0.0195679664611816,1.3303303718566897,-0.2177569419145584,-0.3923651278018951,-0.0343806408345699,-0.1654434502124786,0.0,0.0,-0.5220462679862976,0.2723805904388428
-0.0219349861145019,1.3213027715682983,-0.2284096777439117,-0.4014420807361603,-0.0425777025520801,-0.1639563143253326,0.0,0.0,-0.6109566688537598,0.6234952211380005
-0.0243522636592388,1.3120671510696411,-0.2321242392063141,-0.4107714593410492,-0.0520865209400653,-0.1901937425136566,0.0,0.0,-0.840966522693634,0.5895107984542847
-0.0268175117671489,1.3026273250579834,-0.2355541288852691,-0.4199625551700592,-0.0629494190216064,-0.2172780036926269,0.0,0.0,-0.4350248575210571,0.7477966547012329
-0.0293210987001657,1.2929720878601074,-0.2377975881099701,-0.4296988546848297,-0.0754041522741317,-0.2491174042224884,0.0,0.0,-0.6550204753875732,0.2121456861495971
-0.0319276824593544,1.2831145524978638,-0.2481565475463867,-0.4387833476066589,-0.0877975896000862,-0.2478910386562347,0.0,0.0,-0.602321445941925,0.3414094448089599
-0.0346361175179481,1.2730549573898315,-0.2584279179573059,-0.4478682279586792,-0.1001336351037025,-0.2467432767152786,0.0,0.0,-0.5405088663101196,0.934544801712036
-0.0373547561466693,1.2627909183502195,-0.2572174668312073,-0.457229733467102,-0.1146957352757453,-0.291268527507782,0.0,0.0,-0.6973544359207153,-0.7227162718772888
-0.0402171127498149,1.2523263692855835,-0.2727604508399963,-0.4661744832992553,-0.1281081289052963,-0.2682721316814422,0.0,0.0,-0.210226833820343,0.0923922061920166
-0.0431781783699989,1.241660237312317,-0.2827145159244537,-0.4752627313137054,-0.1414727121591568,-0.2673159539699554,0.0,0.0,-0.6190481781959534,0.6476726531982422
-0.0461930260062217,1.2307826280593872,-0.2870403826236725,-0.4848881363868713,-0.1559113562107086,-0.2887988984584808,0.0,0.0,-0.5889013409614563,-0.1046259403228759
-0.0493040084838867,0.0,-0.2967290878295898,-0.4939799904823303,-0.17030631005764,-0.2879247963428497,0.0,0.0,-0.6835716366767883,-0.3419635891914367
-0.0525097846984863,1.2084226608276367,-0.3062694668769836,-0.5030723214149475,-0.1846610009670257,-0.2871197760105133,0.0,0.0,-0.6196326613426208,-0.941061794757843
-0.0558659546077251,1.1969547271728516,-0.3228646516799927,-0.5113254189491272,-0.1974985599517822,-0.2567743957042694,0.0,0.0,0.045112133026123,-0.5476303100585938
-0.0592697151005268,1.1855671405792236,-0.3288562893867492,-0.5076943039894104,-0.2091288715600967,-0.2326271533966064,0.0,0.0,-0.8440831899642944,-0.6032274961471558
-0.0628204345703125,0.0,-0.3450914919376373,-0.5156862139701843,-0.2192270457744598,-0.2019813358783722,0.0,0.0,-0.5030256509780884,0.6780848503112793
-0.0664218887686729,1.1621928215026855,-0.3491788506507873,-0.5262841582298279,-0.2303288578987121,-0.2220363914966583,0.0,0.0,-0.0201910138130188,0.1183105707168579
-0.0701088905334472,1.1501864194869995,-0.3577930927276611,-0.5353638529777527,-0.2414058595895767,-0.2215398252010345,0.0,0.0,-0.6746968030929565,0.1246979236602783
-0.0738791450858116,1.1379773616790771,-0.3661634027957916,-0.5444433689117432,-0.2524610161781311,-0.2211029529571533,0.0,0.0,-0.5966190099716187,0.1908044815063476
-0.0777298957109451,1.1255656480789185,-0.3742705583572387,-0.5535229444503784,-0.2634972035884857,-0.2207238674163818,0.0,0.0,0.6007096767425537,-0.4789525270462036
-0.0815550833940506,1.1136436462402344,-0.3716616034507751,-0.5318594574928284,-0.2746114134788513,-0.222284123301506,0.0,0.0,-0.5280904769897461,-0.3027029037475586
-0.0854549407958984,1.101518988609314,-0.3791816830635071,-0.5409390330314636,-0.28571218252182,-0.2220158874988556,0.0,0.0,-0.5579570531845093,-0.4491530656814575
-0.0894263237714767,1.0891919136047363,-0.386376291513443,-0.5500186681747437,-0.2968021929264068,-0.2218000441789627,0.0,0.0,-0.7153927087783813,0.0123229026794433
-0.0934657081961631,1.0766621828079224,-0.3932235240936279,-0.5590983629226685,-0.3078839778900146,-0.2216351777315139,0.0,0.0,-0.8393362760543823,-0.5462921857833862
-0.0976158156991005,1.0639467239379885,-0.4055207669734955,-0.5671758651733398,-0.3177346289157867,-0.1970132887363433,0.0,0.0,-0.7380087375640869,-0.0775782465934753
-0.101826474070549,1.0510284900665283,-0.4116056859493255,-0.5762535929679871,-0.3275818824768066,-0.1969448626041412,0.0,0.0,-0.8748306035995483,-0.5574364066123962
-0.1061330810189247,1.0379316806793213,-0.4222735464572906,-0.5840031504631042,-0.3363188803195953,-0.1747398674488067,0.0,0.0,-0.8446729779243469,0.3525519371032715
-0.1104916557669639,1.0246317386627195,-0.4275082945823669,-0.5930792093276978,-0.3450567722320556,-0.174758106470108,0.0,0.0,-0.4880489110946655,-0.4314773082733154
-0.1148978248238563,1.0111286640167236,-0.4322869777679443,-0.6021553874015808,-0.3537975549697876,-0.1748161911964416,0.0,0.0,-0.6890285015106201,0.2163422107696533
-0.1193468123674392,0.997422695159912,-0.4365898966789245,-0.6112315058708191,-0.3625431060791015,-0.1749115139245987,0.0,0.0,-0.0084176063537597,0.0981261730194091
-0.1238336563110351,0.9835134148597716,-0.4403990805149078,-0.6203076839447021,-0.3712951838970184,-0.175041377544403,0.0,0.0,-0.2345855832099914,0.0761638879776001
-0.1283533126115799,0.9694011211395264,-0.4436981081962585,-0.62938392162323,-0.38005530834198,-0.1752026379108429,0.0,0.0,-0.6992489695549011,0.752530574798584
-0.1328346282243728,0.955044686794281,-0.4381454885005951,-0.6407594084739685,-0.3906958401203155,-0.2128112018108368,0.0,0.0,0.2260444164276123,0.6281375885009766
-0.1371316015720367,0.94072824716568,-0.4186386466026306,-0.6393635869026184,-0.4025287330150604,-0.2366573810577392,0.0,0.0,0.4066253900527954,0.3308043479919433
-0.1411909162998199,0.9267810583114624,-0.39528888463974,-0.6229429841041565,-0.4139823019504547,-0.2290707528591156,0.0,0.0,0.518256664276123,-0.2783029079437256
-0.1451866179704666,0.9130255579948424,-0.3888048827648163,-0.6145512461662292,-0.4256210625171661,-0.2327754199504852,0.0,0.0,0.2665324211120605,0.4040385484695434
-0.1490499526262283,0.899395763874054,-0.3757586777210235,-0.6090024709701538,-0.4371099174022674,-0.2297771871089935,0.0,0.0,0.8735201358795166,0.2590543031692505
-0.1526359617710113,0.8862082958221436,-0.348362922668457,-0.5893360376358032,-0.4482921063899994,-0.2236432284116745,0.0,0.0,0.7967956066131592,-0.218802809715271
-0.1559333801269531,0.8741236329078674,-0.3190356492996216,-0.5405714511871338,-0.4600529968738556,-0.2352174073457718,0.0,0.0,0.4444818496704101,-0.7984609007835388
-0.1590838432312011,0.8628968596458435,-0.3057487905025482,-0.5020694136619568,-0.4703146517276764,-0.2052333801984787,0.0,0.0,0.5631158351898193,-0.3613786697387695
-0.1620175391435623,0.8521243929862976,-0.2840295433998108,-0.4819730818271637,-0.480681300163269,-0.2073326855897903,0.0,0.0,0.4340840578079223,-0.6273581385612488
-0.1646231710910797,0.8417478799819946,-0.2526636719703674,-0.4639515280723572,-0.4894795417785644,-0.1759648621082306,0.0,0.0,0.7405126094818115,-0.9376598000526428
-0.1669591963291168,0.8323003649711609,-0.2274360954761505,-0.4221037328243255,-0.4963968396186828,-0.1383461058139801,0.0,0.0,0.8702960014343262,-0.9763837456703186
-0.1689717322587967,0.8232643604278564,-0.1970906406641006,-0.403110921382904,-0.5010741353034973,-0.0935450419783592,0.0,0.0,0.9331748485565186,-0.8416071534156799
-0.1705508232116699,0.8153034448623657,-0.1553442329168319,-0.3547529578208923,-0.5039626955986023,-0.0577714070677757,0.0,0.0,0.9726183414459229,-0.8346309065818787
-0.1716957986354828,0.8078072667121887,-0.1138366237282753,-0.3334102034568786,-0.5047115683555603,-0.0149775147438049,0.0,0.0,0.8738105297088623,-0.6614628434181213
-0.1726850569248199,0.8009280562400818,-0.099237821996212,-0.3056229948997497,-0.5043498873710632,0.0072337002493441,0.0,0.0,0.8217747211456299,-0.6876581907272339
-0.1731463372707367,0.7949621081352234,-0.0479767508804798,-0.2644782662391662,-0.5022729635238647,0.0415382124483585,0.0,0.0,0.0947551727294921,-0.7971704602241516
-0.1732994019985199,0.7893511056900024,-0.0186795052140951,-0.2481448799371719,-0.498467355966568,0.0761120021343231,0.0,0.0,-0.5683934092521667,-0.9084702730178832
-0.1734458953142166,0.7835890054702759,-0.0195556413382291,-0.2543277144432068,-0.4929622113704681,0.1101027503609657,0.0,0.0,-0.2933307886123657,-0.9543589949607848
-0.1736019104719162,0.7776901125907898,-0.0225726719945669,-0.259700208902359,-0.4851692020893097,0.1558603197336197,0.0,0.0,-0.3555709719657898,-0.947667360305786
-0.1737553626298904,0.7716280817985535,-0.0239754356443882,-0.2664174139499664,-0.4755502939224243,0.1923777908086776,0.0,0.0,-0.297498345375061,-0.9453338980674744
-0.1739151030778885,0.7654268145561218,-0.02677658572793,-0.2719527184963226,-0.4635910391807556,0.239185094833374,0.0,0.0,-0.2238335609436035,-0.9519263505935668
-0.1740566194057464,0.7590607404708862,-0.026481494307518,-0.2788855731487274,-0.450028121471405,0.2712586224079132,0.0,0.0,-0.6020962595939636,-0.7105050683021545
-0.1741711646318435,0.7525288462638855,-0.0251879803836345,-0.285957932472229,-0.4350109398365021,0.3003439009189605,0.0,0.0,-0.5366353988647461,-0.6356852650642395
-0.1742539405822754,0.7458224892616272,-0.0233412161469459,-0.2934814691543579,-0.4186621606349945,0.3269750773906708,0.0,0.0,-0.4884498119354248,-0.3201039433479309
-0.1742565184831619,0.7389152646064758,-0.0154643487185239,-0.302570641040802,-0.402276873588562,0.3277051746845245,0.0,0.0,-0.66825270652771,0.1595423221588134
-0.1741766035556793,0.7318069338798523,-0.0073602660559117,-0.3116599023342132,-0.3858501613140106,0.3285340964794159,0.0,0.0,-0.7829944491386414,0.4385565519332886
-0.1740119904279709,0.7244975566864014,0.0009547268273308,-0.3207493126392364,-0.3693768978118896,0.3294652104377746,0.0,0.0,-0.9882158041000366,0.5589495897293091
-0.1737165451049804,0.7169680595397949,0.0150331081822514,-0.3309676051139831,-0.3540454506874084,0.3066291213035583,0.0,0.0,-0.9920823574066162,0.7717458009719849
-0.1732854843139648,0.7092074155807495,0.0297186020761728,-0.3416904509067535,-0.3399967551231384,0.2809742093086242,0.0,0.0,-0.9903091192245485,0.6584141254425049
-0.1727226227521896,0.7012251615524292,0.0438693687319755,-0.3518917262554168,-0.3270244300365448,0.2594473659992218,0.0,0.0,-0.997157871723175,0.6487901210784912
-0.1720173805952072,0.6930157542228699,0.0593303963541984,-0.3623729646205902,-0.31537526845932,0.2329829931259155,0.0,0.0,-0.992437183856964,0.0501420497894287
-0.1712193489074707,0.684603750705719,0.0684922561049461,-0.3714518249034881,-0.303651750087738,0.2344703674316406,0.0,0.0,-0.93657785654068,0.3366764783859253
-0.1703271865844726,0.6759890913963318,0.0777854993939399,-0.3805307745933532,-0.2918480634689331,0.2360738068819046,0.0,0.0,-0.984484076499939,0.1442315578460693
-0.1693396568298339,0.667171835899353,0.0871998220682144,-0.3896098732948303,-0.2799583673477173,0.2377939671278,0.0,0.0,-0.9827948212623596,0.4617031812667846
-0.1682555228471756,0.6581518650054932,0.0967256352305412,-0.3986891508102417,-0.2679768204689026,0.239631101489067,0.0,0.0,-0.987636923789978,-0.1176488399505615
-0.1670738160610199,0.6489295363426208,0.1063540428876876,-0.407768577337265,-0.255897581577301,0.2415852546691894,0.0,0.0,-0.9997739791870116,0.1369448900222778
-0.1657934188842773,0.6395044326782227,0.1160767525434494,-0.4168481826782226,-0.2437147796154022,0.2436559945344925,0.0,0.0,-0.9996906518936156,0.5134110450744629
-0.1643681526184082,0.6298651099205017,0.1315753757953643,-0.4266363084316253,-0.2325928211212158,0.2224394083023071,0.0,0.0,-0.9986421465873718,-0.3552588224411011
-0.1628425568342209,0.6200230121612549,0.1414650678634643,-0.4357141852378845,-0.2213557362556457,0.2247420847415924,0.0,0.0,-0.9958183169364928,0.1230723857879638
-0.1612158715724945,0.6099780201911926,0.1514276415109634,-0.4447922706604004,-0.2099977880716323,0.2271588593721389,0.0,0.0,-0.9988797903060912,-0.0408890843391418
-0.1594874411821365,0.599730372428894,0.1614569574594497,-0.4538706541061401,-0.1985133737325668,0.2296881973743438,0.0,0.0,-0.9992494583129884,0.2241430282592773
-0.1576563864946365,0.5892801284790039,0.1715473234653473,-0.4629493057727813,-0.1868969500064849,0.2323283702135086,0.0,0.0,-0.9985774159431458,0.1171350479125976
-0.1557223349809646,0.5786272883415222,0.1816934794187545,-0.4720282852649688,-0.1751430928707122,0.2350774109363556,0.0,0.0,-0.999573051929474,0.0356465578079223
-0.1536846160888672,0.567771852016449,0.191890463232994,-0.4811075925827026,-0.1632464379072189,0.2379331886768341,0.0,0.0,-0.9999861121177672,0.1434500217437744
-0.1515428572893142,0.556713879108429,0.2021337300539016,-0.490187257528305,-0.1512017548084259,0.2408933341503143,0.0,0.0,-0.9997807145118712,0.1316690444946289
-0.149296373128891,0.5454534888267517,0.2124189883470535,-0.4992673695087433,-0.1390039920806884,0.24395552277565,0.0,0.0,-0.9998878240585328,0.4005763530731201
-0.146944910287857,0.5339906215667725,0.2227422446012497,-0.5083478689193726,-0.1266481578350067,0.2471170127391815,0.0,0.0,-0.9981597065925598,0.5162317752838135
-0.1444375962018966,0.5223155617713928,0.239426702260971,-0.5179721117019653,-0.1154122427105903,0.2247182577848434,0.0,0.0,-0.9995744824409484,0.410373330116272
-0.1418246328830719,0.5104378461837769,0.249815434217453,-0.5270510315895081,-0.104008674621582,0.2280713319778442,0.0,0.0,-0.9999310970306396,0.192142367362976
-0.1391056030988693,0.4983574450016022,0.260231465101242,-0.5361302495002747,-0.0924328863620758,0.2315157204866409,0.0,0.0,-0.9994071125984192,0.6683499813079834
-0.136224552989006,0.4860718548297882,0.2776511609554291,-0.5454151034355164,-0.0820793285965919,0.2070711553096771,0.0,0.0,-0.9990019798278807,0.0289130210876464
-0.1332370787858963,0.4735833406448364,0.2881130576133728,-0.5544927716255188,-0.0715448334813118,0.2106901407241821,0.0,0.0,-0.9975154995918274,-0.214133083820343
-0.1301426887512207,0.4608920812606811,0.2985933125019073,-0.5635709166526794,-0.0608252584934234,0.214391678571701,0.0,0.0,-0.9986324310302734,-0.8739964962005615
-0.1270166337490081,0.448002815246582,0.299660861492157,-0.5723782181739807,-0.0480257272720336,0.2559906840324402,0.0,0.0,-0.993061363697052,-0.4141042232513428
-0.1237833946943283,0.4349116086959839,0.3101695775985718,-0.5814611911773682,-0.035033393651247,0.2598470747470855,0.0,0.0,-0.9662678837776184,-0.603060245513916
-0.1204924583435058,0.4216210842132568,0.3144723773002624,-0.590408980846405,-0.0205985642969608,0.2886967360973358,0.0,0.0,-0.8013343214988708,-0.4548006057739258
-0.1170942336320877,0.4081293642520904,0.324999988079071,-0.5994961261749268,-0.0059637688100337,0.2926960289478302,0.0,0.0,-0.6953529119491577,-0.3441389799118042
-0.1135885268449783,0.3944364488124847,0.3355335593223572,-0.6085841059684753,0.0088743837550282,0.2967629432678222,0.0,0.0,-0.6655967831611633,-0.2059496641159057
-0.1099753379821777,0.3805423974990845,0.3460708856582641,-0.6176727414131165,0.0239191148430109,0.3008947074413299,0.0,0.0,-0.5724130868911743,-0.0879548788070678
-0.1062548607587814,0.3664474189281463,0.3566097021102905,-0.6267621517181396,0.0391735509037971,0.3050887286663055,0.0,0.0,-0.26820969581604,-0.6784200072288513
-0.1024826020002365,0.3521463871002197,0.3601444363594055,-0.6361359357833862,0.0560463145375251,0.3374554812908172,0.0,0.0,0.3110723495483398,-0.358370840549469
-0.0987221747636795,0.3383520841598511,0.3591977953910827,-0.6137934923171997,0.072706326842308,0.3332006633281708,0.0,0.0,0.2495026588439941,-0.0287318229675292
-0.0949967354536056,0.3249377012252807,0.3560333847999573,-0.5970756411552429,0.0890581756830215,0.3270373344421386,0.0,0.0,0.0541231632232666,-0.0322983264923095
-0.0911375060677528,0.3120173215866089,0.3688961565494537,-0.5753419399261475,0.1059434562921524,0.3377056717872619,0.0,0.0,0.3955488204956054,-0.0401400327682495
-0.0871525779366493,0.2993700802326202,0.381026417016983,-0.5634278655052185,0.1232917234301567,0.3469654321670532,0.0,0.0,0.6760158538818359,-0.1582444906234741
-0.0830100029706955,0.2877026796340942,0.3959318995475769,-0.5201701521873474,0.1415462493896484,0.3650903701782226,0.0,0.0,0.5574012994766235,-0.343814492225647
-0.0788851752877235,0.2769177854061126,0.3940677344799042,-0.4811830222606659,0.159928947687149,0.3676541447639465,0.0,0.0,0.1636897325515747,0.2070361375808715
-0.0746504813432693,0.2668491303920746,0.4044141769409179,-0.449654072523117,0.1790065914392471,0.3815531134605407,0.0,0.0,0.0375974178314209,-0.2546600103378296
-0.0703271850943565,0.2571320235729217,0.4128817021846771,-0.4343354403972626,0.1985380351543426,0.3906291127204895,0.0,0.0,0.189618706703186,-0.1105490922927856
-0.066019058227539,0.2480794489383697,0.4112358689308166,-0.4050820767879486,0.218279629945755,0.3948323130607605,0.0,0.0,-0.0255249142646789,0.1088572740554809
-0.0616053566336631,0.2388286143541336,0.4216451644897461,-0.4141883850097656,0.2382573336362838,0.3995547890663147,0.0,0.0,0.1639133691787719,0.248024582862854
-0.0571075454354286,0.2298706173896789,0.4296638965606689,-0.4015194773674011,0.2587355375289917,0.409564197063446,0.0,0.0,0.4824804067611694,0.1344904899597168
-0.0527528747916221,0.2214770913124084,0.4157115817070007,-0.3766563236713409,0.2789458036422729,0.4042051434516907,0.0,0.0,0.2707955837249756,0.0121138095855712
-0.0484977737069129,0.213415652513504,0.4060854315757751,-0.3621160686016083,0.2989408075809479,0.3999000489711761,0.0,0.0,0.4267473220825195,-0.2175266742706298
-0.0442997924983501,0.2058459669351577,0.4003418087959289,-0.3405566811561584,0.3190928101539612,0.4030401110649109,0.0,0.0,0.5278360843658447,-0.0933907628059387
-0.0401301383972168,0.1987923979759216,0.3972888886928558,-0.317959189414978,0.3396003842353821,0.4101517796516418,0.0,0.0,0.5319787263870239,-0.6020013689994812
-0.0358882918953895,0.192050039768219,0.4029762744903564,-0.304816871881485,0.3618852794170379,0.4456977844238281,0.0,0.0,0.6080300807952881,-0.0308775901794433
-0.0316911712288856,0.1860951781272888,0.3980371057987213,-0.2703042924404144,0.384856104850769,0.4594168066978454,0.0,0.0,0.5219583511352539,0.112999677658081
-0.0276501663029193,0.1809901148080825,0.3822986483573913,-0.2329570800065994,0.4081822335720062,0.4665225148200989,0.0,0.0,0.1557493209838867,0.2069587707519531
-0.0235540382564067,0.1760160773992538,0.3875980675220489,-0.227600023150444,0.4319641590118408,0.4756383895874023,0.0,0.0,0.0124071836471557,0.1428030729293823
