x_pos,y_pos,x_vel,y_vel,angle,ang_vel,leg_1,leg_2,main_booster,lat_booster
-0.0015468597412109,1.4031429290771484,-0.1563902348279953,-0.3456529676914215,0.0015276287449523,0.0301166530698537,0.0,0.0,0.6850959172353566,0.8782012351147991
-0.0029913901817053,1.3956091403961182,-0.1440504342317581,-0.3348374962806701,0.0011250616516917,-0.0080515835434198,0.0,0.0,0.0241266905747947,0.6607571747285899
-0.0043163299560546,1.3879642486572266,-0.1306029111146927,-0.339775413274765,-0.0007361696916632,-0.0372281037271022,0.0,0.0,0.4015860311402981,-0.9966350655097054
-0.0058633806183934,1.3804705142974854,-0.1544603407382965,-0.3330574631690979,-0.0009827861795201,-0.0049326648004353,0.0,0.0,0.7372073727949997,-0.7591145060951974
-0.0073503493331372,1.373525857925415,-0.1500274538993835,-0.3086502254009247,0.0003389955672901,0.0264376997947692,0.0,0.0,-0.8851575718272471,-0.6898865629518439
-0.008909797295928,1.3660985231399536,-0.1580913662910461,-0.3301041424274444,0.002453766297549,0.0422994643449783,0.0,0.0,-0.3807381493744142,0.7777236950995017
-0.0104425428435206,1.3581899404525757,-0.153649553656578,-0.3514904677867889,0.0028257896192371,0.0074410452507436,0.0,0.0,-0.8256392848744052,-0.659003624284858
-0.0120477676391601,1.349801778793335,-0.1616359204053878,-0.3728169500827789,0.003920913208276,0.0219045635312795,0.0,0.0,0.382143947380501,0.5799610097083712
-0.0136561393737792,1.3419883251190186,-0.1604920774698257,-0.3472561538219452,0.0035829965490847,-0.0067589813843369,0.0,0.0,0.9339171426411496,0.7972240109455158
-0.0152420047670602,1.3349740505218506,-0.1563879698514938,-0.3117427229881286,0.0014074199134483,-0.0435155071318149,0.0,0.0,-0.8736546245702024,0.9429228931417812
-0.0167805664241313,1.3274790048599243,-0.1492412388324737,-0.3331118524074554,-0.0031575509347021,-0.0913080126047134,0.0,0.0,-0.0245823631010349,0.7869660128456379
-0.0182888023555278,1.3195011615753174,-0.1441842913627624,-0.3546013534069061,-0.0097165154293179,-0.1311914622783661,0.0,0.0,-0.2157196419256413,0.8204942775612092
-0.0197585113346576,1.3110456466674805,-0.1380799710750579,-0.3758848011493683,-0.0185022074729204,-0.175729900598526,0.0,0.0,0.9407360559089748,-0.5940492932391946
-0.0212223045527935,1.3027284145355225,-0.1386862248182296,-0.369763046503067,-0.026107769459486,-0.152125209569931,0.0,0.0,-0.1791468999544041,-0.7430190097435154
-0.0227736476808786,1.2939399480819702,-0.1483312398195266,-0.3907362222671509,-0.0328276939690113,-0.1344109326601028,0.0,0.0,0.7002943306403799,-0.7905129634145189
-0.0242972373962402,1.2851166725158691,-0.1471615880727768,-0.3922643363475799,-0.0379745513200759,-0.1029465347528457,0.0,0.0,-0.8153073355975573,0.5466193973630888
-0.0258130077272653,1.2758159637451172,-0.1447842866182327,-0.4135591089725494,-0.0446910336613655,-0.1343417167663574,0.0,0.0,-0.7785194299928204,0.5115851476711617
-0.0273252483457326,1.266026496887207,-0.1429370492696762,-0.4353452324867248,-0.0528956651687622,-0.1641077995300293,0.0,0.0,-0.154472753275628,-0.8251283125703313
-0.0289392471313476,1.255768895149231,-0.1542700380086898,-0.4561676383018493,-0.0599514916539192,-0.1411292254924774,0.0,0.0,-0.0655422208787654,-0.9679914721852624
-0.0306881908327341,1.24503755569458,-0.1697587370872497,-0.4771623611450195,-0.0650505423545837,-0.1019899249076843,0.0,0.0,-0.2540180863388208,-0.6876393237874134
-0.0325294509530067,1.2338345050811768,-0.1798416674137115,-0.4981131255626678,-0.0692907571792602,-0.0848118811845779,0.0,0.0,-0.4281574166920785,0.5577383484691641
-0.0343766212463378,1.2221423387527466,-0.1790784001350402,-0.5199195146560669,-0.0748777687549591,-0.1117504835128784,0.0,0.0,-0.2617207448405119,-0.5797085470345271
-0.0363111495971679,1.2099725008010864,-0.1885253340005874,-0.5411375164985657,-0.0797688141465187,-0.0978295803070068,0.0,0.0,-0.4184493286893689,0.6178437770867343
-0.0382442474365234,1.1973081827163696,-0.1867824494838714,-0.563212513923645,-0.0862397775053978,-0.1294310688972473,0.0,0.0,-0.0601820723522612,0.9702712765850304
-0.0401719100773334,1.1841585636138916,-0.1845617592334747,-0.5849249958992004,-0.0943850204348564,-0.1629194468259811,0.0,0.0,-0.3308302396532203,-0.7465555509075981
-0.0422279350459575,1.1705211400985718,-0.1990474015474319,-0.6065322756767273,-0.1008742228150367,-0.1297841221094131,0.0,0.0,0.508112680201884,-0.6294367213056133
-0.0443174354732036,1.1574033498764038,-0.2035030573606491,-0.5833863019943237,-0.1062873974442482,-0.1082635149359703,0.0,0.0,-0.9024868694608512,0.954545687162007
-0.0464032180607318,1.1438055038452148,-0.2014425694942474,-0.6048780083656311,-0.1133704409003257,-0.1416609287261963,0.0,0.0,-0.9905240170638524,0.601971819395003
-0.0485078804194927,1.129725694656372,-0.2022139132022857,-0.6264182329177856,-0.12156942486763,-0.1639800071716308,0.0,0.0,-0.424213946606077,-0.7965621232858306
-0.0507344231009483,1.1151742935180664,-0.2158909738063812,-0.6472970247268677,-0.1282953321933746,-0.1345180571079254,0.0,0.0,-0.3403910682476205,0.6749095304716975
-0.0529631599783897,1.1001392602920532,-0.2145605534315109,-0.6689571738243103,-0.1365726441144943,-0.1655461639165878,0.0,0.0,0.6938390731811523,0.935378074645996
-0.0552042946219444,1.085289716720581,-0.2136528044939041,-0.6609758138656616,-0.1470081508159637,-0.2087102830410003,0.0,0.0,0.7042813301086426,0.8774751424789429
-0.0574069023132324,1.071201205253601,-0.2077444046735763,-0.6274332404136658,-0.1595000624656677,-0.2498384416103363,0.0,0.0,0.68047034740448,0.529472827911377
-0.0596373565495014,1.057178974151611,-0.2091670930385589,-0.6247568130493164,-0.1733883470296859,-0.2777657508850097,0.0,0.0,0.9160706996917723,0.4009537696838379
-0.061782456934452,1.043747901916504,-0.2006243467330932,-0.5986147522926331,-0.1873287856578827,-0.2788087725639343,0.0,0.0,0.7177050113677979,0.8662176132202148
-0.0637516975402832,1.030979037284851,-0.1812321543693542,-0.5695676207542419,-0.2031010836362838,-0.3154460787773132,0.0,0.0,0.6416666507720947,-0.3171266317367553
-0.0657141655683517,1.018404841423035,-0.1803823411464691,-0.561115562915802,-0.2191200256347656,-0.3203788101673126,0.0,0.0,-0.2088716030120849,-0.8399337530136108
-0.0677957534790039,1.0053790807724,-0.1937825977802276,-0.5811264514923096,-0.2336691468954086,-0.2909819781780243,0.0,0.0,0.6535224914550781,-0.5618162155151367
-0.0698245987296104,0.9931413531303406,-0.1894727647304535,-0.5460874438285828,-0.24730084836483,-0.2726344466209411,0.0,0.0,-0.1561746597290039,-0.6960313320159912
-0.0719635933637619,0.9804445505142212,-0.2017363011837005,-0.5663920640945435,-0.2596975862979889,-0.2479345798492431,0.0,0.0,-0.4027961492538452,-0.3784628510475158
-0.0741620063781738,0.9672686457633972,-0.2076280564069748,-0.5878074765205383,-0.2721932530403137,-0.2499136179685592,0.0,0.0,-0.4001439809799194,-0.876053512096405
-0.0764730423688888,0.9536334872245787,-0.2202168405055999,-0.6080676913261414,-0.2833714187145233,-0.2235631942749023,0.0,0.0,0.912301540374756,-0.782801628112793
-0.0786853805184364,0.9400078654289246,-0.2120765745639801,-0.6073976755142212,-0.2927905917167663,-0.1883836686611175,0.0,0.0,0.3803179264068603,-0.4165712594985962
-0.0807499885559082,0.9265002608299256,-0.1976202130317688,-0.6021386384963989,-0.3019044697284698,-0.182278111577034,0.0,0.0,0.2307000160217285,-0.8191308379173279
-0.0829047188162803,0.9128615856170654,-0.208177775144577,-0.6077030301094055,-0.3094605207443237,-0.1511218696832656,0.0,0.0,0.4920922517776489,-0.5307013988494873
-0.0850245505571365,0.8991668820381165,-0.2057774811983108,-0.6099904179573059,-0.3158964812755584,-0.1287192851305008,0.0,0.0,0.3414305448532104,-0.6883842349052429
-0.0870898216962814,0.8855047821998596,-0.2017097026109695,-0.6082674860954285,-0.320903867483139,-0.1001475602388382,0.0,0.0,-0.1213485598564148,-0.0802075862884521
-0.0892128944396972,0.8713614344596863,-0.2074393332004547,-0.6296715140342712,-0.325962632894516,-0.1011761277914047,0.0,0.0,0.1068538427352905,-0.924863338470459
-0.0913903266191482,0.8575806021690369,-0.2146850377321243,-0.6131817102432251,-0.3291633427143097,-0.064014732837677,0.0,0.0,0.3672671318054199,0.0616745948791503
-0.0935050025582313,0.8439244031906128,-0.208278015255928,-0.6076691150665283,-0.3324834704399109,-0.0664024278521537,0.0,0.0,0.5313324928283691,-0.3042172193527221
-0.095376968383789,0.8304724097251892,-0.1845785081386566,-0.5984756350517273,-0.335220605134964,-0.0547424927353858,0.0,0.0,0.5776798725128174,-0.828305721282959
-0.0971906632184982,0.8176029920578003,-0.1802603900432586,-0.5722299218177795,-0.3363755047321319,-0.0230977181345224,0.0,0.0,-0.146783173084259,-0.8245182633399963
-0.0991095528006553,0.8042742013931274,-0.1920934021472931,-0.5923486948013306,-0.3361747562885284,0.0040150266140699,0.0,0.0,0.4901275634765625,-0.5867787599563599
-0.1008838638663292,0.7915090322494507,-0.1787688285112381,-0.5670283436775208,-0.334774374961853,0.0280067510902881,0.0,0.0,0.644178032875061,-0.6133983731269836
-0.1024456992745399,0.778892457485199,-0.1590760201215744,-0.5600658059120178,-0.3317547440528869,0.0603927075862884,0.0,0.0,0.2738893032073974,-0.9280815720558168
-0.1040907874703407,0.7663833498954773,-0.1691852509975433,-0.5548959970474243,-0.3268848657608032,0.0973976328969001,0.0,0.0,0.3148614168167114,-0.6902166604995728
-0.1055532470345497,0.7542862296104431,-0.1524077653884887,-0.5362727046012878,-0.3204694092273712,0.128308892250061,0.0,0.0,0.7886006832122803,-0.6341601610183716
-0.1067283600568771,0.7426978349685669,-0.1253230273723602,-0.513340413570404,-0.3123548030853271,0.1622916758060455,0.0,0.0,-0.271754503250122,-0.1294424533843994
-0.1079505905508995,0.7306286096572876,-0.1300703734159469,-0.5347460508346558,-0.3042276799678802,0.162542313337326,0.0,0.0,0.5476633310317993,-0.0506781339645385
-0.1090661063790321,0.7191640734672546,-0.1191123574972152,-0.5079742670059204,-0.2964135110378265,0.1562835127115249,0.0,0.0,0.0950753688812255,0.2782303094863891
-0.1101216301321983,0.7075560092926025,-0.1133054494857788,-0.5143595337867737,-0.2884210348129272,0.1598498225212097,0.0,0.0,0.3316152095794678,0.0768394470214843
-0.1111364364624023,0.6963145136833191,-0.1089053377509117,-0.4981713593006134,-0.2807770669460296,0.1528793275356292,0.0,0.0,-0.672010064125061,0.1382398605346679
-0.1121919602155685,0.6845921874046326,-0.1130331754684448,-0.5195761919021606,-0.2731041312217712,0.1534587144851684,0.0,0.0,-0.3547836542129516,0.0605489015579223
-0.1132864952087402,0.6723889112472534,-0.1169821619987487,-0.5409809947013855,-0.2653988897800445,0.1541046202182769,0.0,0.0,-0.7228698134422302,-0.1562473773956298
-0.1144182235002517,0.6597046852111816,-0.1207424029707908,-0.5623857975006104,-0.2576583921909332,0.1548099219799041,0.0,0.0,-0.7312848567962646,-0.5381784439086914
-0.1156344413757324,0.6465598940849304,-0.1305310428142547,-0.5826826691627502,-0.2485673725605011,0.1818201243877411,0.0,0.0,-0.0977216362953186,-0.2783761024475097
-0.1168836578726768,0.6329342722892761,-0.1338845044374466,-0.6040893197059631,-0.2394361495971679,0.182624340057373,0.0,0.0,0.3188698291778564,0.8618322610855103
-0.1179711371660232,0.6191073656082153,-0.1161257624626159,-0.6133466362953186,-0.2319446504116058,0.1498293578624725,0.0,0.0,0.3860419988632202,-0.1477622389793396
-0.1189002990722656,0.605837345123291,-0.1004617810249328,-0.5886154174804688,-0.2243045717477798,0.1528016626834869,0.0,0.0,-0.8454160094261169,-0.0470905303955078
-0.1198556870222091,0.5920863747596741,-0.1031279116868972,-0.6100202202796936,-0.2166195809841156,0.1536998897790908,0.0,0.0,-0.7281918525695801,0.1353471279144287
-0.120834544301033,0.5778544545173645,-0.1055452972650528,-0.6314250230789185,-0.2088888883590698,0.1546140015125274,0.0,0.0,0.2874138355255127,0.7828614711761475
-0.1216466873884201,0.5638269782066345,-0.0873948633670806,-0.6225836873054504,-0.2026550471782684,0.1246765628457069,0.0,0.0,-0.4061490297317505,0.5725512504577637
-0.1224414855241775,0.5493137836456299,-0.0848207548260688,-0.6443076729774475,-0.1972751170396804,0.1075985431671142,0.0,0.0,0.595038652420044,-0.1438573598861694
-0.1230730041861534,0.535118579864502,-0.0688741952180862,-0.6301469802856445,-0.1915212571620941,0.1150770187377929,0.0,0.0,-0.1067916750907898,0.3202545642852783
-0.1237173080444336,0.5204421877861023,-0.0702008754014968,-0.6515498757362366,-0.1857223808765411,0.1159773916006088,0.0,0.0,0.6245874166488647,0.1969286203384399
-0.124246597290039,0.5057373642921448,-0.0590654090046882,-0.6527941226959229,-0.1795703768730163,0.1230404153466224,0.0,0.0,0.8260090351104736,0.4875595569610595
-0.1247501373291015,0.4911143481731415,-0.0563682317733764,-0.6491932272911072,-0.1735375970602035,0.1206552237272262,0.0,0.0,0.7859554290771484,0.7920747995376587
-0.1250565499067306,0.4772704243659973,-0.0351051390171051,-0.6147727966308594,-0.1690674722194671,0.0894026085734367,0.0,0.0,0.710431694984436,-0.2550973892211914
-0.1251398026943206,0.4641729593276977,-0.0132068935781717,-0.5815598964691162,-0.1641760617494583,0.0978277772665023,0.0,0.0,0.4098470211029053,0.1635581254959106
-0.1252008378505706,0.4516499042510986,-0.0105870198458433,-0.5560951828956604,-0.1596924364566803,0.0896725058555603,0.0,0.0,-0.474954605102539,-0.2158844470977783
-0.1252559721469879,0.4386453926563263,-0.0100347027182579,-0.5774971842765808,-0.1551767736673355,0.0903136879205703,0.0,0.0,-0.2428684830665588,-0.2048947811126709
-0.1253019273281097,0.4251596927642822,-0.0091481311246752,-0.598899245262146,-0.1506325900554657,0.0908841043710708,0.0,0.0,0.7369974851608276,0.2460620403289795
-0.1253499090671539,0.4121139049530029,-0.0088804680854082,-0.5794046521186829,-0.1465565860271453,0.0815203636884689,0.0,0.0,0.6613950729370117,-0.4547926187515259
-0.1253369301557541,0.399610310792923,-0.0025559754576534,-0.555341362953186,-0.1427152752876281,0.0768260955810546,0.0,0.0,0.7962478399276733,-0.0101509094238281
-0.1252094209194183,0.3877569437026977,0.008943123742938,-0.526456892490387,-0.1389185190200805,0.0759350210428237,0.0,0.0,0.5505404472351074,0.0147567987442016
-0.124902531504631,0.3762164413928985,0.0264861732721328,-0.5125279426574707,-0.134732648730278,0.083717331290245,0.0,0.0,0.4132342338562011,-0.0417172312736511
-0.1245101913809776,0.3646258115768432,0.0349359288811683,-0.5147597789764404,-0.1304478347301483,0.0856961384415626,0.0,0.0,0.6685715913772583,-0.5129812359809875
-0.1239769011735916,0.3531433641910553,0.0477213785052299,-0.5098488926887512,-0.1248652264475822,0.1116521209478378,0.0,0.0,0.3744902610778808,-0.0933272838592529
-0.1232300773262977,0.3418640792369842,0.0685042142868042,-0.5007956027984619,-0.1187231615185737,0.1228411197662353,0.0,0.0,-0.1509296298027038,0.4065454006195068
-0.1224470138549804,0.3301038444042206,0.0721337050199508,-0.5221996903419495,-0.1125942915678024,0.1225773841142654,0.0,0.0,0.7760107517242432,0.0805772542953491
-0.1215397864580154,0.3190672993659973,0.0846000462770462,-0.4900618195533752,-0.1065135672688484,0.1216144189238548,0.0,0.0,-0.2334462404251098,0.670964241027832
-0.1205339431762695,0.3075459003448486,0.0959018841385841,-0.5117374658584595,-0.1018650159239769,0.0929709449410438,0.0,0.0,0.547295331954956,-0.7923164963722229
-0.1193517670035362,0.296468436717987,0.1117567047476768,-0.4919062554836273,-0.0954572781920433,0.1281548738479614,0.0,0.0,-0.4291366338729858,-0.3004767894744873
-0.118120476603508,0.2849099636077881,0.1167069524526596,-0.5133108496665955,-0.08909173309803,0.1273108571767807,0.0,0.0,0.4121527671813965,-0.3774604797363281
-0.1168429404497146,0.2735269665718078,0.121582880616188,-0.5055587887763977,-0.0829841643571853,0.1221515759825706,0.0,0.0,0.4088457822799682,0.147086501121521
-0.1153773292899131,0.2627537250518799,0.1401129364967346,-0.478463351726532,-0.0766012370586395,0.1276586800813675,0.0,0.0,0.0560389757156372,-0.5630642771720886
-0.1138868331909179,0.2520506978034973,0.1415639817714691,-0.4753265678882599,-0.0691895335912704,0.1482339203357696,0.0,0.0,-0.0251303911209106,0.0254734754562377
-0.1123353019356727,0.2408669590950012,0.1477291584014892,-0.4967324137687683,-0.0618537031114101,0.1467169523239135,0.0,0.0,0.4329922199249267,-0.0710451602935791
-0.1106074303388595,0.2301016449928283,0.1651024967432022,-0.4781597256660461,-0.0542535185813903,0.1520036458969116,0.0,0.0,0.4916253089904785,-0.153579294681549
-0.1088248267769813,0.2198741286993026,0.170898750424385,-0.4543070793151855,-0.0469710640609264,0.1456491649150848,0.0,0.0,0.0770275592803955,-0.6990758776664734
-0.1070669144392013,0.2099106907844543,0.1671715527772903,-0.4425752758979797,-0.0384588800370693,0.1702436059713363,0.0,0.0,-0.1669573187828064,-0.4280929565429687
-0.1052378639578819,0.199466660618782,0.1744098216295242,-0.463982492685318,-0.0300600342452526,0.1679766774177551,0.0,0.0,0.5370380878448486,-0.3925026655197143
-0.1034267395734787,0.1893858462572097,0.1732348948717117,-0.4478987753391266,-0.0222864747047424,0.1554714143276214,0.0,0.0,0.4761937856674194,-0.7978378534317017
-0.1017427444458007,0.1795316338539123,0.1592809408903122,-0.4378566145896911,-0.013285007327795,0.1800290197134018,0.0,0.0,0.1497474908828735,-0.3497315049171448
-0.0999004393815994,0.169945627450943,0.1749114096164703,-0.4259898066520691,-0.0040860315784811,0.1839794069528579,0.0,0.0,-0.0114783644676208,-0.5816229581832886
-0.098019503057003,0.1598743945360183,0.1778754889965057,-0.447609543800354,0.0059978142380714,0.2016768753528595,0.0,0.0,0.7392623424530029,-0.4160189628601074
-0.0959087386727333,0.1505292207002639,0.2003064155578613,-0.41541787981987,0.0166236888617277,0.2125180065631866,0.0,0.0,0.4738533496856689,-0.8701848387718201
-0.0938178077340126,0.141747385263443,0.1967866122722625,-0.3904814124107361,0.0287761352956295,0.2430488765239715,0.0,0.0,0.2027206420898437,0.3300668001174927
-0.0915554016828537,0.133423238992691,0.2136282473802566,-0.3702506124973297,0.0412235297262668,0.2489479333162307,0.0,0.0,0.2871037721633911,0.2012404203414917
-0.0891653075814247,0.1252999454736709,0.2263362854719162,-0.3614303171634674,0.0537496469914913,0.2505223751068115,0.0,0.0,0.1451184749603271,-0.8522152900695801
-0.0867904648184776,0.1175476387143135,0.2233131229877472,-0.3451153635978699,0.0677602365612983,0.2802118957042694,0.0,0.0,0.1310632228851318,-0.497758150100708
-0.0843208283185958,0.1101273596286773,0.2328422516584396,-0.3304899632930755,0.0817451924085617,0.2796991169452667,0.0,0.0,0.2240395545959472,0.2938952445983886
-0.0817280784249305,0.1027429923415184,0.2451165914535522,-0.3290258944034576,0.0957777649164199,0.2806510925292969,0.0,0.0,0.4556223154067993,-0.311710774898529
-0.0792020782828331,0.095677264034748,0.2391991168260574,-0.314944863319397,0.109072558581829,0.2658959329128265,0.0,0.0,0.1424590349197387,0.0619478225708007
-0.0767093673348426,0.0886480882763862,0.2365607768297195,-0.3133823573589325,0.1217068135738372,0.2526851892471313,0.0,0.0,0.3216135501861572,-0.0195299983024597
-0.074193574488163,0.0818073153495788,0.2392261028289795,-0.3050857484340668,0.1340007781982422,0.2458792030811309,0.0,0.0,0.6578788757324219,-0.0607011318206787
-0.0716276168823242,0.0752874687314033,0.2444216907024383,-0.2909078598022461,0.1461440622806549,0.2428650557994842,0.0,0.0,0.636425256729126,-0.5934469103813171
-0.0689244270324707,0.0688312128186225,0.2569127380847931,-0.2883147299289703,0.159536063671112,0.2678398191928863,0.0,0.0,0.79057776927948,-0.1809118390083313
-0.0661368370056152,0.0630179047584533,0.265178233385086,-0.259882390499115,0.1731244772672653,0.2717683613300323,0.0,0.0,0.2586328983306885,-0.4257872700691223
-0.0633377060294151,0.0576377473771572,0.266577661037445,-0.240729734301567,0.1864987462759018,0.2674853205680847,0.0,0.0,0.3353440761566162,-0.5059848427772522
