x_pos,y_pos,x_vel,y_vel,angle,ang_vel,leg_1,leg_2,main_booster,lat_booster
-0.0014436722267419,1.4033966064453125,-0.1464494168758392,-0.3343836963176727,0.0018524200422689,0.036547876894474,0.0,0.0,-0.5121307373046875,0.2828402519226074
-0.0028067589737474,1.3956680297851562,-0.1382770240306854,-0.3434894979000091,0.0037909576203674,0.0387754030525684,0.0,0.0,-0.11771160364151,0.8636972904205322
-0.0040058135055005,1.3877053260803225,-0.1198834627866745,-0.353899210691452,0.0037756683304905,-0.0003059244190808,0.0,0.0,-0.4790626168251037,0.2836771011352539
-0.0051230429671704,1.3795145750045776,-0.1118445545434951,-0.3640361130237579,0.0038939169608056,0.0023652142845094,0.0,0.0,-0.4631247520446777,0.2381378412246704
-0.0061582564376294,1.3710957765579224,-0.1037699729204177,-0.374170184135437,0.004144087433815,0.0050037633627653,0.0,0.0,-0.3294332027435303,0.5339202880859375
-0.0070594786666333,1.3624484539031982,-0.0891946330666542,-0.3843199908733368,0.0032295333221554,-0.0182925947010517,0.0,0.0,-0.5973154902458191,0.6431872844696045
-0.0078291893005371,1.3535735607147217,-0.0749409943819046,-0.3944402635097503,0.0012219573836773,-0.0401552878320217,0.0,0.0,-0.5006270408630371,-0.001061201095581
-0.0085158348083496,1.3444706201553345,-0.0667712539434433,-0.4045739769935608,-0.0006535148713737,-0.0375128909945488,0.0,0.0,-0.7201172709465027,-0.2858697175979614
-0.0091194156557321,1.3351397514343262,-0.0585794635117054,-0.4147076308727264,-0.0023978156968951,-0.0348893404006958,0.0,0.0,-0.9334561824798584,0.0239403247833251
-0.0096394540742039,1.3255808353424072,-0.0503691025078296,-0.4248412847518921,-0.004011133685708,-0.0322695262730121,0.0,0.0,-0.6106405854225159,-0.2668536305427551
-0.0100759509950876,1.3157938718795776,-0.0421433970332145,-0.4349748790264129,-0.0054939915426075,-0.0296601206064224,0.0,0.0,-0.8951898217201233,-0.2630685567855835
-0.0104286195710301,1.305778980255127,-0.0339059308171272,-0.4451085329055786,-0.0068470230326056,-0.0270630307495594,0.0,0.0,-0.4040117263793945,-0.8210495710372925
-0.0107483863830566,1.2955408096313477,-0.0320247262716293,-0.4550268054008484,-0.006794627290219,0.0010481851641088,0.0,0.0,-0.7057223320007324,-0.64458167552948
-0.0110293384641408,1.285069227218628,-0.029427882283926,-0.465401828289032,-0.0054827104322612,0.0262405909597873,0.0,0.0,-0.9391218423843384,-0.7285035252571106
-0.0112706180661916,1.2743775844573977,-0.0267032738775014,-0.4751797020435333,-0.0029365243390202,0.0509285032749176,0.0,0.0,-0.8896182179450989,-0.6882593631744385
-0.0114727020263671,1.2634501457214355,-0.0240401402115821,-0.4856629073619842,0.0008530436898581,0.0757983177900314,0.0,0.0,-0.8922543525695801,-0.6249253749847412
-0.0116292955353856,1.2523020505905151,-0.0205837674438953,-0.4954768717288971,0.0057244547642767,0.0974371284246444,0.0,0.0,-0.9638357758522034,0.0335974693298339
-0.0117024425417184,1.2409265041351318,-0.0123652629554271,-0.5056124925613403,0.0107201673090457,0.0999230816960334,0.0,0.0,-0.8854392766952515,0.3528487682342529
-0.0116922380402684,1.229323148727417,-0.0041596200317144,-0.5157483816146851,0.0158395636826753,0.1023971885442733,0.0,0.0,-0.8715271949768066,0.3815040588378906
-0.011599063873291,1.2174923419952393,0.0040290765464305,-0.5258843898773193,0.021081518381834,0.1048481911420822,0.0,0.0,-0.4142095446586609,0.5570235252380371
-0.0113696102052927,1.2054393291473389,0.0188820715993642,-0.5357460379600525,0.0251036938279867,0.0804510414600372,0.0,0.0,-0.9550902247428894,0.3319182395935058
-0.0110574718564748,1.193158745765686,0.0270293448120355,-0.5458815693855286,0.0292470287531614,0.0828737467527389,0.0,0.0,-0.7958383560180664,0.4365737438201904
-0.0106629375368356,1.1806503534317017,0.0351472236216068,-0.556017279624939,0.0335094667971134,0.0852561146020889,0.0,0.0,-0.8982049822807312,0.291898250579834
-0.0101863862946629,1.1679143905639648,0.0432318672537803,-0.5661531686782837,0.037890113890171,0.087620623409748,0.0,0.0,-0.8940726518630981,0.3411047458648681
-0.0096282009035348,1.1549506187438965,0.051278717815876,-0.5762892365455627,0.04238773137331,0.0899603962898254,0.0,0.0,-0.7341793775558472,0.6742401123046875
-0.008947754278779,1.1417438983917236,0.064404584467411,-0.5870762467384338,0.045984111726284,0.0719274431467056,0.0,0.0,-0.9528256058692932,0.4303866624832153
-0.0081864353269338,1.1283093690872192,0.0723747983574867,-0.5972095131874084,0.0496960133314132,0.0742379575967788,0.0,0.0,-0.8077147603034973,0.2812204360961914
-0.0073448182083666,1.1146471500396729,0.0802930071949958,-0.6073428392410278,0.0535226128995418,0.0765318796038627,0.0,0.0,-0.8082522749900818,-0.1830165386199951
-0.0064233778975903,1.100757122039795,0.0881538838148117,-0.6174762845039368,0.0574629977345466,0.0788078382611274,0.0,0.0,-0.9128248691558838,-0.4063984155654907
-0.0054228780791163,1.086639642715454,0.0959518328309059,-0.6276097893714905,0.0615162067115306,0.0810640156269073,0.0,0.0,-0.9527655839920044,-0.4324742555618286
-0.0043439865112304,1.0722944736480713,0.1036809831857681,-0.637743353843689,0.0656811520457267,0.0832989588379859,0.0,0.0,-0.9097550511360168,-0.3606919050216675
-0.0031874657142907,1.057721734046936,0.1113351806998252,-0.6478770971298218,0.0699566751718521,0.0855106264352798,0.0,0.0,-0.617932140827179,-0.3999080657958984
-0.0019540786743164,1.0429213047027588,0.1189079284667968,-0.6580110192298889,0.0743415355682373,0.0876970216631889,0.0,0.0,-0.935917317867279,-0.8453763127326965
-0.0007182121044024,1.0278774499893188,0.117172934114933,-0.6689450740814209,0.08069808781147,0.1271308064460754,0.0,0.0,-0.4004803895950317,-0.5127439498901367
0.0005532264476642,1.012602686882019,0.1196187585592269,-0.6792998909950256,0.088154524564743,0.149128645658493,0.0,0.0,-0.7678168416023254,0.0259548425674438
0.0018985748756676,0.9971010088920592,0.1269050985574722,-0.6894369721412659,0.0957158356904983,0.1512264013290405,0.0,0.0,0.112827181816101,-0.4443742632865906
0.0032697678543627,0.9818275570869446,0.1294734477996826,-0.6793299317359924,0.1032985597848892,0.1516544967889785,0.0,0.0,-0.6130485534667969,0.7525837421417236
0.004775047302246,0.9663423895835876,0.1443935185670852,-0.6886650323867798,0.1093848198652267,0.121725395321846,0.0,0.0,-0.7184134125709534,0.1627624034881591
0.0063505172729492,0.9506298303604126,0.1513210237026214,-0.6988007426261902,0.1155705079436302,0.1237137541174888,0.0,0.0,-0.7866042256355286,-0.4359651803970337
0.0079947467893362,0.9346900582313538,0.1581110060214996,-0.7089365720748901,0.1218535080552101,0.1256600320339203,0.0,0.0,-0.7512720227241516,0.685518741607666
0.0097502712160348,0.9185368418693542,0.1702665090560913,-0.7183637619018555,0.1271031200885772,0.1049923673272132,0.0,0.0,-0.8816573023796082,-0.318283200263977
0.0115714073181152,0.9021560549736024,0.1767516136169433,-0.7284986972808838,0.1324453800916671,0.1068453639745712,0.0,0.0,-0.6899700164794922,-0.3043737411499023
0.0134566305205225,0.8855479955673218,0.183068573474884,-0.7386338114738464,0.1378777176141739,0.1086468324065208,0.0,0.0,-0.8235727548599243,0.0764015913009643
0.0154041294008493,0.8687124252319336,0.1892062723636627,-0.7487689852714539,0.1433973759412765,0.1103933081030845,0.0,0.0,-0.8413047194480896,0.8513761758804321
0.0174749381840229,0.8516528606414795,0.2030520886182785,-0.7585973739624023,0.1474193185567855,0.0804392844438552,0.0,0.0,-0.8779298663139343,-0.4841654896736145
0.0196040160953998,0.834365725517273,0.2087957859039306,-0.768731415271759,0.1515225619077682,0.0820650160312652,0.0,0.0,-0.937125325202942,-0.2471837997436523
0.0217891689389944,0.8168509602546692,0.2143241614103317,-0.7788655757904053,0.1557037830352783,0.0836246162652969,0.0,0.0,-0.8959503173828125,-0.4368330240249634
0.0240280143916606,0.799108624458313,0.2196243554353714,-0.7889997363090515,0.1599594950675964,0.0851141735911369,0.0,0.0,-0.931829035282135,-0.6150720715522766
0.0262589454650878,0.7811299562454224,0.2172672748565673,-0.7996871471405029,0.165785402059555,0.1165180653333664,0.0,0.0,-0.8372268080711365,0.6026871204376221
0.0285840034484863,0.7629335522651672,0.2277869284152984,-0.8092634081840515,0.1705144941806793,0.0945817828178405,0.0,0.0,-0.8160466551780701,-0.1254737973213195
0.0309550277888774,0.7445096969604492,0.2323228865861892,-0.8193978667259216,0.175306349992752,0.095837190747261,0.0,0.0,-0.8318752646446228,-0.7974165678024292
0.0333005897700786,0.7258455157279968,0.2279719561338424,-0.8303082585334778,0.1819045692682266,0.1319643408060073,0.0,0.0,-0.8115812540054321,-0.0024666190147399
0.0356862060725688,0.7069543600082397,0.2319305688142776,-0.8404443860054016,0.1885567158460617,0.133042961359024,0.0,0.0,-0.373106837272644,0.7524456977844238
0.0381664261221885,0.6878591775894165,0.2428735494613647,-0.8493384718894958,0.19373519718647,0.1035695225000381,0.0,0.0,-0.14230877161026,-0.3226840496063232
0.0406803116202354,0.6685365438461304,0.2461994439363479,-0.8594730496406555,0.1989579796791076,0.1044555902481079,0.0,0.0,0.6385239362716675,-0.3504009842872619
0.0430392250418663,0.6496455073356628,0.2311000823974609,-0.8402577638626099,0.2037815749645233,0.0964718908071518,0.0,0.0,0.86965012550354,-0.1493548154830932
0.045346450060606,0.631883978843689,0.2254227697849273,-0.7901394963264465,0.2091311961412429,0.1069920510053634,0.0,0.0,-0.2967040538787842,0.839766263961792
0.0477560050785541,0.6139236092567444,0.2376855313777923,-0.7987067103385925,0.2124306559562683,0.0659892931580543,0.0,0.0,-0.5259912014007568,-0.0948308706283569
0.0501848235726356,0.5957354307174683,0.2395935803651809,-0.8088396787643433,0.2157529443502426,0.0664454251527786,0.0,0.0,0.5092761516571045,-0.5752816200256348
0.0523567199707031,0.5783374905586243,0.2129176408052444,-0.7738726139068604,0.2200708091259002,0.086356870830059,0.0,0.0,0.8015172481536865,0.7994515895843506
0.0545741096138954,0.5613368153572083,0.218939334154129,-0.7560083270072937,0.2229167073965072,0.0569180026650428,0.0,0.0,0.7813215255737305,0.2804639339447021
0.0565264709293842,0.5451787114143372,0.1929069757461547,-0.7184883952140808,0.2252675592899322,0.0470173880457878,0.0,0.0,0.7562084197998047,0.8071293830871582
0.0585622787475585,0.5296643376350403,0.2026028335094452,-0.6896822452545166,0.2262666672468185,0.0199818015098571,0.0,0.0,0.5563712120056152,-0.3107985854148865
0.0604894645512104,0.514773428440094,0.1916297376155853,-0.6619837880134583,0.2273613363504409,0.0218933150172233,0.0,0.0,0.1170560121536254,0.0365054607391357
0.0623555183410644,0.5000523924827576,0.1855143755674362,-0.6544359922409058,0.2284672260284423,0.0221177600324153,0.0,0.0,0.1942009925842285,0.8398854732513428
0.0640794783830642,0.4857155084609985,0.1730664074420929,-0.6370934247970581,0.2277945280075073,-0.0134538877755403,0.0,0.0,0.7243754863739014,0.5794744491577148
0.0656551346182823,0.4724860191345215,0.1593519151210785,-0.5877024531364441,0.2259849607944488,-0.036191739141941,0.0,0.0,0.5519912242889404,0.7384809255599976
0.067292496562004,0.4594697952270508,0.1668659895658493,-0.5780240297317505,0.2228165417909622,-0.0633683800697326,0.0,0.0,0.500981330871582,-0.0636532306671142
0.0687604919075965,0.4473682940006256,0.1498520672321319,-0.5373837351799011,0.2197240740060806,-0.0618490688502788,0.0,0.0,0.4002858400344848,0.0359174013137817
0.0700369849801063,0.4356001913547516,0.1311203390359878,-0.5225164294242859,0.2162190824747085,-0.0700997561216354,0.0,0.0,0.828364372253418,0.6832754611968994
0.071067526936531,0.4246868193149566,0.1081932038068771,-0.4842933714389801,0.2110268473625183,-0.1038444489240646,0.0,0.0,0.8287986516952515,-0.0335775017738342
0.0719528198242187,0.4145668745040893,0.0935755744576454,-0.4490648806095123,0.2059371620416641,-0.1017941385507583,0.0,0.0,0.6969010829925537,0.0837364196777343
0.0724931731820106,0.4054522514343261,0.0597482919692993,-0.4043107330799103,0.2001749128103256,-0.1152450293302536,0.0,0.0,-0.7366294264793396,0.8942004442214966
0.0730690956115722,0.3961337506771087,0.065392717719078,-0.4131231606006622,0.1923308819532394,-0.156880185008049,0.0,0.0,0.2362561225891113,-0.1792314052581787
0.0735187530517578,0.3870114386081695,0.052955973893404,-0.4044152200222015,0.1842993795871734,-0.1606302857398986,0.0,0.0,-0.1084866523742675,0.6219003200531006
0.0739737525582313,0.3776706457138061,0.0549602732062339,-0.4139986932277679,0.1748079359531402,-0.1898287683725357,0.0,0.0,-0.1372696757316589,-0.5139436721801758
0.0743347182869911,0.368086576461792,0.0445600822567939,-0.4249839782714844,0.1663236171007156,-0.1696865558624267,0.0,0.0,-0.5864747762680054,0.4121782779693603
0.0746397972106933,0.3582753241062164,0.0390679650008678,-0.4351204931735992,0.1577545404434204,-0.1713812798261642,0.0,0.0,-0.4400792121887207,-0.467714250087738
0.0748858451843261,0.3482367992401123,0.0332677140831947,-0.445257157087326,0.1490965187549591,-0.1731602400541305,0.0,0.0,-0.085435926914215,-0.6812666654586792
0.0750059112906456,0.3379636406898498,0.0191696472465991,-0.4558877944946289,0.141958400607109,-0.1427622735500335,0.0,0.0,-0.4869727492332458,-0.6640152335166931
0.0749988555908203,0.3274424374103546,0.004930724389851,-0.467079758644104,0.1363395899534225,-0.11237583309412,0.0,0.0,-0.6894858479499817,-0.3821751475334167
0.0749243721365928,0.3166935741901397,-0.0017062379047274,-0.4772129952907562,0.130620464682579,-0.1143823266029357,0.0,0.0,-0.5221382975578308,-0.3078749775886535
0.074779987335205,0.3057170510292053,-0.0085922703146934,-0.4873463213443756,0.1247976645827293,-0.116455927491188,0.0,0.0,-0.199654996395111,-0.3923917412757873
0.0745631232857704,0.2945127785205841,-0.0157129000872373,-0.4974797964096069,0.1188680529594421,-0.1185924857854843,0.0,0.0,0.0471750497817993,0.2540352344512939
0.0742116943001747,0.2837395966053009,-0.0290260966867208,-0.4783309400081634,0.1127935573458671,-0.1214899867773056,0.0,0.0,0.5882799625396729,-0.1280568242073059
0.0738040953874588,0.273586630821228,-0.0349280759692192,-0.4508142471313476,0.1069942340254783,-0.1159861236810684,0.0,0.0,0.0819864273071289,0.0886297225952148
0.0733093246817588,0.2635427713394165,-0.043591484427452,-0.4459828734397888,0.1011516451835632,-0.1168519482016563,0.0,0.0,-0.2440295219421386,0.2768905162811279
0.0727340728044509,0.2532712817192077,-0.0515134148299694,-0.4561164677143097,0.0951915830373764,-0.1192013770341873,0.0,0.0,0.0948656797409057,0.6131433248519897
0.0721978172659874,0.243359699845314,-0.0464052371680736,-0.4400739073753357,0.0880420878529548,-0.1429899483919143,0.0,0.0,0.2517611980438232,-0.7725411057472229
0.0716104507446289,0.2336688339710235,-0.0530886128544807,-0.4303829371929168,0.0824442952871322,-0.1119560226798057,0.0,0.0,0.1564037799835205,0.6231024265289307
0.0709390640258789,0.2245465368032455,-0.0601033493876457,-0.4050623774528503,0.0754734650254249,-0.1394164711236953,0.0,0.0,-0.1601304411888122,-0.7136383056640625
0.0701273903250694,0.2151960730552673,-0.0753614231944084,-0.4152953326702118,0.069723904132843,-0.1149911284446716,0.0,0.0,0.5522600412368774,-0.3286362886428833
0.0693008452653884,0.2065679430961609,-0.0772538483142852,-0.3832296431064605,0.0643885433673858,-0.1067073792219162,0.0,0.0,0.1836234331130981,0.3460735082626343
0.0684424415230751,0.1980691254138946,-0.0806554928421974,-0.3775088489055633,0.0592588186264038,-0.1025943383574485,0.0,0.0,0.5629005432128906,-0.0886259078979492
0.0674158111214637,0.190059557557106,-0.0971143245697021,-0.3557699620723724,0.0537691675126552,-0.1097930446267128,0.0,0.0,0.40755295753479,0.371712327003479
0.0663305297493934,0.1829291731119156,-0.1031766682863235,-0.3167242705821991,0.0484817996621131,-0.1057474762201309,0.0,0.0,0.103531002998352,-0.438231348991394
0.0651192665100097,0.1761395335197448,-0.1155696287751197,-0.3015922307968139,0.0429899208247661,-0.1098373308777809,0.0,0.0,-0.1096608638763427,-0.0776432752609252
0.0638151168823242,0.1691222339868545,-0.1247236877679824,-0.3117260038852691,0.0373645275831222,-0.1125077828764915,0.0,0.0,-0.508420467376709,-0.0105092525482177
0.0624173171818256,0.1618774086236953,-0.1339560449123382,-0.3218599259853363,0.0316045992076396,-0.1151984110474586,0.0,0.0,-0.2278350591659546,0.0015883445739746
0.060925006866455,0.1544049829244613,-0.1432605683803558,-0.3319940865039825,0.0257092118263244,-0.1179076433181762,0.0,0.0,-0.7465893030166626,0.6989561319351196
0.0593852028250694,0.1467119753360748,-0.1466549634933471,-0.3418028950691223,0.0184778273105621,-0.1446278542280197,0.0,0.0,-0.6271112561225891,0.5709302425384521
0.0577929504215717,0.1387910991907119,-0.1506507694721222,-0.3519563376903534,0.0100209061056375,-0.1691381782293319,0.0,0.0,-0.7699640393257141,-0.1822234988212585
0.0561046600341796,0.1306432634592056,-0.1601394116878509,-0.3620939552783966,0.0014262014301493,-0.1718941926956176,0.0,0.0,-0.5660762190818787,-0.5660797357559204
0.0542633049190044,0.1222668290138244,-0.1767051368951797,-0.3722952604293823,-0.0059000719338655,-0.1465250700712204,0.0,0.0,-0.198316216468811,-0.4079960584640503
0.0523247718811035,0.1136631593108177,-0.1862934529781341,-0.3824315369129181,-0.0133654251694679,-0.1493071615695953,0.0,0.0,0.6664556264877319,-0.0312615036964416
0.0503553375601768,0.1053893640637397,-0.1895295232534408,-0.3678112924098968,-0.0206842366605997,-0.1463763564825058,0.0,0.0,0.564155101776123,-0.0167667865753173
0.0484399795532226,0.097967155277729,-0.1846190989017486,-0.3299856185913086,-0.0275080315768718,-0.1364762634038925,0.0,0.0,0.3783367872238159,0.3039523363113403
0.0464248657226562,0.0912892445921897,-0.1943641752004623,-0.2969433665275574,-0.0345608666539192,-0.1410568654537201,0.0,0.0,-0.1501640081405639,0.3022009134292602
0.0443110466003418,0.0843841657042503,-0.2041073739528656,-0.3070797026157379,-0.0417548529803752,-0.1438798010349273,0.0,0.0,0.686305046081543,0.1974011659622192
0.0422005653381347,0.0781335458159446,-0.2039943188428878,-0.2780172228813171,-0.0487302243709564,-0.1395072638988495,0.0,0.0,0.2962329387664795,0.6131616830825806
0.040064238011837,0.0726186335086822,-0.2051843106746673,-0.2454035580158233,-0.0570781379938125,-0.1669584363698959,0.0,0.0,-0.2753151059150696,-0.1541738510131836
0.037828255444765,0.0668769180774688,-0.2150128185749054,-0.2555417716503143,-0.0655683353543281,-0.1698042452335357,0.0,0.0,0.3403418064117431,0.3337799310684204
0.0355819687247276,0.0614585019648075,-0.2162093669176101,-0.2412087172269821,-0.0738988146185875,-0.1666096299886703,0.0,0.0,0.2684381008148193,-0.3597191572189331
0.0331769958138465,0.0565337501466274,-0.2315027713775634,-0.2193456292152404,-0.0828066244721412,-0.1781565845012664,0.0,0.0,0.0194991827011108,0.6297171115875244
0.0306580550968647,0.0518607012927532,-0.2413970232009887,-0.2083092629909515,-0.0932116881012916,-0.2081013470888137,0.0,0.0,0.098729133605957,0.5805802345275879
0.0281033515930175,0.0475167371332645,-0.2436433285474777,-0.1938416063785553,-0.1049424111843109,-0.2346143275499344,0.0,0.0,-0.2057646512985229,-0.3879734873771667
0.0254480354487895,0.0429468974471092,-0.2535702884197235,-0.2039860785007476,-0.1168168261647224,-0.2374885082244873,0.0,0.0,0.1516535282135009,0.1348378658294677
0.0228116996586322,0.0385087355971336,-0.2519713640213012,-0.1982081681489944,-0.128414124250412,-0.2319462746381759,0.0,0.0,0.6797089576721191,-0.062251329421997
0.0202618595212698,0.0348596423864364,-0.243652731180191,-0.1631949692964553,-0.139697328209877,-0.2256641834974289,0.0,0.0,0.2691981792449951,-0.4465277791023254
0.0177165977656841,0.0319010578095912,-0.2431697398424148,-0.1326004713773727,-0.1510359942913055,-0.2267733812332153,0.0,0.0,-0.5592846274375916,-0.1475633382797241
0.0150702474638819,0.0287164542824029,-0.2531439960002899,-0.1427446901798248,-0.1625193506479263,-0.2296671420335769,0.0,0.0,-0.2574331760406494,0.0695357322692871
