x_pos,y_pos,x_vel,y_vel,angle,ang_vel,leg_1,leg_2,main_booster,lat_booster
-0.0015184402000159,1.4031614065170288,-0.1540619134902954,-0.3448352515697479,0.0019911031704396,0.039293210953474,0.0,0.0,-0.5099290439225732,0.8388825542268195
-0.0029629706405103,1.394958734512329,-0.1448141932487487,-0.3645620346069336,0.0023558838292956,0.0072967959567904,0.0,0.0,0.3534201807117008,-0.779357689326742
-0.0043465616181492,1.386783480644226,-0.1407161504030227,-0.3633513152599334,0.0046743690036237,0.046374388039112,0.0,0.0,0.0143761214899529,0.7555555061457986
-0.0057601928710937,1.378602385520935,-0.1423639804124832,-0.3636054992675781,0.0056712119840085,0.0199387408792972,0.0,0.0,0.2222337878801752,-0.7800110985101579
-0.0071348189376294,1.3706847429275513,-0.1403987407684326,-0.351911336183548,0.0085730385035276,0.0580418296158313,0.0,0.0,-0.8803512470520483,-0.7941654588574338
-0.0085659977048635,1.362302303314209,-0.1475100964307785,-0.372586190700531,0.012923801317811,0.0870230421423912,0.0,0.0,-0.193139047786315,0.8052302228942454
-0.0099469181150197,1.3534579277038574,-0.1411698758602142,-0.3931033015251159,0.0159780513495206,0.0610905215144157,0.0,0.0,-0.9590435993057164,0.8519219962666673
-0.0112570766359567,1.344155192375183,-0.1322308033704757,-0.4134668111801147,0.0171693190932273,0.0238274615257978,0.0,0.0,-0.4559024176925101,0.9979333904441756
-0.0125059131532907,1.334402322769165,-0.1243681907653808,-0.433459460735321,0.016666866838932,-0.0100500443950295,0.0,0.0,0.8606566027792832,0.9763485772352704
-0.0137100219726562,1.3254212141036987,-0.1181973069906234,-0.3991373777389526,0.0144743388518691,-0.0438549071550369,0.0,0.0,0.6123584671578501,0.6594726007667863
-0.0147987361997365,1.316850662231445,-0.1058031544089317,-0.3808894455432892,0.0114360880106687,-0.060770571231842,0.0,0.0,-0.2227506102566048,-0.8668540711772964
-0.0159696582704782,1.307814121246338,-0.1158054247498512,-0.4016143381595611,0.0101653020828962,-0.0254177041351795,0.0,0.0,0.4025001737336287,0.8774230830584069
-0.0169758796691894,1.2992126941680908,-0.0979723557829856,-0.3822697699069977,0.0075535434298217,-0.0522398352622985,0.0,0.0,0.1662365432988564,0.6270794560524758
-0.0179057121276855,1.2905194759368896,-0.0894397422671318,-0.3863511383533478,0.0040416051633656,-0.0702456161379814,0.0,0.0,-0.4770181010791907,0.8999356818077697
-0.0187755580991506,1.2813732624053955,-0.0814752578735351,-0.4064928889274597,-0.0014162164879962,-0.1091662645339965,0.0,0.0,-0.5410814767133636,-0.8606525285699724
-0.0197304729372262,1.2717541456222534,-0.0916434600949287,-0.4275211989879608,-0.0052175000309944,-0.0760325118899345,0.0,0.0,0.8915081582128106,-0.6186791264525897
-0.0205912590026855,1.2631473541259766,-0.0841967239975929,-0.3825306892395019,-0.0070715262554585,-0.0370840989053249,0.0,0.0,0.4586919150045276,0.8821206832324335
-0.021270465105772,1.2545636892318726,-0.0647204220294952,-0.3815142810344696,-0.0102399550378322,-0.0633742809295654,0.0,0.0,0.7132229017058722,0.9610071460559207
-0.0217863079160451,1.2467718124389648,-0.0468943268060684,-0.346343845129013,-0.0148879345506429,-0.0929679870605468,0.0,0.0,0.0577130768597151,0.7068409141738841
-0.0223358161747455,1.2390602827072144,-0.0490335598587989,-0.3428110778331756,-0.0207276828587055,-0.1168053522706031,0.0,0.0,-0.3592662283957304,-0.6164055066695152
-0.0229603759944438,1.2308913469314575,-0.0578040368854999,-0.3631314039230346,-0.025334607809782,-0.0921467617154121,0.0,0.0,0.5585553771040404,-0.9839583570257772
-0.0236780159175395,1.2228821516036987,-0.0693603605031967,-0.3560010194778442,-0.027706166729331,-0.0474353060126304,0.0,0.0,-0.4951074325804596,0.6839388325741682
-0.0243693348020315,1.2144062519073486,-0.0653378441929817,-0.3767853379249573,-0.0314619280397892,-0.0751221626996994,0.0,0.0,0.9484275541180522,-0.6108676705091374
-0.0250501632690429,1.2060104608535769,-0.0660277009010315,-0.3731918036937713,-0.0334908179938793,-0.040581539273262,0.0,0.0,-0.6374117843287499,-0.6163666822791478
-0.0258328430354595,1.1971559524536133,-0.0780196264386177,-0.3935365378856659,-0.0337343402206897,-0.004870917648077,0.0,0.0,-0.9054466761514834,-0.9725851010989636
-0.0267540924251079,1.1878268718719482,-0.0945838987827301,-0.4145732820034027,-0.0313021801412105,0.0486430712044239,0.0,0.0,-0.3369439031017844,0.8143510611268018
-0.0276537891477346,1.1780366897583008,-0.0910708829760551,-0.4350999891757965,-0.030226681381464,0.0215103439986705,0.0,0.0,-0.2512155221535008,-0.717492232511936
-0.0286669731140136,1.167793869972229,-0.1044361144304275,-0.4551768004894256,-0.0271400809288024,0.0617321357131004,0.0,0.0,-0.4289026482008367,0.7291475568896462
-0.0296798702329397,1.1570920944213867,-0.1035458892583847,-0.4755949974060058,-0.0249147396534681,0.0445066280663013,0.0,0.0,0.7320216838225031,0.6471789637453065
-0.0306985862553119,1.1466901302337646,-0.1030317991971969,-0.4622879028320312,-0.0237591341137886,0.0231119599193334,0.0,0.0,0.6355430112728533,-0.8003293174981324
-0.0317863449454307,1.137092351913452,-0.11187794059515,-0.4265158772468567,-0.0206998810172081,0.061185210943222,0.0,0.0,-0.0640119545889785,-0.7935094466640019
-0.0329920761287212,1.1270294189453125,-0.1257570087909698,-0.4471822381019592,-0.0155835496261715,0.1023266687989234,0.0,0.0,0.1108813817474905,-0.9465048359419168
-0.0343774780631065,1.1173243522644043,-0.1459100544452667,-0.4312768876552582,-0.008307471871376,0.1455211341381073,0.0,0.0,0.6054313076376816,0.6834907952429173
-0.0358215346932411,1.107676386833191,-0.1505282819271087,-0.4287766814231872,-0.0022574444301426,0.1210004538297653,0.0,0.0,-0.5815145817682152,-0.7172536522833479
-0.0373689644038677,1.0975675582885742,-0.1625663340091705,-0.4492858648300171,0.0054565099999308,0.1542792171239853,0.0,0.0,0.8241721642201643,0.6081366445170836
-0.0388999953866004,1.08825421333313,-0.1600270569324493,-0.4139691889286041,0.012293673120439,0.1367432326078415,0.0,0.0,0.4131329520395539,-0.7525020148619621
-0.0405692085623741,1.079057216644287,-0.1756041646003723,-0.4088484942913055,0.0208651218563318,0.1714291125535965,0.0,0.0,-0.4218029631611371,0.7515264754212728
-0.0422243103384971,1.0694059133529663,-0.172866553068161,-0.4290706515312195,0.0281233135610818,0.1451640129089355,0.0,0.0,0.7330508846269654,0.6513272894026857
-0.0439467430114746,1.0606248378753662,-0.1784545481204986,-0.3903963267803192,0.0342551469802856,0.1226367205381393,0.0,0.0,-0.2952587072149082,-0.6609167073819536
-0.0457683578133583,1.051379680633545,-0.1899184137582779,-0.411088764667511,0.0419158861041069,0.1532150357961654,0.0,0.0,0.801723373731815,-0.7114011491739012
-0.0478576645255088,1.0429396629333496,-0.2181032598018646,-0.3753953576087951,0.0509790293872356,0.1812624931335449,0.0,0.0,-0.9474115967750548,0.9593616724014282
-0.0499049201607704,1.0340423583984375,-0.2118459194898605,-0.395692765712738,0.0580177418887615,0.140774205327034,0.0,0.0,-0.8990417718887329,0.938977837562561
-0.0519149787724018,1.0246798992156982,-0.2062037736177444,-0.4163233041763305,0.0631634220480918,0.102913774549961,0.0,0.0,-0.9347284436225892,0.9910778999328612
-0.0538828857243061,1.0148613452911377,-0.1999505907297134,-0.4365175366401672,0.0662861242890358,0.0624541863799095,0.0,0.0,-0.808816134929657,0.9939113855361938
-0.0558260902762413,1.004575490951538,-0.1958958953619003,-0.457219123840332,0.0678406953811645,0.0310916118323802,0.0,0.0,-0.971266746520996,0.9687515497207642
-0.0577353462576866,0.993825376033783,-0.1906807571649551,-0.4777739644050598,0.0675954595208168,-0.0049049709923565,0.0,0.0,-0.9692333936691284,0.7762101888656616
-0.0596254356205463,0.9826149344444276,-0.1873253583908081,-0.498164564371109,0.0659222602844238,-0.0334636121988296,0.0,0.0,-0.9956411719322203,0.6514301300048828
-0.0615223869681358,0.9709529280662536,-0.1872075647115707,-0.5182079076766968,0.0634647533297538,-0.0491498000919818,0.0,0.0,-0.9475052952766418,0.9665369987487792
-0.0634080916643142,0.9588422179222108,-0.1848411858081817,-0.5380979776382446,0.0597764886915683,-0.0737652480602264,0.0,0.0,-0.9948606491088868,0.9605820178985596
-0.0652680397033691,0.946272909641266,-0.1806690990924835,-0.5584398508071899,0.0545145645737648,-0.1052385941147804,0.0,0.0,-0.9994315505027772,0.7021104097366333
-0.0671063438057899,0.933246374130249,-0.1770294606685638,-0.5787211060523987,0.0477920249104499,-0.1344508677721023,0.0,0.0,-0.9842275381088256,0.1719764471054077
-0.0689912810921669,0.9197575449943542,-0.181960791349411,-0.5993090271949768,0.0413378551602363,-0.1290831714868545,0.0,0.0,-0.9963936805725098,0.6192231178283691
-0.0708642974495887,0.905806601047516,-0.1795700639486313,-0.6198493838310242,0.0336958058178424,-0.1528409123420715,0.0,0.0,-0.9874546527862548,-0.5760356783866882
-0.0728282928466796,0.8913963437080383,-0.1900870203971862,-0.6403297781944275,0.0274585988372564,-0.1247438415884971,0.0,0.0,-0.9940302968025208,-0.1760737895965576
-0.0748373046517372,0.8765234351158142,-0.1948437094688415,-0.6609167456626892,0.0214857663959264,-0.1194567531347274,0.0,0.0,-0.9501577615737916,-0.0126352906227111
-0.0768904685974121,0.8611881136894226,-0.1995335817337036,-0.6815032362937927,0.0157756935805082,-0.1142016276717186,0.0,0.0,-0.8302331566810608,0.4136383533477783
-0.078987218439579,0.8453899621963501,-0.2041524350643158,-0.7020893096923828,0.0103266285732388,-0.108981192111969,0.0,0.0,-0.9383585453033448,0.294903039932251
-0.0811266899108886,0.829129159450531,-0.2086962163448333,-0.722675085067749,0.0051367129199206,-0.1037984117865562,0.0,0.0,-0.8562235236167908,0.1382344961166381
-0.0833083167672157,0.8124056458473206,-0.2131609171628952,-0.7432605028152466,0.0002038903185166,-0.0986564084887504,0.0,0.0,-0.9234996438026428,0.7277108430862427
-0.0854808837175369,0.7952256202697754,-0.2112304717302322,-0.7635624408721924,-0.0057381689548492,-0.1188412681221962,0.0,0.0,-0.9465243220329284,0.85888671875
-0.0876199752092361,0.7775751352310181,-0.2062749415636062,-0.7845151424407959,-0.0132810557261109,-0.1508575230836868,0.0,0.0,-0.4268301129341125,0.4366582632064819
-0.0897985473275184,0.7594621181488037,-0.2104794532060623,-0.8051027059555054,-0.0205740109086036,-0.1458589732646942,0.0,0.0,-0.8831357359886169,0.1969392299652099
-0.092015840113163,0.7408866286277771,-0.2145899534225464,-0.8256898522377014,-0.027619844302535,-0.140916422009468,0.0,0.0,0.1428030729293823,0.960260272026062
-0.0941637977957725,0.7224821448326111,-0.2059703767299652,-0.8181692361831665,-0.0363307334482669,-0.1742180585861206,0.0,0.0,-0.239850640296936,0.4186136722564697
-0.0963483825325965,0.7036152482032776,-0.2098829001188278,-0.8387578129768372,-0.0448007844388484,-0.1694009006023407,0.0,0.0,0.8918542861938477,0.6882936954498291
-0.0986366271972656,0.6853075623512268,-0.2187304943799972,-0.814014196395874,-0.0547771900892257,-0.1995283812284469,0.0,0.0,0.4134824275970459,-0.5907521843910217
-0.1009458526968956,0.6676433086395264,-0.2222965508699417,-0.7854172587394714,-0.0633000805974006,-0.1704579591751098,0.0,0.0,-0.4714699387550354,0.280118465423584
-0.1032885536551475,0.649516761302948,-0.2258888483047485,-0.8060051798820496,-0.071593552827835,-0.1658693850040435,0.0,0.0,0.9495517015457152,0.3380521535873413
-0.1055598258972168,0.6324312686920166,-0.2191272526979446,-0.7597523331642151,-0.0795145183801651,-0.1584194600582122,0.0,0.0,-0.8750807046890259,0.9465017318725586
-0.1077996268868446,0.6148719191551208,-0.21460922062397,-0.7809420824050903,-0.0888071358203888,-0.1858522444963455,0.0,0.0,0.2632591724395752,0.827080249786377
-0.1100382804870605,0.5976294875144958,-0.2129765450954437,-0.7670136094093323,-0.0996051430702209,-0.2159601747989654,0.0,0.0,-0.1341537833213806,0.3343815803527832
-0.1123060211539268,0.5799252390861511,-0.2161067426204681,-0.787604570388794,-0.1101934388279914,-0.2117657214403152,0.0,0.0,0.9147124290466307,0.0249638557434082
-0.1146424263715744,0.5632428526878357,-0.2224932014942169,-0.7422974109649658,-0.1212685406208038,-0.2215021103620529,0.0,0.0,-0.4215885996818542,-0.4382572174072265
-0.1170055419206619,0.5460987091064453,-0.2253806591033935,-0.7628886699676514,-0.1321461051702499,-0.2175512313842773,0.0,0.0,-0.7668106555938721,0.5837469100952148
-0.1193513870239257,0.5284795761108398,-0.2227595299482345,-0.7841609120368958,-0.143935889005661,-0.2357956618070602,0.0,0.0,0.8058817386627197,0.1077958345413208
-0.1215970963239669,0.5109103322029114,-0.2132899314165115,-0.7819880843162537,-0.1551982164382934,-0.2252465188503265,0.0,0.0,0.9562702178955078,-0.5469714999198914
-0.1238864883780479,0.4934884905815124,-0.2188176661729812,-0.7753903269767761,-0.1653087139129638,-0.2022103369235992,0.0,0.0,0.9310041666030884,-0.5664107799530029
-0.1260991096496582,0.4769946336746216,-0.2124355584383011,-0.7340647578239441,-0.1741436272859573,-0.1766978353261947,0.0,0.0,0.3663651943206787,0.2835205793380737
-0.128150463104248,0.4610177278518677,-0.1967905014753341,-0.7110833525657654,-0.1825131922960281,-0.1673908680677414,0.0,0.0,0.7813882827758789,-0.5941112637519836
-0.1302345246076584,0.4459322094917297,-0.2010794579982757,-0.6713908314704895,-0.1898748129606247,-0.1472325921058654,0.0,0.0,-0.3737561702728271,-0.043725848197937
-0.1323371827602386,0.4303838312625885,-0.2030871212482452,-0.6919761896133423,-0.1970959156751632,-0.1444219797849655,0.0,0.0,-0.2623633742332458,-0.0643498301506042
-0.1344573050737381,0.4143726825714111,-0.204969048500061,-0.712561309337616,-0.2041864991188049,-0.1418119817972183,0.0,0.0,0.5242290496826172,-0.1082384586334228
-0.1365775167942047,0.3987071514129638,-0.2046832740306854,-0.6972805261611938,-0.2115895748138427,-0.148061141371727,0.0,0.0,0.691901445388794,0.223981499671936
-0.1386220008134842,0.3836145401000976,-0.1969679892063141,-0.671873927116394,-0.2191432565450668,-0.1510738581418991,0.0,0.0,0.0294694900512695,-0.2444914579391479
-0.1405929625034332,0.3686996102333069,-0.1896984726190567,-0.6640034914016724,-0.2266336679458618,-0.149808332324028,0.0,0.0,0.4580638408660888,-0.6428070068359375
-0.1424287855625152,0.3540612459182739,-0.1777208149433136,-0.6515102982521057,-0.2325742542743683,-0.1188115924596786,0.0,0.0,0.7611031532287598,0.096854567527771
-0.144167810678482,0.3394837081432342,-0.1682367920875549,-0.6487945318222046,-0.2383239269256591,-0.1149935126304626,0.0,0.0,0.8814597129821777,-0.7880310416221619
-0.1457588225603103,0.3250872492790222,-0.1553041487932205,-0.6404664516448975,-0.2421828359365463,-0.0771782323718071,0.0,0.0,0.98915433883667,-0.8487155437469482
-0.1470720320940017,0.3111829757690429,-0.1296488940715789,-0.6182428002357483,-0.2438786178827285,-0.0339154973626136,0.0,0.0,0.9978675842285156,-0.527240514755249
-0.1481469124555587,0.2974563539028168,-0.107435904443264,-0.6100847125053406,-0.2439433336257934,-0.0012942898320034,0.0,0.0,0.994960069656372,-0.8270578980445862
-0.1490802764892578,0.2846190929412842,-0.0949234962463378,-0.5702811479568481,-0.242325097322464,0.0323648862540721,0.0,0.0,0.9718676805496216,-0.1720653772354126
-0.1497673988342285,0.272623747587204,-0.0704904496669769,-0.5328344702720642,-0.2405249923467636,0.0360024534165859,0.0,0.0,0.9963117837905884,-0.2850320339202881
-0.1501224488019943,0.2612858712673187,-0.0379661694169044,-0.5035072565078735,-0.2380304187536239,0.049891460686922,0.0,0.0,0.9071722030639648,-0.5819223523139954
-0.150318905711174,0.2500007748603821,-0.0235788542777299,-0.50093013048172,-0.2340390980243683,0.0798262655735015,0.0,0.0,0.8905501365661621,-0.6946420073509216
-0.1505014449357986,0.2391429096460342,-0.0233821254223585,-0.4817661046981811,-0.2288310527801513,0.1041610464453697,0.0,0.0,0.903435230255127,0.5391948223114014
-0.1503187119960785,0.2292309552431106,0.0139418896287679,-0.439862310886383,-0.2244453430175781,0.087714172899723,0.0,0.0,0.7336647510528564,-0.4120311737060547
-0.1500297486782074,0.2197379469871521,0.0247234478592872,-0.421286016702652,-0.2202236652374267,0.0844334363937377,0.0,0.0,0.7971935272216797,-0.4616918563842773
-0.1496860533952713,0.2110931426286697,0.0308825224637985,-0.3836961686611175,-0.2166905850172042,0.0706616565585136,0.0,0.0,-0.1588432788848877,-0.6925841569900513
-0.1493888795375824,0.2020041048526764,0.02510641887784,-0.4032864272594452,-0.2120359390974044,0.0930929332971572,0.0,0.0,0.542858362197876,-0.1873061060905456
-0.148993968963623,0.1934957057237625,0.0351891107857227,-0.3775407969951629,-0.2076970487833023,0.0867779329419136,0.0,0.0,-0.2395782470703125,-0.6528961658477783
-0.1486560851335525,0.1845474988222122,0.028098052367568,-0.396909236907959,-0.2019562721252441,0.1148154884576797,0.0,0.0,-0.1609807014465332,-0.6840425729751587
-0.1483733206987381,0.1751516908407211,0.0212614629417657,-0.4166499376296997,-0.1948903203010559,0.1413190215826034,0.0,0.0,0.57301926612854,0.5275981426239014
-0.1480547934770584,0.1661592870950698,0.0262991935014724,-0.3989438116550445,-0.1893062591552734,0.1116812378168106,0.0,0.0,0.6855835914611816,-0.4282313585281372
-0.1477852761745453,0.1575348675251007,0.0222192630171775,-0.3827084600925445,-0.1845553815364837,0.0950175374746322,0.0,0.0,0.5892844200134277,-0.6454774737358093
-0.1473279893398285,0.1494546979665756,0.0395895056426525,-0.3583681881427765,-0.1783949583768844,0.1232084035873413,0.0,0.0,0.2075891494750976,-0.3943755626678467
-0.146776869893074,0.1412984281778335,0.0489052981138229,-0.3617678582668304,-0.1721664071083068,0.1245706304907798,0.0,0.0,0.662699818611145,-0.29416024684906
-0.1459480226039886,0.1337770819664001,0.0761288329958915,-0.3335156440734863,-0.1654093861579895,0.1351405382156372,0.0,0.0,0.080280065536499,-0.6775391697883606
-0.1451022177934646,0.1265673786401748,0.0766405910253524,-0.3195683062076568,-0.1574634313583374,0.1589189916849136,0.0,0.0,0.3225077390670776,-0.6478671431541443
-0.1440713852643966,0.1198989003896713,0.0937638208270073,-0.29541677236557,-0.1481557041406631,0.186154693365097,0.0,0.0,-0.4771327972412109,-0.5823991298675537
-0.1430775672197342,0.1127778142690658,0.0891999751329422,-0.3155096769332886,-0.1379968523979187,0.2031767070293426,0.0,0.0,0.277758240699768,0.0233045816421508
-0.1419994384050369,0.1061345934867858,0.0978055000305175,-0.2943575084209442,-0.1280355900526046,0.1992255598306656,0.0,0.0,0.1566827297210693,-0.0765794515609741
-0.1408060044050216,0.0998420566320419,0.1093133091926574,-0.2788370549678802,-0.1180547103285789,0.1996176540851593,0.0,0.0,-0.3409419059753418,0.0070822238922119
-0.13960961997509,0.0930879712104797,0.1097643971443176,-0.2994300723075866,-0.108255386352539,0.195986658334732,0.0,0.0,0.5524863004684448,-0.379522442817688
-0.1384621560573578,0.0867572426795959,0.105598472058773,-0.2807262241840362,-0.0991736352443695,0.1816352158784866,0.0,0.0,0.108591079711914,-0.3961345553398132
-0.1373637169599533,0.0804930999875068,0.1012845635414123,-0.2778617441654205,-0.0906801745295524,0.1698690503835678,0.0,0.0,0.4241247177124023,0.6716196537017822
-0.1361864060163498,0.074487954378128,0.1107435077428817,-0.2664889097213745,-0.0837568640708923,0.1384662687778473,0.0,0.0,0.5606062412261963,0.485208511352539
-0.1349405348300933,0.0687707066535949,0.1176837533712387,-0.2537325620651245,-0.0769168958067894,0.1367993950843811,0.0,0.0,0.6183046102523804,-0.0272752046585083
-0.1335383355617523,0.0631031617522239,0.1329116076231002,-0.251532644033432,-0.069685012102127,0.14463771879673,0.0,0.0,0.4755909442901611,0.7984271049499512
-0.1319320648908615,0.0578738562762737,0.1549760699272155,-0.2321612685918808,-0.0640992224216461,0.1117159351706504,0.0,0.0,0.5051743984222412,-0.6334712505340576
-0.1303028166294098,0.0532906390726566,0.1561523377895355,-0.2034221291542053,-0.0574028342962265,0.1339278221130371,0.0,0.0,-0.233312726020813,0.008804440498352
