x_pos,y_pos,x_vel,y_vel,angle,ang_vel,leg_1,leg_2,main_booster,lat_booster
-0.0015158653259277,1.4029619693756104,-0.1542889326810836,-0.3536961376667022,0.0024174619466066,0.0477355420589447,0.0,0.0,0.6742889673507972,0.6668234547448881
-0.002915573073551,1.3950629234313965,-0.1418260037899017,-0.3510749638080597,0.0042544826865196,0.0367445051670074,0.0,0.0,-0.7517872233194185,0.8692120050733474
-0.0042236326262354,1.3864948749542236,-0.1312191188335418,-0.3808004558086395,0.0046579698100686,0.0080706924200057,0.0,0.0,-0.6365399111449663,-0.8576875163215185
-0.0056042671203613,1.3772611618041992,-0.1412017047405243,-0.4104028940200805,0.0077674789354205,0.0621960833668708,0.0,0.0,0.5655215927855608,0.9728663282309082
-0.0067662238143384,1.3682973384857178,-0.1182631850242614,-0.3984003663063049,0.0098055489361286,0.0407651588320732,0.0,0.0,-0.8115769451193908,0.8149877936857066
-0.0078411102294921,1.3586710691452026,-0.1082445979118347,-0.4278421700000763,0.0105529818683862,0.0149500146508216,0.0,0.0,0.0760832626208591,-0.5803107226487355
-0.0089735034853219,1.3489456176757812,-0.1158328056335449,-0.4322625696659088,0.0131167136132717,0.0512792654335498,0.0,0.0,-0.5805360237933681,0.6195168193813575
-0.0100364685058593,1.3385605812072754,-0.108054295182228,-0.4615671336650848,0.0148486196994781,0.0346416868269443,0.0,0.0,-0.066720748205648,0.6019243712170206
-0.0110444072633981,1.3275210857391355,-0.1020808368921279,-0.4906633496284485,0.0161174796521663,0.0253798030316829,0.0,0.0,0.2224689594985451,-0.708435860220205
-0.0121088977903127,1.316628336906433,-0.1098600402474403,-0.4841624796390533,0.0194982476532459,0.0676214918494224,0.0,0.0,0.5361735190173327,0.6450433802040032
-0.0130372047424316,1.3059067726135254,-0.0958695784211158,-0.476560115814209,0.0225106384605169,0.0602530725300312,0.0,0.0,0.2263209230869176,0.9675790706355828
-0.0138277057558298,1.295113444328308,-0.0809104219079017,-0.4797311425209045,0.0243466962128877,0.0367245823144912,0.0,0.0,-0.6048093094772489,-0.9865513286868084
-0.0146704670041799,1.283660888671875,-0.0884075462818145,-0.5090804696083069,0.0284374114125967,0.0818217992782592,0.0,0.0,0.931252283416098,-0.9118708621165388
-0.0154989240691065,1.2721611261367798,-0.0897194072604179,-0.5112450122833252,0.0352341532707214,0.1359471827745437,0.0,0.0,0.514740473246631,0.5159257351205626
-0.0161658283323049,1.2611476182937622,-0.0736377388238906,-0.4896695017814636,0.0421018525958061,0.1373664438724517,0.0,0.0,-0.8094119421290167,-0.758911606931049
-0.0168725959956645,1.2494604587554932,-0.0796062350273132,-0.5196967720985413,0.0509327426552772,0.1766339689493179,0.0,0.0,0.2854929809120641,0.9550830029851616
-0.0174053199589252,1.238135814666748,-0.0610821172595024,-0.5035967230796814,0.0586651489138603,0.1546621918678283,0.0,0.0,-0.4395234025646515,-0.7377798616967219
-0.0179733280092477,1.226140022277832,-0.0664810389280319,-0.5335558652877808,0.0682522654533386,0.1917598843574524,0.0,0.0,-0.9268820106250496,0.9465091047596382
-0.0184463504701852,1.2135009765625,-0.0555132925510406,-0.56211918592453,0.0763864740729332,0.1626987755298614,0.0,0.0,0.0096761561444129,-0.6742982157027579
-0.01904640160501,1.2007060050964355,-0.0702404007315635,-0.569222629070282,0.0865488797426223,0.2032664716243744,0.0,0.0,0.0996835144290546,-0.7578455702075289
-0.0196434967219829,1.1880091428756714,-0.0722925439476966,-0.5650774240493774,0.0990316793322563,0.2496785223484039,0.0,0.0,-0.5787172242444918,-0.7592722119655344
-0.0202902797609567,1.17464017868042,-0.0794737488031387,-0.5952244997024536,0.1137373372912406,0.2941398918628692,0.0,0.0,-0.4181444327439307,0.5460009916008205
-0.0208763126283884,1.1606206893920898,-0.0727929398417472,-0.6242302060127258,0.1278594881296157,0.2824684679508209,0.0,0.0,0.252621739932531,-0.8432715765031071
-0.0214890483766794,1.1462846994400024,-0.0779251903295517,-0.6386661529541016,0.1444618254899978,0.332076758146286,0.0,0.0,0.0900889942064178,0.6849273922484417
-0.0222066882997751,1.1319117546081543,-0.0876215323805809,-0.6404115557670593,0.1603226959705352,0.3172456324100494,0.0,0.0,-0.4073903675506178,0.9276269050987156
-0.022859001532197,1.1168781518936155,-0.0804162174463272,-0.6698765158653259,0.1755179166793823,0.3039043545722961,0.0,0.0,0.0171839042092876,0.8631499399065976
-0.0235114097595214,1.101870894432068,-0.0793925747275352,-0.6687250733375549,0.1897249519824981,0.2841410636901855,0.0,0.0,0.6035607714684192,0.6599588775133266
-0.0243912693113088,1.0873677730560305,-0.1012340188026428,-0.6463292241096497,0.2030496746301651,0.2664945423603058,0.0,0.0,0.5083420227457836,-0.7550255007356894
-0.0255934707820415,1.0731940269470217,-0.135453462600708,-0.63210529088974,0.2184121459722519,0.3072496950626373,0.0,0.0,0.9174900560548844,-0.9199775242727322
-0.0270064361393451,1.0591566562652588,-0.1589796245098114,-0.626604437828064,0.2363286614418029,0.3583302199840545,0.0,0.0,-0.8368898666299665,0.5192956929783844
-0.0283708572387695,1.0444837808609009,-0.1537118703126907,-0.6550062298774719,0.2539080083370209,0.3515861630439758,0.0,0.0,-0.9290075898170472,0.9892802238464355
-0.0296599380671978,1.0291744470596311,-0.1451434195041656,-0.6833065152168274,0.2704988420009613,0.3318169116973877,0.0,0.0,-0.6916885375976562,0.9892666339874268
-0.0308773033320903,1.0132447481155396,-0.1369464546442031,-0.7108808159828186,0.2860998809337616,0.3120207786560058,0.0,0.0,-0.2500427961349487,0.9503775835037231
-0.0320202820003032,0.996678113937378,-0.128496304154396,-0.7391421794891357,0.3007325828075409,0.2926547229290008,0.0,0.0,-0.193971574306488,0.9907879829406738
-0.0330787673592567,0.9794921278953552,-0.1186912208795547,-0.7665377855300903,0.3140414953231811,0.2661781907081604,0.0,0.0,0.2305107116699218,0.9973690509796144
-0.034214399755001,0.96250319480896,-0.1251173019409179,-0.7576122283935547,0.3260589241981506,0.2403488159179687,0.0,0.0,-0.0538460612297058,0.9946261644363404
-0.0352693572640419,0.9448875784873962,-0.1158667206764221,-0.7852840423583984,0.3368876576423645,0.2165741026401519,0.0,0.0,0.4406346082687378,0.9965546131134032
-0.0364267341792583,0.9276190400123596,-0.1248629093170166,-0.7696553468704224,0.3464417457580566,0.1910818070173263,0.0,0.0,0.1161415576934814,0.9969048500061036
-0.037727452814579,0.9105295538902284,-0.1379265487194061,-0.7614471316337585,0.3546988070011139,0.165141299366951,0.0,0.0,0.313446044921875,0.9990553855895996
-0.0390893928706646,0.8935173749923706,-0.1427972763776779,-0.7577506899833679,0.3616597950458526,0.1392205655574798,0.0,0.0,0.0883468389511108,0.9963066577911376
-0.0406315810978412,0.8765708208084106,-0.1596080511808395,-0.7545483112335205,0.3673488199710846,0.1137800589203834,0.0,0.0,0.1776965856552124,0.9953212738037108
-0.0421283729374408,0.8595842123031616,-0.1538217663764953,-0.7560309767723083,0.3717280030250549,0.087584488093853,0.0,0.0,0.0528570413589477,0.9927496910095216
-0.0435441955924034,0.8422910571098328,-0.1444599777460098,-0.7693366408348083,0.3747806251049042,0.0610525235533714,0.0,0.0,0.375737190246582,0.9995880126953124
-0.0449498184025287,0.8250473737716675,-0.1422390639781952,-0.7668325304985046,0.3765660524368286,0.0357083193957805,0.0,0.0,-0.0056848526000976,0.9961451292037964
-0.0462757125496864,0.8071739673614502,-0.1331857740879058,-0.7945252656936646,0.3771973848342895,0.0126269087195396,0.0,0.0,-0.1186768412590026,0.9924538135528564
-0.0475123412907123,0.7886788845062256,-0.1228898614645004,-0.8218041658401489,0.3763845264911651,-0.0162569340318441,0.0,0.0,0.3803064823150635,0.9983108043670654
-0.0487482063472271,0.7701162695884705,-0.1216211542487144,-0.824480414390564,0.3742921650409698,-0.0418478772044181,0.0,0.0,0.3449469804763794,0.9994380474090576
-0.0502520576119422,0.7518374919891357,-0.1471156775951385,-0.8115416169166565,0.3708306849002838,-0.0692297369241714,0.0,0.0,0.0467598438262939,0.9998732805252076
-0.0519515983760356,0.7335938811302185,-0.1654925793409347,-0.8096792101860046,0.3661051392555237,-0.0945110470056533,0.0,0.0,0.1254863739013672,0.9983247518539428
-0.0537087433040142,0.7152070999145508,-0.1699974238872528,-0.8157408833503723,0.3600741922855377,-0.1206187456846237,0.0,0.0,0.2648520469665527,0.9999903440475464
-0.0554174408316612,0.69688481092453,-0.1639088690280914,-0.8125945329666138,0.352744996547699,-0.146584004163742,0.0,0.0,0.4781512022018432,0.9999487400054932
-0.0573284141719341,0.6788485050201416,-0.1828328222036361,-0.7996105551719666,0.3440491259098053,-0.1739172488451004,0.0,0.0,0.0708260536193847,0.9998923540115356
-0.0591729171574115,0.660638689994812,-0.1748469024896621,-0.8070715665817261,0.3340000510215759,-0.2009809017181396,0.0,0.0,0.7639596462249756,0.9998382329940796
-0.0612124428153038,0.6430270671844482,-0.1930527538061142,-0.7802603244781494,0.3226311504840851,-0.227378100156784,0.0,0.0,0.4534460306167602,0.999781370162964
-0.0631615668535232,0.6254734396934509,-0.1828030496835708,-0.7775118947029114,0.3100546896457672,-0.2515293061733246,0.0,0.0,0.7782708406448364,0.9992117881774902
-0.0652913078665733,0.6079659461975098,-0.1994020044803619,-0.7752711176872253,0.2960196733474731,-0.2807005941867828,0.0,0.0,0.079730749130249,0.9990411996841432
-0.0674209594726562,0.5906245112419128,-0.1980313211679458,-0.7677727937698364,0.2806334793567657,-0.3077237606048584,0.0,0.0,-0.4724581241607666,0.9994955062866212
-0.0694505721330642,0.572670578956604,-0.1862174570560455,-0.7948254346847534,0.2634701728820801,-0.3432661890983581,0.0,0.0,-0.5153552889823914,0.9994351863861084
-0.0713887214660644,0.5541053414344788,-0.1754613667726516,-0.8219290375709534,0.2447393834590912,-0.3746158480644226,0.0,0.0,-0.416516900062561,0.9971270561218262
-0.0732540115714073,0.5349180102348328,-0.1670509725809097,-0.8496428728103638,0.2249545454978943,-0.3956967294216156,0.0,0.0,0.7431342601776123,0.9939498901367188
-0.0750620812177658,0.5156853199005127,-0.1600251644849777,-0.85175621509552,0.2039618790149688,-0.4198535978794098,0.0,0.0,0.7737718820571899,0.9779433012008668
-0.0770582184195518,0.4968961775302887,-0.1773172318935394,-0.8321552276611328,0.181533008813858,-0.4485778212547302,0.0,0.0,0.3412055969238281,0.984316349029541
-0.078931525349617,0.4781227111816406,-0.1637353599071502,-0.831662118434906,0.1578895002603531,-0.4728701114654541,0.0,0.0,0.5412254333496094,0.9949159622192384
-0.0807851776480674,0.459568977355957,-0.1603923738002777,-0.8221545815467834,0.1329715251922607,-0.498359352350235,0.0,0.0,0.7374380826950073,0.978184700012207
-0.0826008766889572,0.4409992396831512,-0.1552535593509674,-0.8231824636459351,0.1068039014935493,-0.5233527421951294,0.0,0.0,0.9304094314575196,0.453628659248352
-0.084626480937004,0.4227839708328247,-0.1761953234672546,-0.8078936338424683,0.080649621784687,-0.5230855941772461,0.0,0.0,0.1432884931564331,0.8279407024383545
-0.0866106003522872,0.4048213958740234,-0.1709997057914734,-0.7970849871635437,0.0535287596285343,-0.5424174666404724,0.0,0.0,0.0015134811401367,-0.1657770872116089
-0.0885471329092979,0.3864757120609283,-0.1671019941568374,-0.8146228194236755,0.0273065473884344,-0.5244446396827698,0.0,0.0,0.7723798751831055,-0.7732396721839905
-0.090530589222908,0.3688571751117706,-0.1740823984146118,-0.7827802300453186,0.0033466638997197,-0.4791979193687439,0.0,0.0,-0.6141894459724426,-0.5534247159957886
-0.0925572365522384,0.3505804538726806,-0.1803441643714904,-0.8123942017555237,-0.0186891909688711,-0.4407169818878174,0.0,0.0,0.8931485414505005,-0.6116374135017395
-0.0947229415178299,0.332817792892456,-0.1958307772874832,-0.7898348569869995,-0.0391678214073181,-0.4095725119113922,0.0,0.0,0.9220037460327148,-0.331261396408081
-0.096817210316658,0.3154808580875397,-0.1895099282264709,-0.7711707949638367,-0.05884924903512,-0.3936288952827453,0.0,0.0,0.9299978017807008,-0.2044523954391479
-0.0989964455366134,0.2989765405654907,-0.19795623421669,-0.7344245910644531,-0.0786059573292732,-0.3951343297958374,0.0,0.0,0.4095181226730346,0.2055243253707885
-0.1010674461722374,0.2825435400009155,-0.1880716532468795,-0.7314670085906982,-0.0974636375904083,-0.3771535754203796,0.0,0.0,0.9812788963317872,0.0459768772125244
-0.1031262427568435,0.2661578953266144,-0.1872929632663726,-0.7295674681663513,-0.1159118711948394,-0.3689647614955902,0.0,0.0,0.9869850873947144,-0.0378198623657226
-0.1050518974661827,0.2496814131736755,-0.1749875843524933,-0.7337470650672913,-0.1333989799022674,-0.3497422039508819,0.0,0.0,0.9892325401306152,0.2118538618087768
-0.1069543808698654,0.2331605702638626,-0.173114076256752,-0.7358852624893188,-0.1504937559366226,-0.3418956398963928,0.0,0.0,0.9903228282928468,0.676033616065979
-0.1086647063493728,0.217393696308136,-0.1531066298484802,-0.7026602625846863,-0.1684128493070602,-0.35838183760643,0.0,0.0,0.9943747520446776,-0.5110673308372498
-0.1101426109671592,0.2024127393960952,-0.1317894756793975,-0.6677156686782837,-0.1844582706689834,-0.3209083676338196,0.0,0.0,0.9974336624145508,-0.3056540489196777
-0.111566923558712,0.1882656961679458,-0.1263723671436309,-0.6308327317237854,-0.2006130069494247,-0.3230945467948913,0.0,0.0,0.9844505786895752,-0.4355167150497436
-0.1130589470267295,0.1740896105766296,-0.1329677402973175,-0.6323310136795044,-0.2169870436191558,-0.3274810016155243,0.0,0.0,0.9959906339645386,-0.7914621829986572
-0.1143484115600586,0.1606616824865341,-0.1149490252137184,-0.5989211797714233,-0.2311646044254303,-0.283551275730133,0.0,0.0,0.9995133876800536,-0.8836929202079773
-0.1156723946332931,0.1476591229438781,-0.1203779578208923,-0.579825758934021,-0.2433698624372482,-0.2441055476665496,0.0,0.0,0.982241988182068,-0.8401534557342529
-0.1169296279549598,0.1352314800024032,-0.1156803965568542,-0.554032564163208,-0.2535899579524994,-0.2044016867876052,0.0,0.0,0.994170904159546,-0.8801990747451782
-0.1180528625845909,0.1234030127525329,-0.1044387817382812,-0.5270927548408508,-0.2616460919380188,-0.1611224561929702,0.0,0.0,0.9991154670715332,-0.7407253384590149
-0.1189370155334472,0.1119099929928779,-0.0826443433761596,-0.5118421912193298,-0.2675448060035705,-0.1179739981889724,0.0,0.0,0.999943733215332,-0.8310138583183289
-0.1197431534528732,0.1003586873412132,-0.0769088268280029,-0.5140753388404846,-0.2713399231433868,-0.0759023278951644,0.0,0.0,0.9999431371688844,-0.7555150389671326
-0.1203575134277343,0.0888178944587707,-0.0598227269947528,-0.5132234692573547,-0.2729910016059875,-0.0330217964947223,0.0,0.0,0.9980902671813964,-0.9507009983062744
-0.1206666976213455,0.0775617659091949,-0.0318315960466861,-0.5001013278961182,-0.2720564305782318,0.0186912603676319,0.0,0.0,0.985173225402832,-0.5192016959190369
-0.1207164749503135,0.0662683099508285,-0.007702481932938,-0.5014293193817139,-0.2692641317844391,0.0558459460735321,0.0,0.0,0.999891757965088,0.1991547346115112
-0.1205295547842979,0.0556292384862899,0.0157561730593442,-0.4723111391067505,-0.2662550806999206,0.0601810738444328,0.0,0.0,0.999935746192932,-0.3183424472808838
-0.1200637817382812,0.0456410497426986,0.0432485193014144,-0.4433192014694214,-0.2628546357154846,0.0680088251829147,0.0,0.0,0.9999510049819946,0.6526260375976562
-0.1191816329956054,0.0360788665711879,0.0855818837881088,-0.424515426158905,-0.2601617276668548,0.0538581535220146,0.0,0.0,0.9985458850860596,0.1798210144042968
-0.1180797591805458,0.0263791419565677,0.1068442091345787,-0.4305116236209869,-0.2567487955093384,0.0682592093944549,1.0,0.0,0.9985690116882324,0.3628714084625244
-0.1168940514326095,0.0179529283195734,0.0984203293919563,-0.371288925409317,-0.2358519434928894,0.4184865355491638,1.0,0.0,0.9974312782287598,-0.1646753549575805
-0.1152218803763389,0.0110891917720437,0.1270255744457245,-0.2991166114807129,-0.1953357309103012,0.8101828694343567,1.0,0.0,0.9985530376434326,0.3990365266799927
-0.1133273094892501,0.0052699781954288,0.1315907537937164,-0.2520556151866913,-0.1373283863067627,1.160209894180298,1.0,0.0,0.9943368434906006,-0.4220200181007385
-0.1113858222961425,0.0006172394496388,0.1275146901607513,-0.2020222097635269,-0.0710498765110969,1.3257267475128174,1.0,0.0,0.988412380218506,-0.7440171837806702
-0.1093494445085525,-0.0034125829115509,0.1360940039157867,-0.1772799640893936,-0.0042234766297042,1.3366249799728394,1.0,1.0,0.9893816709518432,-0.1316891312599182
-0.1075790375471115,-0.0061260126531124,0.1295661628246307,-0.121285043656826,0.0420131795108318,0.923918068408966,0.0,0.0,0.4957824945449829,0.2680963277816772
-0.1061562523245811,-0.0079241301864385,0.1158003956079483,-0.0808847248554229,0.0681612864136695,0.5229297876358032,0.0,0.0,-0.1837515234947204,0.6799886226654053
-0.1049138084053993,-0.0098514221608638,0.11856559664011,-0.0859238281846046,0.0737791061401367,0.1123619526624679,0.0,0.0,-0.1582570075988769,0.6747461557388306
-0.1038599014282226,-0.0119140772148966,0.1202282682061195,-0.0910055413842201,0.0590787380933761,-0.294029951095581,0.0,0.0,-0.5123946070671082,0.6537721157073975
-0.1028879135847091,-0.0136030819267034,0.1133274286985397,-0.0745280981063842,0.0431910529732704,-0.3176850080490112,1.0,0.0,-0.3030484914779663,-0.7328313589096069
-0.1020563095808029,-0.0148760937154293,0.0973405465483665,-0.0562357194721698,0.0291737504303455,-0.2803524136543274,1.0,0.0,-0.5192399024963379,-0.4237104058265686
-0.1013153046369552,-0.0157507080584764,0.0874452143907547,-0.0386701822280883,0.0160009078681468,-0.2634596824645996,1.0,0.0,-0.4651651382446289,-0.621417224407196
-0.1006928458809852,-0.0162423029541969,0.0731033831834793,-0.0217729434370994,0.0052929953671991,-0.2141602486371994,1.0,0.0,-0.5915196537971497,-0.6400505304336548
-0.1001991257071495,-0.0163616444915533,0.0569747015833854,-0.0052958400920033,-0.0022136473562568,-0.1501347422599792,1.0,0.0,-0.7058870196342468,-0.0563669800758361
-0.0997782722115516,-0.0161284711211919,0.0474340915679931,0.0103452717885375,-0.0074910307303071,-0.1055490523576736,1.0,0.0,-0.6258047819137573,0.3232932090759277
-0.0994249358773231,-0.015553512610495,0.0379732623696327,0.0255378056317567,-0.0101019199937582,-0.0522184483706951,1.0,0.0,-0.9110912084579468,0.5335224866867065
-0.0990854278206825,-0.014651003293693,0.0344271995127201,0.0401087999343872,-0.0105703240260481,-0.009368953295052,1.0,0.0,-0.886607825756073,0.2195407152175903
-0.098729133605957,-0.0135180382058024,0.0332893952727317,0.0503833964467048,-0.0082950228825211,0.0454691760241985,1.0,0.0,-0.8868322968482971,0.0224758386611938
-0.0983733162283897,-0.0122399115934968,0.0333147123456001,0.0568180866539478,-0.0060501415282487,0.0448930263519287,1.0,0.0,-0.9833219051361084,-0.0251206755638122
-0.0980334281921386,-0.0109056374058127,0.0330581739544868,0.059309683740139,-0.0051327864639461,0.0183449648320674,1.0,0.0,-0.993331253528595,0.0758761167526245
-0.0977066978812217,-0.0096005108207464,0.0328467600047588,0.0580066405236721,-0.0052981819026172,-0.0033079269342124,1.0,0.0,-0.992850422859192,0.3721961975097656
-0.0973841696977615,-0.0083943391218781,0.0327784977853298,0.0536085367202758,-0.0058130417019128,-0.0102965598925948,1.0,0.0,-0.9971837997436525,0.122704267501831
-0.0970597267150878,-0.0073326849378645,0.0328104719519615,0.0471868775784969,-0.0061707310378551,-0.0071531375870108,1.0,0.0,-0.988791823387146,0.28676438331604
-0.0967318564653396,-0.0064332508482038,0.0328664481639862,0.0399744845926761,-0.0062531004659831,-0.0016471713315695,1.0,0.0,-0.972328007221222,-0.1483713984489441
-0.0964040756225586,-0.0056863809004426,0.0327247492969036,0.0331945456564426,-0.0061940355226397,0.001180903869681,1.0,0.0,-0.9325852990150452,0.339374303817749
-0.0961031913757324,-0.0050501967780292,0.0303342584520578,0.0282703936100006,-0.0064303800463676,-0.0047192596830427,1.0,0.0,-0.928740382194519,0.2104393243789672
-0.0958389267325401,-0.0044782422482967,0.0268244948238134,0.025417061522603,-0.006821144837886,-0.0078120352700352,1.0,0.0,-0.9340041875839232,0.6094954013824463
