x_pos,y_pos,x_vel,y_vel,angle,ang_vel,leg_1,leg_2,main_booster,lat_booster
-0.0015746116405352,1.4034370183944702,-0.1594143956899643,-0.3325858414173126,0.0017551881028339,0.0346220880746841,0.0,0.0,-0.4157946109771728,0.8876837491989136
-0.0031292915809899,1.3957853317260742,-0.1552327573299408,-0.340074211359024,0.0015140442410483,-0.0048226499930024,0.0,0.0,0.1928178071975708,0.1533596515655517
-0.004648208618164,1.388383388519287,-0.1520770341157913,-0.3289778530597687,0.0016954306047409,0.0036284499801695,0.0,0.0,-0.2908300161361694,0.5547971725463867
-0.0061964988708496,1.3807919025421145,-0.1540853977203369,-0.3373956382274627,0.0009595374576747,-0.0147194294258952,0.0,0.0,-0.0796754360198974,0.464719295501709
-0.0078130718320608,1.3730130195617676,-0.1608889698982238,-0.3457289934158325,0.0001940434594871,-0.0153113063424825,0.0,0.0,-0.5804846286773682,0.7026922702789307
-0.0094341281801462,1.3650456666946411,-0.1595654785633087,-0.3541083633899688,-0.002303059445694,-0.0499465502798557,0.0,0.0,0.2051672935485839,-0.1833148002624511
-0.0111461635679006,1.35752272605896,-0.1685832440853119,-0.3343586027622223,-0.0048967897891998,-0.0518795140087604,0.0,0.0,-0.8245922327041626,0.3596676588058471
-0.0129373548552393,1.3498122692108154,-0.1764754951000213,-0.342699646949768,-0.0075037004426121,-0.0521432757377624,0.0,0.0,-0.0758673548698425,0.4830132722854614
-0.0148107530549168,1.3419142961502075,-0.1846928298473358,-0.3510335385799408,-0.0101176248863339,-0.0522831194102764,0.0,0.0,-0.3603380918502807,0.6982091665267944
-0.0167142860591411,1.3338325023651123,-0.1863232403993606,-0.3592222332954407,-0.0141136376187205,-0.0799276605248451,0.0,0.0,-0.0053069591522216,0.3290290832519531
-0.018705939874053,1.3255634307861328,-0.195130705833435,-0.3675587475299835,-0.0181034300476312,-0.0798031538724899,0.0,0.0,0.0487414598464965,0.067954421043396
-0.0207372661679983,1.3176085948944092,-0.1993274986743927,-0.3535958528518677,-0.0218690000474452,-0.0753182098269462,0.0,0.0,-0.4053428769111633,0.9320127964019777
-0.0227723121643066,1.3094685077667236,-0.1974463164806366,-0.36188805103302,-0.0278629977256059,-0.1198905855417251,0.0,0.0,-0.476702332496643,0.691624641418457
-0.0248420722782611,1.301132321357727,-0.1993981301784515,-0.3706523776054382,-0.0353599116206169,-0.1499519646167755,0.0,0.0,-0.7352588772773743,0.8228107690811157
-0.0269289966672658,1.2926137447357178,-0.1991181522607803,-0.378851056098938,-0.0448375828564167,-0.1895705461502075,0.0,0.0,-0.7632846236228943,-0.1052674055099487
-0.0291153900325298,1.2839089632034302,-0.2091018706560135,-0.3871938586235046,-0.0542750544846057,-0.1887666881084442,0.0,0.0,-0.6791423559188843,0.2276961803436279
-0.0314030647277832,1.2750176191329956,-0.2192796915769577,-0.395536869764328,-0.0636663883924484,-0.1878434717655182,0.0,0.0,-0.6788443326950073,0.8555988073348999
-0.0337105765938758,1.2659249305725098,-0.2192122042179107,-0.4046469926834106,-0.0751077681779861,-0.2288483083248138,0.0,0.0,-0.5248730182647705,0.6628226041793823
-0.0360616669058799,1.2566461563110352,-0.2220962941646576,-0.4130980372428894,-0.0880160927772522,-0.258189857006073,0.0,0.0,-0.5571827292442322,0.8634916543960571
-0.038459874689579,1.2471740245819092,-0.2253875434398651,-0.4219020903110504,-0.1023447215557098,-0.2865983843803406,0.0,0.0,-0.7316868305206299,0.2192186117172241
-0.0409652702510356,1.2375167608261108,-0.2362020462751388,-0.4302558302879333,-0.1165978237986564,-0.2850882709026336,0.0,0.0,-0.7044440507888794,0.0474789142608642
-0.0435791015625,1.2276744842529297,-0.2471515834331512,-0.4386099278926849,-0.1307692229747772,-0.283453494310379,0.0,0.0,-0.9133816361427308,-0.6228213906288147
-0.0463408455252647,1.217653512954712,-0.2630394399166107,-0.4465807974338531,-0.1438769400119781,-0.2621778547763824,0.0,0.0,-0.4828349351882934,0.0225366353988647
-0.0492133125662803,1.2074469327926636,-0.2742318511009216,-0.45493283867836,-0.1568899601697921,-0.2602832913398742,0.0,0.0,-0.8153838515281677,0.7796357870101929
-0.0521508231759071,1.1970462799072266,-0.2796651721000671,-0.4638063013553619,-0.170992225408554,-0.2820705473423004,0.0,0.0,-0.593692421913147,-0.7563313245773315
-0.0552760139107704,1.1864614486694336,-0.3004485070705414,-0.4718671441078186,-0.1831027269363403,-0.2422096282243728,0.0,0.0,-0.4809828996658325,-0.7034305930137634
-0.0585688576102256,1.1757102012634275,-0.3187402784824371,-0.4791766107082367,-0.1936971098184585,-0.2118875533342361,0.0,0.0,-0.153034508228302,-0.1985222101211547
-0.0619763359427452,1.1647725105285645,-0.330339252948761,-0.4875175654888153,-0.2041753083467483,-0.2095636576414108,0.0,0.0,-0.2021760940551757,-0.203595757484436
-0.0654991120100021,1.1536483764648438,-0.3420115113258362,-0.4958581924438476,-0.2145324796438217,-0.2071433365345001,0.0,0.0,-0.1393512487411499,0.2364873886108398
-0.069137766957283,1.1423377990722656,-0.3537499904632568,-0.504198431968689,-0.2247640490531921,-0.2046315371990203,0.0,0.0,-0.5670917630195618,0.471337080001831
-0.0728928595781326,1.1308406591415403,-0.3655480444431305,-0.5125381946563721,-0.2348657399415969,-0.2020336836576461,0.0,0.0,-0.2582605481147766,0.0632071495056152
-0.0767648667097091,1.1191569566726685,-0.3773992359638214,-0.5208775401115417,-0.2448334395885467,-0.1993540823459625,0.0,0.0,-0.743375301361084,-0.6034847497940063
-0.0808059722185134,1.107311487197876,-0.3958194851875305,-0.5278704166412354,-0.2532728016376495,-0.1687869876623153,0.0,0.0,-0.540054202079773,0.3699542284011841
-0.0849648490548133,1.0952788591384888,-0.4077579975128174,-0.5362069010734558,-0.2615707814693451,-0.1659598648548126,0.0,0.0,-0.6269578337669373,0.2103781700134277
-0.0892418846487999,1.0830590724945068,-0.419732004404068,-0.5445429682731628,-0.2697241306304931,-0.1630668342113495,0.0,0.0,-0.6319913268089294,0.2168956995010376
-0.0936373695731163,1.0706522464752195,-0.4317359328269958,-0.5528786182403564,-0.277729719877243,-0.1601124703884124,0.0,0.0,-0.4207284450531006,0.5478522777557373
-0.0981123894453048,1.058038592338562,-0.4388094842433929,-0.5622854232788086,-0.286650151014328,-0.178409069776535,0.0,0.0,-0.3526641130447387,0.4696598052978515
-0.1027061492204666,1.0452377796173096,-0.4508583545684814,-0.5706217885017395,-0.2954174280166626,-0.1753459572792053,0.0,0.0,-0.7632119655609131,0.6789196729660034
-0.1073693260550499,1.0322355031967163,-0.4567447304725647,-0.5798607468605042,-0.3053118288516998,-0.1978879421949386,0.0,0.0,-0.921549677848816,0.4077538251876831
-0.1121514290571212,1.019046187400818,-0.468818724155426,-0.5881983041763306,-0.3150486648082733,-0.1947360038757324,0.0,0.0,-0.2229247093200683,0.7071866989135742
-0.1170077323913574,1.0056543350219729,-0.4752786755561828,-0.5974776148796082,-0.3258059620857239,-0.2151466310024261,0.0,0.0,-0.7145446538925171,0.2385380268096923
-0.1219827681779861,0.9920756220817566,-0.4873586297035217,-0.605816125869751,-0.3364021182060241,-0.2119233161211013,0.0,0.0,-0.6353487968444824,0.1848905086517334
-0.1270767152309417,0.9783100485801696,-0.4994339942932129,-0.6141541004180908,-0.3468356728553772,-0.2086705714464187,0.0,0.0,-0.4139429926872253,0.7806857824325562
-0.13222236931324,0.9643201231956482,-0.5030372142791748,-0.6246064305305481,-0.3589708507061004,-0.242703229188919,0.0,0.0,-0.5307600498199463,0.3060057163238525
-0.1374865472316742,0.950143575668335,-0.5150914788246155,-0.632946789264679,-0.370941013097763,-0.2394023686647415,0.0,0.0,-0.6056703925132751,0.5744770765304565
-0.1428252160549163,0.9357489347457886,-0.5215409994125366,-0.6430144906044006,-0.3840246498584747,-0.2616726458072662,0.0,0.0,-0.4168399572372436,0.462532639503479
-0.1482817679643631,0.9211680293083192,-0.5335553288459778,-0.6513561606407166,-0.3969415724277496,-0.2583383619785309,0.0,0.0,0.1984013319015503,0.8157069683074951
-0.1536470353603363,0.9072627425193788,-0.5230188965797424,-0.6218507289886475,-0.4114286005496979,-0.2897404134273529,0.0,0.0,0.0873259305953979,-0.0706806778907775
-0.1590020209550857,0.8939372301101685,-0.5218582153320312,-0.5962819457054138,-0.4261517822742462,-0.2944639921188354,0.0,0.0,0.4925849437713623,0.0078694820404052
-0.164301112294197,0.8810654878616333,-0.5164417624473572,-0.5762301683425903,-0.4407954216003418,-0.292873203754425,0.0,0.0,-0.0926328301429748,-0.3576914072036743
-0.1697165518999099,0.8680076003074646,-0.5283209085464478,-0.5845740437507629,-0.4552709460258484,-0.289510577917099,0.0,0.0,0.0543617010116577,-0.1908363103866577
-0.1750741004943847,0.8554214239120483,-0.5226251482963562,-0.5637406706809998,-0.469748318195343,-0.2895476222038269,0.0,0.0,0.6219696998596191,-0.4512078762054443
-0.1802536994218826,0.8431599140167236,-0.5055271983146667,-0.5492258667945862,-0.4835612177848816,-0.276258111000061,0.0,0.0,0.761113166809082,-0.3085384368896484
-0.1851497590541839,0.8318390250205994,-0.4774279594421386,-0.5074811577796936,-0.4971905350685119,-0.2725864052772522,0.0,0.0,0.7267355918884277,-0.3802437782287597
-0.1897802352905273,0.8208918571472168,-0.4517379403114319,-0.4906829297542572,-0.5099319219589233,-0.2548281550407409,0.0,0.0,0.7378020286560059,-0.647962212562561
-0.1944223344326019,0.8105206489562988,-0.4541100859642029,-0.4647489488124847,-0.5213884711265564,-0.2291307151317596,0.0,0.0,0.5518584251403809,0.5332324504852295
-0.1986846029758453,0.8008386492729187,-0.4155641496181488,-0.4344512820243835,-0.5335685014724731,-0.2436000853776931,0.0,0.0,0.4758620262145996,-0.2046718597412109
-0.2026465386152267,0.7916535139083862,-0.3862480223178863,-0.4121911227703094,-0.5450119376182556,-0.228868693113327,0.0,0.0,0.909860610961914,-0.4461613893508911
-0.2061527222394943,0.7834346294403076,-0.3412246406078338,-0.3691149055957794,-0.5558900237083435,-0.2175622880458831,0.0,0.0,0.8600366115570068,-0.6469724774360657
-0.2094217836856842,0.7762731909751892,-0.3187136352062225,-0.3217136561870575,-0.5654343962669373,-0.1908870339393615,0.0,0.0,0.9340789318084716,-0.4900040626525879
-0.2125177830457687,0.7694247961044312,-0.3018397688865661,-0.3076849579811096,-0.5745369791984558,-0.1820506900548935,0.0,0.0,0.942042350769043,-0.550308883190155
-0.2154144346714019,0.7635659575462341,-0.2827953696250915,-0.2633849084377289,-0.582639753818512,-0.1620557010173797,0.0,0.0,0.9475330114364624,-0.3706138134002685
-0.2179621160030365,0.7581624984741211,-0.2486309707164764,-0.2428694665431976,-0.5899057388305664,-0.1453202962875366,0.0,0.0,0.9784867763519288,-0.8362680077552795
-0.2202363461256027,0.7535151839256287,-0.2230155915021896,-0.2085221409797668,-0.5951478481292725,-0.1048419028520584,0.0,0.0,0.9898444414138794,-0.5243363380432129
-0.2223727256059646,0.7493019104003906,-0.2103489190340042,-0.1887527257204055,-0.5990762114524841,-0.0785673633217811,0.0,0.0,0.9792511463165284,-0.2957050204277038
-0.224336951971054,0.7459024786949158,-0.1927065253257751,-0.1527841836214065,-0.6035292148590088,-0.0890602245926857,0.0,0.0,0.9864046573638916,-0.4847487211227417
-0.2257993221282959,0.7435634136199951,-0.1427594870328903,-0.1055651530623436,-0.6077022552490234,-0.0834603309631347,0.0,0.0,0.7727198600769043,-0.9460704922676086
-0.2271687090396881,0.7413918972015381,-0.1353953629732132,-0.0972324684262275,-0.6095622181892395,-0.0371992141008377,0.0,0.0,0.7866561412811279,-0.7913216352462769
-0.2281307280063629,0.7401997447013855,-0.0962700322270393,-0.0529568456113338,-0.6094790697097778,0.0016626920551061,0.0,0.0,-0.3790292739868164,-0.4889365434646606
-0.2291918694972992,0.7388187050819397,-0.106315292418003,-0.0612828843295574,-0.6092374920845032,0.0048316894099116,0.0,0.0,-0.2507203817367553,-0.8941766023635864
-0.2304146736860275,0.7373206615447998,-0.1244706884026527,-0.0655605271458625,-0.6066051721572876,0.0526473745703697,0.0,0.0,0.2466738224029541,-0.1822291612625122
-0.2314465492963791,0.7361930012702942,-0.1056028380990028,-0.0490065217018127,-0.6037084460258484,0.057934246957302,0.0,0.0,0.2097660303115844,-0.6477737426757812
-0.232346624135971,0.7357785701751709,-0.0936161801218986,-0.0167647786438465,-0.5993825793266296,0.0865168124437332,0.0,0.0,0.4314091205596924,-0.7157177925109863
-0.2330444306135177,0.7357828617095947,-0.0749168395996093,0.0025169989094138,-0.5932520627975464,0.1226101070642471,0.0,0.0,-0.2796774506568908,-0.5009299516677856
-0.2338681668043136,0.7356303930282593,-0.0886163860559463,-0.0039948201738297,-0.5858345627784729,0.1483498960733413,0.0,0.0,0.2063437700271606,-0.5314074754714966
-0.2346402704715728,0.7355711460113525,-0.0846631824970245,0.0006353290518745,-0.5770296454429626,0.1760977953672409,0.0,0.0,0.2341337203979492,-0.7910721898078918
-0.2354373037815094,0.7357088923454285,-0.0887465700507164,0.0100057972595095,-0.5664079189300537,0.2124339342117309,0.0,0.0,0.1735520362854004,-0.5868027806282043
-0.2360580861568451,0.7364190220832825,-0.0723951086401939,0.0358854942023754,-0.5543796420097351,0.2405665218830108,0.0,0.0,-0.210526704788208,-0.1641521453857422
-0.2367606610059738,0.7369421720504761,-0.0807856917381286,0.0275482647120952,-0.5421999096870422,0.2435946464538574,0.0,0.0,-0.0165343880653381,-0.4485775232315063
-0.237542912364006,0.7372786402702332,-0.0889586731791496,0.0192105304449796,-0.5298696756362915,0.2466048002243042,0.0,0.0,-0.1565984487533569,-0.4450668692588806
-0.2384025603532791,0.7374283671379089,-0.0969080403447151,0.0108722764998674,-0.5173898935317993,0.2495956122875213,0.0,0.0,-0.2482575178146362,-0.0356523394584655
-0.2393372952938079,0.7373911738395691,-0.1046279668807983,0.0025334944948554,-0.5047616958618164,0.2525657117366791,0.0,0.0,0.1199854612350463,0.1684706211090088
-0.2402162551879882,0.7377296686172485,-0.0989754647016525,0.0190701726824045,-0.4923037588596344,0.2491591274738311,0.0,0.0,0.1322025060653686,0.546947717666626
-0.2409442365169525,0.7384964227676392,-0.0829896926879882,0.0376806184649467,-0.4809169769287109,0.2277355641126632,0.0,0.0,-0.2536845207214355,0.1664426326751709
-0.241740271449089,0.7390763163566589,-0.0899875238537788,0.0293430015444755,-0.4693851768970489,0.2306359112262725,0.0,0.0,-0.1541980504989624,-0.0455853939056396
-0.2426018714904785,0.7394694685935974,-0.0967360362410545,0.021004905924201,-0.4577096700668335,0.2335098683834076,0.0,0.0,-0.2463228106498718,0.7429416179656982
-0.2434746325016021,0.7396292090415955,-0.0965583324432373,0.0101122474297881,-0.4475172758102417,0.203848049044609,0.0,0.0,-0.0038801431655883,0.4524192810058594
-0.2444080412387848,0.7396017909049988,-0.1027945727109909,0.0017758918693289,-0.4371839761734009,0.2066660821437835,0.0,0.0,-0.3610745072364807,0.1348217725753784
-0.2453994303941726,0.7393873333930969,-0.1087708249688148,-0.0065608867444098,-0.426711231470108,0.2094540148973465,0.0,0.0,0.1087051630020141,0.2594469785690307
-0.246251493692398,0.7392893433570862,-0.0954126343131065,-0.0012963289627805,-0.4156680107116699,0.2208645790815353,0.0,0.0,-0.2025920152664184,0.5291187763214111
-0.2471176087856292,0.7389832139015198,-0.0959921926259994,-0.0108804637566208,-0.4055707156658172,0.2019466459751129,0.0,0.0,0.0799763202667236,0.1635936498641967
-0.2478197067975998,0.7391616106033325,-0.0798376500606536,0.0106502333655953,-0.395245224237442,0.2065097540616989,0.0,0.0,-0.0756860375404357,-0.0205029845237731
-0.2485692948102951,0.7391530275344849,-0.0847524851560592,0.0023126569576561,-0.3847867846488952,0.2091682851314544,0.0,0.0,0.0724457502365112,-0.0370399951934814
-0.2492234259843826,0.7392155528068542,-0.0756614357233047,0.0055066468194127,-0.3738943636417389,0.217848464846611,0.0,0.0,-0.2733075618743896,0.430311918258667
-0.2499197423458099,0.7390913367271423,-0.0800413489341735,-0.002832266036421,-0.3628724813461303,0.2204374521970749,0.0,0.0,-0.2216272950172424,0.0976494550704956
-0.2506555020809173,0.738780677318573,-0.0841544196009635,-0.0111716045066714,-0.3517229557037353,0.2229908257722854,0.0,0.0,0.1494085788726806,0.6385941505432129
-0.2512616515159607,0.7388241291046143,-0.070088967680931,0.0042138835415244,-0.3417819738388061,0.1988199055194854,0.0,0.0,-0.1838212013244629,0.2936469316482544
-0.251902163028717,0.7386807799339294,-0.0736715644598007,-0.0041240602731704,-0.3317169547080993,0.2013006955385208,0.0,0.0,0.1022015810012817,0.0632064342498779
-0.2523678243160248,0.7389824986457825,-0.0565966665744781,0.0156809855252504,-0.3212611973285675,0.2091154605150222,0.0,0.0,-0.2458386421203613,0.3356069326400757
-0.2528626322746277,0.739097535610199,-0.0596599206328392,0.007341852877289,-0.3106851577758789,0.2115210741758346,0.0,0.0,-0.4721788167953491,0.7634944915771484
-0.253333568572998,0.7390075325965881,-0.0561265163123607,-0.0020993079524487,-0.301327109336853,0.1871616244316101,0.0,0.0,-0.3483497500419616,0.0136420726776123
-0.2538285851478576,0.7387306094169617,-0.058683194220066,-0.0104370452463626,-0.2918525636196136,0.1894911378622055,0.0,0.0,-0.3551236987113952,0.0451151132583618
-0.2543453574180603,0.7382668256759644,-0.0609936527907848,-0.0187751185148954,-0.2822634577751159,0.1917818486690521,0.0,0.0,-0.3048115968704223,0.4015517234802246
-0.2548814415931701,0.7376163601875305,-0.0630629062652587,-0.0271135196089744,-0.2725618183612823,0.1940334141254425,0.0,0.0,-0.1540132761001587,0.1860562562942505
-0.2554345726966858,0.7367793917655945,-0.0648964047431945,-0.0354522429406642,-0.2627495229244232,0.1962457001209259,0.0,0.0,-0.3233458995819092,0.0954843759536743
-0.2560023665428161,0.7357555627822876,-0.066500037908554,-0.0437912978231906,-0.2528285980224609,0.19841830432415,0.0,0.0,-0.6471609473228455,-0.2329902648925781
-0.256582647562027,0.7345453500747681,-0.0678801015019416,-0.0521306805312633,-0.2428010404109954,0.2005510032176971,0.0,0.0,-0.609333336353302,-0.4264732003211975
-0.2571732997894287,0.733148455619812,-0.0690432339906692,-0.0604703798890113,-0.232668861746788,0.2026434689760208,0.0,0.0,-0.6763980388641357,-0.107176125049591
-0.2577722668647766,0.7315651774406433,-0.0699964612722396,-0.0688103884458541,-0.2224340885877609,0.204695388674736,0.0,0.0,-0.7901808023452759,-0.3277511596679687
-0.2583775520324707,0.7297953367233276,-0.0707471072673797,-0.0771507248282432,-0.2120987772941589,0.2067063301801681,0.0,0.0,-0.5511459708213806,-0.553459107875824
-0.2590295374393463,0.7278585433959961,-0.0766637101769447,-0.0844698026776313,-0.2005340605974197,0.2312939912080764,0.0,0.0,-0.8393749594688416,-0.2382885813713073
-0.2596839368343353,0.7257359623908997,-0.0770328938961029,-0.0928127989172935,-0.1888730078935623,0.2332210540771484,0.0,0.0,-0.7411711812019348,-0.2427917718887329
-0.260339081287384,0.723427414894104,-0.0772230252623558,-0.1011561378836631,-0.1771177351474762,0.2351055890321731,0.0,0.0,-0.8158788084983826,0.4884573221206665
-0.2609932422637939,0.7209327220916748,-0.077242411673069,-0.109499804675579,-0.1652703881263733,0.2369468510150909,0.0,0.0,-0.8550662994384766,0.5880770683288574
-0.2616090178489685,0.718241810798645,-0.0725832805037498,-0.1184156015515327,-0.1542608737945556,0.2201903164386749,0.0,0.0,-0.8753294944763184,0.7838985919952393
-0.2621617317199707,0.7153504490852356,-0.0648731440305709,-0.1275469362735748,-0.1446764916181564,0.1916875392198562,0.0,0.0,-0.6423828601837158,0.8300853967666626
-0.2626415193080902,0.7122558355331421,-0.055935937911272,-0.1367810219526291,-0.136738896369934,0.1587515026330948,0.0,0.0,-0.5895600318908691,0.8382055759429932
-0.263035386800766,0.7089503407478333,-0.0453912951052188,-0.1463764607906341,-0.1307603269815445,0.1195711269974708,0.0,0.0,-0.5883877873420715,0.9518327713012696
-0.2633342742919922,0.7054444551467896,-0.0337596349418163,-0.1554799973964691,-0.1269082576036453,0.0770414322614669,0.0,0.0,0.0453202724456787,0.6825053691864014
-0.2634874284267425,0.7025033235549927,-0.0179167725145816,-0.1304976642131805,-0.1243214830756187,0.0517355985939502,0.0,0.0,-0.5113259553909302,0.4366607666015625
