x_pos,y_pos,x_vel,y_vel,angle,ang_vel,leg_1,leg_2,main_booster,lat_booster
-0.0015564918285235,1.403391718864441,-0.1574418097734451,-0.3345949947834015,0.0016041456256061,0.0316315814852714,0.0,0.0,0.2022173118421248,-0.7795999761094431
-0.0031641006935387,1.396153450012207,-0.1637536436319351,-0.3217065036296844,0.0045681116171181,0.059285782277584,0.0,0.0,-0.9286887908015088,-0.750930812284683
-0.0048488616012036,1.3886762857437134,-0.172453761100769,-0.3323395848274231,0.0084970816969871,0.0785865038633346,0.0,0.0,-0.4273163100014807,-0.7625949312295704
-0.0066356658935546,1.3809630870819092,-0.1842909753322601,-0.3428480923175812,0.0140412729233503,0.1108943000435829,0.0,0.0,-0.2604361093339122,-0.9381496528652764
-0.0085098268464207,1.373019456863403,-0.1943002641201019,-0.3531322181224823,0.0208534765988588,0.1362567842006683,0.0,0.0,0.1246108098299181,-0.661989543210864
-0.0103665348142385,1.36539888381958,-0.1938399672508239,-0.3388274312019348,0.0289333369582891,0.1616118550300598,0.0,0.0,0.9611220248902204,0.8823877681136862
-0.0122299194335937,1.3585755825042725,-0.192479059100151,-0.3033885061740875,0.0350117683410644,0.1215798407793045,0.0,0.0,-0.7519684546457013,0.792324050540538
-0.0140409469604492,1.3515260219573977,-0.1850765645503997,-0.3134113252162933,0.0389429032802581,0.0786296278238296,0.0,0.0,-0.3832191447615105,0.8239736595286771
-0.015812586992979,1.3442565202713013,-0.1793283969163894,-0.3231479823589325,0.0410836525261402,0.0428191125392913,0.0,0.0,0.916461727478906,-0.8096477800468288
-0.0177061073482036,1.3380181789398191,-0.1929379999637603,-0.2773635685443878,0.0446375720202922,0.0710850059986114,0.0,0.0,0.9079481401900212,-0.7591285353469949
-0.0196027755737304,1.3325793743133545,-0.1948476433753967,-0.2418822795152664,0.0497643314301967,0.1025446429848671,0.0,0.0,0.8459952956854713,-0.6307646677213912
-0.0215127952396869,1.3277937173843384,-0.1974914819002151,-0.2129224389791488,0.0561816804111003,0.1283589303493499,0.0,0.0,-0.6499900502644353,-0.8989150937957959
-0.0234960559755563,1.3227758407592771,-0.2060280740261078,-0.223330020904541,0.0638094395399093,0.1525692492723465,0.0,0.0,0.7125061869098157,0.9716958037852254
-0.025361442938447,1.318082571029663,-0.1922243982553482,-0.2088399231433868,0.0694413408637046,0.1126482933759689,0.0,0.0,-0.974279575241544,0.6198474345108036
-0.0271807666867971,1.3131693601608276,-0.1858942210674286,-0.2185566276311874,0.0733694210648536,0.0785686299204826,0.0,0.0,0.9353989579316906,-0.6101145266300638
-0.0289483070373535,1.308547019958496,-0.1821382939815521,-0.2057084590196609,0.078713022172451,0.1068814545869827,0.0,0.0,-0.856618506414693,0.9314927011457436
-0.0306363105773925,1.303713321685791,-0.1717031449079513,-0.2149845212697982,0.0815962553024292,0.057670097798109,0.0,0.0,0.0292755445768373,0.936598884515928
-0.0321710593998432,1.2990097999572754,-0.1543048918247223,-0.2090872228145599,0.082417607307434,0.0164284743368625,0.0,0.0,-0.3574637943658658,-0.6038776079902568
-0.0337516777217388,1.2940741777420044,-0.1597331017255783,-0.2194569259881973,0.0840676575899124,0.0330041274428367,0.0,0.0,0.6336045340254726,-0.6887513470054989
-0.0355239883065223,1.2897239923477173,-0.1799105405807495,-0.1934961527585983,0.086722582578659,0.0531031973659992,0.0,0.0,-0.2929785998096035,-0.6675728504679141
-0.0373398773372173,1.2851401567459106,-0.1851321160793304,-0.2039327025413513,0.0902495235204696,0.0705451220273971,0.0,0.0,0.4961540818760233,0.7265783435213119
-0.0391223914921283,0.0,-0.1801926493644714,-0.1873503625392913,0.092180348932743,0.038619827479124,0.0,0.0,-0.8459302353351943,0.7113587549954206
-0.040834330022335,1.2764902114868164,-0.1712379455566406,-0.1972164213657379,0.0922208428382873,0.0008097178069874,0.0,0.0,-0.6035582643558086,0.9047391263670068
-0.0424617752432823,1.2718210220336914,-0.1605919003486633,-0.2073881030082702,0.0900869220495224,-0.0426821000874042,0.0,0.0,0.2361057432124793,-0.8625763762900583
-0.0443161018192768,1.2676149606704712,-0.1847578883171081,-0.1868966668844223,0.0894203037023544,-0.0133335320279002,0.0,0.0,-0.4120471936721537,0.8376488032622129
-0.0461110100150108,1.2631657123565674,-0.1773869395256042,-0.1976210922002792,0.0873249992728233,-0.0419060662388801,0.0,0.0,0.4985584980136284,-0.9929081323077265
-0.0480280891060829,1.2594646215438845,-0.1914289742708206,-0.1644782125949859,0.0870508924126625,-0.0054820156656205,0.0,0.0,0.9291448446926448,-0.6648772580136313
-0.0502332672476768,1.2569491863250732,-0.2209926098585128,-0.1118216887116432,0.0875253155827522,0.0094882985576987,0.0,0.0,-0.3531569563053125,-0.8853598699855126
-0.0525101646780967,1.2541972398757937,-0.2301767766475677,-0.1224630922079086,0.0899912938475608,0.0493195690214633,0.0,0.0,-0.8286982479373917,-0.9957242433631458
-0.0548527725040912,1.2511975765228271,-0.2386696636676788,-0.1335845291614532,0.0943627655506134,0.0874295681715011,0.0,0.0,0.5070507229906109,0.8844749989254905
-0.0571631416678428,1.2491410970687866,-0.2335406243801117,-0.0915585830807685,0.0968463569879531,0.0496714785695076,0.0,0.0,-0.1181456215970744,-0.8705481338571746
-0.0595322623848915,1.246835708618164,-0.2412467747926712,-0.1027548611164093,0.1011492237448692,0.0860570669174194,0.0,0.0,-0.1840595487879504,-0.6902220980499112
-0.0619438178837299,1.2442946434020996,-0.2469276487827301,-0.1133361607789993,0.1068763062357902,0.1145419031381607,0.0,0.0,0.5527028851784632,-0.6259565100042856
-0.0644840225577354,1.2420027256011963,-0.2607668042182922,-0.1023579686880111,0.1135746762156486,0.1339676082134246,0.0,0.0,-0.9447798183638698,-0.8949258118051422
-0.0670704841613769,1.2394688129425049,-0.267000138759613,-0.1132743209600448,0.1218792721629142,0.1660917401313781,0.0,0.0,0.4543477157331617,0.7810887272065932
-0.069635771214962,1.237714409828186,-0.2632054984569549,-0.078534685075283,0.1285226047039032,0.1328672170639038,0.0,0.0,-0.2568121119476632,-0.8630863336262768
-0.0722466483712196,1.2357099056243896,-0.2694419622421264,-0.0898390337824821,0.1368447840213775,0.1664436161518097,0.0,0.0,0.7991715173530947,0.722844591879439
-0.0748440772294998,1.2347311973571775,-0.2666240334510803,-0.0441412255167961,0.1437024027109146,0.1371519565582275,0.0,0.0,0.3545870051009729,0.9147282187666704
-0.0774797424674034,1.2345633506774902,-0.2684588730335235,-0.007940461859107,0.1485828012228012,0.0976079106330871,0.0,0.0,-0.8036295349683684,-0.7707944643819489
-0.0801452621817588,1.234151005744934,-0.2728024423122406,-0.0189608577638864,0.1548230499029159,0.1248050108551979,0.0,0.0,0.4947855530723848,-0.97334433712249
-0.0830766707658767,1.2345154285430908,-0.3011254966259002,0.0153410481289029,0.1628004312515258,0.1595479995012283,0.0,0.0,-0.938198745250702,0.9867067337036132
-0.0858858078718185,1.2346681356430054,-0.2864100635051727,0.0061722635291516,0.1682985574007034,0.1099624186754226,0.0,0.0,-0.8877547979354858,0.9801373481750488
-0.0885749831795692,1.234600067138672,-0.2720352113246918,-0.0033843147102743,0.1714275628328323,0.0625801831483841,0.0,0.0,-0.9633598923683168,0.9311952590942384
-0.0911485701799392,1.2343192100524902,-0.2582240104675293,-0.0125850168988108,0.1722933501005172,0.0173156261444091,0.0,0.0,-0.9990018010139464,0.8723750114440918
-0.0936261191964149,1.2338117361068726,-0.2469122856855392,-0.0224563535302877,0.1714490205049514,-0.0168867483735084,0.0,0.0,-0.9906501173973083,0.9212055206298828
-0.0959933251142501,1.233082294464111,-0.2338131964206695,-0.0320895500481128,0.1685419231653213,-0.0581419244408607,0.0,0.0,-0.9957478046417236,0.5937366485595703
-0.0982765182852745,1.2321298122406006,-0.2240331470966339,-0.0418481975793838,0.1642495989799499,-0.0858463793992996,0.0,0.0,-0.9993529915809632,0.8286575078964233
-0.1004751175642013,1.2309668064117432,-0.2141360938549041,-0.0510716214776039,0.1585295051336288,-0.1144022718071937,0.0,0.0,-0.998990833759308,0.906867265701294
-0.1025857925415039,1.2295926809310913,-0.203851968050003,-0.0603258423507213,0.1513210833072662,-0.1441685706377029,0.0,0.0,-0.9999891519546508,0.7248151302337646
-0.1046074852347374,1.2279969453811646,-0.1934911012649536,-0.0700661092996597,0.1426506042480468,-0.1734095364809036,0.0,0.0,-0.9999940991401672,0.8420059680938721
-0.1065133064985275,1.2261871099472046,-0.1797289550304412,-0.0794431716203689,0.1318360269069671,-0.2162914723157882,0.0,0.0,-0.9594122767448424,-0.0950251817703247
-0.1083843261003494,1.224145770072937,-0.1761830449104309,-0.0897951573133468,0.1209657117724418,-0.2174063473939895,0.0,0.0,-0.973207712173462,0.5123730897903442
-0.1101725548505783,1.2218791246414185,-0.1666153073310852,-0.0997896119952201,0.1088363975286483,-0.2425862550735473,0.0,0.0,-0.9959982633590698,0.4623887538909912
-0.111925408244133,1.2193820476531982,-0.1630094796419143,-0.1101443246006965,0.0966592729091644,-0.2435427010059356,0.0,0.0,-0.9990959167480468,-0.203203797340393
-0.1136424988508224,1.216653823852539,-0.1593776196241378,-0.1204992309212684,0.0844380855560302,-0.244423821568489,0.0,0.0,-0.9683051109313964,-0.680218517780304
-0.1153855323791503,1.213683843612671,-0.1635032594203949,-0.1314285546541214,0.0737475752830505,-0.2138104140758514,0.0,0.0,-0.9925966858863832,-0.2353736162185669
-0.1170922294259071,1.210482835769653,-0.1598261892795562,-0.1417807787656784,0.0630200803279876,-0.2145497500896453,0.0,0.0,-0.9945114254951476,-0.3639760017395019
-0.1187622994184494,1.2070504426956177,-0.1561292260885238,-0.1521331220865249,0.0522589646279811,-0.2152221649885177,0.0,0.0,-0.994337558746338,-0.7195552587509155
-0.1204457283020019,1.203390121459961,-0.1586893200874328,-0.1623745113611221,0.042720191180706,-0.1907755732536316,0.0,0.0,-0.99978369474411,-0.4707911610603332
-0.1220922470092773,1.1994982957839966,-0.1549579054117202,-0.1727249324321746,0.033154010772705,-0.1913241446018219,0.0,0.0,-0.9973692297935486,-0.4150828123092651
-0.1237014755606651,1.1953749656677246,-0.1512115001678466,-0.183075413107872,0.0235632322728633,-0.1918157041072845,0.0,0.0,-0.9985002279281616,-0.3067923188209533
-0.1252733170986175,1.1910202503204346,-0.1474515497684478,-0.1934259533882141,0.0139505369588732,-0.1922537982463836,0.0,0.0,-0.9972558617591858,-0.1172032356262207
-0.126807689666748,1.186434030532837,-0.1436794251203537,-0.2037765681743621,0.0043184217065572,-0.1926421225070953,0.0,0.0,-0.9978236556053162,0.0514624118804931
-0.1283043920993805,1.181616187095642,-0.1398963779211044,-0.2141272276639938,-0.0053308033384382,-0.1929846107959747,0.0,0.0,-0.9957481026649476,0.1010124683380127
-0.1297633200883865,1.1765670776367188,-0.1361036002635955,-0.224477931857109,-0.0149950692430138,-0.1932852119207382,0.0,0.0,-0.994004487991333,-0.8873423337936401
-0.1312689781188964,1.1712884902954102,-0.142922356724739,-0.2347001731395721,-0.0225451588630676,-0.151001363992691,0.0,0.0,-0.9968547224998474,0.2361057996749878
-0.1327366828918457,1.1657779216766355,-0.1391133219003677,-0.245047852396965,-0.0301067158579826,-0.1512311398983001,0.0,0.0,-0.9920645952224731,-0.2144577503204345
-0.1341663300991058,1.1600353717803955,-0.1352977007627487,-0.2553955912590027,-0.0376782901585102,-0.151431530714035,0.0,0.0,-0.7584043145179749,0.1494767665863037
-0.1355577409267425,1.1540608406066897,-0.1314764618873596,-0.2657433152198791,-0.0452586337924003,-0.151606947183609,0.0,0.0,-0.9974946975708008,-0.1891754269599914
-0.136911004781723,1.147854566574097,-0.1276505142450332,-0.276091068983078,-0.0528467372059822,-0.1517618149518966,0.0,0.0,-0.9627127051353456,-0.3476832509040832
-0.1382261216640472,1.141416311264038,-0.1238207593560218,-0.2864388823509216,-0.060441754758358,-0.1519006341695785,0.0,0.0,-0.976241171360016,0.514562726020813
-0.1394601762294769,1.134743094444275,-0.1146232932806015,-0.2969599664211273,-0.0691195130348205,-0.1735551655292511,0.0,0.0,-0.9703047275543212,0.2790603637695312
-0.1406558007001876,1.1278382539749146,-0.1107886210083961,-0.3073092401027679,-0.0778032541275024,-0.1736752986907959,0.0,0.0,-0.9642975926399232,-0.4031850099563598
-0.1418130844831466,1.1207019090652466,-0.1069526895880699,-0.3176584839820862,-0.0864929035305976,-0.1737931072711944,0.0,0.0,-0.8812804222106934,-0.6622027158737183
-0.1429873406887054,1.1133356094360352,-0.110063649713993,-0.3278369307518005,-0.09379693120718,-0.1460804194211959,0.0,0.0,-0.7362712025642395,-0.267804741859436
-0.1441233605146408,1.1057372093200684,-0.1062273234128952,-0.3381842970848083,-0.1011073291301727,-0.1462083160877227,0.0,0.0,-0.7834139466285706,-0.6383382678031921
-0.145274356007576,1.0979083776474,-0.1090719327330589,-0.3483644425868988,-0.1070875227451324,-0.1196037083864212,0.0,0.0,-0.8579870462417603,0.2019028663635254
-0.1463870108127594,1.089847445487976,-0.1052383631467819,-0.3587104082107544,-0.1130755618214607,-0.1197607964277267,0.0,0.0,-0.865220308303833,-0.0077383518218994
-0.1474614143371582,1.0815541744232178,-0.1014074459671974,-0.3690564036369324,-0.1190725415945053,-0.1199396401643753,0.0,0.0,-0.7947492003440857,0.176813006401062
-0.1484975814819336,1.073028802871704,-0.0975799709558487,-0.3794024288654327,-0.125079795718193,-0.1201450377702713,0.0,0.0,-0.8729709386825562,-0.038140058517456
-0.1494956910610199,1.064271092414856,-0.093756765127182,-0.3897484838962555,-0.1310988813638687,-0.1203818321228027,0.0,0.0,-0.9404328465461732,-0.1132256388664245
-0.1504556685686111,1.0552812814712524,-0.089938648045063,-0.4000945389270782,-0.1371316313743591,-0.1206549033522605,0.0,0.0,-0.6512669920921326,-0.4355499148368835
-0.1513775885105133,1.046059250831604,-0.0861264616250991,-0.4104406535625458,-0.1431800872087478,-0.1209690421819686,0.0,0.0,-0.3683438897132873,-0.8582688570022583
-0.1523346006870269,1.0366241931915283,-0.0914907902479171,-0.419743537902832,-0.1473726481199264,-0.083851546049118,0.0,0.0,-0.9400023818016052,-0.9809526801109314
-0.1533314734697342,1.0269790887832642,-0.0974713489413261,-0.4288955330848694,-0.1495824456214904,-0.0441962927579879,0.0,0.0,-0.9370890855789183,-0.9818236827850342
-0.1543562859296798,1.0171163082122805,-0.101925179362297,-0.4384030103683471,-0.1501360535621643,-0.0110724810510873,0.0,0.0,-0.9385069012641908,-0.9233484268188475
-0.1554138213396072,1.0070276260375977,-0.1069447845220565,-0.4482678771018982,-0.1489466875791549,0.0237877108156681,0.0,0.0,-0.9541476964950562,-0.7786838412284851
-0.1564860343933105,0.9967121481895448,-0.1097005605697631,-0.4582149088382721,-0.1464724540710449,0.0494845174252986,0.0,0.0,-0.918835997581482,-0.6104778051376343
-0.1575570106506347,0.9861721396446228,-0.1104764714837074,-0.4681203067302704,-0.1431089639663696,0.0672701075673103,0.0,0.0,-0.9308940768241882,-0.9367616176605223
-0.1586481034755706,0.975404679775238,-0.1138754040002822,-0.4781011044979095,-0.1383467614650726,0.0952441170811653,0.0,0.0,-0.4820442795753479,0.6952404975891113
-0.1596476584672927,0.9643985033035278,-0.1033239141106605,-0.4888522028923034,-0.1349993050098419,0.066948764026165,0.0,0.0,-0.172965407371521,-0.6722644567489624
-0.1606600731611251,0.9531752467155457,-0.1058374866843223,-0.4984036982059479,-0.1304202377796173,0.0915815681219101,0.0,0.0,-0.1667918562889099,-0.053199291229248
-0.1616359651088714,0.9417195916175842,-0.102137878537178,-0.5087488889694214,-0.1258905231952667,0.0905943289399147,0.0,0.0,-0.8139903545379639,-0.237678050994873
-0.1625755280256271,0.930031716823578,-0.0984559133648872,-0.5190941095352173,-0.1214147359132766,0.0895156115293502,0.0,0.0,-0.8204071521759033,0.3565677404403686
-0.1634790450334549,0.918111264705658,-0.0947930067777633,-0.5294392704963684,-0.1169976666569709,0.0883413702249527,0.0,0.0,-0.8224309682846069,0.4153687953948974
-0.1643467843532562,0.9059585332870485,-0.0911506563425064,-0.5397844314575195,-0.1126442849636077,0.0870675295591354,0.0,0.0,-0.9238203167915344,0.1422518491744995
-0.1651788651943206,0.8935734629631042,-0.0875303968787193,-0.5501295328140259,-0.1083597168326377,0.0856913849711418,0.0,0.0,-0.4514027237892151,0.439918041229248
-0.1659758538007736,0.8809558749198914,-0.0839339047670364,-0.5604746341705322,-0.1041492670774459,0.084209069609642,0.0,0.0,-0.9245542883872986,0.7186071872711182
-0.166672796010971,0.8680994510650635,-0.0722145289182663,-0.5712255835533142,-0.1016572937369346,0.0498395562171936,0.0,0.0,-0.6267135739326477,-0.0458751320838928
-0.1673353165388107,0.855010449886322,-0.0686706826090812,-0.5815697312355042,-0.0992504954338073,0.0481358245015144,0.0,0.0,-0.8317540287971497,0.2972252368927002
-0.1679635047912597,0.8416889309883118,-0.0651560574769973,-0.5919139385223389,-0.0969346314668655,0.0463171377778053,0.0,0.0,-0.9260133504867554,0.1442321538925171
-0.1685578376054763,0.8281349539756775,-0.0616726800799369,-0.6022579669952393,-0.0947155877947807,0.0443809777498245,0.0,0.0,-0.757303774356842,0.043969988822937
-0.1691187918186187,0.8143483996391296,-0.0582226514816284,-0.6126021146774292,-0.0925993248820304,0.0423250421881675,0.0,0.0,-0.6960212588310242,-0.5482426881790161
-0.1697006225585937,0.8003355860710144,-0.0615909323096275,-0.622581422328949,-0.0892267078161239,0.0674525499343872,0.0,0.0,-0.4405720233917236,0.894956111907959
-0.1701665818691253,0.7860845327377319,-0.047774214297533,-0.6333125829696655,-0.0880646109580993,0.0232420526444911,0.0,0.0,-0.2420133352279663,-0.6722220182418823
-0.170648381114006,0.7716014385223389,-0.0504439249634742,-0.6435651183128357,-0.085822694003582,0.0448384508490562,0.0,0.0,0.0749382972717285,-0.279534101486206
-0.1709619462490081,0.7576155066490173,-0.033931590616703,-0.621453046798706,-0.0832718834280967,0.0510164499282836,0.0,0.0,-0.2307877540588379,-0.6823099255561829
-0.1712998449802398,0.7434098124504089,-0.0376604050397872,-0.6311560273170471,-0.0794424563646316,0.0765884444117546,0.0,0.0,-0.7892426252365112,-0.8740113377571106
-0.1716591864824295,0.7289881110191345,-0.0410084947943687,-0.6407012939453125,-0.074422150850296,0.1004059463739395,0.0,0.0,-0.3037760853767395,0.4228181838989258
-0.1719885766506195,0.7143341898918152,-0.0378597602248191,-0.6510473489761353,-0.0695486292243003,0.0974707081913948,0.0,0.0,0.271670937538147,0.3336782455444336
-0.172250360250473,0.70038902759552,-0.0309232138097286,-0.619573175907135,-0.0648539215326309,0.0938938483595848,0.0,0.0,-0.7893582582473755,0.8635962009429932
-0.1724080145359039,0.6862116456031799,-0.0184326972812414,-0.6299893856048584,-0.0622094720602035,0.0528890714049339,0.0,0.0,-0.0242009162902832,0.9232933521270752
-0.1724550276994705,0.6717895269393921,-0.0050983512774109,-0.6409687399864197,-0.0618157759308815,0.0078737353906035,0.0,0.0,-0.3730828762054443,0.6647747755050659
-0.1724328100681305,0.6571319103240967,0.0030721754301339,-0.6514787077903748,-0.0626485794782638,-0.0166560113430023,0.0,0.0,0.5332404375076294,-0.494831919670105
-0.1724727600812912,0.6429682970046997,-0.0024184919893741,-0.6295633912086487,-0.064210869371891,-0.0312457382678985,0.0,0.0,0.2860190868377685,-0.8958132863044739
-0.1725486814975738,0.6292369365692139,-0.0076125175692141,-0.6102748513221741,-0.0641884133219719,0.0004491111612878,0.0,0.0,-0.011371374130249,-0.7909488677978516
-0.1726592034101486,0.6152774691581726,-0.0124112237244844,-0.6203622817993164,-0.0628504082560539,0.0267602503299713,0.0,0.0,-0.5035657286643982,-0.0742983818054199
-0.1727455109357834,0.6010854840278625,-0.0097800064831972,-0.6307064890861511,-0.0617090947926044,0.0228261016309261,0.0,0.0,-0.0974485278129577,-0.5528079867362976
-0.172844797372818,0.5866668820381165,-0.0118097122758626,-0.6407521367073059,-0.0598475970327854,0.0372300595045089,0.0,0.0,0.7381772994995117,-0.8768714070320129
-0.1729104071855545,0.573298454284668,-0.0100488867610692,-0.59401535987854,-0.0563980974256992,0.0689898133277893,0.0,0.0,-0.8671477437019348,0.7842276096343994
