x_pos,y_pos,x_vel,y_vel,angle,ang_vel,leg_1,leg_2,main_booster,lat_booster
-0.0015293121105059,1.4034219980239868,-0.1550597101449966,-0.3332453370094299,0.0018994926940649,0.0374794900417327,0.0,0.0,-0.3651551604270935,0.8514126539230347
-0.0029916763305664,1.3957408666610718,-0.1463863849639892,-0.3413852751255035,0.0020493071060627,0.0029972854536026,0.0,0.0,0.157020092010498,0.3017553091049194
-0.0043662069365382,1.3882814645767212,-0.138183057308197,-0.331529438495636,0.0027775054331868,0.0145652014762163,0.0,0.0,-0.1532126665115356,0.865020751953125
-0.0056908605620265,1.3806169033050537,-0.1319417506456375,-0.340643972158432,0.0022631217725574,-0.0102885980159044,0.0,0.0,-0.4431210160255432,0.4290621280670166
-0.0070198057219386,1.372750163078308,-0.1325133889913559,-0.3496368527412414,0.001883860095404,-0.0075859292410314,0.0,0.0,0.1479814052581787,0.48320472240448
-0.0082580568268895,1.3652472496032717,-0.1240456104278564,-0.3334616422653198,0.0020967740565538,0.0042585572227835,0.0,0.0,-0.4246346950531006,0.6108211278915405
-0.0094537734985351,1.3575420379638672,-0.1187430173158645,-0.3424530029296875,0.0012839894043281,-0.0162569843232631,0.0,0.0,-0.6742661595344543,0.4873948097229004
-0.0106525421142578,1.3496345281600952,-0.1192034929990768,-0.3514453470706939,0.0006125449435785,-0.013429713435471,0.0,0.0,-0.1163660883903503,0.4375333786010742
-0.0118541717529296,1.341524600982666,-0.1196244210004806,-0.3604394793510437,8.325310773216188e-05,-0.0105873011052608,0.0,0.0,-0.5484729409217834,0.5945780277252197
-0.013011360540986,1.3332160711288452,-0.1141354292631149,-0.3692690432071686,-0.0014785394305363,-0.0312388036400079,0.0,0.0,-0.5336915850639343,0.7892248630523682
-0.0140992160886526,1.324705719947815,-0.1055510267615318,-0.3782480359077453,-0.0046817334368824,-0.0640698447823524,0.0,0.0,-0.6805417537689209,0.7037962675094604
-0.0151264192536473,1.3159911632537842,-0.0980581864714622,-0.3873323798179626,-0.0092960111796855,-0.0922939404845237,0.0,0.0,-0.4324690103530884,0.2773301601409912
-0.0161544792354106,1.3070746660232544,-0.0982896611094474,-0.3963285982608795,-0.0137617923319339,-0.0893236324191093,0.0,0.0,-0.4783156514167785,-0.1214929223060607
-0.0171828269958496,1.297955870628357,-0.0984742641448974,-0.4053249657154083,-0.0180787369608879,-0.0863466709852218,0.0,0.0,-0.7428817749023438,0.3651663064956665
-0.0182110778987407,1.2886348962783811,-0.0986110270023346,-0.4143211245536804,-0.0222456827759742,-0.0833465605974197,0.0,0.0,-0.8464899063110352,-0.1059920787811279
-0.0192385669797658,1.2791117429733276,-0.0986994951963424,-0.4233172535896301,-0.0262619312852621,-0.0803320333361625,0.0,0.0,-0.8786539435386658,0.8605047464370728
-0.0201814658939838,1.2693932056427002,-0.0882561579346656,-0.4320513010025024,-0.0322242304682731,-0.1192568317055702,0.0,0.0,-0.5235137343406677,0.1286132335662841
-0.0211225505918264,1.2594728469848633,-0.088241346180439,-0.4410490095615387,-0.0380334481596946,-0.1161950230598449,0.0,0.0,-0.1027323007583618,-0.742103636264801
-0.0221104621887207,1.2493598461151123,-0.0943251103162765,-0.4495792686939239,-0.0424531437456607,-0.0884018391370773,0.0,0.0,-0.674095094203949,-0.4596836566925049
-0.0230957977473735,1.2390447854995728,-0.0942187458276748,-0.4585757553577423,-0.0467205196619033,-0.0853550508618354,0.0,0.0,-0.971796691417694,-0.3525322675704956
-0.0240779872983694,1.2285274267196655,-0.0940652936697006,-0.4675721228122711,-0.0508344992995262,-0.0822868049144744,0.0,0.0,-0.7105772495269775,0.0974185466766357
-0.0250566489994525,1.2178077697753906,-0.0938658714294433,-0.4765683114528656,-0.054795067757368,-0.0792184397578239,0.0,0.0,-0.8519952297210693,-0.0011650919914245
-0.0260313041508197,1.206885814666748,-0.0936218202114105,-0.4855645000934601,-0.0586020797491073,-0.0761469006538391,0.0,0.0,-0.951842725276947,-0.5390094518661499
-0.0270394328981637,1.195758819580078,-0.0980782061815261,-0.4946418106555938,-0.0613086484372615,-0.0541358403861522,0.0,0.0,-0.7402852773666382,-0.8330067992210388
-0.0281239505857229,1.184439182281494,-0.1079423651099205,-0.5031175017356873,-0.0618125423789024,-0.0100788362324237,0.0,0.0,-0.5366091728210449,-0.3733789920806885
-0.0292041786015033,1.1728955507278442,-0.1076697930693626,-0.5130640268325806,-0.0621632374823093,-0.0070138052105903,0.0,0.0,0.2515499591827392,0.0052428245544433
-0.0302418712526559,1.161972999572754,-0.1035759672522544,-0.4854511022567749,-0.0623471103608608,-0.0036775157786905,0.0,0.0,-0.9570325016975404,-0.0602874159812927
-0.0312735550105571,1.1508480310440063,-0.103140577673912,-0.4944433271884918,-0.062377456575632,-0.0006069467635825,0.0,0.0,-0.8640204668045044,0.3062700033187866
-0.0322990417480468,1.139520525932312,-0.1026699393987655,-0.5034355521202087,-0.0622542388737201,0.0024644194636493,0.0,0.0,-0.6262280941009521,0.6611665487289429
-0.0332675948739051,1.1279834508895874,-0.0958520621061325,-0.5128010511398315,-0.063248224556446,-0.0198796726763248,0.0,0.0,-0.1565887928009033,-0.009632408618927
-0.0342292785644531,1.1162439584732056,-0.0953165665268898,-0.5217934250831604,-0.0640886351466178,-0.0168082900345325,0.0,0.0,-0.902201533317566,-0.7134129405021667
-0.035247515887022,1.104303956031799,-0.1027516573667526,-0.5306288599967957,-0.0631728842854499,0.0183153860270977,0.0,0.0,-0.9477847814559937,0.5879924297332764
-0.0362179763615131,1.0921630859375,-0.0971073731780052,-0.539588212966919,-0.0631124004721641,0.0012094104895368,0.0,0.0,-0.7406651377677917,0.5595574378967285
-0.0371414199471473,1.0798108577728271,-0.0915513411164283,-0.5490148067474365,-0.0638956651091575,-0.0156651698052883,0.0,0.0,-0.5189036130905151,0.2457554340362548
-0.0380568504333496,1.0672564506530762,-0.0909080952405929,-0.558007001876831,-0.0645256042480468,-0.0125988228246569,0.0,0.0,-0.9564667344093324,-0.7303441762924194
-0.0390197746455669,1.0545101165771484,-0.0972370281815528,-0.5664541125297546,-0.0635911300778389,0.0186895690858364,0.0,0.0,-0.8234930038452148,0.1408154964447021
-0.0399742126464843,1.0415616035461426,-0.0965500548481941,-0.5754464268684387,-0.0625035762786865,0.0217510033398866,0.0,0.0,-0.8861817121505737,0.5556238889694214
-0.0408732406795024,1.0284104347229004,-0.0899710729718208,-0.5844932794570923,-0.0624381303787231,0.0013092702720314,0.0,0.0,-0.9668458700180054,0.0328829288482666
-0.0417634956538677,1.0150567293167114,-0.0892463251948356,-0.5934854745864868,-0.0622199140489101,0.004364235792309,0.0,0.0,-0.9735805988311768,-0.140375018119812
-0.0426447875797748,1.0015006065368652,-0.0885047316551208,-0.6024777293205261,-0.0618491396307945,0.0074153104797005,0.0,0.0,-0.8251082301139832,-0.0721139907836914
-0.0435169227421283,0.987742006778717,-0.0877475589513778,-0.6114699840545654,-0.0613260306417942,0.0104621518403291,0.0,0.0,-0.9644181132316588,0.1640396118164062
-0.0443799011409282,0.9737810492515564,-0.0869759619235992,-0.6204622387886047,-0.0606508180499076,0.0135041773319244,0.0,0.0,-0.940634787082672,-0.5547178983688354
-0.0452704429626464,0.959614872932434,-0.0908266007900238,-0.6295400261878967,-0.0588991232216358,0.0350338220596313,0.0,0.0,-0.5715383291244507,0.6564376354217529
-0.0460911765694618,0.94523948431015,-0.0824547186493873,-0.6388901472091675,-0.058518148958683,0.0076193786226212,0.0,0.0,-0.9269378185272216,-0.3879855871200561
-0.0469021797180175,0.9306616187095642,-0.0816461592912674,-0.6478824019432068,-0.0579859390854835,0.0106442784890532,0.0,0.0,-0.5504304766654968,0.7308685779571533
-0.0476417541503906,0.9158685207366944,-0.0730578079819679,-0.6575071811676025,-0.0588700212538242,-0.0176816787570714,0.0,0.0,-0.8841695189476013,-0.7387465834617615
-0.0484240539371967,0.9008734822273254,-0.0788257420063018,-0.6664203405380249,-0.0582830570638179,0.0117392865940928,0.0,0.0,-0.7745680212974548,0.6387704610824585
-0.0491551384329795,0.885679304599762,-0.0728112384676933,-0.6753086447715759,-0.0585786327719688,-0.0059116412885487,0.0,0.0,-0.7261455059051514,-0.2089234590530395
-0.0498763099312782,0.8702827095985413,-0.0719655454158783,-0.68430095911026,-0.0587245225906372,-0.0029176140669733,0.0,0.0,-0.6639926433563232,-0.4798669815063476
-0.0505873672664165,0.8546835780143738,-0.0711123496294021,-0.6932932138442993,-0.0587211661040782,6.70620211167261e-05,0.0,0.0,-0.3714271783828735,-0.1113364696502685
-0.0512883178889751,0.8388819694519043,-0.0702522546052932,-0.7022855281829834,-0.0585690811276435,0.0030416497029364,0.0,0.0,-0.6447604894638062,-0.4366244077682495
-0.051979161798954,0.8228780031204224,-0.0693858191370964,-0.7112778425216675,-0.058268804103136,0.006005392409861,0.0,0.0,-0.6218485236167908,-0.5103790760040283
-0.052692987024784,0.8066715598106384,-0.0726652592420578,-0.720235288143158,-0.0569901503622531,0.0255729798227548,0.0,0.0,-0.5571379065513611,-0.5650879740715027
-0.0534406676888465,0.7902717590332031,-0.0773400515317916,-0.7287845015525818,-0.0544448271393775,0.0509064719080925,0.0,0.0,-0.2371248602867126,-0.1668271422386169
-0.054177951067686,0.7736696600914001,-0.0764576122164726,-0.7377774715423584,-0.0517532080411911,0.0538322106003761,0.0,0.0,-0.4403969645500183,0.0730191469192504
-0.0549049377441406,0.7568652033805847,-0.075570710003376,-0.7467705607414246,-0.0489160530269146,0.0567433536052703,0.0,0.0,0.1079314947128295,-0.1117663383483886
-0.0555324554443359,0.7406543493270874,-0.0660623535513877,-0.7203711271286011,-0.0456424728035926,0.0654716193675994,0.0,0.0,-0.7381663918495178,0.1368434429168701
-0.0561494827270507,0.7242413759231567,-0.0651676729321479,-0.7293644547462463,-0.0422249771654605,0.0683502405881881,0.0,0.0,-0.1811754703521728,0.471904993057251
-0.0567561164498329,0.7076261043548584,-0.0642696022987365,-0.7383579015731812,-0.0386644415557384,0.0712107867002487,0.0,0.0,-0.5765479803085327,0.4376430511474609
-0.057352352887392,0.6908087134361267,-0.0633684769272804,-0.7473515272140503,-0.0349618270993232,0.0740520358085632,0.0,0.0,0.454833984375,0.6443338394165039
-0.0578265190124511,0.6742668747901917,-0.0501047782599926,-0.7351295948028564,-0.0323010683059692,0.0532151758670806,0.0,0.0,-0.5005531907081604,0.758446455001831
-0.058240033686161,0.6575242877006531,-0.042915903031826,-0.744083046913147,-0.0307573806494474,0.0308735724538564,0.0,0.0,-0.3048861026763916,0.0320503711700439
-0.0586430542171001,0.640579342842102,-0.0420072339475154,-0.7530758380889893,-0.0290749575942754,0.0336483791470527,0.0,0.0,0.8320754766464233,0.4974400997161865
-0.0589897148311138,0.6244500279426575,-0.0366286039352417,-0.7168225049972534,-0.0271342080086469,0.0388147681951522,0.0,0.0,-0.1559346914291381,0.4256196022033691
-0.059325885027647,0.6081182956695557,-0.0357162058353424,-0.7258155345916748,-0.0250573568046093,0.0415372028946876,0.0,0.0,0.0534195899963378,0.8133742809295654
-0.0596697814762592,0.592150866985321,-0.0349626317620277,-0.7096547484397888,-0.0244961287826299,0.0112243937328457,0.0,0.0,0.2132378816604614,0.200096845626831
-0.0599719993770122,0.5769228339195251,-0.0310038179159164,-0.6767875552177429,-0.0237288754433393,0.0153452334925532,0.0,0.0,-0.6099660396575928,0.6645421981811523
-0.0602042190730571,0.5614824295043945,-0.0226039197295904,-0.6862516403198242,-0.0243326183408498,-0.0120748672634363,0.0,0.0,0.3261115550994873,0.3338910341262817
-0.0603874213993549,0.5468662977218628,-0.0179498437792062,-0.6496102213859558,-0.0247062910348176,-0.0074734040535986,0.0,0.0,-0.8290733695030212,0.4968147277832031
-0.0605602264404296,0.5320478677749634,-0.0170318596065044,-0.6586030125617981,-0.0249520558863878,-0.0049152355641126,0.0,0.0,-0.5709902048110962,0.3797683715820312
-0.0607226379215717,0.517026960849762,-0.0161133427172899,-0.6675958037376404,-0.0250718705356121,-0.0023964471183717,0.0,0.0,0.0392196178436279,0.7841920852661133
-0.060780145227909,0.502389132976532,-0.004183433484286,-0.6506007313728333,-0.0266175791621208,-0.0309143997728824,0.0,0.0,-0.8062779307365417,-0.4750422239303589
-0.0608271583914756,0.4875488579273224,-0.0032644073944538,-0.6595937013626099,-0.0280416645109653,-0.0284816920757293,0.0,0.0,0.23288094997406,0.7492012977600098
-0.0607304573059082,0.4731473326683044,0.0124323908239603,-0.6401228308677673,-0.0307648256421089,-0.0544629618525505,0.0,0.0,0.6306374073028564,-0.75486159324646
-0.0607078559696674,0.4591207504272461,0.0034462516196072,-0.6234295964241028,-0.0319403074681758,-0.0235095955431461,0.0,0.0,-0.8841671943664551,-0.0515479445457458
-0.0606749542057514,0.4448917210102081,0.004364707507193,-0.6324225068092346,-0.033001571893692,-0.0212255325168371,0.0,0.0,-0.144305408000946,0.840782880783081
-0.0605689063668251,0.4304489195346832,0.0131706520915031,-0.641961932182312,-0.0355370789766311,-0.0507100634276866,0.0,0.0,0.4523392915725708,-0.1718546152114868
-0.0604351982474327,0.4168494045734405,0.0158668104559183,-0.6044832468032837,-0.0379980914294719,-0.0492203086614608,0.0,0.0,0.0224918127059936,-0.2476067543029785
-0.0602224357426166,0.4038015007972717,0.0234207697212696,-0.5799620151519775,-0.0401244796812534,-0.042527712881565,0.0,0.0,-0.4570931196212768,-0.0925802588462829
-0.0599995627999305,0.3905513286590576,0.0243358891457319,-0.5889551043510437,-0.0421485342085361,-0.0404812060296535,0.0,0.0,-0.1132425665855407,-0.7129433751106262
-0.0598353371024131,0.3770956993103027,0.0166366957128047,-0.5980333089828491,-0.0423516221344471,-0.0040619689971208,0.0,0.0,0.5870809555053711,0.1432209014892578
-0.059589959681034,0.3645732402801513,0.0244570299983024,-0.5565509796142578,-0.0422800257802009,0.0014321019407361,0.0,0.0,0.4211773872375488,0.7634093761444092
-0.0593505874276161,0.3525926172733307,0.0254605803638696,-0.532515823841095,-0.0437830463051795,-0.0300603918731212,0.0,0.0,0.3159160614013672,0.0598888397216796
-0.0591211318969726,0.3412214815616607,0.0245762635022401,-0.5054299831390381,-0.0453999675810337,-0.032338298857212,0.0,0.0,-0.6011571288108826,-0.4197568893432617
-0.0588818565011024,0.3296480774879455,0.0254826843738555,-0.5144229531288147,-0.0469326674938201,-0.0306540541350841,0.0,0.0,0.2155306339263916,-0.5827500224113464
-0.0585878379642963,0.3185120522975921,0.0295618567615747,-0.4949423670768738,-0.0470968820154666,-0.0032842569053173,0.0,0.0,0.1303805112838745,-0.5569413304328918
-0.0582993514835834,0.3075208663940429,0.0277869198471307,-0.4884645044803619,-0.0460465252399444,0.0210072062909603,0.0,0.0,0.3855044841766357,-0.1057425141334533
-0.0579077713191509,0.2968278527259826,0.0376478433609008,-0.4751979112625122,-0.0445646271109581,0.0296380370855331,0.0,0.0,-0.4452961683273315,-0.514089822769165
-0.0575374588370323,0.2859345078468323,0.034688975661993,-0.4840825498104095,-0.0422425493597984,0.0464413613080978,0.0,0.0,-0.1937547922134399,0.4825444221496582
-0.0571575164794921,0.2748388051986694,0.0355805084109306,-0.49307581782341,-0.039857693016529,0.0476969853043556,0.0,0.0,0.1805806159973144,0.3376173973083496
-0.0567507743835449,0.264345645904541,0.0382233336567878,-0.4662981033325195,-0.0374334566295146,0.0484847463667392,0.0,0.0,-0.300179660320282,0.2355042695999145
-0.0563345924019813,0.2536502182483673,0.039106797426939,-0.4752915203571319,-0.0349557548761367,0.0495542958378791,0.0,0.0,0.3397647142410278,0.3821721076965332
-0.0557892806828022,0.243558183312416,0.0514982528984546,-0.4484682083129883,-0.0319622009992599,0.0598711185157299,0.0,0.0,-0.3745696544647217,-0.6029869318008423
-0.0552745833992958,0.2332594990730285,0.0473767928779125,-0.4576374888420105,-0.0279270112514495,0.0807039886713028,0.0,0.0,0.1488990783691406,0.6832787990570068
-0.0547282211482524,0.2232871204614639,0.0519406795501709,-0.4431699216365814,-0.0252624880522489,0.0532903186976909,0.0,0.0,-0.2407205700874328,-0.4271701574325561
-0.054172895848751,0.2131124585866928,0.0528035275638103,-0.4521635174751282,-0.0225638542324304,0.0539725944399833,0.0,0.0,0.4084248542785644,0.2524746656417846
-0.0536175742745399,0.2034638673067093,0.0528623573482036,-0.4287915229797363,-0.0199279952794313,0.0527170822024345,0.0,0.0,0.0789681673049926,-0.8061081767082214
-0.0532012954354286,0.1944042295217514,0.0373585969209671,-0.4025985896587372,-0.015708977356553,0.0843802541494369,0.0,0.0,-0.1120826005935669,0.3844908475875854
-0.0527762398123741,0.1851424574851989,0.0382013395428657,-0.4115931093692779,-0.0114706214517354,0.0847672671079635,0.0,0.0,0.2041348218917846,0.3397407531738281
-0.052375603467226,0.1764994412660598,0.035946600139141,-0.3841066360473633,-0.0073982966132462,0.0814463719725608,0.0,0.0,-0.2135934829711914,-0.3509254455566406
-0.0519664771854877,0.1676543802022934,0.0367733798921108,-0.3931010663509369,-0.0033163789194077,0.0816385671496391,0.0,0.0,-0.0998783707618713,0.5230625867843628
-0.0515094771981239,0.1586051136255264,0.0425702780485153,-0.4021839499473572,-0.0002268530224682,0.0617904588580131,0.0,0.0,0.2510778903961181,-0.5797545313835144
-0.0511874184012413,0.150037482380867,0.0280985478311777,-0.3807889223098755,0.0038302172906696,0.081141248345375,0.0,0.0,-0.2980232238769531,0.4576573371887207
-0.0508574470877647,0.1412677317857742,0.0288969837129116,-0.3897833824157715,0.0078826993703842,0.0810495540499687,0.0,0.0,0.0504827499389648,0.222202181816101
-0.0504558570683002,0.13298200070858,0.0357453748583793,-0.3682836592197418,0.0122375302016735,0.0870967879891395,0.0,0.0,-0.017152726650238,0.2163281440734863
-0.0500466339290142,0.1244942769408226,0.0365216732025146,-0.3772782981395721,0.0165787264704704,0.0868241637945175,0.0,0.0,0.2921971082687378,0.5138180255889893
-0.0494760498404502,0.1167073547840118,0.0534365400671958,-0.3461307287216186,0.0201584845781326,0.0715949460864067,0.0,0.0,0.1473466157913208,0.9075732231140136
-0.0488558784127235,0.1095354855060577,0.0602472126483917,-0.318772405385971,0.021905468776822,0.0349394530057907,0.0,0.0,-0.3907812833786011,-0.1542724967002868
-0.0482285507023334,0.1021614149212837,0.0609848909080028,-0.3277657330036163,0.0236260779201984,0.0344120934605598,0.0,0.0,-0.1073722839355468,0.813826322555542
-0.0475218780338764,0.0945875719189643,0.070810467004776,-0.3366122841835022,0.0234926622360944,-0.0026685376651585,0.0,0.0,0.2054548263549804,-0.597775936126709
-0.0468754768371582,0.0877088159322738,0.0636058002710342,-0.3057368993759155,0.0245031416416168,0.0202098209410905,0.0,0.0,-0.4294427633285522,0.7876920700073242
-0.0461542122066021,0.0806372240185737,0.0728937909007072,-0.314281165599823,0.0237505957484245,-0.0150510389357805,0.0,0.0,-0.0659142732620239,-0.6469437479972839
-0.0454708114266395,0.0733584985136985,0.0680116415023803,-0.3235056698322296,0.0240712612867355,0.0064133913256227,0.0,0.0,0.706202507019043,-0.6405152082443237
-0.0449839606881141,0.0668292120099067,0.04744703322649,-0.2902087569236755,0.0252950992435216,0.024476658552885,0.0,0.0,0.2605900764465332,0.9731166362762452
-0.0445384010672569,0.0606826655566692,0.0453668646514415,-0.2731685638427734,0.0244949422776699,-0.0160033535212278,0.0,0.0,-0.0838579535484314,0.4811834096908569
-0.0440872199833393,0.0543337687849998,0.0459869690239429,-0.2821615934371948,0.0236433912068605,-0.0170307829976081,0.0,0.0,0.4773925542831421,-0.4048570394515991
-0.0436184890568256,0.0484986416995525,0.0476734712719917,-0.2593268156051636,0.0228448715060949,-0.015970354899764,0.0,0.0,0.0051465034484863,0.8410093784332275
-0.0429890640079975,0.0427870377898216,0.0654956996440887,-0.2538096010684967,0.0203219782561063,-0.0504579469561576,0.0,0.0,0.1770814657211303,-0.2910134792327881
-0.0422952659428119,0.0376059375703334,0.0716824159026146,-0.230242520570755,0.018060440197587,-0.0452309548854827,0.0,0.0,-0.4276961088180542,0.0249818563461303
-0.0415965095162391,0.0322225652635097,0.072217620909214,-0.2392358779907226,0.0157364755868911,-0.0464790984988212,0.0,0.0,0.4054651260375976,-0.5634380578994751
