x_pos,y_pos,x_vel,y_vel,angle,ang_vel,leg_1,leg_2,main_booster,lat_booster
-0.0016522407531738,1.4035067558288574,-0.1677771955728531,-0.3294850289821625,0.0022916959132999,0.0452453158795833,0.0,0.0,0.1952378577768529,-0.966508453691511
-0.0034667968284338,1.3964946269989014,-0.1861098110675811,-0.3116615712642669,0.0068937642499804,0.0920507758855819,0.0,0.0,-0.1513345195803974,-0.808075464096845
-0.0054606436751782,1.3893582820892334,-0.2057582139968872,-0.3172146081924438,0.0131849385797977,0.1258351355791092,0.0,0.0,0.6736648134890837,-0.7384460426710806
-0.0077816965058445,1.3828577995300293,-0.2401087284088134,-0.2889980673789978,0.0210984759032726,0.1582856476306915,0.0,0.0,0.2847467310612408,-0.8090110949768377
-0.0101937297731637,1.3770053386688232,-0.2514287829399109,-0.2602861821651459,0.0312095079571008,0.2022396624088287,0.0,0.0,0.7870567748431554,-0.6704656989371802
-0.012647246941924,1.3719217777252195,-0.2577951550483703,-0.2262423187494278,0.0435193330049514,0.2462189495563507,0.0,0.0,-0.7700336911549073,0.9485341864752848
-0.0151601787656545,1.366726994514465,-0.2623652815818786,-0.2312315851449966,0.0544898025691509,0.2194297760725021,0.0,0.0,0.246273774516222,-0.9341194843048432
-0.017773438245058,1.3621553182601929,-0.2748436629772186,-0.2037275731563568,0.0678660199046135,0.2675490379333496,0.0,0.0,-0.50248049321191,-0.6451665189222522
-0.0205703731626272,1.3574708700180054,-0.2949810922145843,-0.2089670598506927,0.0830236077308654,0.3031794428825378,0.0,0.0,-0.8878018911933405,-0.8955133712845358
-0.0235697738826274,1.3526694774627686,-0.3174835741519928,-0.2144618183374405,0.1004427969455719,0.3484156727790832,0.0,0.0,0.9065959236708394,0.9287250254741448
-0.0265877731144428,1.348806858062744,-0.3181627690792084,-0.1728550791740417,0.11671132594347,0.3254005908966064,0.0,0.0,0.5589066787084207,0.6799299047578861
-0.02966995164752,1.3455936908721924,-0.323852926492691,-0.1441057324409485,0.1322773098945617,0.3113482296466827,0.0,0.0,0.8707614501214187,-0.9979154677604748
-0.0329042449593544,1.343467116355896,-0.3417659401893616,-0.0962462052702903,0.1505909115076065,0.3663055002689361,0.0,0.0,0.5071130635001244,-0.6994076318066822
-0.0363048538565635,1.3417059183120728,-0.3603835999965668,-0.0804671496152877,0.1709358990192413,0.4069368839263916,0.0,0.0,-0.1189556172125168,-0.7441975146873692
-0.0398836135864257,1.3398298025131226,-0.3797392249107361,-0.0860460177063942,0.1929138898849487,0.4395997524261474,0.0,0.0,0.0656183795865243,-0.8614234935858036
-0.0436160080134868,1.3381210565567017,-0.3972421288490295,-0.0792562738060951,0.2171428650617599,0.4846239686012268,0.0,0.0,-0.6580977277373927,0.9581807718059016
-0.0473930351436138,1.3363436460494995,-0.3997373878955841,-0.0823944658041,0.2394980937242508,0.4471454620361328,0.0,0.0,-0.962017402456008,-0.6229493330046547
-0.0513391494750976,1.3344382047653198,-0.4179544448852539,-0.0886581912636756,0.2633192241191864,0.4764657616615295,0.0,0.0,-0.1961297332849878,-0.6228375222503777
-0.055459976196289,1.332414150238037,-0.4367817342281341,-0.0946028903126716,0.2886913418769836,0.5074881315231323,0.0,0.0,0.063746679560998,-0.7259289079900633
-0.0599307045340538,1.330756664276123,-0.4734403491020202,-0.079124741256237,0.3159911036491394,0.546044647693634,0.0,0.0,0.7315970397443876,0.659743578692165
-0.0645951256155967,1.3302119970321655,-0.4920973181724548,-0.0300250425934791,0.3427795469760895,0.53581702709198,0.0,0.0,-0.2079108043145432,-0.7938998322588766
-0.0694509521126747,1.3295260667800903,-0.5129859447479248,-0.0372701734304428,0.3716642260551452,0.5777456164360046,0.0,0.0,0.7522696272108507,0.6257694143175605
-0.0744679421186447,1.32964825630188,-0.5283846855163574,-0.0017581974389031,0.4001199305057525,0.5691654682159424,0.0,0.0,-0.899158179372691,0.6118105320545247
-0.0795692428946495,1.3296895027160645,-0.5356562733650208,-0.0056140469387173,0.4276655316352844,0.5509616136550903,0.0,0.0,-0.0427415585304322,0.6034102499255283
-0.0847736373543739,1.3296481370925903,-0.545221209526062,-0.0096064219251275,0.4547403454780578,0.5415444374084473,0.0,0.0,-0.2034129177979737,0.7627948822250017
-0.0900673866271972,1.3295143842697144,-0.5532202124595642,-0.0139478556811809,0.4810890853404999,0.5269747972488403,0.0,0.0,-0.6003649372336364,0.8846079550443835
-0.0954360961914062,1.329326629638672,-0.5591368079185486,-0.0163025464862585,0.5060434937477112,0.4990890920162201,0.0,0.0,0.0055809849242094,-0.7616935792523246
-0.1013185530900955,1.3295879364013672,-0.6120165586471558,0.0025695483200252,0.5330545902252197,0.5402225255966187,0.0,0.0,-0.241363502810987,0.6350627536022028
-0.107304573059082,1.3297767639160156,-0.6214924454689026,-0.0008589994395151,0.5594725608825684,0.5283611416816711,0.0,0.0,0.9390993508446864,0.6065821426676231
-0.113710880279541,1.3306008577346802,-0.6623820662498474,0.0273157656192779,0.584994375705719,0.5104363560676575,0.0,0.0,-0.0382431465674215,-0.8268819369898455
-0.120308019220829,1.3312746286392212,-0.6828960180282593,0.0194275360554456,0.6126797795295715,0.5537081956863403,0.0,0.0,0.2892170789746415,0.8987075809405071
-0.1272351294755935,1.3322573900222778,-0.7142177820205688,0.0333481505513191,0.6388495564460754,0.5233951807022095,0.0,0.0,-0.0969840164443098,-0.8336531623768689
-0.1343600302934646,1.3330745697021484,-0.7355777621269226,0.0245762132108211,0.6675079464912415,0.5731679201126099,0.0,0.0,-0.6377065090230452,0.7094453373277305
-0.1415797173976898,1.3338265419006348,-0.7437911033630371,0.0216469634324312,0.6952179670333862,0.5542008876800537,0.0,0.0,0.7186572696531319,0.6822866739983424
-0.1492989510297775,1.3352925777435305,-0.7924597859382629,0.0534625202417373,0.7218782901763916,0.5332061052322388,0.0,0.0,-0.363508491440965,-0.9459235726554032
-0.1572103500366211,1.3365874290466309,-0.8130103349685669,0.044374506920576,0.7509691715240479,0.5818178653717041,0.0,0.0,0.2518757061079333,0.6436706440872466
-0.1654717475175857,1.3381800651550293,-0.8466390371322632,0.0577003881335258,0.7789950370788574,0.5605171918869019,0.0,0.0,-0.2815381227808531,0.8755784775938391
-0.1738207787275314,1.3397456407546997,-0.8536542057991028,0.0569553710520267,0.8052992224693298,0.5260837078094482,0.0,0.0,0.8606353076096278,0.745911679793096
-0.1829867362976074,1.342205047607422,-0.9338504076004028,0.0970601737499237,0.8301768898963928,0.4975531697273254,0.0,0.0,-0.7872134305495233,-0.9758458121060938
-0.1923361718654632,1.3444782495498655,-0.9533913731575012,0.0872466340661048,0.8575252294540405,0.5469673871994019,0.0,0.0,0.6173817463918698,-0.6083272933305941
-0.202504351735115,1.347214698791504,-1.0356436967849731,0.1067291125655174,0.8863624930381775,0.5767447352409363,0.0,0.0,-0.9996596574783324,0.9999949932098388
-0.2127480506896972,1.3499486446380615,-1.041032075881958,0.1075713485479354,0.9127528667449952,0.5278091430664062,0.0,0.0,-0.999849021434784,0.9998167753219604
-0.2230655252933502,1.3526718616485596,-1.0464223623275757,0.1080868020653724,0.936781406402588,0.480570375919342,0.0,0.0,-0.9994696378707886,0.999908685684204
-0.2334618121385574,1.3553907871246338,-1.0524307489395142,0.1089900285005569,0.9583930373191832,0.4322322309017181,0.0,0.0,-0.999923288822174,0.9999327659606934
-0.2439421713352203,1.3580784797668457,-1.059378743171692,0.1084846332669258,0.9781185984611512,0.3945115208625793,0.0,0.0,-0.9977492690086364,0.9999561309814452
-0.2545013427734375,1.3607499599456787,-1.0656898021697998,0.1088977754116058,0.9955901503562928,0.3494313955307007,0.0,0.0,-0.995778262615204,0.9983880519866944
-0.265140950679779,1.363410472869873,-1.072212815284729,0.1096375361084938,1.0107171535491943,0.3025407493114471,0.0,0.0,-0.9966087341308594,0.9998835325241088
-0.275881677865982,1.36604106426239,-1.0812197923660278,0.1092168167233467,1.0241235494613647,0.268126904964447,0.0,0.0,-0.999975085258484,0.9999488592147828
-0.2867233157157898,1.3686375617980957,-1.090295433998108,0.1085973605513572,1.0358675718307495,0.2348794192075729,0.0,0.0,-0.9984622597694396,0.9999996423721312
-0.2976512312889099,1.3712117671966553,-1.0977360010147097,0.1088021770119667,1.04550302028656,0.1927099972963333,0.0,0.0,-0.9939284324645996,0.9996869564056396
-0.3086558878421783,1.3737921714782717,-1.1039265394210815,0.1106728613376617,1.0523505210876465,0.1369505673646927,0.0,0.0,-0.7588583827018738,0.9990897178649902
-0.3197529911994934,1.3763487339019775,-1.1121197938919067,0.1107974499464035,1.0571714639663696,0.0964197069406509,0.0,0.0,-0.9929888248443604,0.9998958110809326
-0.3309237957000732,1.3789031505584717,-1.1181416511535645,0.1122792810201644,1.059297800064087,0.0425271019339561,0.0,0.0,-0.991740882396698,0.9999983310699464
-0.3421822488307953,1.381444811820984,-1.125752329826355,0.1130741536617279,1.0591039657592771,-0.0038775920402258,0.0,0.0,-0.9990922808647156,0.9999946355819702
-0.3535102307796478,1.3839911222457886,-1.1312566995620728,0.114990547299385,1.0560091733932495,-0.0618963651359081,0.0,0.0,-0.9977539777755736,0.9994879961013794
-0.3649205267429352,1.3865011930465698,-1.1385022401809692,0.1145257204771041,1.0509637594223022,-0.1009085923433303,0.0,0.0,-0.9965415596961976,0.9931020736694336
-0.3764075636863708,1.3890117406845093,-1.1447728872299194,0.116122767329216,1.0431922674179075,-0.1554291546344757,0.0,0.0,-0.9998733997344972,0.9656157493591307
-0.3879645764827728,1.391523361206055,-1.1502500772476196,0.1177983433008194,1.0325911045074463,-0.2120242416858673,0.0,0.0,-0.9612932801246644,0.979322910308838
-0.3995957970619201,1.3940304517745972,-1.156170129776001,0.1190816164016723,1.0193367004394531,-0.2650879025459289,0.0,0.0,-0.999881386756897,0.9997992515563964
-0.4113064706325531,1.3965095281600952,-1.1628122329711914,0.1189972683787345,1.0039530992507937,-0.3076723217964172,0.0,0.0,-0.9992095232009888,0.9824886322021484
-0.4230759143829345,1.3989700078964231,-1.1670535802841189,0.1195359975099563,0.9859952926635742,-0.3591561913490295,0.0,0.0,-0.999898076057434,0.9996169805526732
-0.4349181652069092,1.40139639377594,-1.1728774309158323,0.119043618440628,0.9659736752510072,-0.4004327356815338,0.0,0.0,-0.9999929070472716,-0.7456967234611511
-0.4468867778778076,1.403649926185608,-1.1859313249588013,0.110509917140007,0.9472270607948304,-0.3749321103096008,0.0,0.0,-0.99991112947464,0.9995399713516236
-0.45890873670578,1.4058843851089478,-1.1894171237945557,0.110915258526802,0.9259092807769777,-0.4263559877872467,0.0,0.0,-0.9995640516281128,0.9999266862869264
-0.4709761142730713,1.40809166431427,-1.1920251846313477,0.1108543872833252,0.9020819664001464,-0.4765457212924957,0.0,0.0,-0.999257266521454,0.9994232654571532
-0.4830990433692932,1.4102556705474854,-1.195811748504639,0.1097621619701385,0.8762252926826477,-0.5171350240707397,0.0,0.0,-0.999970555305481,0.7797023057937622
-0.4952765107154846,1.4123830795288086,-1.1993554830551147,0.1088914722204208,0.8482787013053894,-0.5589316487312317,0.0,0.0,-0.9941251277923584,-0.6219011545181274
-0.5075624585151672,1.4143455028533936,-1.2102965116500854,0.1007348373532295,0.8213312029838562,-0.5389497876167297,0.0,0.0,-0.998621106147766,0.974583864212036
-0.5198816061019897,1.4162883758544922,-1.2112308740615845,0.1007733792066574,0.7917845845222473,-0.5909318923950195,0.0,0.0,-0.9995418190956116,0.999954342842102
-0.5322296619415283,1.4181855916976929,-1.2119004726409912,0.0993587970733642,0.7600526213645935,-0.6346389055252075,0.0,0.0,-0.9995036721229552,-0.7680422067642212
-0.5447000861167908,1.41990327835083,-1.2246782779693604,0.0901378169655799,0.7299814820289612,-0.6014232039451599,0.0,0.0,-0.9991679191589355,0.9999992847442628
-0.5571770668029785,1.421592354774475,-1.2226552963256836,0.0895849764347076,0.6972313523292542,-0.6550022959709167,0.0,0.0,-0.9986684918403624,0.795752763748169
-0.5696821212768555,1.4232256412506104,-1.2233622074127195,0.0872746035456657,0.6627227663993835,-0.6901717782020569,0.0,0.0,-0.9954457879066468,0.9999880790710448
-0.5821747183799744,1.4248316287994385,-1.2190495729446411,0.0865660235285759,0.6253732442855835,-0.7469922304153442,0.0,0.0,-0.9967167973518372,0.9983639717102052
-0.5946556329727173,1.4263908863067627,-1.2149999141693115,0.0846392437815666,0.5855839252471924,-0.7957859039306641,0.0,0.0,-0.997631311416626,0.9998736381530762
-0.6071056723594666,1.427911400794983,-1.2085938453674316,0.0830048620700836,0.5429893136024475,-0.8518930673599243,0.0,0.0,-0.996560513973236,-0.3493741750717163
-0.6195946931838989,1.4293315410614014,-1.2111393213272097,0.0776633247733116,0.4999418258666992,-0.8609508275985718,0.0,0.0,-0.9844414591789246,0.9995002746582032
-0.6320518255233765,1.4307173490524292,-1.2047083377838137,0.0758008807897567,0.4543262720108032,-0.912312626838684,0.0,0.0,-0.9971578121185304,0.9996976852416992
-0.6444586515426636,1.4320762157440186,-1.1960856914520264,0.0741255730390548,0.4058334827423095,-0.9698570370674132,0.0,0.0,-0.9989134669303894,0.2874761819839477
-0.6568850874900818,1.4333436489105225,-1.1966097354888916,0.0687307268381118,0.3568249046802521,-0.980172634124756,0.0,0.0,-0.9918314814567566,0.9630224704742432
-0.6692659258842468,1.4345440864562988,-1.1891933679580688,0.0646625533699989,0.3057395815849304,-1.0217082500457764,0.0,0.0,-0.9932484030723572,0.3397771120071411
-0.6816520690917969,1.435657978057861,-1.1883776187896729,0.0592367723584175,0.2540988028049469,-1.0328174829483032,0.0,0.0,-0.9878228902816772,0.981055498123169
-0.6939740180969238,1.4367122650146484,-1.1790578365325928,0.0551561638712883,0.200233444571495,-1.0773093700408936,0.0,0.0,-0.9523420929908752,-0.5724179744720459
-0.7063350677490234,1.4376726150512695,-1.1830474138259888,0.0489781312644481,0.1470289826393127,-1.0640912055969238,0.0,0.0,-0.9633191823959352,0.981665015220642
-0.7186045050621033,1.4385745525360107,-1.1708948612213137,0.0446723774075508,0.091286577284336,-1.1148505210876465,0.0,0.0,-0.8935693502426147,0.9959104061126708
-0.730759859085083,1.4394140243530271,-1.1562564373016355,0.0398813374340534,0.032644934952259,-1.1728354692459106,0.0,0.0,-0.758273184299469,0.8399468660354614
-0.7428141236305237,1.4401780366897583,-1.1436173915863037,0.0341827347874641,-0.0283737666904926,-1.2203768491744995,0.0,0.0,-0.0182435512542724,0.1784925460815429
-0.7548288106918335,1.4408748149871826,-1.1390960216522217,0.0286350958049297,-0.0900477245450019,-1.2334821224212646,0.0,0.0,0.0498446226119995,0.18257737159729
-0.7666705846786499,1.4420347213745115,-1.121896266937256,0.0466365553438663,-0.1519592851400375,-1.238234281539917,0.0,0.0,0.4655358791351318,-0.6751349568367004
-0.7783236503601074,1.443622589111328,-1.104520320892334,0.0632316619157791,-0.2129474282264709,-1.2197654247283936,0.0,0.0,0.6887471675872803,-0.1642616391181945
-0.7897584438323975,1.446271300315857,-1.0827614068984983,0.1077933087944984,-0.2746594250202179,-1.2342430353164673,0.0,0.0,0.1510622501373291,-0.8254750370979309
-0.8010187149047852,1.4496381282806396,-1.0672953128814695,0.1374474614858627,-0.3353866040706634,-1.2145458459854126,0.0,0.0,-0.2553931474685669,-0.9449568390846252
-0.8122589588165283,1.4529685974121094,-1.0672799348831177,0.1336809545755386,-0.395296037197113,-1.1981910467147827,0.0,0.0,0.6719839572906494,-0.9681658744812012
-0.8232582807540894,1.4566535949707031,-1.0458439588546753,0.147607609629631,-0.4538114070892334,-1.1703102588653564,0.0,0.0,0.4417831897735595,-0.8378088474273682
-0.8340827822685242,1.4609392881393433,-1.030711054801941,0.1725398153066635,-0.5113787055015564,-1.1513487100601196,0.0,0.0,0.1634296178817749,-0.962605118751526
-0.844519317150116,1.4659581184387207,-0.9946640729904176,0.2036279588937759,-0.5676525235176086,-1.1254785060882568,0.0,0.0,-0.3157460689544678,-0.9989578723907472
-0.8549286723136902,1.470963954925537,-0.9948689341545104,0.2018182575702667,-0.622462272644043,-1.096196174621582,0.0,0.0,-0.3351880311965942,-0.9904942512512208
-0.8653104305267334,1.4759775400161743,-0.9953385591506958,0.201288416981697,-0.6754297614097595,-1.0593526363372805,0.0,0.0,-0.1044809222221374,-0.9924166202545166
-0.8756384253501892,1.480973720550537,-0.992567539215088,0.1995228677988052,-0.7272961735725403,-1.0373295545578003,0.0,0.0,-0.5456136465072632,-0.991113543510437
-0.8859191536903381,1.4859731197357178,-0.990830898284912,0.1990755647420883,-0.7775285243988037,-1.004647970199585,0.0,0.0,-0.2367916703224182,-0.9989829063415528
-0.896149754524231,1.4909820556640625,-0.9888405799865724,0.1991626173257827,-0.8259751796722412,-0.9689340591430664,0.0,0.0,-0.6586412787437439,-0.9974330067634584
-0.9063246250152588,1.495986819267273,-0.9860380291938782,0.1987158805131912,-0.8728524446487427,-0.93754643201828,0.0,0.0,-0.7909782528877258,-0.9987937211990356
-0.9164440631866456,1.5010051727294922,-0.9834052920341492,0.1994092166423797,-0.9177778363227844,-0.8985083699226379,0.0,0.0,-0.9336813688278198,-0.9962278604507446
-0.9265072345733644,1.5060416460037231,-0.9806215167045592,0.2005306929349899,-0.9606100916862488,-0.8566466569900513,0.0,0.0,-0.958962619304657,-0.9871190190315248
-0.9364858269691468,1.511061668395996,-0.9742935299873352,0.1997338086366653,-1.002322793006897,-0.8342539072036743,0.0,0.0,-0.9583902955055236,-0.9873585104942322
-0.9463869333267212,1.5160655975341797,-0.9686918258666992,0.1991258710622787,-1.0427522659301758,-0.8085901141166687,0.0,0.0,-0.98187518119812,-0.9748659133911132
-0.9561917185783386,1.5210479497909546,-0.960951805114746,0.1981861293315887,-1.0822068452835083,-0.7890913486480713,0.0,0.0,-0.9882068634033204,-0.9787887334823608
-0.9659062027931212,1.5260366201400757,-0.9540467262268066,0.1989704966545105,-1.120012283325195,-0.7561091184616089,0.0,0.0,-0.992640256881714,-0.9421600699424744
-0.9755150079727172,1.5310028791427612,-0.9451759457588196,0.1981420964002609,-1.156867504119873,-0.7371047735214233,0.0,0.0,-0.9960246086120604,-0.8812811970710754
-0.985023319721222,1.5359479188919067,-0.936781883239746,0.1974916607141494,-1.1926544904708862,-0.7157416343688965,0.0,0.0,-0.9975547194480896,-0.9610087275505066
-0.9944279193878174,1.5408962965011597,-0.9281632304191588,0.1983312964439392,-1.2268558740615845,-0.6840266585350037,0.0,0.0,-0.9978445172309875,-0.9216965436935424
-1.0037230253219604,1.5458323955535889,-0.9187140464782716,0.198318749666214,-1.2598154544830322,-0.659190833568573,0.0,0.0,-0.9978445172309875,-0.9216965436935424
