x_pos,y_pos,x_vel,y_vel,angle,ang_vel,leg_1,leg_2,main_booster,lat_booster
-0.0015082359313964,1.4031381607055664,-0.1529656648635864,-0.3458583652973175,0.0019166735000908,0.0378193780779838,0.0,0.0,-0.4119507074356079,0.9321630001068116
-0.0029215812683105,1.394888997077942,-0.1413570195436477,-0.366627424955368,0.001936990302056,0.0004073524323757,0.0,0.0,-0.0122075080871582,0.8760144710540771
-0.004235363099724,1.386147141456604,-0.1294045150279998,-0.3885280787944793,-5.45795364814694e-06,-0.0388524867594242,0.0,0.0,-0.0720254182815551,0.0653042793273925
-0.0055334093049168,1.3769190311431885,-0.127994567155838,-0.4101398289203644,-0.0017955898074433,-0.0358061641454696,0.0,0.0,-0.1366102695465088,0.6551671028137207
-0.006753253750503,1.3672068119049072,-0.1187397688627243,-0.4316661655902862,-0.0050085745751857,-0.0642656236886978,0.0,0.0,-0.2211878299713134,0.1456872224807739
-0.0079573635011911,1.3570083379745483,-0.117325559258461,-0.4532744586467743,-0.0080709075555205,-0.061252187937498,0.0,0.0,0.7000274658203125,0.6499919891357422
-0.0091151241213083,1.3472150564193726,-0.1114660277962684,-0.4352909326553345,-0.0123342871665954,-0.0852754712104797,0.0,0.0,0.1791129112243652,-0.0306171178817749
-0.010144805535674,1.3376260995864868,-0.099328339099884,-0.4262106120586395,-0.0159410368651151,-0.072141408920288,0.0,0.0,-0.3236573338508606,0.1715114116668701
-0.0111589431762695,1.3275511264801023,-0.0979143977165222,-0.4478214085102081,-0.0194019563496112,-0.0692246258258819,0.0,0.0,-0.3814488649368286,0.2663590908050537
-0.0121574401855468,1.3169898986816406,-0.0965009480714798,-0.4694279432296753,-0.0227174945175647,-0.0663164556026458,0.0,0.0,-0.0344395637512207,-0.1082346439361572
-0.0131403924897313,1.3059427738189695,-0.0950887948274612,-0.4910358488559723,-0.0258892141282558,-0.0634403377771377,0.0,0.0,0.0422343015670776,-0.0499676465988159
-0.0140545843169093,1.294907569885254,-0.0885677933692932,-0.4905089437961578,-0.0287074744701385,-0.0563700795173645,0.0,0.0,-0.5575062036514282,-0.4344353675842285
-0.0149532314389944,1.2833861112594604,-0.0871593654155731,-0.5121214985847473,-0.031385201960802,-0.0535593032836914,0.0,0.0,-0.2533053159713745,-0.3199968338012695
-0.0158365257084369,1.271378517150879,-0.0857522785663604,-0.5337294936180115,-0.0339238047599792,-0.050776831805706,0.0,0.0,-0.8265600204467773,-0.8272157311439514
-0.0167540553957223,1.258895754814148,-0.0905959233641624,-0.554815948009491,-0.0350667834281921,-0.0228620432317256,0.0,0.0,-0.6654700636863708,-0.9207966327667236
-0.0177159309387207,1.2459189891815186,-0.0966758206486702,-0.5767303705215454,-0.034581258893013,0.0097116222605109,0.0,0.0,-0.581669807434082,-0.6669008731842041
-0.0187028888612985,1.2324658632278442,-0.1003571897745132,-0.5978758931159973,-0.0329407453536987,0.0328133031725883,0.0,0.0,0.3124804496765136,-0.3598914742469787
-0.0195516590029001,1.2189674377441406,-0.0872147232294082,-0.5998879671096802,-0.0306388419121503,0.0460422597825527,0.0,0.0,-0.6205605864524841,-0.0509554147720336
-0.0203853603452444,1.2049826383590698,-0.0858321338891983,-0.6214991211891174,-0.0282083097845315,0.0486151985824108,0.0,0.0,0.634162425994873,-0.4992275834083557
-0.0212678909301757,1.191354513168335,-0.0904701426625251,-0.6056560277938843,-0.0260236877948045,0.0436965636909008,0.0,0.0,-0.0875391960144043,0.5899838209152222
-0.0220788959413766,1.1772421598434448,-0.0819993466138839,-0.627202570438385,-0.0251341164112091,0.0177932642400264,0.0,0.0,-0.2943273186683655,-0.7393169403076172
-0.0229321476072073,1.1626416444778442,-0.0878151208162307,-0.6488730907440186,-0.0226815342903137,0.0490561351180076,0.0,0.0,-0.7029068470001221,0.1488341093063354
-0.023770522326231,1.147554874420166,-0.0864456444978714,-0.6704814434051514,-0.0201100353151559,0.0514347366988658,0.0,0.0,-0.0564465522766113,0.4936223030090332
-0.0245942119508981,1.1319822072982788,-0.0850799828767776,-0.6920900344848633,-0.0174209214746952,0.0537872426211833,0.0,0.0,-0.71074378490448,0.3870977163314819
-0.0254030227661132,1.115923285484314,-0.0837191864848136,-0.7136988043785095,-0.0146170062944293,0.0560832135379314,0.0,0.0,0.1768674850463867,-0.1554865837097168
-0.0262937545776367,1.1001113653182983,-0.0915444046258926,-0.7027323246002197,-0.0121810603886842,0.0487191639840602,0.0,0.0,0.1279160976409912,0.4540978670120239
-0.0271611213684082,1.0845571756362915,-0.0893317237496376,-0.6912800669670105,-0.0096231792122125,0.0511574074625968,0.0,0.0,-0.3671382665634155,0.1932840347290039
-0.0280138961970806,1.0685168504714966,-0.0879788473248481,-0.7128867506980896,-0.006958105135709,0.0533015243709087,0.0,0.0,-0.2221878170967102,0.3599324226379394
-0.0288521759212017,1.0519905090332031,-0.0866322666406631,-0.7344935536384583,-0.0041885767132043,0.0553904362022876,0.0,0.0,0.0817373991012573,-0.0013864636421203
-0.0296884533017873,1.0354571342468262,-0.0864686220884323,-0.7348140478134155,-0.0013810895616188,0.056149948388338,0.0,0.0,0.0819013118743896,0.6031935214996338
-0.0304480548948049,1.0192759037017822,-0.0777140632271766,-0.7191641926765442,0.0003450165968388,0.034521959722042,0.0,0.0,0.6509244441986084,-0.638189435005188
-0.0313284881412982,1.0032615661621094,-0.0909690856933593,-0.7117453217506409,0.0032401834614574,0.0579036064445972,0.0,0.0,-0.5912527441978455,0.2046303749084472
-0.0321947112679481,0.986761510372162,-0.0896546393632888,-0.7333523631095886,0.006228073965758,0.0597576908767223,0.0,0.0,-0.7373808026313782,-0.0018962025642395
-0.0330470092594623,0.9697751998901368,-0.0883503034710884,-0.7549594044685364,0.0093055674806237,0.0615500211715698,0.0,0.0,-0.3602076768875122,0.4893515110015869
-0.0338855758309364,0.952303111553192,-0.0870570763945579,-0.7765665650367737,0.0124695505946874,0.0632795244455337,0.0,0.0,0.6098673343658447,0.3536329269409179
-0.0347019210457801,0.9354506731033324,-0.0850039049983024,-0.7490307092666626,0.0157987400889396,0.0665838494896888,0.0,0.0,-0.3230338096618652,0.6647984981536865
-0.0354543700814247,0.9181100130081176,-0.0774198397994041,-0.7707226276397705,0.0179437082260847,0.0428993478417396,0.0,0.0,-0.1344128251075744,0.5032237768173218
-0.0361512191593647,0.9002881050109863,-0.0708594769239425,-0.7920936942100525,0.0191011503338813,0.0231490191072225,0.0,0.0,0.8006479740142822,0.7272899150848389
-0.0368416793644428,0.8833658695220947,-0.0687221065163612,-0.7520954608917236,0.0187811665236949,-0.0063996696844697,0.0,0.0,0.6635158061981201,0.072190523147583
-0.0375022888183593,0.8668762445449829,-0.0659385174512863,-0.7328712344169617,0.018662966787815,-0.0023641921579837,0.0,0.0,-0.2909824848175049,-0.2015250921249389
-0.0381501205265522,0.849900484085083,-0.0647383630275726,-0.7544775605201721,0.0186116136610507,-0.0010267489124089,0.0,0.0,0.4435276985168457,-0.3144150972366333
-0.0386862754821777,0.8331276178359985,-0.0541322454810142,-0.7454683184623718,0.0191226191818714,0.0102202091366052,0.0,0.0,0.1076414585113525,0.2046715021133422
-0.0391490943729877,0.8161857724189758,-0.0471700467169284,-0.7529810070991516,0.0199951417744159,0.0174504984170198,0.0,0.0,-0.0559587478637695,0.3751956224441528
-0.0396000854671001,0.7987578511238098,-0.0460388474166393,-0.7745874524116516,0.020924586802721,0.0185885913670063,0.0,0.0,0.4236220121383667,-0.2051932215690612
-0.0400797836482524,0.7812233567237854,-0.0488024726510047,-0.7793266773223877,0.0217456072568893,0.0164203085005283,0.0,0.0,0.2008521556854248,0.6885024309158325
-0.0404614433646202,0.7635628581047058,-0.0377068668603897,-0.7849041223526001,0.021298224106431,-0.0089477356523275,0.0,0.0,0.2442266941070556,0.7133914232254028
-0.0407311432063579,0.7459204792976379,-0.0251971669495105,-0.7840792536735535,0.0195482298731803,-0.0349997989833354,0.0,0.0,-0.4325795769691467,0.1409518718719482
-0.0409902557730674,0.7277922034263611,-0.0241896323859691,-0.805685818195343,0.0178421754390001,-0.0341209210455417,0.0,0.0,0.0909748077392578,0.3180525302886963
-0.0413361564278602,0.7099558711051941,-0.0324956253170967,-0.7927008867263794,0.0157716255635023,-0.0414108112454414,0.0,0.0,0.2521615028381347,0.0473095178604126
-0.041694451123476,0.6922113299369812,-0.0337013751268386,-0.788627028465271,0.0136646209284663,-0.0421401783823967,0.0,0.0,0.6712427139282227,0.0562704801559448
-0.0419063568115234,0.6748501062393188,-0.0197735931724309,-0.7716010808944702,0.0122635634616017,-0.0280211828649044,0.0,0.0,-0.5139143466949463,0.159250259399414
-0.0421095862984657,0.6570026278495789,-0.0189341343939304,-0.793207585811615,0.0108943302184343,-0.0273845884948968,0.0,0.0,0.8022925853729248,-0.4929352402687073
-0.0421906486153602,0.639398455619812,-0.0073049133643507,-0.7824016213417053,0.0101057160645723,-0.0157722774893045,0.0,0.0,0.5245215892791748,0.1472876071929931
-0.0422684662044048,0.6224122643470764,-0.0070283971726894,-0.7549369931221008,0.0093569112941622,-0.0149760516360402,0.0,0.0,0.358644962310791,-0.2318997979164123
-0.0422204956412315,0.6055430769920349,0.0049572940915822,-0.7497410178184509,0.0091985007748007,-0.0031680602114647,0.0,0.0,0.4118813276290893,0.027167797088623
-0.0422514900565147,0.5887905955314636,-0.0025729637127369,-0.7445510625839233,0.0086833629757165,-0.0103028025478124,0.0,0.0,0.5088233947753906,0.4434581995010376
-0.0421970374882221,0.572644829750061,0.0055404244922101,-0.7175880670547485,0.0085839182138443,-0.0019888209644705,0.0,0.0,-0.1923585534095764,0.7075536251068115
-0.0420687682926654,0.556016743183136,0.0146688353270292,-0.7390171885490417,0.0067711356095969,-0.0362558923661708,0.0,0.0,0.5515429973602295,0.2210004329681396
-0.0418709740042686,0.5400630235671997,0.0212627500295639,-0.7090476751327515,0.0052968841046094,-0.0294848289340734,0.0,0.0,0.3212803602218628,0.5817327499389648
-0.0416936874389648,0.5245707631111145,0.0205274485051631,-0.6885365843772888,0.0025421262253075,-0.0550954155623912,0.0,0.0,0.0444042682647705,0.1231143474578857
-0.0414815917611122,0.5089437365531921,0.0238380637019872,-0.694532036781311,-5.3047260735183954e-05,-0.0519033595919609,0.0,0.0,0.321844220161438,0.1781703233718872
-0.0413475036621093,0.4936725199222564,0.0164070390164852,-0.6787252426147461,-0.0030113444663584,-0.0591659136116504,0.0,0.0,-0.3551108837127685,-0.1346007585525512
-0.0412118919193744,0.4779152870178222,0.0165431052446365,-0.7003322243690491,-0.005963375326246,-0.0590404570102691,0.0,0.0,0.7871017456054688,-0.1780999302864074
-0.0410463325679302,0.4626663327217102,0.0194305069744586,-0.6777483224868774,-0.008792876265943,-0.0565900430083274,0.0,0.0,0.2707773447036743,-0.2831849455833435
-0.0408720970153808,0.4473936855792999,0.0202599428594112,-0.6788043975830078,-0.0115914512425661,-0.0559716299176216,0.0,0.0,0.4558166265487671,0.257871150970459
-0.0408018119633197,0.432418018579483,0.0103765297681093,-0.6656137704849243,-0.014892972074449,-0.066030241549015,0.0,0.0,0.8258473873138428,-0.2633131742477417
-0.0406952872872352,0.4183743298053741,0.0138812018558382,-0.6241978406906128,-0.018084404990077,-0.0638285055756568,0.0,0.0,-0.4277232885360718,-0.167976438999176
-0.0405912399291992,0.4038447141647339,0.0136383576318621,-0.6458050012588501,-0.0212766025215387,-0.063844159245491,0.0,0.0,0.8265706300735474,-0.7270022630691528
-0.0404952056705951,0.3902535438537597,0.0113000106066465,-0.6040740609169006,-0.0229509733617305,-0.0334872305393219,0.0,0.0,-0.2033805251121521,0.0067203044891357
-0.0404030792415142,0.3761763870716095,0.0109121408313512,-0.6256805658340454,-0.0246281418949365,-0.033543474972248,0.0,0.0,0.4260809421539306,0.2636831998825073
-0.0403803810477256,0.3624924719333648,0.0043433774262666,-0.6082099080085754,-0.026675671339035,-0.0409506894648075,0.0,0.0,0.5839866399765015,0.0290287733078002
-0.0403176322579383,0.3492159843444824,0.0082225454971194,-0.5901020169258118,-0.028591176494956,-0.0383103340864181,0.0,0.0,0.1948733329772949,0.3255690336227417
-0.0403363220393657,0.3363732099533081,0.0005051446496509,-0.5708366632461548,-0.030942752957344,-0.0470312349498271,0.0,0.0,0.8351104259490967,-0.2574923038482666
-0.0402603149414062,0.3240022659301758,0.0096166348084807,-0.5498625040054321,-0.0329223610460758,-0.0395922437310218,0.0,0.0,-0.4683544039726257,-0.1826297044754028
-0.0401912704110145,0.3111451864242553,0.0089075211435556,-0.5714691281318665,-0.0349079594016075,-0.039711982011795,0.0,0.0,0.9684607982635498,-0.3375557661056518
-0.0400355346500873,0.2983783781528473,0.0172138139605522,-0.5674508810043335,-0.0365250818431377,-0.0323424153029918,0.0,0.0,0.6172316074371338,-0.6449300646781921
-0.0399605743587017,0.2856217324733734,0.0079141799360513,-0.5669716000556946,-0.0369424857199192,-0.0083479136228561,0.0,0.0,0.9407782554626464,-0.379520058631897
-0.0398697853088378,0.2737762331962585,0.0095564005896449,-0.5264790654182434,-0.0374120473861694,-0.0093913348391652,0.0,0.0,0.6660490036010742,-0.235000729560852
-0.0396767631173133,0.2626731693744659,0.019411914050579,-0.4934727847576141,-0.0375149101018905,-0.0020576487295329,0.0,0.0,0.3779966831207275,-0.5538665652275085
-0.0396130569279193,0.2521195709705353,0.0055953194387257,-0.4690301120281219,-0.0367495454847812,0.0153074469417333,0.0,0.0,0.13563072681427,-0.2774356603622436
-0.0396398529410362,0.2414260059595108,-0.0030335749033838,-0.4752607345581054,-0.0364019721746444,0.0069515840150415,0.0,0.0,0.551934003829956,0.75136399269104
-0.0395484939217567,0.2313606292009353,0.0102206207811832,-0.4473790824413299,-0.0374791584908962,-0.0215435735881328,0.0,0.0,0.4549843072891235,-0.4694039225578308
-0.0395380966365337,0.2215737849473953,0.0025555936153978,-0.4350078403949737,-0.038974829018116,-0.0299133006483316,0.0,0.0,0.1361397504806518,-0.5813515186309814
-0.0396082885563373,0.2120070308446884,-0.0066018016077578,-0.4251976907253265,-0.0393880046904087,-0.0082635153084993,0.0,0.0,-0.3671101331710815,-0.2259644269943237
-0.0396897308528423,0.2019542604684829,-0.0077290786430239,-0.4468039870262146,-0.0398057699203491,-0.0083551947027444,0.0,0.0,0.1452944278717041,-0.4256543517112732
-0.0397063270211219,0.192016139626503,-0.0015199333429336,-0.4416966140270233,-0.0399478003382682,-0.0028406286146491,0.0,0.0,0.4072200059890747,0.0745620727539062
-0.0397029891610145,0.1820276528596878,0.0003892084350809,-0.4439323246479034,-0.0399995446205139,-0.0010348616633564,0.0,0.0,0.4214382171630859,-0.6627880930900574
-0.0396624580025672,0.1720652878284454,0.0025995331816375,-0.4427323043346405,-0.0385696142911911,0.0285986475646495,0.0,0.0,0.6508407592773438,-0.1660296320915222
-0.0394652374088764,0.1624636948108673,0.0175810046494007,-0.4266872406005859,-0.0364608652889728,0.0421751365065574,0.0,0.0,0.0890512466430664,-0.6825608611106873
-0.0392209067940712,0.1527576744556427,0.02082284912467,-0.431292712688446,-0.0328843966126441,0.0715291798114776,0.0,0.0,0.6697471141815186,-0.3305195569992065
-0.0389698036015033,0.1437043249607086,0.0215166453272104,-0.4022972881793976,-0.0293334331363439,0.071019247174263,0.0,0.0,0.4175938367843628,-0.1379380822181701
-0.0386857017874717,0.1351396441459655,0.0246817730367183,-0.3805817365646362,-0.025657357648015,0.0735213905572891,0.0,0.0,0.1599500179290771,-0.6547911763191223
-0.0383562073111534,0.1267921030521392,0.0277751199901103,-0.370921641588211,-0.0205399561673402,0.1023479253053665,0.0,0.0,0.3777344226837158,-0.2066038846969604
-0.0379498489201068,0.1183644607663154,0.0350461229681968,-0.374495655298233,-0.0150283444672822,0.1102321967482566,0.0,0.0,0.2952812910079956,-0.3588064908981323
-0.0375918373465538,0.1100508272647857,0.0304053369909524,-0.3694518208503723,-0.009700583294034,0.1065550595521926,0.0,0.0,0.3879232406616211,0.4616354703903198
-0.0371688827872276,0.1023375838994979,0.0365603901445865,-0.3427861630916595,-0.0040355972014367,0.1132999509572982,0.0,0.0,0.3264715671539306,0.1747262477874755
-0.0367759689688682,0.0948241800069809,0.0336245372891426,-0.3339272737503052,0.0015528673538938,0.1117691621184349,0.0,0.0,0.4091489315032959,0.3670352697372436
-0.0365036018192768,0.0878424271941185,0.0220581870526075,-0.3103127479553222,0.0066622043959796,0.1021866798400878,0.0,0.0,-0.1626184582710266,0.7220625877380371
-0.0361793525516986,0.0803790912032127,0.0289071798324584,-0.3317228555679321,0.0101417489349842,0.0695909783244133,0.0,0.0,0.7591254711151123,0.9954607486724854
-0.0358617790043354,0.0736354440450668,0.0303041599690914,-0.2997311353683471,0.0115693416446447,0.0285519864410161,0.0,0.0,-0.2567842602729797,0.5400259494781494
-0.0355209335684776,0.0664100721478462,0.0335559770464897,-0.3211295306682586,0.012088069692254,0.0103748748078942,0.0,0.0,0.8616883754730225,-0.4256913661956787
-0.0352285392582416,0.059539757668972,0.0288309250026941,-0.3053510785102844,0.0124969370663166,0.0081771630793809,0.0,0.0,0.6418933868408203,0.2144966125488281
-0.0350730903446674,0.0530775636434555,0.0156527273356914,-0.2872075736522674,0.0123913781717419,-0.0021113902330398,0.0,0.0,0.5667662620544434,0.8910024166107178
-0.0350272171199321,0.0468705743551254,0.0066872565075755,-0.2758504152297973,0.0103207174688577,-0.0414132699370384,0.0,0.0,0.623854398727417,0.9686892032623292
-0.0348079688847065,0.0412457324564456,0.0257959011942148,-0.2499711662530899,0.0064925248734653,-0.0765634775161743,0.0,0.0,0.0879700183868408,-0.8263815641403198
-0.0346223823726177,0.0354919284582138,0.020724656060338,-0.2557165324687958,0.0043559353798627,-0.04273172467947,0.0,0.0,0.6849411725997925,0.1914180517196655
-0.034305952489376,0.030420122668147,0.033085498958826,-0.2254113256931305,0.0029346663504838,-0.0284254252910614,0.0,0.0,-0.131402850151062,0.4076763391494751
-0.0340032577514648,0.024862227961421,0.031678732484579,-0.2470177263021469,0.0015467855846509,-0.027757491916418,0.0,0.0,0.7103931903839111,-0.2914227247238159
-0.0335679054260253,0.0201454740017652,0.0442143380641937,-0.2096340209245681,0.0008779714698903,-0.0133763505145907,0.0,0.0,0.279281735420227,-0.5762684345245361
-0.0331274047493934,0.0156158301979303,0.043396707624197,-0.2013173401355743,0.0015213428996503,0.012867490760982,0.0,0.0,0.4480421543121338,-0.273270845413208
-0.0327080711722373,0.0116734839975833,0.0412713885307312,-0.175216719508171,0.002176150213927,0.0130961704999208,0.0,0.0,-0.0305589437484741,0.5050793886184692
-0.0322584137320518,0.0072496272623538,0.0453722290694713,-0.1966173350811004,0.0017685036873444,-0.0081526711583137,0.0,0.0,0.4550149440765381,-0.2854164838790893
-0.0317523963749408,0.0029453968163579,0.0506442412734031,-0.1912970244884491,0.0017347843386232,-0.0006746016442775,0.0,0.0,0.7043781280517578,0.623469352722168
-0.0313479416072368,-0.0008872294565662,0.0420183353126049,-0.1703401058912277,0.0001774470001691,-0.0311466418206691,0.0,0.0,0.6634875535964966,0.6002712249755859
-0.0310555454343557,-0.0030931497458368,0.0326331295073032,-0.0980378463864326,-0.0031736211385577,-0.0670217424631118,1.0,1.0,0.9343254566192628,-0.4456280469894409
-0.0308181755244731,-0.0035362506750971,0.0274915695190429,-0.0196990631520748,-0.0068750595673918,-0.0740153789520263,1.0,1.0,-0.4721335172653198,-0.6872971057891846
-0.0307355877012014,-0.0033239626791328,0.0111535359174013,0.0094226505607366,-0.0097458660602569,-0.0574221201241016,1.0,1.0,-0.35406494140625,-0.3223958015441894
-0.0306407921016216,-0.0025861405301839,0.0113702546805143,0.032776404172182,-0.0116095375269651,-0.0372717045247554,1.0,1.0,-0.4541124105453491,-0.421606183052063
-0.0304421428591012,-0.0016930722631514,0.0131143759936094,0.0397331975400447,-0.0049386648461222,0.1334141790866851,1.0,1.0,-0.8438732624053955,0.7322378158569336
-0.030157184228301,-0.0007120990776456,0.021049540489912,0.0436078794300556,0.002408405765891,0.146937221288681,1.0,1.0,-0.6386249661445618,0.4163033962249756
-0.0299139022827148,-0.000179734226549,0.0201421491801738,0.023649126291275,0.0065420656464993,0.0826734751462936,1.0,1.0,-0.7229891419410706,0.3601865768432617
