x_pos,y_pos,x_vel,y_vel,angle,ang_vel,leg_1,leg_2,main_booster,lat_booster
-0.0015785216819494,1.40297269821167,-0.1605314314365387,-0.3532174527645111,0.0023967344313859,0.0473247617483139,0.0,0.0,0.7169066497589252,-0.9373696464237756
-0.0032254219986498,1.3951114416122437,-0.1696150600910186,-0.3494080007076263,0.0072712977416813,0.0975015610456466,0.0,0.0,0.0857294657400484,-0.8499007034265436
-0.0048904418945312,1.3869907855987549,-0.1737716197967529,-0.3609724640846252,0.0144546246156096,0.1436800509691238,0.0,0.0,-0.1088289661570984,-0.9561818579348496
-0.0066958428360521,1.3782143592834473,-0.1906734704971313,-0.3901951909065246,0.0244787391275167,0.200500413775444,0.0,0.0,-0.996130024705736,-0.5447422263573733
-0.0085834506899118,1.3687883615493774,-0.2003315389156341,-0.4191612899303436,0.0359225869178772,0.2288982570171356,0.0,0.0,-0.0864999854204675,0.6434809617143942
-0.0104555133730173,1.358714938163757,-0.1977676749229431,-0.4479931890964508,0.0463722199201583,0.2090121954679489,0.0,0.0,-0.6887376920757338,0.6596773636466056
-0.0123220440000295,1.347995042800903,-0.1965129971504211,-0.4767761826515198,0.0561304353177547,0.1951819807291031,0.0,0.0,-0.1908105048129498,-0.8110912367948444
-0.0142788887023925,1.3366235494613647,-0.2073177397251129,-0.5058733820915222,0.0676592290401458,0.2305969446897506,0.0,0.0,-0.3240926937479138,-0.7420281556672015
-0.01633539237082,1.3246049880981443,-0.2193563282489776,-0.5348328948020935,0.0812425836920738,0.2716918289661407,0.0,0.0,-0.6761693657021335,-0.8570128972432621
-0.0184971801936626,1.3119354248046875,-0.2321320474147796,-0.5640397667884827,0.0970780253410339,0.3167378604412079,0.0,0.0,-0.2955241194496385,-0.8040737721369642
-0.0207481384277343,1.298611044883728,-0.2429525107145309,-0.5934456586837769,0.1148270219564437,0.3550127744674682,0.0,0.0,-0.956606335184424,-0.673601109229074
-0.02307815477252,1.2846310138702393,-0.2525460124015808,-0.6229533553123474,0.1342977732419967,0.3894508779048919,0.0,0.0,0.7175503078504895,-0.9938806963336452
-0.025462532415986,1.271106839179993,-0.2606561779975891,-0.603227972984314,0.1564898341894149,0.4438818991184234,0.0,0.0,0.2248078287785575,-0.964151929964572
-0.0279301647096872,1.2573165893554688,-0.2713720798492431,-0.6156786680221558,0.1811553984880447,0.4933561682701111,0.0,0.0,-0.2198833760430565,0.9717503813479884
-0.0303308479487895,1.2429184913635254,-0.2626836895942688,-0.6428381204605103,0.2039308100938797,0.4555502831935882,0.0,0.0,0.7789683758682364,0.7880275450086164
-0.0326289162039756,1.2283958196640017,-0.2515348792076111,-0.6486006379127502,0.2259092926979065,0.4396097660064697,0.0,0.0,0.8452940628611709,0.659831143164046
-0.0349479690194129,1.2147061824798584,-0.2531271278858185,-0.6118232607841492,0.2474725097417831,0.4313039779663086,0.0,0.0,0.1919649592594692,-0.9455010759274538
-0.037302304059267,1.2007750272750854,-0.2589041590690613,-0.6232967376708984,0.2714692056179046,0.4799772799015045,0.0,0.0,-0.8189162084520749,-0.6123495927444709
-0.0397085174918174,1.1861909627914429,-0.2654004693031311,-0.6529890894889832,0.2969761490821838,0.5101854205131531,0.0,0.0,-0.6385530758770852,-0.6812235815335628
-0.0421815887093544,1.1709386110305786,-0.2738355696201324,-0.6835363507270813,0.3245177567005157,0.5508818030357361,0.0,0.0,0.4476196873157225,0.5454857338739563
-0.0447157844901084,1.15606427192688,-0.2793500125408172,-0.6671332120895386,0.351680040359497,0.5432952642440796,0.0,0.0,-0.18942420270233,0.5728409809568207
-0.047207735478878,1.1405692100524902,-0.2741763591766357,-0.694997251033783,0.3780889809131622,0.5282262563705444,0.0,0.0,0.5388912763124711,-0.8920413892198152
-0.0498236641287803,1.125176191329956,-0.2885629832744598,-0.6915464997291565,0.406928151845932,0.576835036277771,0.0,0.0,0.006314711543039,0.8211460327777576
-0.0524020195007324,1.109464168548584,-0.2833016514778137,-0.7058765292167664,0.434487372636795,0.5512337684631348,0.0,0.0,0.9469654123591624,0.8944008843128715
-0.0553942695260047,1.0940730571746826,-0.3227331042289734,-0.6915407776832581,0.4602387547492981,0.5150742530822754,0.0,0.0,0.9862324497931418,0.9438207815212812
-0.0588506683707237,1.0790828466415403,-0.3671383261680603,-0.6735301613807678,0.4840545058250427,0.4763150811195373,0.0,0.0,0.1415092891208489,0.9531713215163188
-0.0624553672969341,1.0641748905181885,-0.3802438378334045,-0.6696622371673584,0.506218671798706,0.4432830810546875,0.0,0.0,0.6316653704387858,0.7624373204380626
-0.0665074363350868,1.0496392250061035,-0.4233946204185486,-0.6529029607772827,0.5268552303314209,0.4127317070960998,0.0,0.0,-0.8525286088515693,-0.6662120125687792
-0.0705894455313682,1.034416437149048,-0.4279389381408691,-0.6844038367271423,0.5495252013206482,0.4533993303775787,0.0,0.0,0.8654011072435397,-0.6201049504593894
-0.0749908462166786,1.0191948413848877,-0.4609420299530029,-0.6852195858955383,0.5737579464912415,0.4846553802490234,0.0,0.0,-0.7652390179211923,0.6671767265891023
-0.0793161392211914,1.003379464149475,-0.4519969820976257,-0.7114812135696411,0.5967814326286316,0.4604703783988952,0.0,0.0,-0.8420095443725586,0.9983285665512084
-0.0835454016923904,0.9869719743728638,-0.440737634897232,-0.7374693155288696,0.6181957721710205,0.4282878339290619,0.0,0.0,-0.8199862837791443,0.9919451475143432
-0.0876815766096115,0.969984233379364,-0.4298528134822845,-0.7628477811813354,0.6379706859588623,0.3954979479312897,0.0,0.0,-0.7731217741966248,0.9963672161102296
-0.0917121917009353,0.952404797077179,-0.4176604151725769,-0.7886531949043274,0.6560277938842773,0.3611418604850769,0.0,0.0,-0.9282630681991576,0.9967412948608398
-0.0956299751996994,0.9342523217201232,-0.4045535922050476,-0.8134322762489319,0.6720231771469116,0.3199076950550079,0.0,0.0,-0.6380195617675781,0.9932241439819336
-0.0994342789053917,0.9155310988426208,-0.3913756906986236,-0.8379347920417786,0.6859127283096313,0.2777912616729736,0.0,0.0,-0.4917816519737243,0.973844051361084
-0.1031216606497764,0.89622563123703,-0.3780853748321533,-0.8631753921508789,0.6978851556777954,0.2394484728574752,0.0,0.0,-0.7989237904548645,0.9809303283691406
-0.1066877394914627,0.8763535022735596,-0.3641629517078399,-0.8874483108520508,0.7076376676559448,0.195049837231636,0.0,0.0,-0.7345207929611206,0.9890718460083008
-0.1101380363106727,0.8559090495109558,-0.3509799838066101,-0.9120616912841796,0.7153915166854858,0.1550771445035934,0.0,0.0,-0.6566299796104431,0.9759199619293212
-0.1134592071175575,0.8348921537399292,-0.3363267183303833,-0.9365417957305908,0.7209154367446899,0.1104780063033104,0.0,0.0,-0.8667731881141663,0.9914705753326416
-0.1166630759835243,0.8132921457290649,-0.3232084214687347,-0.9616549015045166,0.7246206998825073,0.0741056054830551,0.0,0.0,-0.691458523273468,0.9962224960327148
-0.1197196990251541,0.7911306619644165,-0.3064306378364563,-0.9854121804237366,0.7256409525871277,0.0204046480357646,0.0,0.0,-0.7880823016166687,0.949962854385376
-0.1226277351379394,0.7683939337730408,-0.2896872162818908,-1.009864091873169,0.7241761088371277,-0.0292965117841959,0.0,0.0,-0.2892210483551025,0.9888908863067628
-0.1253850907087326,0.7450916171073914,-0.2726204395294189,-1.0338255167007446,0.7200738787651062,-0.0820449441671371,0.0,0.0,-0.3365602493286133,0.9047415256500244
-0.1280028373003006,0.7211934924125671,-0.2571376860141754,-1.059451460838318,0.7140063643455505,-0.1213506683707237,0.0,0.0,-0.0232799649238586,0.9438941478729248
-0.1304684579372406,0.6967126131057739,-0.2400766313076019,-1.08431875705719,0.7055637240409851,-0.1688529253005981,0.0,0.0,0.2176427841186523,0.766261100769043
-0.1329708993434906,0.6720594763755798,-0.2423082590103149,-1.0912208557128906,0.695300281047821,-0.2052688598632812,0.0,0.0,0.131191611289978,0.8883429765701294
-0.1357664167881012,0.6473987102508545,-0.2698293924331665,-1.0906912088394165,0.6828718185424805,-0.2485693991184234,0.0,0.0,0.0823359489440918,-0.0315544605255126
-0.1388596594333648,0.6226046681404114,-0.2990089356899261,-1.0964361429214478,0.6698152422904968,-0.26113161444664,0.0,0.0,-0.2465580105781555,0.1764510869979858
-0.141855239868164,0.5971586108207703,-0.2889320254325866,-1.1253997087478638,0.6565064787864685,-0.2661750912666321,0.0,0.0,-0.121471881866455,-0.3378896713256836
-0.1447509825229644,0.5710604786872864,-0.2786182761192322,-1.1543625593185425,0.6429204344749451,-0.2717204689979553,0.0,0.0,0.3553866147994995,-0.5614902377128601
-0.1479846984148025,0.5449532866477966,-0.312965452671051,-1.1551902294158936,0.6301476955413818,-0.2554548978805542,0.0,0.0,0.310016393661499,-0.6293321847915649
-0.1512830704450607,0.5186590552330017,-0.3203165233135223,-1.1640572547912598,0.6185759902000427,-0.2314338386058807,0.0,0.0,0.3984496593475342,-0.903369963169098
-0.154924675822258,0.4924852848052978,-0.3559154868125915,-1.159396052360535,0.6086022257804871,-0.1994744837284088,0.0,0.0,-0.0780354142189025,-0.9205524325370787
-0.1585013419389724,0.4656091034412384,-0.3503038883209228,-1.1911052465438845,0.5997646450996399,-0.1767518222332,0.0,0.0,0.2502337694168091,-0.7864269614219666
-0.162286564707756,0.4383964836597442,-0.3721582591533661,-1.2065690755844116,0.5921773910522461,-0.1517448425292968,0.0,0.0,-0.3855093717575073,-0.8557780981063843
-0.166010096669197,0.4104892909526825,-0.3669304549694061,-1.2379027605056765,0.5857273936271667,-0.1290005147457122,0.0,0.0,-0.4964062571525574,-0.8419186472892761
-0.1696644723415374,0.3818885684013366,-0.3607974350452423,-1.2691043615341189,0.5802454948425293,-0.109637439250946,0.0,0.0,-0.1391984224319458,-0.9000343680381775
-0.1732595413923263,0.352590411901474,-0.3559067249298095,-1.3005733489990234,0.5760036706924438,-0.0848369151353836,0.0,0.0,-0.460108995437622,-0.9188120365142822
-0.1768097877502441,0.3225782811641693,-0.3529053032398224,-1.3329594135284424,0.5735166072845459,-0.049740981310606,0.0,0.0,-0.3294734954833984,-0.9373979568481444
-0.1802963316440582,0.2918500304222107,-0.3477226793766022,-1.36529541015625,0.5724161267280579,-0.022009864449501,0.0,0.0,-0.3089663386344909,-0.9786124229431152
-0.1837416589260101,0.2603987455368042,-0.3452717363834381,-1.3981502056121826,0.5732754468917847,0.0171860195696353,0.0,0.0,-0.5946990847587585,-0.9899383187294006
-0.187118723988533,0.2282403260469436,-0.3394635021686554,-1.4300179481506348,0.575335681438446,0.0412047393620014,0.0,0.0,-0.4523515701293945,-0.994276762008667
-0.1904390305280685,0.1953672468662262,-0.3350884318351745,-1.4623538255691528,0.5789415240287781,0.0721162855625152,0.0,0.0,-0.4733719229698181,-0.9937372207641602
-0.193699836730957,0.1617703288793563,-0.330485850572586,-1.4951305389404297,0.584153950214386,0.1042489856481552,0.0,0.0,-0.2421553134918213,-0.9804895520210266
-0.1969160139560699,0.1274427026510238,-0.3277184963226318,-1.5283774137496948,0.5913856029510498,0.1446322202682495,0.0,0.0,-0.220209002494812,-0.9185274243354796
-0.2000713795423507,0.0924113392829895,-0.3227443099021911,-1.5602014064788818,0.5999775528907776,0.1718388348817825,0.0,0.0,-0.4583703279495239,-0.7924713492393494
-0.20314422249794,0.0566725097596645,-0.3152413964271545,-1.5920584201812744,0.6095258593559265,0.1909662187099456,0.0,1.0,0.9854497909545898,0.9998990297317504
-0.2065936625003814,0.0224031787365674,-0.3588042259216308,-1.5407216548919678,0.6189115643501282,0.1600356251001358,0.0,1.0,0.9878764152526855,0.9995732307434082
-0.2062930613756179,0.0129676675423979,0.1834403723478317,-0.0362539924681186,0.6099834442138672,-0.5303121209144592,0.0,1.0,0.9878764152526855,0.9995732307434082
