x_pos,y_pos,x_vel,y_vel,angle,ang_vel,leg_1,leg_2,main_booster,lat_booster
-0.0015275001060217,1.4031593799591064,-0.1548122614622116,-0.3449186980724334,0.0018382512498646,0.0362672545015811,0.0,0.0,0.7425050493995058,-0.8578119924443591
-0.003066062927246,1.3956825733184814,-0.157561719417572,-0.3323137462139129,0.0055066077038645,0.0733746662735939,0.0,0.0,0.0624739487418504,0.5788151066285899
-0.0044667245820164,1.3881268501281738,-0.1428358107805252,-0.3358235359191894,0.0082499179989099,0.0548712313175201,0.0,0.0,0.1754053147984109,-0.9993779830684127
-0.0060500144027173,1.3806339502334597,-0.1631567478179931,-0.333053857088089,0.0130155738443136,0.0953221470117569,0.0,0.0,0.1666171426567653,-0.8721235753760033
-0.0076021193526685,1.3733704090118408,-0.1619089543819427,-0.3228932619094848,0.0196336768567562,0.132374495267868,0.0,0.0,-0.8828746792456914,0.9418424802843705
-0.0090620992705225,1.3656435012817385,-0.1504305303096771,-0.3434792757034302,0.0240227803587913,0.08778977394104,0.0,0.0,0.2379915380955639,0.8004859114259288
-0.0104860309511423,1.3581024408340454,-0.1452626734972,-0.3352103233337402,0.0268658809363842,0.0568671450018882,0.0,0.0,0.8516119647645395,-0.5599995300637379
-0.011791038326919,1.3511905670166016,-0.1350788623094558,-0.3072800040245056,0.0313998572528362,0.0906876176595687,0.0,0.0,0.2721881923072369,-0.5719342452766489
-0.0131659507751464,1.3447837829589844,-0.143255665898323,-0.2848820984363556,0.0371003597974777,0.1140205264091491,0.0,0.0,-0.2452672003426517,0.5051997155392387
-0.0144941331818699,1.3379175662994385,-0.1376226097345352,-0.3052934110164642,0.0418566353619098,0.0951339974999427,0.0,0.0,-0.5196861105650836,-0.5457484126036984
-0.0158503539860248,1.3305847644805908,-0.1414164900779724,-0.3260718584060669,0.0475959405303001,0.1147962436079979,0.0,0.0,0.0237480289711247,-0.9504399031226892
-0.0172337535768747,1.3232746124267578,-0.1460882872343063,-0.3251639604568481,0.055260095745325,0.1532974690198898,0.0,0.0,0.545295655660549,-0.702653275862185
-0.0185629837214946,1.3164901733398438,-0.1423926055431366,-0.3019051253795624,0.0646440759301185,0.1876965016126632,0.0,0.0,0.3278760917443168,0.6574313401172323
-0.0197832100093364,1.309673547744751,-0.1303437203168869,-0.3033290505409241,0.0728869959712028,0.1648731827735901,0.0,0.0,-0.7261989141259133,-0.7175646049687452
-0.0210309978574514,1.3023958206176758,-0.1342508196830749,-0.3239381611347198,0.0822701230645179,0.187679573893547,0.0,0.0,0.7255501023335571,-0.7695405160986571
-0.0222214702516794,1.2951178550720217,-0.1303439438343048,-0.3241296410560608,0.0934930145740509,0.2244782000780105,0.0,0.0,-0.1749894736224717,0.964774215638082
-0.0232994072139263,1.287400245666504,-0.1167715936899185,-0.3435857594013214,0.1023996993899345,0.1781499683856964,0.0,0.0,0.3250885503427823,0.5332596257695216
-0.0242202766239643,1.2796882390975952,-0.1003145799040794,-0.3433445990085602,0.1105776727199554,0.1635742336511612,0.0,0.0,-0.4198311958827063,-0.7132918829343241
-0.0251643173396587,1.2715107202529907,-0.1038630455732345,-0.3641624748706817,0.1199874728918075,0.1882131695747375,0.0,0.0,-0.229697497547137,-0.6717631025432724
-0.0261417385190725,1.2628586292266846,-0.1087435930967331,-0.3854556083679199,0.1309564262628555,0.2193983346223831,0.0,0.0,-0.709534879000407,0.5658242861391718
-0.0270371437072753,1.2537577152252195,-0.099202737212181,-0.4053625464439392,0.1405940353870391,0.1927695572376251,0.0,0.0,0.0293126400700478,0.986800445001358
-0.0278536789119243,1.2446149587631226,-0.0893728658556938,-0.407093197107315,0.148297518491745,0.1540838181972503,0.0,0.0,-0.7194140474451891,0.6214147765900893
-0.0285778045654296,1.2350198030471802,-0.0786405876278877,-0.4270718693733215,0.1545279324054718,0.1246196776628494,0.0,0.0,0.6587841198861171,-0.8783155251035915
-0.0293045993894338,1.2254174947738647,-0.0808207020163536,-0.4276325106620788,0.1626765578985214,0.1629867255687713,0.0,0.0,0.3690440266582082,-0.9297581184981992
-0.0302858352661132,1.2160923480987549,-0.1080240458250045,-0.4155584871768951,0.1726086735725402,0.1986601799726486,0.0,0.0,0.8942111281865237,-0.5312952605532588
-0.0315789207816123,1.207421898841858,-0.1397939771413803,-0.3866132795810699,0.1831185221672058,0.2101971209049224,0.0,0.0,-0.0361901756020266,-0.8805501665604236
-0.0328977592289447,1.1982744932174685,-0.1441076397895813,-0.4081040620803833,0.1954083740711212,0.24579718708992,0.0,0.0,-0.1816251613603587,0.6610658987030227
-0.0341320037841796,1.1886827945709229,-0.1346099823713302,-0.4278185963630676,0.2066803872585296,0.2254400998353958,0.0,0.0,0.8046763041843112,0.9573044441803488
-0.0355745330452919,1.1798516511917114,-0.1532986611127853,-0.39378422498703,0.2158039361238479,0.1824709326028823,0.0,0.0,-0.5084684049595769,0.9162877028694992
-0.0368980392813682,1.170575499534607,-0.1396384537220001,-0.4133539795875549,0.2231728285551071,0.1473780572414398,0.0,0.0,0.0247580087859469,-0.5949307843789756
-0.0383189208805561,1.161598801612854,-0.1505876779556274,-0.4002750217914581,0.2317718565464019,0.1719804406166076,0.0,0.0,-0.9426349997520448,0.9690375328063964
-0.039618968963623,1.1521754264831543,-0.1368249058723449,-0.4199090600013733,0.2386925369501114,0.1384136378765106,0.0,0.0,-0.9459951519966124,0.9862542152404784
-0.0407977104187011,1.142320156097412,-0.1229960694909095,-0.4388471245765686,0.243904635310173,0.1042420119047164,0.0,0.0,-0.9647982716560364,0.995053768157959
-0.0418466553092002,1.1320171356201172,-0.1082761064171791,-0.4584833085536957,0.2473423033952713,0.0687535852193832,0.0,0.0,-0.9330094456672668,0.9467473030090332
-0.0427592284977436,1.121279001235962,-0.0927076786756515,-0.4774894714355469,0.2488264441490173,0.0296825673431158,0.0,0.0,-0.9668171405792236,0.9742779731750488
-0.0435314178466796,1.1101124286651611,-0.0766936913132667,-0.4962047934532165,0.248286485671997,-0.0107993176206946,0.0,0.0,-0.9840042591094972,0.9666848182678224
-0.0441650375723838,1.0985028743743896,-0.0610100142657756,-0.5155801773071289,0.2458908706903457,-0.0479123704135417,0.0,0.0,-0.9803346395492554,0.9681227207183838
-0.0446518883109092,1.0864654779434204,-0.0442849062383174,-0.5342665314674377,0.241415649652481,-0.0895044058561325,0.0,0.0,-0.9801753163337708,0.9781922101974488
-0.0449990257620811,1.0740000009536743,-0.0284868590533733,-0.5530180335044861,0.2350891530513763,-0.1265298873186111,0.0,0.0,-0.909580409526825,0.9889559745788574
-0.0451931953430175,1.0610997676849363,-0.0111338514834642,-0.5720363259315491,0.2266743779182434,-0.1682954132556915,0.0,0.0,-0.3628111481666565,-0.6217119097709656
-0.0453689582645893,1.047721028327942,-0.0107104564085602,-0.59357088804245,0.2197292000055313,-0.1389036476612091,0.0,0.0,-0.6459399461746216,0.3256489038467407
-0.0454668998718261,1.0338778495788574,-0.0029167507309466,-0.6142414212226868,0.2127805054187774,-0.1389742195606231,0.0,0.0,-0.5523852705955505,0.2131091356277465
-0.0454850196838378,1.0195704698562622,0.0050806123763322,-0.6349117755889893,0.2058258801698684,-0.1390925794839859,0.0,0.0,-0.1898943781852722,-0.3382208943367004
-0.0454213134944438,1.0047985315322876,0.0132761523127555,-0.6555821895599365,0.1988629400730133,-0.1392589062452316,0.0,0.0,-0.2217162847518921,-0.8880637884140015
-0.0453458800911903,0.989529550075531,0.0125720705837011,-0.6779516339302063,0.1938012391328811,-0.1012343317270279,0.0,0.0,-0.111246645450592,-0.0204641222953796
-0.0451849922537803,0.9737960696220398,0.0211462415754795,-0.6986200213432312,0.188726395368576,-0.1014974266290664,0.0,0.0,0.6519633531570435,-0.8534854650497437
-0.0450194366276264,0.958251416683197,0.0198056995868682,-0.6904574036598206,0.1854605823755264,-0.0653158277273178,0.0,0.0,0.1505548954010009,0.6855983734130859
-0.0449064262211322,0.943095862865448,0.0160509310662746,-0.6729928851127625,0.1806908845901489,-0.0953940153121948,0.0,0.0,0.134101390838623,-0.136360764503479
-0.0448895469307899,0.9282494783401488,0.0068888626992702,-0.6592200994491577,0.1754794120788574,-0.1042295321822166,0.0,0.0,-0.920108437538147,-0.3719660639762878
-0.0447802543640136,0.9129382967948914,0.0161492899060249,-0.6798886060714722,0.1702450066804886,-0.1046883910894393,0.0,0.0,-0.027417778968811,-0.894706130027771
-0.0446301475167274,0.8971484303474426,0.0188975017517805,-0.701332151889801,0.1663508862257003,-0.0778822153806686,0.0,0.0,-0.4567508101463318,-0.5953420996665955
-0.0444360747933387,0.8808846473693848,0.022031782194972,-0.7225406169891357,0.1637329161167144,-0.0523595884442329,0.0,0.0,0.1584372520446777,0.8412704467773438
-0.0440422073006629,0.8646507859230042,0.0436598025262355,-0.7210423350334167,0.1594512909650802,-0.0856325179338455,0.0,0.0,-0.2401096820831298,0.6712464094161987
-0.0434983260929584,0.8479709029197693,0.0600585266947746,-0.7407286167144775,0.153782308101654,-0.1133792996406555,0.0,0.0,0.2696907520294189,-0.4124858379364013
-0.0427993759512901,0.8314082622528076,0.0750842168927192,-0.7355970740318298,0.1486075669527053,-0.1034948229789733,0.0,0.0,0.0976600646972656,-0.796715259552002
-0.0421806350350379,0.8148111701011658,0.0655373781919479,-0.7372829914093018,0.1449493318796157,-0.0731649249792099,0.0,0.0,0.6731991767883301,0.4844536781311035
-0.0414825454354286,0.7989678382873535,0.07308329641819,-0.7038300633430481,0.1416909843683242,-0.0651669204235076,0.0,0.0,0.1599974632263183,-0.0025323033332824
-0.0406523719429969,0.7833834290504456,0.0858751758933067,-0.6923744678497314,0.1388377845287323,-0.0570640861988067,0.0,0.0,0.4793013334274292,0.7503715753555298
-0.0396886840462684,0.7684646248817444,0.1006572470068931,-0.6626654863357544,0.134558767080307,-0.0855802446603775,0.0,0.0,0.3159530162811279,0.4399051666259765
-0.03876418992877,0.7539989948272705,0.0970752015709877,-0.6425008177757263,0.1299510598182678,-0.0921545773744583,0.0,0.0,-0.3105499744415283,0.7099542617797852
-0.037672996520996,0.7390746474266052,0.1153509616851806,-0.6627792716026306,0.1237570121884346,-0.1238810196518898,0.0,0.0,0.3618034124374389,-0.781529426574707
-0.0367002487182617,0.7245214581489563,0.1021084561944007,-0.6464130878448486,0.1189458519220352,-0.0962233915925026,0.0,0.0,-0.1106197834014892,0.8952279090881348
-0.0355351455509662,0.709516704082489,0.1235751062631607,-0.6663333177566528,0.1119267418980598,-0.1403822302818298,0.0,0.0,-0.0003118515014648,-0.6327692866325378
-0.0343095771968364,0.6940404176712036,0.128458097577095,-0.6874115467071533,0.1060622408986091,-0.1172902435064315,0.0,0.0,0.6824325323104858,0.7601423263549805
-0.0329494476318359,0.6787136197090149,0.1434983909130096,-0.680675208568573,0.098640464246273,-0.1484352499246597,0.0,0.0,0.4678455591201782,-0.9522821307182312
-0.0317311286926269,0.6636770963668823,0.1275789439678192,-0.6679223775863647,0.0929355844855308,-0.1140976324677467,0.0,0.0,0.7551698684692383,0.1583855152130127
-0.0304642673581838,0.6495369076728821,0.1324011385440826,-0.6281062364578247,0.0872709155082702,-0.1132934242486953,0.0,0.0,-0.2643430233001709,-0.9337565302848816
-0.0291494373232126,0.6349126696586609,0.1356368958950042,-0.6497341990470886,0.0831491351127624,-0.0824354812502861,0.0,0.0,-0.0928717851638794,-0.0044531822204589
-0.0277234073728323,0.6198234558105469,0.1468377858400344,-0.6704016923904419,0.0789575800299644,-0.0838309004902839,0.0,0.0,0.0329755544662475,-0.9006387591362
-0.0263495445251464,0.6046913266181946,0.1398733705282211,-0.6724128127098083,0.0764972046017646,-0.0492075607180595,0.0,0.0,-0.4198662042617798,-0.6516392230987549
-0.0249229427427053,0.5890899300575256,0.1437137424945831,-0.6933388113975525,0.0754576474428176,-0.020791407674551,0.0,0.0,-0.5006340146064758,0.1119235754013061
-0.0233838073909282,0.5730234980583191,0.1550400406122207,-0.7140051126480103,0.0743419229984283,-0.0223144851624965,0.0,0.0,-0.574833869934082,-0.6641179323196411
-0.0217959396541118,0.5564923882484436,0.1583788394927978,-0.7347382307052612,0.07475146651268,0.0081905825063586,0.0,0.0,-0.1886982917785644,-0.7754458785057068
-0.0201486591249704,0.5394901037216187,0.1630226075649261,-0.7557409405708313,0.0764367207884788,0.0337052680552005,0.0,0.0,0.1117995977401733,0.2467219829559326
-0.0184308048337698,0.5224137902259827,0.1702647507190704,-0.7590228915214539,0.0779351070523262,0.0299678444862365,0.0,0.0,0.4916863441467285,-0.380007266998291
-0.0165613181889057,0.5053185820579529,0.1852395236492157,-0.7598782181739807,0.0796338319778442,0.0339745059609413,0.0,0.0,0.3946284055709839,-0.8169570565223694
-0.0146949766203761,0.4881673455238342,0.1833956390619278,-0.7624521255493164,0.0828387513756752,0.06409852206707,0.0,0.0,0.8628931045532227,-0.6321019530296326
-0.0128494258970022,0.471886396408081,0.1801728904247284,-0.7238455414772034,0.0871880128979682,0.0869850069284439,0.0,0.0,-0.2009491920471191,0.1729745864868164
-0.0108901979401707,0.455140620470047,0.1916194409132003,-0.7445129752159119,0.0914487987756729,0.0852159559726715,0.0,0.0,0.7189490795135498,-0.6617170572280884
-0.0090736392885446,0.4391824901103973,0.1764154583215713,-0.7095824480056763,0.0966418460011482,0.1038609370589256,0.0,0.0,0.3549860715866089,0.188527226448059
-0.0072754858992993,0.4231497347354889,0.175163984298706,-0.7128753662109375,0.10125283151865,0.0922196358442306,0.0,0.0,0.6015312671661377,0.2875034809112549
-0.0054026604630053,0.4078015685081482,0.1825520098209381,-0.682467520236969,0.1059522405266761,0.0939880833029747,0.0,0.0,0.182253360748291,0.0066170692443847
-0.0035323142074048,0.3925913572311401,0.1827301383018493,-0.6763210296630859,0.1102226376533508,0.0854081660509109,0.0,0.0,0.2510452270507812,0.2227464914321899
-0.0016468048561364,0.3776745796203613,0.1845339238643646,-0.6632683277130127,0.1142063662409782,0.0796748176217079,0.0,0.0,0.5617116689682007,0.197069764137268
0.0002645492495503,0.3632760345935821,0.1872838288545608,-0.6402376890182495,0.1180422231554985,0.0767169073224067,0.0,0.0,-0.5282995700836182,-0.4247266054153442
0.0022882460616528,0.3484124541282654,0.1985995322465896,-0.6609045267105103,0.1217816174030304,0.0747880116105079,0.0,0.0,0.3973766565322876,-0.3138027191162109
0.0044082640670239,0.3335186839103699,0.2082544863224029,-0.662257969379425,0.1255165189504623,0.0746979564428329,0.0,0.0,0.4349079132080078,-0.7062543034553528
0.006629467010498,0.3186815679073334,0.216880515217781,-0.6598767638206482,0.1307214498519897,0.1040989905595779,0.0,0.0,0.6406381130218506,-0.6453642845153809
0.0089940074831247,0.3042439818382263,0.229670912027359,-0.6422803997993469,0.1374779194593429,0.1351295709609985,0.0,0.0,0.9487276077270508,-0.927773118019104
0.0115126613527536,0.2900483608245849,0.242985799908638,-0.6317577362060547,0.1463243812322616,0.1769291758537292,0.0,0.0,0.9853484630584716,-0.6762537956237793
0.0139484405517578,0.2767200767993927,0.2334761321544647,-0.5933923721313477,0.1564024239778518,0.2015608251094818,0.0,0.0,0.8909826278686523,0.1703367233276367
0.016392420977354,0.2642225623130798,0.2342617511749267,-0.556540846824646,0.1665447652339935,0.2028469145298004,0.0,0.0,0.3592817783355713,-0.5405242443084717
0.0189205165952444,0.2520923316478729,0.2414653599262237,-0.5404346585273743,0.1779189705848693,0.2274839133024215,0.0,0.0,0.5151162147521973,0.1981197595596313
0.0215935707092285,0.2399651557207107,0.2556449174880981,-0.540427565574646,0.1896213591098785,0.2340481579303741,0.0,0.0,0.9060735702514648,-0.2465898394584655
0.0242020599544048,0.2282227426767349,0.2496003657579422,-0.5233644247055054,0.2009438872337341,0.2264506518840789,0.0,0.0,0.5243992805480957,0.0996954441070556
0.0268328674137592,0.217210367321968,0.2516018152236938,-0.4910451769828796,0.2125284373760223,0.2316909283399582,0.0,0.0,0.4409884214401245,-0.0272547006607055
0.0294426921755075,0.2064557820558548,0.2497160732746124,-0.479644775390625,0.223920077085495,0.2278327494859695,0.0,0.0,-0.1925408244132995,-0.3412430882453918
0.0321548469364643,0.1952375024557113,0.260067731142044,-0.5003201365470886,0.2352133840322494,0.2258662432432174,0.0,0.0,0.8637363910675049,-0.3314471244812011
0.0348797813057899,0.1847383379936218,0.2610401809215545,-0.4685040414333343,0.2468631267547607,0.2329949885606765,0.0,0.0,0.5971530675888062,0.0208337306976318
0.0374768264591693,0.1748115867376327,0.2486035525798797,-0.443095326423645,0.2581764161586761,0.2262660712003708,0.0,0.0,0.3168941736221313,-0.0140187144279479
0.0399555191397666,0.1652614176273346,0.2371990978717804,-0.426368236541748,0.2690885066986084,0.218241661787033,0.0,0.0,-0.0073586702346801,-0.0737648010253906
0.0425303466618061,0.1552474796772003,0.2469377070665359,-0.4470423758029938,0.2799054086208343,0.2163378298282623,0.0,0.0,0.2910261154174804,-0.1219205260276794
0.0449820533394813,0.1454092860221862,0.2351605147123336,-0.4392053782939911,0.2902064621448517,0.2060211449861526,0.0,0.0,0.5069549083709717,-0.2990707159042358
0.0472579970955848,0.135734811425209,0.2183155715465545,-0.4318569004535675,0.2997797131538391,0.191464826464653,0.0,0.0,0.0340399742126464,-0.1835488677024841
0.0495548248291015,0.1262699663639068,0.2202208936214447,-0.4226369261741638,0.3095679879188537,0.1957655847072601,0.0,0.0,0.1439321041107177,-0.2893977165222168
0.0519023910164833,0.1167255267500877,0.2252195626497268,-0.4262641668319702,0.3194625675678253,0.1978917568922042,0.0,0.0,0.0440868139266967,-0.2954086065292358
0.0542712211608886,0.1074467301368713,0.2270599901676178,-0.4145902693271637,0.3296925723552704,0.2046000063419342,0.0,0.0,-0.0290173292160034,-0.1337651014328003
0.0567231178283691,0.0977038741111755,0.2354908883571624,-0.4352627694606781,0.3398357033729553,0.2028625309467315,0.0,0.0,0.7948788404464722,-0.0145105719566345
0.0590922348201274,0.0888874158263206,0.2266394793987274,-0.3943018019199371,0.3506107926368713,0.215501070022583,0.0,0.0,0.6956272125244141,-0.433121919631958
0.0614081397652626,0.0804853737354278,0.2210908383131027,-0.3760204017162323,0.3616649508476257,0.2210830003023147,0.0,0.0,0.8619513511657715,-0.0701594948768615
0.0634653121232986,0.0729061663150787,0.195378229022026,-0.3395002782344818,0.3726005256175995,0.2187116593122482,0.0,0.0,0.7239863872528076,0.4453953504562378
0.065353587269783,0.0660458654165268,0.1783270537853241,-0.3076800107955932,0.3837502300739288,0.2229939699172973,0.0,0.0,0.4943017959594726,0.3672236204147339
0.06722192466259,0.059339415282011,0.1761464774608612,-0.3009849786758423,0.3951607644557953,0.2282106876373291,0.0,0.0,0.894258975982666,0.5201370716094971
0.0687822327017784,0.053089078515768,0.1468441635370254,-0.2803759574890136,0.4049911201000213,0.1966070979833603,0.0,0.0,0.8320014476776123,0.8205826282501221
0.0700944885611534,0.0471051074564456,0.1240038052201271,-0.2680379152297973,0.4127581417560577,0.1553404033184051,0.0,0.0,0.8931676149368286,0.4985631704330444
0.0711817741394043,0.0415291897952556,0.1017016991972923,-0.2498874515295028,0.4203427731990814,0.1516922414302826,0.0,1.0,0.9690485000610352,0.9996514320373536
0.072099782526493,0.0372633300721645,0.0995215848088264,-0.1878971308469772,0.4100858271121979,-0.2079900205135345,0.0,1.0,0.9960676431655884,0.9993913173675536
0.0729965195059776,0.0341628417372703,0.115996815264225,-0.130501702427864,0.3817209005355835,-0.5675743222236633,0.0,1.0,0.997273087501526,-0.0541445612907409
0.0736253708600997,0.0324539504945278,0.1009691953659057,-0.0663165301084518,0.3414170444011688,-0.8061933517456055,0.0,1.0,0.8950926065444946,-0.7231438755989075
0.0738919228315353,0.0317437760531902,0.0668372213840484,-0.022621875628829,0.2995434999465942,-0.8375465273857117,0.0,1.0,0.7997781038284302,-0.5984494686126709
0.0741186141967773,0.0310496911406517,0.0602620430290699,-0.0235879775136709,0.2608700394630432,-0.7735028266906738,0.0,1.0,0.7407436370849609,-0.4386475086212158
