x_pos,y_pos,x_vel,y_vel,angle,ang_vel,leg_1,leg_2,main_booster,lat_booster
-0.0015256882179528,1.4030836820602417,-0.1545257866382599,-0.3482883274555206,0.0017532057827338,0.0345829091966152,0.0,0.0,-0.7238027051412463,-0.80647385810275
-0.0031114579178392,1.3947255611419678,-0.1617748290300369,-0.3714815974235534,0.0049123200587928,0.0631892532110214,0.0,0.0,0.6300171541233319,0.8431920475808039
-0.0044885636307299,1.386419415473938,-0.1394908130168914,-0.3691691756248474,0.0066730724647641,0.0352181307971477,0.0,0.0,0.0168277546532449,-0.9365415367318236
-0.0060312272980809,1.3780288696289062,-0.1579517722129821,-0.3729313611984253,0.0103208729997277,0.0729628726840019,0.0,0.0,0.4478374527410105,0.6425084547062833
-0.0074073793366551,1.369959592819214,-0.1403304636478424,-0.3586592972278595,0.0129994004964828,0.0535754151642322,0.0,0.0,0.1407421856057229,-0.6364239420126877
-0.0087344171479344,1.3619120121002195,-0.1368982940912246,-0.3577100038528442,0.0171520635485649,0.0830608829855918,0.0,0.0,-0.2388770313461812,-0.676392372786667
-0.0101186754181981,1.3533225059509275,-0.1440888941287994,-0.3818294703960418,0.0227536261081695,0.11204145103693,0.0,0.0,0.7353736405985258,-0.6338273979108152
-0.0114010814577341,1.3452179431915283,-0.1356889307498932,-0.3603376448154449,0.0301211513578891,0.1473642289638519,0.0,0.0,-0.2194730569023402,0.7937422996235713
-0.0126244546845555,1.3365843296051023,-0.1283215284347534,-0.3838504254817962,0.0360332429409027,0.1182527393102645,0.0,0.0,-0.7971824665327119,0.9783445932190608
-0.0137731553986668,1.3274204730987549,-0.1189908385276794,-0.4073842763900757,0.0401101037859916,0.0815447941422462,0.0,0.0,-0.6905994293194158,-0.9179375155757534
-0.01498584728688,1.3177132606506348,-0.1270741820335388,-0.43160280585289,0.0458610504865646,0.1150290817022323,0.0,0.0,0.9076835180557368,0.7559532948760807
-0.0160802844911813,1.308388113975525,-0.1140814647078514,-0.41459921002388,0.0504492446780204,0.0917722433805465,0.0,0.0,-0.0848202648408216,-0.9452237847991264
-0.0172352790832519,1.29852294921875,-0.1217517405748367,-0.4386789202690124,0.0566463805735111,0.1239538565278053,0.0,0.0,-0.400605047235127,-0.666309335634302
-0.0184383392333984,1.2881075143814087,-0.1279075145721435,-0.4632134735584259,0.0641656965017318,0.1503999680280685,0.0,0.0,-0.9616812917277432,0.735593421270856
-0.0195725448429584,1.277166485786438,-0.119339033961296,-0.4865357577800751,0.0700428783893585,0.1175544038414955,0.0,0.0,0.7384486352292576,0.9496527245752848
-0.0205265041440725,1.2661634683609009,-0.0998005047440528,-0.489239752292633,0.0744105353951454,0.0873610600829124,0.0,0.0,0.0287974749342001,0.6738956713625411
-0.021371554583311,1.255441188812256,-0.0878447517752647,-0.4767103791236877,0.0777182728052139,0.0661604255437851,0.0,0.0,0.1086993654713157,0.6959063208174044
-0.0220746994018554,1.244567632675171,-0.0725713521242141,-0.4833931028842926,0.0799604877829551,0.0448484681546688,0.0,0.0,0.977730203555382,-0.7765644471855296
-0.0227921493351459,1.2346051931381226,-0.0760634541511535,-0.4430040419101715,0.0842453613877296,0.0857049226760864,0.0,0.0,-0.4238821948991385,0.7624240739474252
-0.0234595295041799,1.2241085767745972,-0.0699409320950508,-0.4667047262191772,0.0874292999505996,0.0636844933032989,0.0,0.0,-0.6189203544299176,-0.6433993717684001
-0.0241689682006835,1.2130709886550903,-0.0753858238458633,-0.4908249676227569,0.0918452963232994,0.0883272439241409,0.0,0.0,-0.7880771414998793,-0.6215761098802988
-0.0249279979616403,1.201483130455017,-0.0818039178848266,-0.5153926610946655,0.097706638276577,0.1172371953725814,0.0,0.0,-0.6268621389293016,0.7812090588521545
-0.0256141666322946,1.189365029335022,-0.072852686047554,-0.5388719439506531,0.101915143430233,0.0841777771711349,0.0,0.0,-0.6468239530998907,0.8349267889437523
-0.0262281410396099,1.1767082214355469,-0.0640245825052261,-0.5626993775367737,0.1045174300670623,0.0520508214831352,0.0,0.0,-0.0921580751271884,-0.7025771924018946
-0.0269124992191791,1.1635024547576904,-0.073046438395977,-0.5872547626495361,0.1091045439243316,0.0917505919933319,0.0,0.0,-0.9621861965301168,-0.7388917081374377
-0.0276695247739553,1.1497273445129397,-0.082425944507122,-0.6127347350120544,0.1157805770635604,0.1335206925868988,0.0,0.0,0.7791947596202833,0.6761522321000425
-0.0284614562988281,1.136592149734497,-0.0848329216241836,-0.5842344760894775,0.121382862329483,0.1120459288358688,0.0,0.0,-0.7846546840440025,0.7991894042878953
-0.0292067527770996,1.1229342222213743,-0.0791769102215766,-0.6074081659317017,0.1260049641132354,0.0924424678087234,0.0,0.0,-0.3807425864682421,-0.913467043678162
-0.0300416946411132,1.1087273359298706,-0.0906396508216857,-0.6320410370826721,0.1331209391355514,0.1423195600509643,0.0,0.0,0.8846532160058784,0.8275745723055176
-0.030912971124053,1.0948121547698977,-0.0928491503000259,-0.6189700365066528,0.1388148367404937,0.1138777509331703,0.0,0.0,0.2832226607238333,0.6900311020219527
-0.0318077094852924,1.081356406211853,-0.0941063314676284,-0.598472535610199,0.1434377133846283,0.0924570709466934,0.0,0.0,0.0299611046551295,0.8046638270436859
-0.0327359214425087,1.0677629709243774,-0.0961160808801651,-0.6044714450836182,0.1467296034097671,0.0658377259969711,0.0,0.0,0.9481459450735654,0.963609614800169
-0.0338361747562885,1.0550341606140137,-0.1114965230226516,-0.5658740997314453,0.1481993794441223,0.0293953716754913,0.0,0.0,-0.0734958198169886,0.6558887034799
-0.0348916053771972,1.0417693853378296,-0.1061450690031051,-0.5896028280258179,0.1487990021705627,0.0119924778118729,0.0,0.0,0.1232607262922005,0.6301116541528807
-0.0359504707157611,1.0286121368408203,-0.1055493131279945,-0.5847303867340088,0.1484577655792236,-0.0068246931768953,0.0,0.0,-0.8326102340584765,0.6435768108731341
-0.0369597449898719,1.0149312019348145,-0.0995545759797096,-0.6079090237617493,0.1470941007137298,-0.0272732768207788,0.0,0.0,-0.4563046445318606,-0.9168222525064136
-0.0380448326468467,1.0006886720657349,-0.1093786358833313,-0.6330839395523071,0.1479554027318954,0.0172261390835046,0.0,0.0,0.3130981961993799,-0.8438468212996965
-0.039253331720829,0.9868029952049256,-0.1237418875098228,-0.6174342036247253,0.1508459746837616,0.0578114762902259,0.0,0.0,0.938271371382257,-0.9935148490548072
-0.0407413467764854,0.973824977874756,-0.1539160013198852,-0.5773298144340515,0.1559485644102096,0.1020517498254776,0.0,0.0,-0.0230550339465267,-0.8807285350184323
-0.0422965995967388,0.9602929353713988,-0.16263148188591,-0.6021861433982849,0.1630469113588333,0.141967087984085,0.0,0.0,-0.5197972137663234,-0.6144197704344405
-0.0439104065299034,0.9462128281593324,-0.1702427417039871,-0.6267810463905334,0.1719093769788742,0.1772494465112686,0.0,0.0,-0.9857774376869202,0.9640846252441406
-0.0454351417720317,0.931614875793457,-0.1593154370784759,-0.6496079564094543,0.1787658333778381,0.1371296346187591,0.0,0.0,-0.9937819242477416,0.9804155826568604
-0.0468715652823448,0.9164904952049256,-0.1485225260257721,-0.6727864742279053,0.1836685389280319,0.0980541482567787,0.0,0.0,-0.970770299434662,0.8654253482818604
-0.0482307448983192,0.9008466005325316,-0.1391171067953109,-0.6956878304481506,0.1868740767240524,0.0641111880540847,0.0,0.0,-0.557786762714386,0.9246373176574708
-0.0495229735970497,0.8846709132194519,-0.1310243606567382,-0.7191480398178101,0.1886822432279586,0.0361631885170936,0.0,0.0,-0.6800220608711243,0.9969499111175536
-0.0507319457828998,0.8679691553115845,-0.1208827644586563,-0.742300808429718,0.1886705458164215,-0.0002335136086912,0.0,0.0,-0.6379209160804749,0.9966728687286376
-0.0518561378121376,0.8507463335990906,-0.110554538667202,-0.765217125415802,0.1867876946926117,-0.0376569554209709,0.0,0.0,0.4428774118423462,0.9991222620010376
-0.0531516075134277,0.8340581655502319,-0.1259110122919082,-0.7412481904029846,0.183142215013504,-0.0729095935821533,0.0,0.0,-0.7488527297973633,0.9963929653167723
-0.054388903081417,0.8168555498123169,-0.1188660487532615,-0.7639691829681396,0.1782629936933517,-0.0975848287343978,0.0,0.0,0.4146836996078491,0.9998981952667236
-0.0556468963623046,0.7997689247131348,-0.1192525774240493,-0.7586344480514526,0.1716986298561096,-0.1312871277332306,0.0,0.0,-0.9658160209655762,0.9867329597473145
-0.0568106658756732,0.7821674942970276,-0.1077151894569397,-0.7813083529472351,0.1630183309316635,-0.1736060678958892,0.0,0.0,-0.2399760484695434,0.9452292919158936
-0.0579095855355262,0.7640499472618103,-0.0998182371258735,-0.804159939289093,0.1529555916786193,-0.2012547701597213,0.0,0.0,-0.8023068308830261,0.9680328369140624
-0.0589194297790527,0.7454089522361755,-0.0889412686228752,-0.82729172706604,0.1409411430358886,-0.2402889430522918,0.0,0.0,0.1195853948593139,0.5005464553833008
-0.0599648468196392,0.727046012878418,-0.0918175801634788,-0.8149728775024414,0.1282629072666168,-0.2535648643970489,0.0,0.0,-0.3665311336517334,0.4390573501586914
-0.0610110275447368,0.7081450819969177,-0.0922013968229293,-0.8390260338783264,0.1159196868538856,-0.2468645274639129,0.0,0.0,0.7139632701873779,0.98382830619812
-0.0621472373604774,0.6894242763519287,-0.0994137898087501,-0.8309961557388306,0.1018033549189567,-0.2823266088962555,0.0,0.0,-0.3551912307739258,0.8658851385116577
-0.0632058158516883,0.670185923576355,-0.0899393558502197,-0.8540259599685669,0.0860239118337631,-0.3155890107154846,0.0,0.0,0.8516640663146973,-0.1007401347160339
-0.064175508916378,0.6515599489212036,-0.0820926129817962,-0.8270341157913208,0.0712963119149208,-0.2945519089698791,0.0,0.0,-0.2868560552597046,-0.8326234221458435
-0.0652032867074012,0.6323983669281006,-0.0896934792399406,-0.8510541915893555,0.0583552978932857,-0.2588203549385071,0.0,0.0,0.9421825408935548,-0.6599465012550354
-0.0664331465959549,0.6140742301940918,-0.1113127246499061,-0.8139911890029907,0.0468152649700641,-0.2308007776737213,0.0,0.0,0.6895873546600342,0.2852051258087158
-0.067628189921379,0.595782458782196,-0.1084095388650894,-0.8126645684242249,0.0358543433248996,-0.2192184180021286,0.0,0.0,0.938023805618286,0.6487433910369873
-0.0689271911978721,0.5781844258308411,-0.1174981594085693,-0.7818832397460938,0.0236102864146232,-0.2448811829090118,0.0,0.0,-0.7131959199905396,-0.2546160221099853
-0.0702256187796592,0.5600476264953613,-0.1177777275443077,-0.8059325814247131,0.0117034567520022,-0.238136813044548,0.0,0.0,0.931422472000122,-0.6358613967895508
-0.0715523734688758,0.542447030544281,-0.1223181709647178,-0.7821981906890869,0.001476160949096,-0.2045458108186721,0.0,0.0,0.6347451210021973,0.7672302722930908
-0.0728095024824142,0.5248965620994568,-0.1141656786203384,-0.7800450921058655,-0.0099236378446221,-0.2279960662126541,0.0,0.0,0.7170536518096924,-0.3970494866371155
-0.0741880387067794,0.5077303051948547,-0.1260440796613693,-0.7630631327629089,-0.0215814318507909,-0.2331559658050537,0.0,0.0,0.5797997713088989,0.5747389793395996
-0.0754797905683517,0.4912567436695099,-0.1166093721985817,-0.7323824167251587,-0.0339905656874179,-0.2481825351715088,0.0,0.0,-0.7527433633804321,-0.011794626712799
-0.0767699256539344,0.4742443263530731,-0.1167988628149032,-0.7564305067062378,-0.0460627600550651,-0.2414439916610717,0.0,0.0,0.4944576025009155,0.4194693565368652
-0.0779983550310134,0.4578480720520019,-0.1110817790031433,-0.7291233539581299,-0.0576851554214954,-0.2324477732181549,0.0,0.0,0.5868222713470459,-0.5166702270507812
-0.0793360695242881,0.4416029155254364,-0.1231390684843063,-0.7224510908126831,-0.0682006925344467,-0.2103108465671539,0.0,0.0,-0.3149920105934143,0.211350679397583
-0.0806715935468673,0.4248180687427521,-0.1232655048370361,-0.7464945912361145,-0.0783801153302192,-0.2035885155200958,0.0,0.0,0.8274781703948975,-0.2280493378639221
-0.0819168090820312,0.4085187613964081,-0.1147437244653701,-0.7249540090560913,-0.0880664512515068,-0.1937265247106552,0.0,0.0,0.7237279415130615,0.0723751783370971
-0.0832157135009765,0.3930138647556305,-0.1198330149054527,-0.6897303462028503,-0.0980391725897789,-0.1994543373584747,0.0,0.0,-0.5983365178108215,-0.3948101997375488
-0.0845116600394249,0.3769689798355102,-0.1198906302452087,-0.7137719988822937,-0.1076769977807998,-0.1927563399076461,0.0,0.0,0.8018432855606079,-0.847872793674469
-0.085866168141365,0.3610306978225708,-0.1277100145816803,-0.7089470028877258,-0.1153672933578491,-0.1538054049015045,0.0,0.0,0.9499520063400269,-0.4249874353408813
-0.0870934501290321,0.345109611749649,-0.1157018318772316,-0.7081645727157593,-0.1223525404930114,-0.1397048830986023,0.0,0.0,0.9578001499176024,-0.800366222858429
-0.0883719474077224,0.3292575478553772,-0.1226843446493148,-0.7049680352210999,-0.1274997442960739,-0.1029437184333801,0.0,0.0,0.987501621246338,-0.3990191221237182
-0.0895353332161903,0.3142861127853393,-0.1114576011896133,-0.6658245325088501,-0.13236103951931,-0.0972261875867843,0.0,0.0,0.9854834079742432,-0.7629279494285583
-0.0905211418867111,0.3002299666404724,-0.0958051159977912,-0.6249659657478333,-0.1351206600666046,-0.0551922693848609,0.0,0.0,0.592182993888855,-0.8089210391044617
-0.0915781036019325,0.2868484556674957,-0.1046821102499961,-0.5948267579078674,-0.1361283361911773,-0.020153583958745,0.0,0.0,0.9795746803283693,0.4393603801727295
-0.092730239033699,0.2735468447208404,-0.1138147935271263,-0.5913091897964478,-0.1375231742858886,-0.0278965774923563,0.0,0.0,0.8617018461227417,0.6257064342498779
-0.0936575904488563,0.261012852191925,-0.0905437916517257,-0.5572741031646729,-0.1397102922201156,-0.0437422953546047,0.0,0.0,0.9081066846847534,-0.5375397801399231
-0.0946523696184158,0.2489594370126724,-0.0983349233865737,-0.5358145833015442,-0.1408557444810867,-0.0229090228676795,0.0,0.0,0.79457688331604,0.4217418432235718
-0.0955975502729415,0.2374705672264099,-0.0934170633554458,-0.5107182860374451,-0.1419498771429062,-0.0218827668577432,0.0,0.0,0.2713853120803833,0.1892567873001098
-0.0964701622724533,0.2262414097785949,-0.0864465311169624,-0.4991545081138611,-0.142761081457138,-0.0162244457751512,0.0,0.0,0.1735761165618896,0.0400692224502563
-0.0972168892621994,0.2150711119174957,-0.0744712799787521,-0.4964753985404968,-0.142961636185646,-0.0040111234411597,0.0,0.0,0.0592081546783447,-0.3200823664665222
-0.0979113578796386,0.2036820203065872,-0.0696345344185829,-0.5061641931533813,-0.1427692174911499,0.0038482558447867,0.0,0.0,0.7046351432800293,0.7537729740142822
-0.0983780845999717,0.1923277676105499,-0.0458920076489448,-0.5047101974487305,-0.1435549259185791,-0.015714131295681,0.0,0.0,0.9624526500701904,-0.1489473581314087
-0.0985684394836425,0.1814015209674835,-0.01937404461205,-0.4855762422084808,-0.1432128846645355,0.0068403668701648,0.0,0.0,0.8177022933959961,-0.0480036735534668
-0.098538301885128,0.170545294880867,0.0016394921112805,-0.482368141412735,-0.1418439745903015,0.0273780766874551,0.0,0.0,0.9498549699783324,-0.7174193263053894
-0.0984387397766113,0.1604830771684646,0.0068493722938001,-0.4469172656536102,-0.1387403905391693,0.0620714947581291,0.0,0.0,0.7758181095123291,0.2180438041687011
-0.0981862097978591,0.1510839015245437,0.0216646566987037,-0.4174095392227173,-0.1351698487997055,0.0714109763503074,0.0,0.0,0.2738246917724609,-0.6223209500312805
-0.0978003516793251,0.1418989449739456,0.033249944448471,-0.4077470004558563,-0.1298570036888122,0.1062568053603172,0.0,0.0,0.5270339250564575,-0.38849937915802
-0.0972754508256912,0.1326037794351577,0.0464101396501064,-0.4126039743423462,-0.1238048747181892,0.1210424154996872,0.0,0.0,0.8225746154785156,-0.7445051670074463
-0.0967945083975792,0.1236245930194854,0.0403357557952404,-0.3984526693820953,-0.1161005273461341,0.1540870368480682,0.0,0.0,0.5195937156677246,-0.6859596371650696
-0.0961821526288986,0.1152900755405426,0.0516331978142261,-0.3697015941143036,-0.1065541431307792,0.190927505493164,0.0,0.0,0.257561445236206,0.1714497804641723
-0.095533087849617,0.1070646345615387,0.0550637319684028,-0.3649059534072876,-0.0967912226915359,0.1952584683895111,0.0,0.0,0.3096907138824463,0.8149290084838867
-0.0948615074157714,0.0992548316717147,0.0587633550167083,-0.3465817868709564,-0.0884760096669197,0.1663047075271606,0.0,0.0,0.252440333366394,0.2597142457962036
-0.0940691009163856,0.0916865691542625,0.0702467039227485,-0.3358620405197143,-0.0795646086335182,0.1782278567552566,0.0,0.0,0.3286603689193725,0.8283226490020752
-0.0932032614946365,0.084484227001667,0.0790165513753891,-0.3197192251682281,-0.0720673948526382,0.1499443352222442,0.0,0.0,-0.1594598293304443,0.277288556098938
-999.0,0.0767415836453437,0.0795948654413223,-0.3437583744525909,-0.0642883405089378,0.1555809080600738,0.0,0.0,0.8799690008163452,0.4508223533630371
-0.0914371460676193,0.0693097189068794,0.0811399221420288,-0.3299843072891235,-0.056363608688116,0.1584947109222412,0.0,0.0,0.7073640823364258,0.8973230123519897
-0.0905649214982986,0.0622744672000408,0.0809573680162429,-0.3124548494815826,-0.0501653365790843,0.1239654570817947,0.0,0.0,0.582451343536377,0.6928277015686035
-0.0897613540291786,0.0554562918841838,0.0755297094583511,-0.3028736412525177,-0.0454033575952053,0.0952398031949997,0.0,0.0,0.7434139251708984,0.9253484010696412
-0.0887165069580078,0.0492257699370384,0.101068839430809,-0.2768146097660064,-0.0420301854610443,0.0674635618925094,0.0,0.0,0.3668210506439209,0.7572588920593262
-0.0875332802534103,0.0428978316485881,0.1161009669303894,-0.281179815530777,-0.0398322008550167,0.0439594835042953,0.0,0.0,0.5468924045562744,-0.2518360614776611
-0.0861766785383224,0.0370915979146957,0.1325514763593673,-0.2579755485057831,-0.0367627330124378,0.0613893344998359,0.0,0.0,0.8002724647521973,-0.0571725368499755
-0.0848047286272049,0.0320134982466697,0.1339693963527679,-0.2256180346012115,-0.0335737131536006,0.0637804120779037,0.0,0.0,0.4324356317520141,-0.490030288696289
-0.0832749381661415,0.0274990890175104,0.148937776684761,-0.2005547136068344,-0.0295866504311561,0.0797411948442459,0.0,0.0,0.2980128526687622,-0.7207832932472229
-0.0817124396562576,0.0231265872716903,0.150455430150032,-0.194233164191246,-0.0238542594015598,0.114647664129734,0.0,0.0,0.4617975950241089,-0.5584331750869751
-0.0801743492484092,0.0193044040352106,0.1466890424489975,-0.1697772890329361,-0.0168213993310928,0.1406568735837936,0.0,0.0,0.3207906484603882,-0.0019224882125854
-0.0785677880048751,0.0158851966261863,0.1530996114015579,-0.1519005000591278,-0.009369789622724,0.1490321904420852,0.0,0.0,0.2726951837539673,-0.907853662967682
-0.0769490227103233,0.0124512529000639,0.1522745788097381,-0.1525860130786895,0.0001150689859059,0.1896970570087433,0.0,0.0,0.5587692260742188,-0.8587284088134766
-0.0755182281136512,0.0093544097617268,0.1317593455314636,-0.1376749873161316,0.0112903555855154,0.2235057651996612,0.0,0.0,0.2321596145629882,-0.5730007886886597
-0.0742332488298416,0.0062903617508709,0.116059198975563,-0.136317029595375,0.0235616154968738,0.2454251497983932,0.0,0.0,0.1536340713500976,0.4554204940795898
-0.0729636177420616,0.0032773471903055,0.1144664660096168,-0.1341537535190582,0.0359055437147617,0.2468787431716919,0.0,0.0,0.3346341848373413,0.7201590538024902
-0.0718133896589279,0.0009799813851714,0.123529776930809,-0.1019274741411209,0.0275020189583301,-0.1680788993835449,0.0,1.0,-0.1594183444976806,0.0306600332260131
-0.0707662552595138,-0.0012558364542201,0.1300286948680877,-0.0991131514310836,0.0024671545252203,-0.5007556676864624,0.0,1.0,0.4152537584304809,-0.5407302975654602
-0.0696212798357009,-0.0023397349286824,0.1230223402380943,-0.0481841303408145,-0.0059469360858201,-0.1682891100645065,1.0,1.0,0.5976160764694214,-0.9912122488021852
-0.068504050374031,-0.0018853330984711,0.1081897988915443,0.0202065091580152,-0.0024633549619466,0.0696634575724601,1.0,1.0,-0.5466954112052917,-0.9932445883750916
-0.0675217658281326,-0.0011236214777454,0.091461181640625,0.0338552705943584,0.0041903010569512,0.1330425143241882,1.0,1.0,-0.835896909236908,-0.9497388005256652
