x_pos,y_pos,x_vel,y_vel,angle,ang_vel,leg_1,leg_2,main_booster,lat_booster
-0.0015269279247149,1.4032409191131592,-0.1546002775430679,-0.3412941694259643,0.0017074027564376,0.0336762182414531,0.0,0.0,-0.3059135675430298,0.954459309577942
-0.0029755593277513,1.3951970338821411,-0.1444074362516403,-0.3575051724910736,0.0012546445941552,-0.0090556424111127,0.0,0.0,-0.1841011643409729,0.7277905941009521
-0.0043570520356297,1.3867640495300293,-0.1358402222394943,-0.3748000562191009,-0.0010232484200969,-0.0455620661377906,0.0,0.0,0.6682584285736084,0.2790907621383667
-0.0058605195954442,1.37870454788208,-0.1474002599716186,-0.3582054078578949,-0.0039460835978388,-0.0584624409675598,0.0,0.0,-0.1895139217376709,0.252785325050354
-0.0073660849593579,1.370261311531067,-0.1475348323583603,-0.3752556443214416,-0.0069375564344227,-0.0598345510661602,0.0,0.0,0.3533515930175781,-0.4877467155456543
-0.0087579730898141,1.3621010780334473,-0.1366346329450607,-0.3626881241798401,-0.0094610415399074,-0.0504741892218589,0.0,0.0,-0.0342620611190795,-0.1025341153144836
-0.0101514812558889,1.3535573482513428,-0.136720210313797,-0.3797376751899719,-0.0120546193793416,-0.0518764071166515,0.0,0.0,0.2179858684539795,-0.3207203149795532
-0.0114303585141897,1.345343828201294,-0.1257207244634628,-0.3650686144828796,-0.0141932303085923,-0.0427762791514396,0.0,0.0,-0.5667101740837097,0.3982059955596924
-0.012710285373032,1.3367466926574707,-0.1257619857788086,-0.3821186423301697,-0.0164028070867061,-0.0441957153379917,0.0,0.0,-0.2944965362548828,0.4749222993850708
-0.0139912609010934,1.327766180038452,-0.125781774520874,-0.3991607129573822,-0.0186831094324588,-0.0456101074814796,0.0,0.0,-0.3797969818115234,0.7683447599411011
-0.015203570947051,1.3184008598327637,-0.1171023249626159,-0.4162887632846832,-0.0227747932076454,-0.0818412452936172,0.0,0.0,-0.5283218026161194,-0.1413618326187133
-0.0164164546877145,1.308652400970459,-0.1170786842703819,-0.4333339631557464,-0.0269369818270206,-0.0832515060901641,0.0,0.0,0.2432785034179687,0.5660991668701172
-0.0174631122499704,1.299306869506836,-0.0994739234447479,-0.415461391210556,-0.0320723615586757,-0.1027169674634933,0.0,0.0,-0.8692810535430908,0.3483654260635376
-0.0185099598020315,1.2895780801773071,-0.0994158238172531,-0.4325138926506042,-0.0372791551053524,-0.1041453331708908,0.0,0.0,-0.9036529660224916,0.0898239612579345
-0.0195567123591899,1.279466152191162,-0.0993435755372047,-0.4495578706264496,-0.0425578989088535,-0.1055845841765403,0.0,0.0,-0.8427536487579346,0.3778433799743652
-0.0206033699214458,1.2689714431762695,-0.0992589443922042,-0.4666037559509277,-0.0479086935520172,-0.1070257052779197,0.0,0.0,-0.944579005241394,-0.2053794860839843
-0.0216498374938964,1.2580933570861816,-0.0991633683443069,-0.4836505055427551,-0.0533317402005195,-0.1084705591201782,0.0,0.0,-0.911638617515564,-0.7955393195152283
-0.02274408377707,1.2468292713165283,-0.1050920933485031,-0.500784158706665,-0.0576216280460357,-0.0858058109879493,0.0,0.0,0.5625457763671875,-0.7220534682273865
-0.0237500183284282,1.2363218069076538,-0.0978370010852813,-0.4671036005020141,-0.0603498481214046,-0.0545690543949604,0.0,0.0,-0.9272934198379515,-0.5680960416793823
-0.0248064044862985,1.2254352569580078,-0.1041013821959495,-0.4839135110378265,-0.0618714019656181,-0.0304338429123163,0.0,0.0,-0.7912416458129883,0.0631757974624633
-0.0258624069392681,1.2141653299331665,-0.1039896830916404,-0.5009539723396301,-0.0634663999080658,-0.0319030061364173,0.0,0.0,-0.1922242045402526,-0.4297190904617309
-0.0269180294126272,1.20251202583313,-0.1038751229643821,-0.5179981589317322,-0.0651345551013946,-0.033365961164236,0.0,0.0,-0.2685662508010864,-0.0775297284126281
-0.0279732700437307,1.1904752254486084,-0.1037592887878418,-0.5350431799888611,-0.0668761804699897,-0.0348359420895576,0.0,0.0,-0.6896355748176575,-0.1163718104362487
-0.029028033837676,1.1780550479888916,-0.1036440953612327,-0.5520883202552795,-0.0686913207173347,-0.0363061055541038,0.0,0.0,-0.2002530694007873,-0.6909874081611633
-0.0301497466862201,1.1652604341506958,-0.1119789853692054,-0.56866055727005,-0.0688795074820518,-0.0037640649825334,0.0,0.0,-0.5610965490341187,-0.2479736804962158
-0.0312721244990825,1.1520609855651855,-0.111972689628601,-0.5866567492485046,-0.0691417604684829,-0.0052449312061071,0.0,0.0,-0.865708589553833,-0.3642004132270813
-0.0323943123221397,1.1384780406951904,-0.1118743643164634,-0.603699266910553,-0.0694777369499206,-0.0067195780575275,0.0,0.0,-0.2335304021835327,-0.0645262598991394
-0.0335162170231342,1.12451171875,-0.1117835491895675,-0.6207417249679565,-0.0698874071240425,-0.0081932712346315,0.0,0.0,0.3009707927703857,0.0461695194244384
-0.0346980094909668,1.1110855340957642,-0.1172112002968788,-0.5967639684677124,-0.0708460807800293,-0.0191733427345752,0.0,0.0,-0.2621862888336181,-0.864233672618866
-0.0359505638480186,1.0972803831100464,-0.1260142773389816,-0.6135318875312805,-0.0700983107089996,0.0149552300572395,0.0,0.0,-0.6010160446166992,-0.3113784790039062
-0.037203311920166,1.0830917358398438,-0.1259562671184539,-0.6305743455886841,-0.0694239661097526,0.0134866666048765,0.0,0.0,-0.7305486798286438,-0.1276593208312988
-0.038456343114376,1.0685197114944458,-0.1259125769138336,-0.6476168036460876,-0.06882294267416,0.0120206177234649,0.0,0.0,-0.4720097780227661,0.0895150899887085
-0.0397098548710346,1.0535643100738523,-0.1258849054574966,-0.6646593809127808,-0.0682950764894485,0.0105575453490018,0.0,0.0,-0.8745880126953125,-0.1953402757644653
-0.0409640297293663,1.0382256507873535,-0.1258749365806579,-0.6817018985748291,-0.0678401887416839,0.0090979058295488,0.0,0.0,-0.0798495411872863,0.2530219554901123
-0.0422190651297569,1.02250337600708,-0.12588432431221,-0.6987444162368774,-0.0674580857157707,0.0076419129036366,0.0,0.0,-0.7137624621391296,0.2408787012100219
-0.0434750542044639,1.0063978433609009,-0.1259147226810455,-0.715786874294281,-0.0671485662460327,0.0061901817098259,0.0,0.0,0.1552194356918335,-0.2186213731765747
-0.0447293296456337,0.9903873205184937,-0.1255755871534347,-0.7115747928619385,-0.0669962987303733,0.0030451642815023,0.0,0.0,-0.106590449810028,-0.4965430498123169
-0.0459850318729877,0.9739932417869568,-0.1256528496742248,-0.7286173105239868,-0.0669161304831504,0.0016031870618462,0.0,0.0,0.0641815662384033,-0.6961108446121216
-0.0472896583378315,0.9580444693565368,-0.1318484544754028,-0.7087792754173279,-0.0655468255281448,0.0273862872272729,0.0,0.0,-0.8003469109535217,-0.3641111850738525
-0.0485962852835655,0.9417121410369872,-0.1319788992404937,-0.725821852684021,-0.0642490461468696,0.0259557776153087,0.0,0.0,-0.0587268471717834,-0.1099727153778076
-0.0499053001403808,0.9249966144561768,-0.1321382075548172,-0.7428644895553589,-0.0630224496126174,0.024531764909625,0.0,0.0,0.0823777914047241,-0.5207483172416687
-0.0511473640799522,0.9084052443504332,-0.1265827566385269,-0.7372914552688599,-0.0606688149273395,0.0470726750791072,0.0,0.0,-0.6988779902458191,0.2997690439224243
-0.0523922927677631,0.891430675983429,-0.1268041729927063,-0.7543342709541321,-0.0583856701850891,0.0456629320979118,0.0,0.0,-0.2652513980865478,0.2389005422592163
-0.0536404624581337,0.8740727305412292,-0.1270587295293808,-0.7713771462440491,-0.0561726205050945,0.044261135160923,0.0,0.0,0.3204160928726196,0.180032730102539
-0.0549115166068077,0.8566868305206299,-0.129116877913475,-0.7726377844810486,-0.0541795007884502,0.0398622751235961,0.0,0.0,-0.21421480178833,0.6166765689849854
-0.0561342239379882,0.8389068841934204,-0.1228831857442855,-0.790197491645813,-0.053577721118927,0.0120358485728502,0.0,0.0,-0.3131825923919678,0.3106709718704223
-0.0573612228035926,0.8207435011863708,-0.123244822025299,-0.8072397708892822,-0.0530446805059909,0.0106609929352998,0.0,0.0,0.9615836143493652,0.5770094394683838
-0.0586363784968853,0.803693413734436,-0.1264184713363647,-0.7578187584877014,-0.0541300177574157,-0.0217065811157226,0.0,0.0,-0.2707019448280334,-0.7926881909370422
-0.0599927902221679,0.786273181438446,-0.1364230960607528,-0.7742042541503906,-0.0533566996455192,0.0154662458226084,0.0,0.0,-0.1553431153297424,0.155960202217102
-0.061354637145996,0.7684696316719055,-0.1369021385908126,-0.7912466526031494,-0.0526505187153816,0.0141235142946243,0.0,0.0,0.1907742023468017,0.5326669216156006
-0.062545396387577,0.7508866190910339,-0.1188745945692062,-0.7814700603485107,-0.0528451837599277,-0.0038932771421968,0.0,0.0,0.7907813787460327,-0.1088829636573791
-0.0637624710798263,0.7341213226318359,-0.1211565285921096,-0.7451426386833191,-0.0533944889903068,-0.0109862191602587,0.0,0.0,-0.1480441093444824,-0.4148281216621399
-0.0649863258004188,0.7169727683067322,-0.1217612475156784,-0.7621849179267883,-0.0540090315043926,-0.0122910067439079,0.0,0.0,0.7688379287719727,-0.3130400776863098
-0.0661678314208984,0.7007194757461548,-0.1174704879522323,-0.7223864793777466,-0.0546723045408725,-0.0132655575871467,0.0,0.0,-0.3012504577636719,-0.4369139075279236
-0.0673567801713943,0.6840830445289612,-0.1181625127792358,-0.7394287586212158,-0.0553993768990039,-0.0145413847640156,0.0,0.0,-0.3267451524734497,0.4412140846252441
-0.0685537308454513,0.6670629382133484,-0.1188989728689193,-0.7564712166786194,-0.0561894588172435,-0.0158015452325344,0.0,0.0,0.5143781900405884,-0.0132879018783569
-0.0696320533752441,0.6507465243339539,-0.1073741093277931,-0.725195586681366,-0.056643109768629,-0.0090729873627424,0.0,0.0,0.2921156883239746,-0.0174120664596557
-0.070581629872322,0.6348273754119873,-0.0949415564537048,-0.707517683506012,-0.0566588006913661,-0.000313699041726,0.0,0.0,-0.4499447345733642,0.5030838251113892
-0.0714956298470497,0.6185261607170105,-0.0901874080300331,-0.7245420217514038,-0.0578593350946903,-0.0240104552358388,0.0,0.0,-0.0230800509452819,-0.5444517135620117
-0.0724677070975303,0.6018505692481995,-0.0971660241484642,-0.7411388754844666,-0.0578976459801197,-0.0007665216689929,0.0,0.0,0.5551953315734863,-0.1655209064483642
-0.073381707072258,0.5853094458580017,-0.0915250852704048,-0.7351585030555725,-0.0577714405953884,0.0025242690462619,0.0,0.0,0.5349048376083374,0.3136684894561767
-0.0743617042899131,0.5693687796592712,-0.0976331606507301,-0.7084876298904419,-0.0581334941089153,-0.0072408937849104,0.0,0.0,0.6598200798034668,0.460336685180664
-0.0751986503601074,0.5538119673728943,-0.083858884871006,-0.6914079785346985,-0.0579776875674724,0.0031162819359451,0.0,0.0,0.327660322189331,0.6498675346374512
-0.0759464278817176,0.5386040210723877,-0.0736013129353523,-0.6759535670280457,-0.0591330826282501,-0.0231079049408435,0.0,0.0,-0.0137820839881896,0.7553306818008423
-0.0766459479928016,0.5230017900466919,-0.0671817660331726,-0.6935433149337769,-0.0618662424385547,-0.0546632930636405,0.0,0.0,0.5923550128936768,-0.1626173257827758
-0.0774416923522949,0.5078802108764648,-0.0761959180235862,-0.6722144484519958,-0.0652036294341087,-0.0667478591203689,0.0,0.0,0.4488646984100342,-0.4494618773460388
-0.0781824141740799,0.4934969246387481,-0.0707438066601753,-0.6394080519676208,-0.0685048103332519,-0.0660234540700912,0.0,0.0,-0.234287679195404,0.3685498237609863
-0.0789364799857139,0.4787303209304809,-0.0720180869102478,-0.6564512252807617,-0.0718553066253662,-0.0670101344585418,0.0,0.0,0.7415803670883179,-0.1220728158950805
-0.0796112045645713,0.4649238288402557,-0.064162328839302,-0.6137861609458923,-0.0751217231154441,-0.0653285831212997,0.0,0.0,0.0202498435974121,0.0607607364654541
-0.0803358107805252,0.4511777460575104,-0.0688496604561805,-0.6111196875572205,-0.0787030681967735,-0.0716267228126525,0.0,0.0,-0.6121293902397156,-0.4026138186454773
-0.08107490837574,0.4370485246181488,-0.0702492222189903,-0.6281630992889404,-0.0823286846280098,-0.0725124105811119,0.0,0.0,0.6727735996246338,0.3445311784744262
-0.081745907664299,0.4234741926193237,-0.0635462552309036,-0.6035031676292419,-0.0858526527881622,-0.0704791471362114,0.0,0.0,0.097769021987915,0.8155624866485596
-0.0824181586503982,0.4103689193725586,-0.0619452223181724,-0.5827675461769104,-0.0910876095294952,-0.1046991348266601,0.0,0.0,0.3709880113601684,0.8459897041320801
-0.0829268470406532,0.3975780606269836,-0.0439276210963726,-0.5689218640327454,-0.0979706570506095,-0.1376605927944183,0.0,0.0,-0.5970622897148132,-0.5980090498924255
-0.083501435816288,0.3844069838523865,-0.0517534725368022,-0.5857658982276917,-0.1036326587200164,-0.1132401973009109,0.0,0.0,0.7454783916473389,0.0462791919708251
-0.0839853286743164,0.3713541328907013,-0.0429797619581222,-0.580510675907135,-0.1089963316917419,-0.1072730869054794,0.0,0.0,0.914534330368042,-0.9216094017028807
-0.0845561996102333,0.3585140705108642,-0.0534365884959697,-0.5709431767463684,-0.1126297935843467,-0.072669394314289,0.0,0.0,0.5836038589477539,-0.3112338781356811
-0.0850666016340255,0.3464252650737762,-0.0473090149462223,-0.5375645160675049,-0.1163295358419418,-0.0739951282739639,0.0,0.0,-0.2690330743789673,-0.8614117503166199
-0.0856520682573318,0.3339720070362091,-0.0563029535114765,-0.5536544322967529,-0.1185618191957473,-0.0446458123624324,0.0,0.0,-0.2460091114044189,-0.3009026050567627
-0.0862550735473632,0.321135401725769,-0.0580281503498554,-0.5706971287727356,-0.1208180636167526,-0.0451249964535236,0.0,0.0,0.8076364994049072,0.2683035135269165
-0.0869726166129112,0.3084807395935058,-0.0688099637627601,-0.5626717209815979,-0.1237504035234451,-0.0586465708911418,0.0,0.0,-0.2079317569732666,-0.9446265697479248
-0.0877766609191894,0.2954639196395874,-0.0792115405201911,-0.5786226391792297,-0.1249378249049186,-0.0237483885139226,0.0,0.0,0.4978457689285278,-0.4953227043151855
-0.0886251479387283,0.2828575372695923,-0.083209790289402,-0.5604246258735657,-0.1265656948089599,-0.0325575396418571,0.0,0.0,0.6700005531311035,-0.664669394493103
-0.0895172134041786,0.2709112763404846,-0.0887598246335983,-0.5309824347496033,-0.1270131021738052,-0.0089481165632605,0.0,0.0,0.3321751356124878,0.5318467617034912
-0.0903251618146896,0.2594172656536102,-0.0792370438575744,-0.5109776258468628,-0.1285544037818908,-0.0308264102786779,0.0,0.0,-0.4376504421234131,0.3361754417419433
-0.0911519974470138,0.2475397884845733,-0.0811294764280319,-0.5280199646949768,-0.130102127790451,-0.0309544298797845,0.0,0.0,0.071948766708374,-0.2563895583152771
-0.0919538512825965,0.2356063276529312,-0.0787101984024047,-0.5305078625679016,-0.1315819919109344,-0.0295973271131515,0.0,0.0,0.8242217302322388,-0.005344271659851
-0.092615321278572,0.2239303439855575,-0.065135970711708,-0.5190213918685913,-0.132588192820549,-0.020123591646552,0.0,0.0,0.6511988639831543,-0.2965620756149292
-0.093075081706047,0.2126903086900711,-0.045657105743885,-0.4995846152305603,-0.1329111456871032,-0.0064586363732814,0.0,0.0,0.8376833200454712,-0.0266776084899902
-0.0933427810668945,0.2016882449388504,-0.0271739866584539,-0.4889446496963501,-0.1325106024742126,0.0080112675204873,0.0,0.0,0.6326425075531006,-0.3063691854476928
-0.0935379043221473,0.1914076656103134,-0.0198919437825679,-0.4568803012371063,-0.1321265697479248,0.0076805711723864,0.0,0.0,-0.0610259771347045,-0.3445513248443603
-0.0937529578804969,0.1807436347007751,-0.0219100639224052,-0.4739222228527069,-0.1317300200462341,0.0079310843721032,0.0,0.0,0.5590617656707764,-0.6822552680969238
-0.0938311591744422,0.1706200391054153,-0.0098750879988074,-0.4497593939304352,-0.1296920180320739,0.0407602079212665,0.0,0.0,0.4456312656402588,-0.119981050491333
-0.0938054099678993,0.1605207771062851,0.0001095165644073,-0.4486444890499115,-0.1272270679473877,0.0492987819015979,0.0,0.0,0.7204256057739258,-0.2348911166191101
-0.0937869101762771,0.1508374363183975,-0.00039950889186,-0.4301790297031402,-0.1249935254454612,0.0446708612143993,0.0,0.0,0.5260450839996338,-0.4712600111961365
-0.0936120972037315,0.1419421583414077,0.0148519799113273,-0.3951261937618255,-0.1223736479878425,0.0523972585797309,0.0,0.0,0.2396456003189087,-0.5454137921333313
-0.0934676155447959,0.1333105862140655,0.0107334479689598,-0.3833271861076355,-0.1186762526631355,0.0739477798342704,0.0,0.0,0.4392143487930298,-0.8097667098045349
-0.0934455841779708,0.1253681778907776,-0.0029995557852089,-0.3525883257389068,-0.11349668353796,0.1035913079977035,0.0,0.0,-0.3016667366027832,-0.1048424243927002
-0.0934441536664962,0.1170427426695823,-0.0051145525649189,-0.3696322739124298,-0.1082840263843536,0.1042530760169029,0.0,0.0,0.3976202011108398,0.6513180732727051
-0.0933931320905685,0.1092848628759384,0.001223161467351,-0.3445167541503906,-0.1044270396232605,0.0771395191550254,0.0,0.0,-0.0838806629180908,0.2794463634490967
-0.0933629050850868,0.1011436805129051,-0.0009097434813156,-0.3615596890449524,-0.1005318313837051,0.0779044032096862,0.0,0.0,0.8141047954559326,0.3632764816284179
-0.0933260917663574,0.093439370393753,-0.0001507142587797,-0.3421597778797149,-0.096722275018692,0.0761908218264579,0.0,0.0,0.6781251430511475,0.8613790273666382
-0.093314453959465,0.0862737968564033,-0.0007681591669097,-0.3183475434780121,-0.0948021337389946,0.0384026877582073,0.0,0.0,0.5605342388153076,0.5384519100189209
-0.0933866500854492,0.0794778689742088,-0.007737168110907,-0.3020086586475372,-0.0942998528480529,0.010045938193798,0.0,0.0,0.5644309520721436,0.6500242948532104
-0.0932556167244911,0.073295772075653,0.0136142345145344,-0.2747940421104431,-0.0948085486888885,-0.0101734232157468,0.0,0.0,-0.1244566440582275,-0.0038037896156311
-0.0931457504630088,0.0667300820350647,0.0114542031660676,-0.2918356955051422,-0.0952679216861724,-0.0091875689104199,0.0,0.0,0.6540203094482422,0.8920823335647583
-0.0927520766854286,0.0608950965106487,0.0413248501718044,-0.2594570219516754,-0.097208559513092,-0.0388128757476806,0.0,0.0,-0.0408313274383544,0.6356961727142334
-0.0923309326171875,0.0546749457716941,0.0452393405139446,-0.2766579389572143,-0.1003135442733764,-0.0620997659862041,0.0,0.0,0.4938058853149414,-0.7338085174560547
-0.0917686447501182,0.0492201894521713,0.0575746782124042,-0.2425249963998794,-0.1016476899385452,-0.0266829635947942,0.0,0.0,0.0429886579513549,-0.1841821670532226
-0.0911423712968826,0.0439206473529338,0.0636925175786018,-0.2356094419956207,-0.1027028411626815,-0.0211028326302766,0.0,0.0,0.33413827419281,0.2632391452789306
-0.0904752761125564,0.039222203195095,0.0677406936883926,-0.2088900357484817,-0.1037272438406944,-0.0204882379621267,0.0,0.0,0.0559513568878173,0.2714203596115112
-0.0897384658455848,0.034885250031948,0.0744716227054596,-0.1928092092275619,-0.1045132279396057,-0.0157194826751947,0.0,0.0,0.2116438150405883,0.0949928760528564
-0.0889287963509559,0.0306570865213871,0.0814276188611984,-0.1879487633705139,-0.1049654781818389,-0.0090452367439866,0.0,0.0,0.4379510879516601,0.193350076675415
-0.0881894081830978,0.0268648713827133,0.0748272836208343,-0.1686024218797683,-0.1058486625552177,-0.0176634397357702,0.0,0.0,0.234903335571289,-0.0784845352172851
-0.087525650858879,0.0232783649116754,0.0676566958427429,-0.159492552280426,-0.1071129739284515,-0.0252866204828023,0.0,0.0,0.1201046705245971,0.190643310546875
-0.0868561714887619,0.019880685955286,0.0682248622179031,-0.1511016488075256,-0.1083811447024345,-0.025363340973854,0.0,0.0,0.1139918565750122,-0.3077040910720825
-0.0861509293317794,0.0166329964995384,0.071649357676506,-0.144425019621849,-0.1095036566257476,-0.0224501155316829,0.0,0.0,-0.0209493041038513,-0.366621732711792
-0.0854662880301475,0.0130017856135964,0.0695330426096916,-0.1614665687084198,-0.1105605810880661,-0.0211389996111392,0.0,0.0,0.7562958002090454,0.0771256685256958
-0.0845254883170127,0.0108171794563531,0.0754497274756431,-0.095820277929306,-0.0920712724328041,0.3697859048843384,1.0,0.0,-0.016221284866333,-0.4180723428726196
-0.0835733413696289,0.0083398912101984,0.0743421465158462,-0.1089474931359291,-0.0714015737175941,0.4133936464786529,1.0,0.0,0.2672505378723144,-0.5341274738311768
