x_pos,y_pos,x_vel,y_vel,angle,ang_vel,leg_1,leg_2,main_booster,lat_booster
-0.0016442298656329,1.4032506942749023,-0.1662617623805999,-0.3408665359020233,0.0016453739954158,0.0324477329850196,0.0,0.0,-0.0934891687721732,0.7631213459481626
-0.0033450126647949,1.3952269554138184,-0.1698298156261444,-0.3566111624240875,0.0014004627009853,-0.0048981821164488,0.0,0.0,0.0369741701722405,0.6914670857423671
-0.005017471499741,1.38720440864563,-0.1655049622058868,-0.3565537631511688,-0.0003241125668864,-0.0344945713877677,0.0,0.0,0.7421267202944408,-0.5620922150002119
-0.0069900513626635,1.3795965909957886,-0.1960269212722778,-0.338130384683609,-0.0015351861948147,-0.0242237318307161,0.0,0.0,-0.6952607176725483,0.9083500827358716
-0.0089976312592625,1.3716174364089966,-0.1971022337675094,-0.3546363115310669,-0.0051454310305416,-0.0722116902470588,0.0,0.0,-0.997773846119998,0.665745525664363
-0.0110625270754098,1.3632633686065674,-0.2009856402873993,-0.371320366859436,-0.0105913933366537,-0.1089293509721756,0.0,0.0,0.1022344820471228,0.540015522661899
-0.0132192615419626,1.355113506317139,-0.2088221311569214,-0.3622813820838928,-0.0173594653606414,-0.1353742778301239,0.0,0.0,-0.534430651317334,-0.7385521856683273
-0.015541267581284,1.3465933799743652,-0.226244643330574,-0.3787467181682586,-0.023249739781022,-0.1178162917494773,0.0,0.0,-0.0075888742393694,-0.6553571129197365
-0.0180373191833496,1.3377090692520142,-0.244770810008049,-0.3949446380138397,-0.028040749952197,-0.0958290696144104,0.0,0.0,-0.7273556153119185,-0.5371446855079288
-0.0206974036991596,1.3284564018249512,-0.2620094120502472,-0.4113146960735321,-0.0319923311471939,-0.0790387913584709,0.0,0.0,0.4028203060242143,0.5626246822923398
-0.0233389846980571,1.3195812702178955,-0.2589976489543915,-0.3945657312870025,-0.0370991006493568,-0.1021444350481033,0.0,0.0,0.7414978449750635,0.6981808259446609
-0.0259453766047954,1.3111584186553955,-0.2540408372879028,-0.3745244741439819,-0.0436277575790882,-0.1305852234363556,0.0,0.0,-0.5057635996720617,0.8439599296697249
-0.0285920146852731,1.3023614883422852,-0.2557748854160309,-0.3912520408630371,-0.052420362830162,-0.1758682131767273,0.0,0.0,-0.4717705553932441,0.5096934897229344
-0.0313148498535156,1.2931839227676392,-0.2620406746864319,-0.4082792103290558,-0.062570184469223,-0.2030150592327118,0.0,0.0,0.6081613199819316,0.8244432541847049
-0.0338907241821289,1.2848237752914429,-0.2457210272550583,-0.3720994889736175,-0.074321299791336,-0.2350438833236694,0.0,0.0,0.3431842905477131,-0.6583120785638839
-0.0365227684378623,1.276439905166626,-0.2526251971721649,-0.3731704652309418,-0.0848156809806823,-0.2099065035581588,0.0,0.0,0.2502914739317816,0.967525761548767
-0.0390220656991004,1.2686378955841064,-0.2372321188449859,-0.3475190997123718,-0.0974127277731895,-0.2519638836383819,0.0,0.0,-0.7204929713337169,0.8684089367487187
-0.0415570251643657,1.260445237159729,-0.2384413182735443,-0.3651738464832306,-0.1123793274164199,-0.2993591427803039,0.0,0.0,0.7733161842248479,0.9254565259818172
-0.0439258590340614,1.253143310546875,-0.2199641913175583,-0.3258823454380035,-0.1292261630296707,-0.336967408657074,0.0,0.0,-0.9041967206654082,-0.8587306925636157
-0.0464896187186241,1.2454856634140017,-0.2412020713090896,-0.3417264521121979,-0.1443627476692199,-0.302759051322937,0.0,0.0,0.4137966061303904,0.5447054096062198
-0.0489190109074115,1.23838210105896,-0.2267567813396453,-0.3173645436763763,-0.160539761185646,-0.3235695958137512,0.0,0.0,-0.3073224528802016,-0.5805475537421327
-0.051510713994503,0.0,-0.2439388483762741,-0.3335593938827514,-0.1758120954036712,-0.3054742217063904,0.0,0.0,-0.834541227055333,-0.5615653575112743
-0.0542539581656456,1.2230868339538574,-0.2597734034061432,-0.3497231304645538,-0.1904360651969909,-0.2925054728984833,0.0,0.0,0.4602224849989527,-0.8724773072778961
-0.0570619590580463,1.2152841091156006,-0.267875462770462,-0.3485045135021209,-0.2034660130739212,-0.2606221139431,0.0,0.0,-0.6920195624405701,0.743882173243153
-0.0599417686462402,1.2070987224578855,-0.2737262845039367,-0.3658172190189361,-0.2178719490766525,-0.2881442308425903,0.0,0.0,-0.2290952998870261,-0.5300945661443958
-0.0629903823137283,1.198541283607483,-0.2917113900184631,-0.3823260068893432,-0.2311853766441345,-0.2662682235240936,0.0,0.0,-0.8322642067874484,0.6737101485036578
-0.0661011710762977,1.1895990371704102,-0.2963871359825134,-0.3998060822486877,-0.2461001724004745,-0.2982959747314453,0.0,0.0,0.6272294271373049,0.8675534675427298
-0.0691989883780479,1.1815059185028076,-0.2930032312870025,-0.3626015484333038,-0.2632137835025787,-0.3422724306583404,0.0,0.0,-0.4411753884607781,0.8029248667686076
-0.0723605155944824,1.1730308532714844,-0.2979809641838074,-0.3800438642501831,-0.2818347513675689,-0.3724191188812256,0.0,0.0,0.6332937474152214,-0.7249186532537919
-0.0755768790841102,1.1649121046066284,-0.3047122657299042,-0.3641932606697082,-0.299273669719696,-0.34877809882164,0.0,0.0,0.8200222313680359,-0.724742401390229
-0.0786604881286621,1.1577842235565186,-0.2927615046501159,-0.3200920820236206,-0.3154235184192657,-0.3229968845844269,0.0,0.0,-0.9820217490196228,-0.8719643950462341
-0.0819284468889236,1.150317668914795,-0.3129682838916778,-0.334925502538681,-0.329815536737442,-0.2878404259681701,0.0,0.0,-0.9826752543449402,-0.910002827644348
-0.0853799805045127,1.1425281763076782,-0.3331854939460754,-0.3489833772182464,-0.3423292934894562,-0.2502752840518951,0.0,0.0,-0.9436479806900024,-0.8757363557815552
-0.0890123397111892,1.1343984603881836,-0.3529607057571411,-0.3637968897819519,-0.3531164228916168,-0.2157423943281173,0.0,0.0,-0.9546666741371156,-0.898932695388794
-0.0928147286176681,1.1259348392486572,-0.3714551329612732,-0.378345638513565,-0.362355887889862,-0.1847894787788391,0.0,0.0,-0.5044029951095581,-0.6328809261322021
-0.0967651382088661,1.1171295642852783,-0.387265533208847,-0.3933354616165161,-0.3705788552761078,-0.1644591987133026,0.0,0.0,-0.5538201332092285,-0.9231352806091307
-0.1008898764848709,1.1079890727996826,-0.4063449800014496,-0.4078472256660461,-0.3770771026611328,-0.1299650520086288,0.0,0.0,-0.7541017532348633,-0.4402230381965637
-0.1051153168082237,1.0984764099121094,-0.4161956906318664,-0.4244726598262787,-0.3838284015655517,-0.1350260823965072,0.0,0.0,-0.9418017268180848,-0.397255539894104
-0.1094394698739051,1.0885919332504272,-0.4258409142494201,-0.4410984814167022,-0.3908342123031616,-0.1401164233684539,0.0,0.0,-0.712648332118988,-0.563581109046936
-0.113898754119873,1.0783601999282837,-0.4401820600032806,-0.4563394486904144,-0.3969860672950744,-0.1230373159050941,0.0,0.0,-0.8046700954437256,-0.2282899618148803
-0.1184521690011024,1.067756414413452,-0.4493654668331146,-0.4729649722576141,-0.4033955633640289,-0.1281900256872177,0.0,0.0,-0.7786804437637329,-0.5238112211227417
-0.123127557337284,1.056798815727234,-0.4621289670467376,-0.4885562658309936,-0.4092040359973907,-0.1161693558096885,0.0,0.0,-0.9067218899726868,-0.0783507227897644
-0.1278917342424392,1.0454691648483276,-0.4707767069339752,-0.5051818490028381,-0.415273517370224,-0.1213896051049232,0.0,0.0,-0.6113940477371216,0.4036339521408081
-0.1327415406703949,1.0337677001953125,-0.4791267812252044,-0.5218079090118408,-0.4216057956218719,-0.1266459077596664,0.0,0.0,-0.1748356819152832,-0.1643548011779785
-0.1376740485429763,1.021694302558899,-0.4871576726436615,-0.5384343266487122,-0.4282028079032898,-0.131940096616745,0.0,0.0,-0.7878769040107727,0.566519021987915
-0.1426438391208648,1.0092142820358276,-0.4894920885562897,-0.5569731593132019,-0.4363422393798828,-0.1627885401248932,0.0,0.0,-0.7599221467971802,0.054742693901062
-0.1476891487836837,0.9963626861572266,-0.496818482875824,-0.5736019611358643,-0.444750428199768,-0.1681639701128006,0.0,0.0,0.0730842351913452,0.3141305446624756
-0.1526389122009277,0.9839202761650084,-0.4867375493049621,-0.5556449890136719,-0.4537672400474548,-0.1803366541862487,0.0,0.0,-0.8155797719955444,0.2771860361099243
-0.1576561033725738,0.9711065888404846,-0.4932649731636047,-0.5722755193710327,-0.463057279586792,-0.1858011931180954,0.0,0.0,-0.1797693967819214,0.6381850242614746
-0.162693589925766,0.9578878283500672,-0.4939334392547607,-0.5908032059669495,-0.4739147126674652,-0.2171490490436554,0.0,0.0,0.5125699043273926,0.3420637845993042
-0.1674339324235916,0.9449061751365662,-0.4645681381225586,-0.5802332162857056,-0.4844427108764648,-0.2105598002672195,0.0,0.0,-0.8407041430473328,0.3475525379180908
-0.1722276657819748,0.9315537810325624,-0.4697175920009613,-0.5968666672706604,-0.4952512383460998,-0.2161698341369629,0.0,0.0,0.7432851791381836,-0.4024423360824585
-0.1767454147338867,0.9183676242828368,-0.4423913955688476,-0.5894690752029419,-0.5058091878890991,-0.2111594378948211,0.0,0.0,0.1607172489166259,-0.6064589023590088
-0.1810722351074218,0.9055834412574768,-0.4242309629917145,-0.5713341236114502,-0.5153597593307495,-0.19101183116436,0.0,0.0,0.7456016540527344,0.2939172983169555
-0.185045912861824,0.8929843306541443,-0.3893461525440216,-0.5630149841308594,-0.5244702696800232,-0.1822117567062378,0.0,0.0,-0.45870041847229,-0.7417154312133789
-0.1891107559204101,0.880061686038971,-0.3998476266860962,-0.5769215226173401,-0.5320544838905334,-0.1516845375299453,0.0,0.0,0.8889386653900146,0.0131293535232543
-0.1926469802856445,0.8678638339042664,-0.3471941351890564,-0.5446677803993225,-0.5394347906112671,-0.14760622382164,0.0,0.0,0.5779430866241455,-0.6893699169158936
-0.1957941949367523,0.8560563921928406,-0.3095696568489074,-0.526839017868042,-0.5453663468360901,-0.1186307668685913,0.0,0.0,0.8134411573410034,-0.6983948945999146
-0.1984548568725586,0.8450158834457397,-0.2621496319770813,-0.4922867715358734,-0.5499021410942078,-0.09071596711874,0.0,0.0,0.9494178295135498,-0.8444285988807678
-0.2007763832807541,0.8349241614341736,-0.2293731421232223,-0.4496565461158752,-0.5531140565872192,-0.0642377287149429,0.0,0.0,0.8097214698791504,-0.9337564706802368
-0.2028984576463699,0.8249799609184265,-0.2109666764736175,-0.4424777925014496,-0.5545593500137329,-0.0289060622453689,0.0,0.0,0.9446353912353516,-0.8854292035102844
-0.2047485411167144,0.8158774971961975,-0.1849344819784164,-0.404584676027298,-0.5546433329582214,-0.0016799118602648,0.0,0.0,0.7962367534637451,-0.8902188539505005
-0.2062253504991531,0.8070559501647949,-0.1491790115833282,-0.3914546370506286,-0.5529060959815979,0.0347452461719512,0.0,0.0,0.8937809467315674,-0.9599236845970154
-0.207353875041008,0.7987960577011108,-0.1158964857459068,-0.3658578097820282,-0.5493819713592529,0.070482924580574,0.0,0.0,0.9441293478012084,-0.9715440273284912
-0.2082714140415191,0.7908135056495667,-0.0963327884674072,-0.3529259860515594,-0.5440922379493713,0.1057947874069213,0.0,0.0,0.7846715450286865,-0.9608569145202636
-0.2090207040309906,0.7834534049034119,-0.0808524638414383,-0.3247448205947876,-0.5372644662857056,0.1365554481744766,0.0,0.0,0.4599627256393432,-0.9837241172790528
-0.2093907296657562,0.7767487168312073,-0.0445400886237621,-0.2950213849544525,-0.5286256074905396,0.1727766096591949,0.0,0.0,0.1398383378982544,-0.9846057891845704
-0.2096302956342697,0.7699319124221802,-0.0330535545945167,-0.2994628548622131,-0.5182512998580933,0.2074857056140899,0.0,0.0,0.2000507116317749,-0.9257711172103882
-0.2095549553632736,0.763598620891571,-0.0030923492740839,-0.2774877548217773,-0.5062103271484375,0.2408194541931152,0.0,0.0,-0.4559513330459595,-0.9539983868598938
-0.2095037996768951,0.7569544315338135,-0.0073788398876786,-0.290741503238678,-0.4921590983867645,0.2810243964195251,0.0,0.0,0.1029896736145019,-0.9233428835868835
-0.2093072831630706,0.7506446242332458,0.0055846138857305,-0.2754975259304046,-0.4764576256275177,0.3140293955802917,0.0,0.0,-0.4082623124122619,-0.5603881478309631
-0.2090844213962555,0.7439954280853271,0.0073654511943459,-0.2904838025569916,-0.459950715303421,0.3301382660865783,0.0,0.0,-0.6321614384651184,-0.4873892068862915
-0.2087940722703933,0.7369773387908936,0.014281066134572,-0.3071300387382507,-0.4437550008296966,0.3239142894744873,0.0,0.0,-0.6178992986679077,-0.3599193096160888
-0.2084317654371261,0.7295904755592346,0.0216420032083988,-0.3237752318382263,-0.4278687238693237,0.3177253305912018,0.0,0.0,-0.7616258263587952,0.2721830606460571
-0.2079935073852539,0.7218343615531921,0.029422890394926,-0.3404193520545959,-0.4122895896434784,0.3115827441215515,0.0,0.0,-0.659965991973877,-0.108416199684143
-0.207475334405899,0.7137089371681213,0.0375984050333499,-0.3570624589920044,-0.3970146775245666,0.3054985404014587,0.0,0.0,-0.7887351512908936,-0.104844331741333
-0.2068736106157302,0.7052139639854431,0.0461435317993164,-0.3737044632434845,-0.382040411233902,0.2994856238365173,0.0,0.0,-0.8151729106903076,0.2801141738891601
-0.2061849534511566,0.6963493824005127,0.0550337843596935,-0.3903453946113586,-0.3673624992370605,0.2935574352741241,0.0,0.0,-0.8754472732543945,0.2172644138336181
-0.2054061889648437,0.6871151328086853,0.0642453953623771,-0.4069852232933044,-0.3529760837554931,0.2877281904220581,0.0,0.0,-0.7050302624702454,0.0200836658477783
-0.2045342475175857,0.6775108575820923,0.073755457997322,-0.423624038696289,-0.338875412940979,0.2820126414299011,0.0,0.0,-0.9133026003837584,0.0670399665832519
-0.2035665065050125,0.6675364375114441,0.0835420340299606,-0.4402617812156677,-0.3250541090965271,0.2764260470867157,0.0,0.0,-0.6423870325088501,0.0766288042068481
-0.2025002539157867,0.6571915745735168,0.0935842618346214,-0.4568985402584076,-0.3115049004554748,0.2709841132164001,0.0,0.0,-0.8672133684158325,0.3067903518676758
-0.2013332396745681,0.6464764475822449,0.1038623824715614,-0.4735341966152191,-0.2982197701931,0.2657029926776886,0.0,0.0,-0.8840341567993164,-0.0731809139251709
-0.2000632286071777,0.6353904604911804,0.1143577545881271,-0.4901688992977142,-0.2851898074150085,0.2605989575386047,0.0,0.0,-0.8329375982284546,-0.0990085005760192
-0.1986882239580154,0.6239339113235474,0.1250529289245605,-0.5068026185035706,-0.2724053859710693,0.2556884586811065,0.0,0.0,-0.7157631516456604,-0.4678875207901001
-0.1972062140703201,0.6121062636375427,0.1359315812587738,-0.5234353542327881,-0.2598559856414795,0.2509878277778625,0.0,0.0,-0.8448755145072937,-0.3058434724807739
-0.1956155747175216,0.5999076962471008,0.1469785124063491,-0.5400672554969788,-0.2475303262472152,0.2465131282806396,0.0,0.0,-0.888463020324707,-0.3682564496994018
-0.1939146965742111,0.5873379111289978,0.1581795811653137,-0.556698203086853,-0.2354163229465484,0.2422801256179809,0.0,0.0,-0.943725049495697,0.03022301197052
-0.1921018660068512,0.5743967294692993,0.1695217192173004,-0.5733283758163452,-0.2235011607408523,0.2383037060499191,0.0,0.0,-0.9547067880630492,-0.2325419187545776
-0.1901759207248687,0.5610840916633606,0.1809928268194198,-0.5899577736854553,-0.2117712348699569,0.2345981150865554,0.0,0.0,-0.89739590883255,-0.1631625890731811
-0.1881354302167892,0.5473998188972473,0.1925817877054214,-0.6065863370895386,-0.2002124339342117,0.2311763316392898,0.0,0.0,-0.9415016770362854,-0.5849995613098145
-0.1860216110944748,0.533361554145813,0.198935255408287,-0.6222900748252869,-0.1876917779445648,0.2504134178161621,0.0,0.0,-0.8761668801307678,-0.419764757156372
-0.1837909668684005,0.5189518332481384,0.2107292711734771,-0.6389195322990417,-0.1753122061491012,0.2475918084383011,0.0,0.0,-0.8414576053619385,-0.7015911340713501
-0.1814887076616287,0.5041754841804504,0.2168156206607818,-0.6551968455314636,-0.1618917733430862,0.2684086263179779,0.0,0.0,-0.7694897055625916,-0.077444314956665
-0.1790677011013031,0.4890279471874237,0.2287802249193191,-0.6718275547027588,-0.1485807746648788,0.2662199735641479,0.0,0.0,-0.7801913022994995,-0.4272823929786682
-0.1765270233154297,0.4735091030597687,0.2408193349838256,-0.6884577870368958,-0.1353629976511001,0.2643558979034424,0.0,0.0,-0.1485469937324524,-0.4703915119171142
-0.1738657057285308,0.4576188325881958,0.2529262900352478,-0.7050876021385193,-0.1222220659255981,0.2628188133239746,0.0,0.0,-0.024199903011322,-0.4542616605758667
-0.1710831671953201,0.4413571357727051,0.2650949358940124,-0.7217169404029846,-0.1091416031122207,0.261609137058258,0.0,0.0,0.4343842267990112,-0.8470064401626587
-0.1680941581726074,0.4256289601325989,0.2839596569538116,-0.698006808757782,-0.094308815896511,0.2966554760932922,0.0,0.0,0.2072194814682006,-0.6304255723953247
-0.1650235205888748,0.4103665351867676,0.2909295856952667,-0.6773900389671326,-0.0783153474330902,0.3198690116405487,0.0,0.0,-0.0716519951820373,0.3213257789611816
-0.1618294715881347,0.3947336375713348,0.3032512068748474,-0.6940258145332336,-0.0623343512415885,0.3196199536323547,0.0,0.0,0.3931953907012939,-0.1910667419433593
-0.1585063934326172,0.3793610036373138,0.3162373304367065,-0.6826379299163818,-0.0464474037289619,0.3177390694618225,0.0,0.0,0.3266061544418335,-0.5020798444747925
-0.155177503824234,0.3643519282341003,0.3160215616226196,-0.6666315197944641,-0.0297831632196903,0.3332848846912384,0.0,0.0,0.5613077878952026,0.5132871866226196
-0.1518207490444183,0.3497183620929718,0.3202061653137207,-0.6501446962356567,-0.0145102012902498,0.305459201335907,0.0,0.0,0.4219684600830078,-0.2599776983261108
-0.1482386589050293,0.3356399238109588,0.342264324426651,-0.6256334781646729,0.0012308279983699,0.3148205876350403,0.0,0.0,0.5174815654754639,-0.5571932792663574
-0.1445145606994629,0.3216945827007293,0.3551245331764221,-0.6198911666870117,0.0182873103767633,0.3411298394203186,0.0,0.0,0.7147624492645264,-0.3969206809997558
-0.1405285894870758,0.3085712194442749,0.3805514872074127,-0.5835744142532349,0.0361124500632286,0.3565029799938202,0.0,0.0,0.4954655170440674,-0.3103445768356323
-0.1364623010158538,0.2961301803588867,0.3885940611362457,-0.5534646511077881,0.05392612144351,0.3562736213207245,0.0,0.0,0.1108790636062622,0.061426043510437
-0.1322048157453537,0.2841880619525909,0.4072009623050689,-0.5315290689468384,0.0722792595624923,0.3670626282691955,0.0,0.0,0.338181734085083,-0.6794529557228088
-0.1278395652770996,0.2725811898708343,0.4163998663425445,-0.5169534087181091,0.0922061428427696,0.3985373377799988,0.0,0.0,0.3878355026245117,-0.0316094160079956
-0.1234166175127029,0.2616294622421264,0.4221204221248626,-0.4881073832511902,0.112221360206604,0.4003046154975891,0.0,0.0,0.2484716176986694,-0.0204832553863525
-0.1188877075910568,0.2512043416500091,0.4324237406253814,-0.4650031924247741,0.1325743943452835,0.4070611596107483,0.0,0.0,0.5539692640304565,-0.2612968683242798
-0.1142135635018348,0.2410675138235092,0.446523368358612,-0.4525197446346283,0.1534126102924347,0.4167641997337341,0.0,0.0,0.1562200784683227,-0.2439656853675842
-0.109562873840332,0.2311845421791076,0.4445006847381592,-0.4414942562580108,0.1739978194236755,0.4117042422294616,0.0,0.0,0.4062807559967041,-0.485833466053009
-0.1049680709838867,0.2215525507926941,0.439321756362915,-0.4305780231952667,0.1942283362150192,0.4046100676059723,0.0,0.0,-0.2850025296211242,0.149803876876831
-0.1002457588911056,0.2115525603294372,0.4519931674003601,-0.4472286105155945,0.2146166563034057,0.407766580581665,0.0,0.0,0.1233580112457275,0.2727288007736206
-0.0954561233520507,0.2017217278480529,0.4585934281349182,-0.4400147497653961,0.2352511435747146,0.4126901030540466,0.0,0.0,0.5983015298843384,0.4171919822692871
-0.090497113764286,0.1920750737190246,0.4748829305171966,-0.432242751121521,0.2566406726837158,0.4277903437614441,0.0,0.0,0.7582991123199463,0.3622125387191772
-0.0854949951171875,0.1831565499305725,0.4786697924137115,-0.4002992510795593,0.2786864042282104,0.4409138560295105,0.0,0.0,0.7199490070343018,0.3068532943725586
-0.0805713683366775,0.1750930398702621,0.4706607460975647,-0.3626774549484253,0.3010346293449402,0.4469638466835022,0.0,0.0,0.605340838432312,0.0716850757598877
