x_pos,y_pos,x_vel,y_vel,angle,ang_vel,leg_1,leg_2,main_booster,lat_booster
-0.0015210151905193,1.403191328048706,-0.1543388068675995,-0.3435083627700805,0.00200228812173,0.0395148321986198,0.0,0.0,-0.0761603251647984,0.9174698997954788
-0.0029605864547193,1.395047903060913,-0.1441800594329834,-0.3619241118431091,0.0022247685119509,0.0044508571736514,0.0,0.0,-0.7899344315051362,-0.8199250865196279
-0.0044461251236498,1.3864647150039673,-0.1503225266933441,-0.3814796805381775,0.0039592264220118,0.0346923097968101,0.0,0.0,0.6189302591571959,-0.6485853833664582
-0.0061070444062352,1.3781793117523191,-0.1690854728221893,-0.3682450950145721,0.0069253761321306,0.0593284294009208,0.0,0.0,-0.2616724015298299,-0.9419594705051538
-0.0078211780637502,1.3694632053375244,-0.1761543750762939,-0.3874122500419616,0.0116211203858256,0.0939235240221023,0.0,0.0,-0.53400244057065,0.7575753750137151
-0.0094566345214843,1.3603142499923706,-0.1667010635137558,-0.4066462218761444,0.0147468699142336,0.0625207275152206,0.0,0.0,-0.5521452965389928,0.6435183244443018
-0.0110371587797999,1.3507332801818848,-0.160269632935524,-0.4258447885513305,0.0169247724115848,0.0435622707009315,0.0,0.0,-0.4455547406186424,0.6154834485278661
-0.0125510217621922,1.3407224416732788,-0.1523418873548507,-0.4449380934238434,0.0178657472133636,0.0188213400542736,0.0,0.0,-0.4288378922310549,-0.9850421834589672
-0.0141375539824366,1.3302868604660034,-0.1619033813476562,-0.4638388454914093,0.0210857614874839,0.0644060522317886,0.0,0.0,-0.9976418762137538,0.8818142271870236
-0.0156479831784963,1.3194259405136108,-0.1528228819370269,-0.4827310442924499,0.0228533819317817,0.0353554300963878,0.0,0.0,0.4743553551233803,0.8356504349090406
-0.0170111656188964,1.3089332580566406,-0.1368673741817474,-0.4663501977920532,0.0233931746333837,0.0107967481017112,0.0,0.0,-0.8406750903253193,-0.9775554526673766
-0.0184350963681936,1.2980027198791504,-0.1449768245220184,-0.4858378171920776,0.0259475223720073,0.0510914921760559,0.0,0.0,0.9732357852359834,-0.7340359714537432
-0.0197632797062397,1.2879003286361694,-0.1376093178987503,-0.4490925967693329,0.0306843761354684,0.0947459489107132,0.0,0.0,0.2382535672525241,0.9102860249930376
-0.0209606178104877,1.2777612209320068,-0.1230408698320388,-0.4506969749927521,0.0339641980826854,0.0656023174524307,0.0,0.0,-0.5223359540895924,0.8093897120304178
-0.0220720283687114,1.2672014236450195,-0.1127752810716629,-0.4693592190742492,0.0355770699679851,0.0322606414556503,0.0,0.0,0.7003413419782425,-0.8905739553020278
-0.0231316573917865,1.2566598653793335,-0.1099089980125427,-0.4686150252819061,0.0394865088164806,0.0781958848237991,0.0,0.0,-0.7539967542874326,0.9066260669502212
-0.0240966789424419,1.2457008361816406,-0.0985402837395668,-0.4871204495429992,0.0415022559463977,0.0403185226023197,0.0,0.0,0.6216250252935682,-0.8170230003105847
-0.0249794013798236,1.2348588705062866,-0.0925545543432235,-0.4819923043251037,0.0457386747002601,0.0847361534833908,0.0,0.0,0.1647967362343489,0.8739952165225457
-0.025733184069395,1.2244501113891602,-0.0782774537801742,-0.4626949429512024,0.048602569848299,0.0572832822799682,0.0,0.0,-0.124148841558596,0.8894551222683825
-0.0264199264347553,1.21361243724823,-0.070349171757698,-0.4817313253879547,0.0502653159201145,0.0332577861845493,0.0,0.0,-0.8120098133747824,0.6297958921045459
-0.0270404815673828,1.2023507356643677,-0.0625412315130233,-0.5005301237106323,0.050741646438837,0.0095277531072497,0.0,0.0,-0.4025438177654818,-0.8709967500693163
-0.0277226455509662,1.1906461715698242,-0.070754662156105,-0.5202948451042175,0.053250502794981,0.0501819439232349,0.0,0.0,-0.5711927153751295,-0.798500826921904
-0.0284491535276174,1.1785035133361816,-0.076778694987297,-0.5398247838020325,0.0573394000530242,0.0817850977182388,0.0,0.0,0.5996155554889415,0.6120551215806264
-0.0290666576474905,1.166384220123291,-0.0651562288403511,-0.5387668609619141,0.0607212223112583,0.0676426216959953,0.0,0.0,-0.257648070253851,0.9600076378855374
-0.0296219829469919,1.153839945793152,-0.057824470102787,-0.5576189756393433,0.0629814192652702,0.0452079847455024,0.0,0.0,0.8505200635843992,-0.865747539986654
-0.0304705612361431,1.1420031785964966,-0.088882103562355,-0.5262559056282043,0.0669664070010185,0.0796998888254165,0.0,0.0,-0.9451109839853516,0.8518478039314172
-0.0312485694885253,1.1297457218170166,-0.0804490596055984,-0.544899582862854,0.0695856511592865,0.0523847267031669,0.0,0.0,0.609230051369209,-0.8780872850011207
-0.032291792333126,1.118245244026184,-0.1088682264089584,-0.5113471150398254,0.0740851685404777,0.0899902507662773,0.0,0.0,0.1489485784972997,-0.6220960117552229
-0.0335236564278602,1.1071065664291382,-0.1291714757680893,-0.4953633844852447,0.0800159573554992,0.11861552298069,0.0,0.0,-0.5482077416513409,-0.9368615522957648
-0.034830667078495,1.0955228805541992,-0.1389931738376617,-0.5152941346168518,0.0882254987955093,0.1641909480094909,0.0,0.0,-0.7345278758394147,-0.7335257902617801
-0.0361940376460552,1.0835082530975342,-0.1463911980390548,-0.5346067547798157,0.0981964096426963,0.1994182616472244,0.0,0.0,-0.2234917183139784,-0.6303080114778851
-0.0376136787235736,1.0710506439208984,-0.1537998467683792,-0.5544986128807068,0.1099365428090095,0.2348024845123291,0.0,0.0,-0.2952764929332432,-0.7332267211535284
-0.0391009338200092,1.0581581592559814,-0.162560224533081,-0.5740706920623779,0.1236872598528862,0.2750143408775329,0.0,0.0,-0.0472819816116827,-0.8269487998534916
-0.0406618118286132,1.0448153018951416,-0.1720765829086303,-0.5944244265556335,0.1396182477474212,0.3186194002628326,0.0,0.0,0.3830456053913562,0.7285591035398635
-0.0422268882393837,1.0318394899368286,-0.1714053303003311,-0.5781650543212891,0.1544678807258606,0.2969928681850433,0.0,0.0,0.7128604450536238,-0.6773949697085859
-0.0439502708613872,1.0195939540863037,-0.188933864235878,-0.5460518002510071,0.171069398522377,0.332030713558197,0.0,0.0,-0.9593103410823582,-0.9148599909090308
-0.045752715319395,1.0068962574005127,-0.1990603953599929,-0.566616952419281,0.1899406462907791,0.3774251341819763,0.0,0.0,0.5118558629268741,-0.7968044237357312
-0.0477177612483501,0.9947965741157532,-0.2172349989414215,-0.5405523777008057,0.210821658372879,0.4176198542118072,0.0,0.0,-0.2984717220322253,0.6494689260843386
-0.0496444702148437,0.9822921752929688,-0.2124631404876709,-0.5586956143379211,0.2308312654495239,0.4001924097537994,0.0,0.0,0.0226177097357918,-0.6036229681807439
-0.0516934394836425,0.969901978969574,-0.2261448204517364,-0.5541568398475647,0.2524368464946747,0.4321114420890808,0.0,0.0,0.7356869345265424,0.6067918370100674
-0.0540277473628521,0.958251178264618,-0.2534299194812774,-0.5213872790336609,0.2728662192821502,0.4085872769355774,0.0,0.0,-0.8673095107078552,0.9882618188858032
-0.056282140314579,0.9462088346481324,-0.2433215081691742,-0.5386554002761841,0.2912411391735077,0.3674992024898529,0.0,0.0,-0.5860803723335266,0.987762689590454
-0.0584594719111919,0.9337669610977172,-0.2336259186267852,-0.5562306642532349,0.3076537549495697,0.3282522559165954,0.0,0.0,-0.904182195663452,0.9779419898986816
-0.0605635643005371,0.9209352731704712,-0.2243335545063018,-0.5733171105384827,0.3221063315868377,0.2890516519546509,0.0,0.0,-0.6450488567352295,0.9291993379592896
-0.062614157795906,0.9076961874961852,-0.217577263712883,-0.5912469625473022,0.3351607918739319,0.2610891461372375,0.0,0.0,-0.4801141619682312,0.952938675880432
-0.0646009445190429,0.8940578103065491,-0.2094891518354416,-0.6086996793746948,0.3464872241020202,0.2265283316373825,0.0,0.0,-0.7034763693809509,0.969386100769043
-0.0665228813886642,0.8800270557403564,-0.2012464106082916,-0.6257961392402649,0.3559911847114563,0.1900800764560699,0.0,0.0,-0.5303133130073547,0.9652633666992188
-0.0684061050415039,0.865607500076294,-0.1961345970630645,-0.6428247094154358,0.3642308115959167,0.1647926270961761,0.0,0.0,-0.513277530670166,0.7478045225143433
-0.0702656731009483,0.8507879972457886,-0.1929440200328827,-0.6604462265968323,0.3716235160827636,0.1478541046380996,0.0,0.0,-0.4811049699783325,0.9695830345153807
-0.072074607014656,0.8355748057365417,-0.1863870620727539,-0.6775825619697571,0.377453863620758,0.1166061908006668,0.0,0.0,-0.1143727302551269,0.9764130115509032
-0.0738146752119064,0.8199824690818787,-0.1774886846542358,-0.6939107775688171,0.3811532258987427,0.0739873647689819,0.0,0.0,-0.100225806236267,0.9928789138793944
-0.0755114555358886,0.8040043711662292,-0.1717497259378433,-0.7106921672821045,0.3833523690700531,0.0439833514392375,0.0,0.0,-0.2089131474494934,0.9996488094329834
-0.0771424323320388,0.7876417636871338,-0.1632090508937835,-0.7272622585296631,0.3834817111492157,0.0025869165547192,0.0,0.0,-0.3819431066513061,0.9991186857223512
-0.078725054860115,0.7709004878997803,-0.1567647755146026,-0.7436589002609253,0.3818865716457367,-0.0319030098617076,0.0,0.0,-0.4758286476135254,0.99468994140625
-0.0802398696541786,0.753778874874115,-0.1479124277830124,-0.7600168585777283,0.3780960440635681,-0.0758107155561447,0.0,0.0,-0.2741550207138061,0.9999728202819824
-0.0817166343331337,0.7362583875656128,-0.142813354730606,-0.7774114012718201,0.3729351758956909,-0.1032172814011573,0.0,0.0,0.2922269105911255,0.9999732971191406
-0.0832953453063964,0.7192758917808533,-0.1513943672180175,-0.7531039714813232,0.3660801351070404,-0.1371008157730102,0.0,0.0,0.2787162065505981,0.9998592138290404
-0.0848984718322753,0.7027067542076111,-0.1522318571805954,-0.7343665361404419,0.357543408870697,-0.1707345247268676,0.0,0.0,-0.4521945714950561,0.9998642206192015
-0.0864489525556564,0.685762882232666,-0.1450658142566681,-0.7506033778190613,0.3470421135425567,-0.210025742650032,0.0,0.0,0.1933729648590088,0.999902367591858
-0.0882102027535438,0.6692048907279968,-0.1644795089960098,-0.7331497669219971,0.3348402976989746,-0.2440367937088012,0.0,0.0,0.2464286088943481,0.9999794960021972
-0.0899737328290939,0.6526660323143005,-0.1630412638187408,-0.7320325374603271,0.3209607005119324,-0.2775914967060089,0.0,0.0,-0.4405728578567505,0.9988749027252196
-0.0917066559195518,0.6357342004776001,-0.1586116552352905,-0.7493541836738586,0.3057281374931335,-0.30465167760849,0.0,0.0,-0.4061137437820434,0.999936819076538
-0.0933798775076866,0.6184142827987671,-0.1505352854728698,-0.7663422226905823,0.2883948981761932,-0.346664696931839,0.0,0.0,-0.7104105353355408,0.9994735717773438
-0.0950071364641189,0.6007028818130493,-0.1441381275653839,-0.7836107611656189,0.2692996263504028,-0.381905734539032,0.0,0.0,-0.7420769333839417,0.9984242916107178
-0.096589371562004,0.5825892686843872,-0.13786281645298,-0.8014384508132935,0.2485096156597137,-0.4158004224300384,0.0,0.0,-0.7450013160705566,0.9932936429977416
-0.0981452912092208,0.5640730261802673,-0.1338844299316406,-0.8194268941879272,0.2264702469110489,-0.4407878518104553,0.0,0.0,-0.6606335639953613,0.9801294803619384
-0.0996593460440635,0.5451694130897522,-0.1279071569442749,-0.8367242813110352,0.2027196884155273,-0.4750114381313324,0.0,0.0,0.0846302509307861,0.9822289943695068
-0.10110654681921,0.5261549353599548,-0.1194679886102676,-0.8418282866477966,0.1773246973752975,-0.507900059223175,0.0,0.0,0.98641037940979,0.9092254638671876
-0.1026659980416297,0.5082711577415466,-0.129159539937973,-0.7918535470962524,0.1505072712898254,-0.5363484621047974,0.0,0.0,0.0836002826690673,0.7349933385848999
-0.1043207198381424,0.4904191792011261,-0.1373710483312606,-0.7908228635787964,0.1225016936659812,-0.560111403465271,0.0,0.0,-0.2490434646606445,-0.3660858273506164
-0.1060123443603515,0.4721446931362152,-0.1412883400917053,-0.8101474642753601,0.0948294401168823,-0.5534458756446838,0.0,0.0,-0.4850326180458069,0.5554559230804443
-0.1076950058341026,0.4534554183483124,-0.1394937634468078,-0.8290576934814453,0.0663228780031204,-0.5701317191123962,0.0,0.0,0.907733917236328,-0.907893717288971
-0.1097157448530197,0.4357894659042358,-0.1750837862491607,-0.7841731309890747,0.0396461635828018,-0.5335341691970825,0.0,0.0,-0.6666470766067505,0.8187320232391357
-0.1117013916373252,0.4177048504352569,-0.1700344532728195,-0.8032488226890564,0.0114639569073915,-0.5636441707611084,0.0,0.0,-0.5341896414756775,-0.7998344898223877
-0.1137919425964355,0.3991893827915191,-0.1825223863124847,-0.8229135274887085,-0.0147203374654054,-0.5236862301826477,0.0,0.0,0.4207831621170044,-0.3110453486442566
-0.1158579811453819,0.3806675672531128,-0.1806807219982147,-0.823647141456604,-0.0403210595250129,-0.5120145082473755,0.0,0.0,0.9560284614562988,-0.919078528881073
-0.1180603951215744,0.3623203039169311,-0.196421131491661,-0.8162412047386169,-0.0638636723160743,-0.4708526134490967,0.0,0.0,0.9695334434509276,-0.6037944555282593
-0.1202990561723709,0.3449729382991791,-0.2015804052352905,-0.7720910906791687,-0.0859300196170806,-0.441326767206192,0.0,0.0,0.1414077281951904,-0.6018222570419312
-0.1225139647722244,0.3280444145202636,-0.2008472383022308,-0.7536906599998474,-0.1064022406935691,-0.4094442427158355,0.0,0.0,0.5887775421142578,-0.6024237275123596
-0.1248476058244705,0.3118919134140014,-0.2139862477779388,-0.7193780541419983,-0.1256550848484039,-0.385057270526886,0.0,0.0,0.7957406044006348,-0.4816269874572754
-0.127314954996109,0.2958729863166809,-0.2270333021879196,-0.7137302160263062,-0.1452738940715789,-0.3923764824867248,0.0,0.0,0.5741903781890869,-0.4333221316337585
-0.1296745240688324,0.2805347442626953,-0.2167743891477584,-0.6836840510368347,-0.1644371151924133,-0.3832646608352661,0.0,0.0,0.8041715621948242,-0.3868131637573242
-0.1320798844099044,0.2657247483730316,-0.2211669981479644,-0.6604832410812378,-0.1838412582874298,-0.3880829513072967,0.0,0.0,0.3800950050354004,0.0779180526733398
-0.1344662606716156,0.2513331472873688,-0.2193855345249176,-0.6421235203742981,-0.2031936645507812,-0.3870485424995422,0.0,0.0,0.7915651798248291,-0.144418179988861
-0.1367517411708831,0.2376305013895034,-0.2095690071582794,-0.6117279529571533,-0.2223502844572067,-0.3831327557563782,0.0,0.0,0.8084501028060913,-0.6200153827667236
-0.1388838738203048,0.2244122177362442,-0.1960541158914566,-0.5901567339897156,-0.2397496849298477,-0.3479883372783661,0.0,0.0,0.9765076637268066,-0.4762940406799316
-0.1409306526184082,0.2113503515720367,-0.1879584491252899,-0.5833410024642944,-0.2567786574363708,-0.3405798971652984,0.0,0.0,0.9961647987365724,-0.7744394540786743
-0.1428360044956207,0.1985351145267486,-0.1758967190980911,-0.5721977949142456,-0.2717387974262237,-0.2992027103900909,0.0,0.0,0.9903020858764648,-0.8751747012138367
-0.1444755494594574,0.186231791973114,-0.151702806353569,-0.5491456389427185,-0.2843178808689117,-0.251581609249115,0.0,0.0,0.9962233304977416,-0.918640673160553
-0.1459139883518219,0.1741278767585754,-0.1339718401432037,-0.5399078130722046,-0.2944797575473785,-0.2032378017902374,0.0,0.0,0.9968030452728271,-0.912925124168396
-0.1472026854753494,0.162935197353363,-0.1210228204727172,-0.4990599751472473,-0.3025911152362823,-0.1622267663478851,0.0,0.0,0.9928613901138306,-0.9745060801506042
-0.1482902467250824,0.152642160654068,-0.1030894666910171,-0.4586573541164398,-0.3084484040737152,-0.1171458587050437,0.0,0.0,0.9983735084533693,-0.9812278747558594
-0.1490857154130935,0.1430314183235168,-0.0762713402509689,-0.427844375371933,-0.3118375837802887,-0.0677834302186966,0.0,0.0,0.9975016117095948,-0.9347837567329408
-0.1497428864240646,0.1335129290819168,-0.0646753311157226,-0.4232663512229919,-0.3129152357578277,-0.0215529631823301,0.0,0.0,0.9878082275390624,-0.9046940207481384
-0.1503837555646896,0.1244974210858345,-0.0648593306541442,-0.4005225896835327,-0.3121216595172882,0.0158715732395648,0.0,0.0,0.9879897832870485,-0.9592459201812744
-0.1507058143615722,0.1165240406990051,-0.0352025404572486,-0.3537329137325287,-0.309014081954956,0.0621513798832893,0.0,0.0,0.8281451463699341,-0.8655142188072205
-0.1509654074907302,0.1090607047080993,-0.0307436343282461,-0.3306940197944641,-0.3040549159049988,0.0991831049323082,0.0,0.0,0.8901946544647217,-0.631850004196167
-0.1511806547641754,0.1025628894567489,-0.0273190587759017,-0.2875917255878448,-0.2980675399303436,0.1197477728128433,0.0,0.0,0.7044012546539307,-0.5974973440170288
-0.1511721611022949,0.0966451466083526,-0.006478670053184,-0.2615228593349457,-0.2905046641826629,0.1512574404478073,0.0,0.0,0.8642286062240601,-0.7779409289360046
-0.1510765999555587,0.0915714129805564,0.0006934262928552,-0.2237606942653656,-0.2813882529735565,0.1823283582925796,0.0,0.0,0.3522307872772217,-0.8860300183296204
-0.1509849578142166,0.0870158746838569,-0.001504958490841,-0.2004506886005401,-0.2704389691352844,0.2189856022596359,0.0,0.0,0.6646506786346436,-0.8596164584159851
-0.1508849114179611,0.0827895030379295,-0.0024439259432256,-0.1855944991111755,-0.2577109634876251,0.2545605897903442,0.0,0.0,0.5858179330825806,-0.880434513092041
-0.1508580148220062,0.0790445655584335,-0.0114526581019163,-0.1640238463878631,-0.2433017939329147,0.2881835103034973,0.0,0.0,0.5763266086578369,-0.6505058407783508
-0.1509436666965484,0.0756701305508613,-0.0237690266221761,-0.1475306302309036,-0.2278551757335662,0.3089323341846466,0.0,0.0,0.7687058448791504,0.3188917636871338
-0.1507748663425445,0.0729511603713035,0.001043259515427,-0.1184709519147872,-0.21183443069458,0.3204149901866913,0.0,0.0,0.3462746143341064,0.8419840335845947
-0.1504522264003753,0.0701967775821685,0.0179568566381931,-0.1204303428530693,-0.1974159479141235,0.2883700728416443,0.0,0.0,0.1862015724182129,0.7503879070281982
-0.1498749703168869,0.067770704627037,0.0447384193539619,-0.1061480343341827,-0.1843547523021698,0.2612243294715881,0.0,0.0,-0.1137440204620361,0.0502556562423706
-0.1493242233991623,0.0649134740233421,0.0420344807207584,-0.1254178583621978,-0.1712768077850341,0.2615590393543243,0.0,0.0,-0.0858719944953918,0.3688204288482666
-0.1487987488508224,0.0616252273321151,0.0394751578569412,-0.1446879357099533,-0.1581929624080658,0.2616772651672363,0.0,0.0,0.3017542362213135,0.4573807716369629
-0.1481657028198242,0.0585683695971965,0.0499215945601463,-0.1344942897558212,-0.1448359191417694,0.2671408057212829,0.0,0.0,0.3091384172439575,0.1762392520904541
-0.1474673300981521,0.0560420863330364,0.0564738698303699,-0.1110335141420364,-0.1315206587314605,0.266305536031723,0.0,0.0,0.1562104225158691,0.9336459636688232
-0.1465941369533538,0.0538880191743373,0.0758227258920669,-0.0947616547346115,-0.1200838610529899,0.2287361174821853,0.0,0.0,-0.0010063052177429,0.0479519367218017
-0.1457402259111404,0.0513025149703025,0.0739142298698425,-0.1140289306640625,-0.1086826100945472,0.2280248403549194,0.0,0.0,-0.054095447063446,0.5512444972991943
-0.144869327545166,0.0482807010412216,0.0765295773744583,-0.133569985628128,-0.0982027351856231,0.2095974385738372,0.0,0.0,0.2905210256576538,0.6811494827270508
-0.1440325677394867,0.0454338416457176,0.0747067481279373,-0.1259610801935196,-0.089310847222805,0.177837997674942,0.0,0.0,0.0063006877899169,-0.1239154338836669
-0.1431923806667328,0.042669590562582,0.0751785486936569,-0.1223504915833473,-0.080544039607048,0.175336092710495,0.0,0.0,0.2297607660293579,0.9391922950744628
-0.1422358453273773,0.0400532595813274,0.0887529999017715,-0.1159253939986229,-0.0737135261297226,0.1366101056337356,0.0,0.0,-0.109292447566986,0.6000198125839233
-0.1412322968244552,0.0369924642145633,0.0950183048844337,-0.1357846111059188,-0.0684209242463111,0.1058520302176475,0.0,0.0,0.4232316017150879,0.7005488872528076
-0.1400483101606369,0.0343681201338768,0.1143836379051208,-0.1164610162377357,-0.0644509866833686,0.0793989598751068,0.0,0.0,-0.192605972290039,0.0280628204345703
-0.1388703286647796,0.0313107594847679,0.113876387476921,-0.1357189118862152,-0.060580339282751,0.0774128958582878,0.0,0.0,0.3445150852203369,0.6952846050262451
-0.137568861246109,0.028182515874505,0.1276498734951019,-0.1389329433441162,-0.0581094995141029,0.0494166575372219,0.0,0.0,0.5196976661682129,0.5857629776000977
