x_pos,y_pos,x_vel,y_vel,angle,ang_vel,leg_1,leg_2,main_booster,lat_booster
-0.0015152931446209,1.4032800197601318,-0.153332307934761,-0.3395593464374542,0.0016062200302258,0.0316725894808769,0.0,0.0,-0.175514280796051,0.913682460784912
-0.0029429434798657,1.395314335823059,-0.1421869099140167,-0.3540277481079101,0.00103706412483,-0.0113833118230104,0.0,0.0,-0.0325421094894409,-0.6181884407997131
-0.0043967245146632,1.3869991302490234,-0.1455764323472976,-0.3695629239082336,0.0012353878701105,0.0039667086675763,0.0,0.0,0.2151784896850586,0.4105569124221802
-0.0059250830672681,1.3788906335830688,-0.1524160206317901,-0.3603827059268951,0.000814396131318,-0.0084208892658352,0.0,0.0,0.2455420494079589,0.4932217597961426
-0.0073413848876953,1.3711750507354736,-0.1414591670036316,-0.3429156839847564,0.0006482801982201,-0.0033226883970201,0.0,0.0,0.044066309928894,0.5738122463226318
-0.0085986135527491,1.3636291027069092,-0.1243327409029007,-0.3353776633739471,-0.0007220588740892,-0.0274091567844152,0.0,0.0,-0.1178343296051025,0.1184697151184082
-0.0098365787416696,1.355738639831543,-0.1221796050667762,-0.3506881296634674,-0.0023296982981264,-0.0321555696427822,0.0,0.0,-0.0296871662139892,0.1286710500717163
-0.0110535621643066,1.347503900527954,-0.1198142915964126,-0.3659958243370056,-0.0041887001134455,-0.0371834933757782,0.0,0.0,-0.3137408494949341,0.3937286138534546
-0.0122474674135446,1.3389246463775637,-0.1172316893935203,-0.3813043236732483,-0.0063124550506472,-0.0424791499972343,0.0,0.0,-0.4284242987632751,0.8094455003738403
-0.0133522991091012,1.3300056457519531,-0.1064371094107627,-0.3964229524135589,-0.0103158950805664,-0.0800763815641403,0.0,0.0,-0.1396454572677612,0.3234750032424927
-0.0144297601655125,1.3207424879074097,-0.1034026518464088,-0.4117332994937897,-0.0146102868020534,-0.0858958959579467,0.0,0.0,-0.2578195333480835,0.5846613645553589
-0.0154261589050292,1.3111329078674316,-0.0936826914548873,-0.4271605908870697,-0.0205050390213727,-0.1179055348038673,0.0,0.0,-0.5527054667472839,0.2940905094146728
-0.0163908004760742,1.3011795282363892,-0.0901840180158615,-0.442472755908966,-0.0267177373170852,-0.1242651119828224,0.0,0.0,-0.4449623823165893,-0.4425311088562011
-0.0173214916139841,1.290882229804993,-0.0864515155553817,-0.4577852189540863,-0.0332626439630985,-0.1309101730585098,0.0,0.0,-0.4245316386222839,-0.4215446710586548
-0.0182159431278705,1.2802413702011108,-0.0824828520417213,-0.4730987548828125,-0.0401528626680374,-0.1378171443939209,0.0,0.0,-0.5834434628486633,-0.9071516394615172
-0.0191308017820119,1.2692497968673706,-0.0856468454003334,-0.4886897504329681,-0.0459300130605697,-0.1155536025762558,0.0,0.0,-0.4428653120994568,-0.4953241348266601
-0.0200050361454486,1.2579143047332764,-0.0812062472105026,-0.5040031671524048,-0.0520796589553356,-0.1230040192604065,0.0,0.0,-0.6880038380622864,-0.8551746606826782
-0.0208879467099905,1.2462316751480105,-0.0830119103193283,-0.5194153785705566,-0.0573179237544536,-0.1047747358679771,0.0,0.0,-0.6166779398918152,-0.8277307748794556
-0.0217803008854389,1.234217882156372,-0.0849357768893241,-0.5341184139251709,-0.0615731701254844,-0.0851126760244369,0.0,0.0,-0.5657637119293213,-0.8688650131225586
-0.0227029807865619,1.2218668460845947,-0.0895334929227829,-0.5490497350692749,-0.0642810314893722,-0.0541619136929512,0.0,0.0,-0.6604931354522705,-0.7940007448196411
-0.0236252788454294,1.2091822624206543,-0.0903193950653076,-0.5638390779495239,-0.0661666616797447,-0.0377161726355552,0.0,0.0,-0.6061258316040039,-0.6276568174362183
-0.0245444290339946,1.196155071258545,-0.0908105745911598,-0.5790413618087769,-0.067264512181282,-0.0219588875770568,0.0,0.0,-0.5057816505432129,-0.9181530475616456
-0.0254665371030569,1.1827882528305054,-0.0921001583337783,-0.5940894484519958,-0.0673772394657135,-0.0022547501139342,0.0,0.0,-0.3667490482330322,-0.1639496088027954
-0.0263326652348041,1.1690771579742432,-0.0860267654061317,-0.6094013452529907,-0.0679495632648468,-0.0114477397873997,0.0,0.0,-0.2342212200164795,-0.4094552993774414
-0.0271404273808002,1.155022144317627,-0.0797239989042282,-0.6247132420539856,-0.0689921826124191,-0.0208542719483375,0.0,0.0,-0.7720022797584534,-0.7717241644859314
-0.0279642101377248,1.1406137943267822,-0.0827696844935417,-0.6403582692146301,-0.0686071589589119,0.0077007012441754,0.0,0.0,-0.7901971340179443,-0.4909502267837524
-0.0287256240844726,1.1258611679077148,-0.0760234892368316,-0.655668318271637,-0.0687142983078956,-0.0021429623011499,0.0,0.0,-0.3348922729492187,-0.4629710912704468
-0.02942237816751,1.1107648611068726,-0.0690610259771347,-0.6709784269332886,-0.0693236514925956,-0.0121874008327722,0.0,0.0,-0.6065186858177185,-0.8124643564224243
-0.0301302913576364,1.095339298248291,-0.0716477707028389,-0.6855378746986389,-0.0684751197695732,0.016970669850707,0.0,0.0,-0.0104461312294006,-0.1571208238601684
-0.0307697299867868,1.0795698165893557,-0.0642660409212112,-0.7008480429649353,-0.0681478306651115,0.0065456726588308,0.0,0.0,-0.1078962087631225,-0.7448480129241943
-0.0313951484858989,1.063470721244812,-0.0637933760881424,-0.7154605388641357,-0.0669119209051132,0.0247182585299015,0.0,0.0,-0.4782386422157287,-0.4731262922286987
-0.0319481864571571,1.047027826309204,-0.0560118742287159,-0.7307709455490112,-0.0662149265408515,0.0139398891478776,0.0,0.0,-0.417664885520935,-0.3453490734100342
-0.0324270240962505,1.030240774154663,-0.0480383560061454,-0.7460812926292419,-0.0660651549696922,0.0029954328201711,0.0,0.0,0.1224027872085571,-0.8265607953071594
-0.0329294204711914,1.0134806632995603,-0.0514679476618766,-0.7448439002037048,-0.0648530200123786,0.0242428444325923,0.0,0.0,0.0168236494064331,-0.6447287201881409
-0.0333685874938964,0.996959626674652,-0.0458819381892681,-0.7341855764389038,-0.0629082769155502,0.0388950183987617,0.0,0.0,-0.5748603940010071,-0.2796034812927246
-0.0337283127009868,0.9800946116447448,-0.0373661294579505,-0.7494962215423584,-0.0615335963666439,0.0274937059730291,0.0,0.0,-0.2075461149215698,0.0723602771759033
-0.0340070724487304,0.9628857374191284,-0.0286811795085668,-0.7648065686225891,-0.0607358999550342,0.0159540195018053,0.0,0.0,-0.4857587218284607,-0.5655547976493835
-0.0342448242008686,0.945340931415558,-0.0250664763152599,-0.7797107696533203,-0.0594663061201572,0.0253920890390872,0.0,0.0,-0.2118209600448608,-0.0813482999801635
-0.0343985557556152,0.9274523854255676,-0.0160613041371107,-0.7950210571289062,-0.0587864778935909,0.0135961417108774,0.0,0.0,-0.0869824886322021,-0.3400692939758301
-0.0344667434692382,0.9092199206352234,-0.0069051026366651,-0.8103312253952026,-0.0587023757398128,0.0016821261961013,0.0,0.0,-0.3303864002227783,-0.0512070059776306
-0.0344480499625206,0.8906434774398804,0.0023960329126566,-0.825641393661499,-0.0592195242643356,-0.0103431399911642,0.0,0.0,0.2895926237106323,-0.5444779992103577
-0.0342549309134483,0.8723282217979431,0.0191265325993299,-0.8140052556991577,-0.0590362325310707,0.0036659233737736,0.0,0.0,-0.3285671472549438,-0.8128920793533325
-0.0340264327824115,0.853664755821228,0.0219066105782985,-0.8294479846954346,-0.0581093877553939,0.0185369998216629,0.0,0.0,-0.46432626247406,0.1218073368072509
-0.0337072387337684,0.8346573710441589,0.0316061340272426,-0.8447582721710205,-0.0577985346317291,0.0062168198637664,0.0,0.0,0.0761746168136596,0.1797082424163818
-0.0333114638924598,0.8155956864356995,0.0400158986449241,-0.8472041487693787,-0.0582304522395134,-0.0086382841691374,0.0,0.0,-0.0132422447204589,-0.3948920965194702
-0.0328226089477539,0.7961899638175964,0.0499510504305362,-0.862514317035675,-0.0592866241931915,-0.021123306825757,0.0,0.0,-0.2056476473808288,-0.8701508641242981
-0.0323017127811908,0.7764411568641663,0.0522252991795539,-0.8777292966842651,-0.0594152733683586,-0.0025731632485985,0.0,0.0,-0.3535961508750915,-0.3003421425819397
-0.0316856391727924,0.7563484907150269,0.0623726323246955,-0.8930397033691406,-0.0601751804351806,-0.0151983294636011,0.0,0.0,-0.2582474946975708,-0.6223412752151489
-0.0310333259403705,0.7359227538108826,0.0651121363043785,-0.9078040719032288,-0.0600566379725933,0.002371015259996,0.0,0.0,-0.2458231449127197,-0.2649731636047363
-0.0302841179072856,0.7151533365249634,0.0754488408565521,-0.9231144785881042,-0.0605751350522041,-0.0103702303022146,0.0,0.0,-0.2686291933059692,-0.7476935982704163
-0.029482077807188,0.6940436959266663,0.0802257806062698,-0.9382056593894958,-0.0605995059013366,-0.0004873873258475,0.0,0.0,0.5548579692840576,-0.8633677959442139
-0.0286681167781353,0.6736457347869873,0.0804234519600868,-0.9065364599227904,-0.0596322193741798,0.0193458572030067,0.0,0.0,0.2388131618499755,-0.6172308921813965
-0.0276931766420602,0.6533958315849304,0.0957690626382827,-0.8999268412590027,-0.057924561202526,0.0341531932353973,0.0,0.0,0.3727368116378784,-0.7828190922737122
-0.0266384128481149,0.6338070034980774,0.102819800376892,-0.8705165982246399,-0.0552985519170761,0.0525199547410011,0.0,0.0,0.0895788669586181,-0.7408929467201233
-0.0254113189876079,0.6143485903739929,0.1191267594695091,-0.8646884560585022,-0.0517553947865963,0.0708631202578544,0.0,0.0,0.3994464874267578,-0.8337122201919556
-0.0242197029292583,0.5951529145240784,0.1146715879440307,-0.8529945611953735,-0.0473125763237476,0.0888564437627792,0.0,0.0,0.2823811769485473,-0.8003347516059875
-0.0228773113340139,0.5765464305877686,0.1287013590335846,-0.8267918229103088,-0.0418353676795959,0.1095441132783889,0.0,0.0,-0.2624582052230835,-0.805857241153717
-0.0214816089719533,0.5576026439666748,0.1334274113178253,-0.8417864441871643,-0.0357705540955066,0.1212963089346885,0.0,0.0,0.728632926940918,-0.7839570045471191
-0.0199283603578805,0.5396135449409485,0.1480876505374908,-0.7993614673614502,-0.0286259278655052,0.1428927034139633,0.0,0.0,-0.1005547046661377,-0.5529490113258362
-0.0183212272822856,0.5212879776954651,0.1528790742158889,-0.8143421411514282,-0.02089056186378,0.1547074615955352,0.0,0.0,0.0366139411926269,-0.8394198417663574
-0.0166345592588186,0.5029610991477966,0.1597911268472671,-0.8144292831420898,-0.0121278194710612,0.1752546727657318,0.0,0.0,0.5308363437652588,-0.4779524207115173
-0.014929199591279,0.4852674007415771,0.1627563685178756,-0.7863465547561646,-0.0044422200880944,0.1537119895219802,0.0,0.0,0.1409727334976196,-0.4765022993087768
-0.0130328182131052,0.4677650928497314,0.1821022182703018,-0.7778723835945129,0.0029917319770902,0.1486789584159851,0.0,0.0,0.1103078126907348,-0.8026970624923706
-0.0110786436125636,0.450538158416748,0.1869084537029266,-0.7656816840171814,0.0113878296688199,0.1679220050573349,0.0,0.0,0.2475655078887939,-0.5704315304756165
-0.0090621951967477,0.433416873216629,0.1926340013742447,-0.7610418200492859,0.0202880483120679,0.1780042052268982,0.0,0.0,-0.4298267960548401,-0.6962026953697205
-0.0070075988769531,0.4159504771232605,0.1954059898853302,-0.7764497995376587,0.0302165057510137,0.1985693424940109,0.0,0.0,0.8374958038330078,-0.811836302280426
-0.0049152374267578,0.3995756208896637,0.19813072681427,-0.728027880191803,0.0411730855703353,0.219131737947464,0.0,0.0,0.6136685609817505,-0.0566945075988769
-0.0026500702369958,0.3832906782627105,0.2157043516635894,-0.7241069674491882,0.0518650412559509,0.2138390988111496,0.0,0.0,0.5009622573852539,-0.7450330257415771
-0.0003523826599121,0.3678304255008697,0.2180481255054474,-0.6875665187835693,0.0634527057409286,0.2317533046007156,0.0,0.0,0.6262533664703369,-0.4650337696075439
0.0019279479747638,0.3527156412601471,0.2173855304718017,-0.6722545623779297,0.073983296751976,0.2106119096279144,0.0,0.0,0.4612116813659668,-0.4640005230903625
0.0041874884627759,0.3381439447402954,0.2163297235965728,-0.6481330394744873,0.0835137516260147,0.1906091272830963,0.0,0.0,0.7502527236938477,-0.239019513130188
0.006528949830681,0.3242179155349731,0.2249976694583892,-0.6194697618484497,0.0925750508904457,0.1812261044979095,0.0,0.0,0.6341691017150879,-0.130769670009613
0.0087705608457326,0.3111777305603027,0.2162314653396606,-0.5800759196281433,0.1004320457577705,0.1571401506662368,0.0,0.0,0.1859008073806762,-0.4501612186431885
0.0111269950866699,0.2984196543693542,0.2280953228473663,-0.5675523281097412,0.1079236268997192,0.1498318463563919,0.0,0.0,0.1342040300369262,-0.5378789901733398
0.0134908678010106,0.2857022583484649,0.2284151017665863,-0.565812885761261,0.1158392801880836,0.1583129465579986,0.0,0.0,0.4570611715316772,-0.602203905582428
0.015943145379424,0.2730643451213836,0.2365012168884277,-0.5623847842216492,0.1245040521025657,0.1732954531908035,0.0,0.0,0.7086056470870972,-0.8266804814338684
0.0183546058833599,0.2605775594711303,0.2314417660236358,-0.5558080077171326,0.1341685950756073,0.193290889263153,0.0,0.0,0.7921739816665649,-0.6169231534004211
0.0206949226558208,0.249019369482994,0.2237146645784378,-0.5146554112434387,0.1444558054208755,0.2057441174983978,0.0,0.0,0.4502270221710205,-0.4067025184631347
0.0231036189943552,0.2381952553987503,0.2308183908462524,-0.4820804297924042,0.1544939130544662,0.2007621824741363,0.0,0.0,0.3473880290985107,-0.422088623046875
0.025420855730772,0.2279935032129287,0.222660630941391,-0.4543746411800384,0.1635434478521347,0.1809907406568527,0.0,0.0,-0.4610754251480102,-0.7596344351768494
0.0277675632387399,0.2174218744039535,0.224345326423645,-0.4710197448730469,0.1738898605108261,0.2069282531738281,0.0,0.0,0.1862002611160278,-0.2900937795639038
0.0301447864621877,0.2073519974946975,0.227809190750122,-0.4487424790859222,0.1838248372077942,0.1986995190382003,0.0,0.0,0.0602883100509643,-0.7384117245674133
0.0324227325618267,0.1974459290504455,0.2170169353485107,-0.441643625497818,0.1946551501750946,0.2166063338518142,0.0,0.0,-0.0456677675247192,-0.3084100484848022
0.0347990021109581,0.1871954500675201,0.2273946106433868,-0.4569520354270935,0.2049627602100372,0.2061523199081421,0.0,0.0,0.1377383470535278,-0.1404635310173034
0.0371666923165321,0.1773052513599395,0.2270987033843994,-0.4409342408180237,0.214722141623497,0.1951875388622284,0.0,0.0,0.3777976036071777,-0.4043046236038208
0.0395984649658203,0.1678047925233841,0.2336917668581009,-0.4236522018909454,0.2243211418390274,0.1919800490140915,0.0,0.0,0.1381131410598755,-0.6248513460159302
0.0420438759028911,0.1582883149385452,0.2342764884233474,-0.424551784992218,0.2347272187471389,0.2081215381622314,0.0,0.0,0.1127041578292846,0.0191437005996704
0.0445812232792377,0.1488447934389114,0.2436628639698028,-0.4213524460792541,0.2449548840522766,0.2045532017946243,0.0,0.0,0.2595109939575195,-0.7040717005729675
0.0471738800406456,0.139715775847435,0.2481108456850052,-0.4076367616653442,0.2563246488571167,0.2273947894573211,0.0,0.0,0.3882184028625488,-0.4999003410339355
0.0498872771859169,0.1307678520679474,0.2601123452186584,-0.3996872305870056,0.2678018808364868,0.2295444011688232,0.0,0.0,0.5871169567108154,-0.6097844839096069
0.0524468421936035,0.122502788901329,0.2439784109592437,-0.369577020406723,0.2800800800323486,0.2455637753009796,0.0,0.0,0.3726624250411987,-0.6135050654411316
0.0549000725150108,0.1147984862327575,0.2325296103954315,-0.3449234068393707,0.293256014585495,0.2635187804698944,0.0,0.0,0.1540572643280029,-0.6484102010726929
0.0573493018746376,0.1074422895908355,0.2311281263828277,-0.3297802209854126,0.3074999153614044,0.2848782539367676,0.0,0.0,0.2916737794876098,-0.5241841673851013
0.0598493590950965,0.1001228690147399,0.2354085147380828,-0.3284703493118286,0.3226469457149505,0.302940309047699,0.0,0.0,0.4451937675476074,-0.4082064628601074
0.0622470863163471,0.0930723026394844,0.2257760316133499,-0.3165483176708221,0.337247222661972,0.2920063734054565,0.0,0.0,0.1941564083099365,-0.4300050139427185
0.0645767226815223,0.0865917280316352,0.2190570831298828,-0.2913446426391601,0.351819634437561,0.2914484441280365,0.0,0.0,0.3998807668685913,-0.0068540573120117
0.0667997375130653,0.0804368108510971,0.2088356465101242,-0.2769127190113067,0.3660140037536621,0.2838876843452453,0.0,0.0,0.0434440374374389,-0.604979932308197
0.0687904357910156,0.0745747908949852,0.1848543733358383,-0.2642401158809662,0.3810774981975555,0.3012698292732239,0.0,0.0,0.167775273323059,-0.4454586505889892
0.0707279220223426,0.0690912082791328,0.1795728504657745,-0.247578427195549,0.3961902558803558,0.3022556900978088,0.0,0.0,0.2252591848373413,0.0147823095321655
0.0724844932556152,0.0640118196606636,0.1619325578212738,-0.2296487241983413,0.4109112024307251,0.2944191694259643,0.0,0.0,0.2209665775299072,-0.4493283033370971
0.0740315467119216,0.0593139491975307,0.1414940059185028,-0.2126972079277038,0.4251691699028015,0.2851596474647522,0.0,0.0,0.2059671878814697,-0.0095632672309875
0.0754764527082443,0.0547586306929588,0.1315988600254058,-0.206414982676506,0.4391918480396271,0.280453622341156,0.0,0.0,0.204397439956665,0.7529735565185547
0.0767622962594032,0.0504324063658714,0.1173857674002647,-0.1958348751068115,0.4514332413673401,0.2448278367519378,0.0,0.0,-0.1249422430992126,0.0811856985092163
0.0781061202287674,0.0457629300653934,0.1233373880386352,-0.2111501395702362,0.4635830819606781,0.2429970949888229,0.0,1.0,0.9836089611053468,0.9971011877059937
0.0792601555585861,0.04286864772439,0.1165570989251136,-0.1289515346288681,0.4601455330848694,-0.0720640197396278,0.0,1.0,0.8987791538238525,0.99597430229187
0.0803044289350509,0.0411095470190048,0.1214502453804016,-0.0727157071232795,0.4413661062717438,-0.3757527470588684,0.0,1.0,0.8823409080505371,0.7613139152526855
0.0810406655073165,0.0407065004110336,0.1020776778459549,-0.0092814806848764,0.4104262888431549,-0.6188925504684448,0.0,1.0,0.5076292753219604,-0.1837725639343261
0.0814792662858963,0.0409275852143764,0.0725026130676269,0.0178099405020475,0.3797293603420257,-0.6140004396438599,0.0,1.0,-0.0074647068977355,0.3940874338150024
0.0819359794259071,0.0408009849488735,0.0737837329506874,0.0015578457387164,0.3499979972839355,-0.5946513414382935,0.0,0.0,-0.99996817111969,-0.7996792197227478
0.0824024230241775,0.0403053872287273,0.0733601078391075,-0.015774592757225,0.3220402896404266,-0.5591539144515991,0.0,0.0,-0.9998216032981871,-0.9124869108200072
0.08284692466259,0.0394486524164676,0.0696489587426185,-0.0326933115720748,0.2959274351596832,-0.5222570300102234,0.0,0.0,-0.9993287920951844,-0.7946684956550598
0.083281897008419,0.0382377952337265,0.0674764364957809,-0.0491377636790275,0.2712614238262176,-0.4933201670646667,0.0,0.0,-0.9989860653877258,-0.8323946595191956
0.0837046653032302,0.0366630181670188,0.0649565905332565,-0.0659520551562309,0.2480926811695099,-0.4633750319480896,0.0,0.0,-0.991051197052002,-0.8046476244926453
0.0840909034013748,0.0347236022353172,0.0594564750790596,-0.0828190743923187,0.2269426584243774,-0.4230004847049713,0.0,0.0,-0.981644868850708,-0.7976241707801819
0.0844369903206825,0.0324175469577312,0.0534872114658355,-0.0996971651911735,0.2078403830528259,-0.3820458948612213,0.0,0.0,-0.919630229473114,-0.8323876857757568
0.0847456902265548,0.0297502130270004,0.0479847863316535,-0.1162354201078414,0.190600112080574,-0.3448051810264587,0.0,0.0,-0.559187650680542,-0.9070025086402892
0.0850120559334755,0.026721104979515,0.0419036224484443,-0.132731407880783,0.175262913107872,-0.3067440688610077,0.0,0.0,-0.2364676594734192,-0.7307775616645813
0.0852544754743576,0.0233325101435184,0.0382242798805236,-0.1490136235952377,0.161268264055252,-0.2798928022384643,0.0,0.0,0.1374719142913818,-0.8763110041618347
0.0854448303580284,0.020305261015892,0.0310468468815088,-0.1332874149084091,0.1492746174335479,-0.2398732155561447,0.0,0.0,0.7128989696502686,-0.665603518486023
0.0854961425065994,0.0181770902127027,0.0154992770403623,-0.0935775712132453,0.1389266699552536,-0.2069589793682098,0.0,0.0,-0.2765154838562011,-0.5550354719161987
0.0855139717459678,0.0156920049339532,0.0108898738399147,-0.1096239313483238,0.1298568844795227,-0.1813957095146179,0.0,0.0,0.122083306312561,-0.605843722820282
