x_pos,y_pos,x_vel,y_vel,angle,ang_vel,leg_1,leg_2,main_booster,lat_booster
-0.001465129898861,1.403398513793945,-0.148438274860382,-0.3342862427234649,0.001723496010527,0.0339947529137134,0.0,0.0,0.1436847952190032,0.6566197735599234
-0.0027795792557299,1.3961504697799685,-0.1318792700767517,-0.3221365511417389,0.0021577719599008,0.0086867250502109,0.0,0.0,0.1546265897281444,-0.690094719912923
-0.003983402159065,1.3890947103500366,-0.1223507300019264,-0.3135946989059448,0.0040956791490316,0.0387620590627193,0.0,0.0,0.9301406473917584,-0.645538973326742
-0.005329227540642,1.3826851844787598,-0.1374059319496154,-0.2848725616931915,0.0068871970288455,0.0558356158435344,0.0,0.0,0.0622000610988431,-0.7645699426642537
-0.0065814973786473,1.376681566238403,-0.1296410709619522,-0.2668491899967193,0.01126020681113,0.0874679908156395,0.0,0.0,-0.7707200379575003,0.6944601176551958
-0.0077053070999681,1.370452642440796,-0.1150960102677345,-0.2768690288066864,0.0139412432909011,0.0536258406937122,0.0,0.0,0.3772720157069407,0.9502314552661476
-0.0087208747863769,1.3647209405899048,-0.1023506894707679,-0.2547448277473449,0.0147199397906661,0.0155753418803215,0.0,0.0,-0.5901367853552968,-0.6648161131979347
-0.0097137447446584,1.3587646484375,-0.1010736972093582,-0.264749139547348,0.0164884608238935,0.0353739038109779,0.0,0.0,0.8252475269809623,0.6187545827457963
-0.0106249805539846,1.353976488113403,-0.0916347205638885,-0.2128063589334488,0.0169912260025739,0.0100561585277318,0.0,0.0,-0.444217018082649,-0.6595594570153436
-0.0115254400297999,1.3489651679992676,-0.0918800458312034,-0.2227445393800735,0.0188046377152204,0.0362718738615512,0.0,0.0,0.1987965872270596,0.9347579823372778
-0.0122241023927927,1.3443799018859863,-0.0698689967393875,-0.203787013888359,0.0187995769083499,-0.000101108525996,0.0,0.0,0.5774945102556277,-0.7616749441940948
-0.0128542901948094,1.3403241634368896,-0.0646911486983299,-0.1802808940410614,0.0204526390880346,0.0330646261572837,0.0,0.0,0.1164844673442468,-0.6299221402127629
-0.0133813861757516,1.3367562294006348,-0.0558012202382087,-0.1586233973503112,0.0235054567456245,0.0610618405044078,0.0,0.0,-0.7178457691407827,0.717406704136388
-0.0137815475463867,1.3329578638076782,-0.0415033623576164,-0.1688360869884491,0.0249798446893692,0.0294906236231327,0.0,0.0,0.8448272883448116,-0.919204287514379
-0.014038753695786,1.3303276300430298,-0.0293796919286251,-0.1169626638293266,0.0286021213978528,0.0724517330527305,0.0,0.0,-0.6675952072678177,-0.6088170974196192
-0.0142708774656057,1.327462673187256,-0.0278792567551136,-0.1274226903915405,0.0332219563424587,0.0924047976732254,0.0,0.0,-0.8377418220050437,0.6562877577747763
-0.0143751148134469,1.32438325881958,-0.0134848449379205,-0.1369387805461883,0.0362516529858112,0.0605994276702404,0.0,0.0,-0.165900487527288,0.8307494013480581
-0.0143334390595555,1.321075201034546,0.0031507764942944,-0.1470435112714767,0.0372566543519496,0.0201015751808881,0.0,0.0,0.7201465557268185,0.8292507954008803
-0.014081192202866,1.318812131881714,0.0256542228162288,-0.1005753800272941,0.0368364602327346,-0.0084048528224229,0.0,0.0,-0.9682357195844092,-0.7104101024013629
-0.0138274189084768,1.3163189888000488,0.0241643749177455,-0.1108328849077224,0.0380325317382812,0.0239238161593675,0.0,0.0,-0.313820857921947,-0.8735026753689191
-0.013563061133027,1.3136035203933716,0.0238192118704319,-0.1207541674375534,0.0406122505664825,0.0515992641448974,0.0,0.0,-0.748462646761799,-0.6146837954016491
-0.0132811544463038,1.3106560707092283,0.0243546124547719,-0.1311075091361999,0.0444086156785488,0.0759340673685073,0.0,0.0,-0.00902876687097,-0.898968020977985
-0.0129897119477391,1.3074780702590942,0.0238722376525402,-0.141407698392868,0.0496266856789588,0.1043706163764,0.0,0.0,-0.2847447839465873,0.7560653874217079
-0.0125661846250295,1.3040711879730225,0.0387689545750618,-0.1515432000160217,0.053188107907772,0.0712347105145454,0.0,0.0,-0.1980360484638132,0.7052463942607003
-0.012034511193633,1.3004437685012815,0.0506214909255504,-0.1613048166036605,0.0556997396051883,0.0502371974289417,0.0,0.0,-0.3667857014994988,-0.974027171470655
-0.0115324016660451,1.2965667247772217,0.0452126152813434,-0.1725108623504638,0.0606413707137107,0.0988328009843826,0.0,0.0,-0.4523145262819992,0.9083598115587694
-0.0108927730470895,1.2924762964248655,0.0607842914760112,-0.1819287985563278,0.0637875273823738,0.06292325258255,0.0,0.0,-0.5590739411641634,0.9449148981151418
-0.0101295467466115,1.2881754636764526,0.0746104419231414,-0.1912164092063903,0.0654854997992515,0.0339595153927803,0.0,0.0,0.8253537635988308,0.9758658576935458
-0.0094404220581054,1.284929871559143,0.0693753585219383,-0.1442300528287887,0.0650212615728378,-0.0092845475301146,0.0,0.0,0.9331292862017349,-0.771554723775507
-0.0088101383298635,1.2823010683059692,0.061968732625246,-0.1168847233057022,0.0660635754466056,0.0208464562892913,0.0,0.0,0.0526507810321417,-0.726144519115735
-0.0081938747316598,1.2802578210830688,0.0590694323182106,-0.0909298211336135,0.0685912743210792,0.0505539402365684,0.0,0.0,0.8475267030502744,-0.6009978493840571
-0.0076857567764818,1.278704285621643,0.0472624078392982,-0.0692127719521522,0.0721015408635139,0.0702053904533386,0.0,0.0,0.4731751824955819,-0.628370024586401
-0.007293701171875,1.2779865264892578,0.0345366448163986,-0.032135285437107,0.0767268687486648,0.0925062820315361,0.0,0.0,0.993889387867307,-0.9935895896190072
-0.0070323944091796,1.277666449546814,0.0195769630372524,-0.0145703312009572,0.0832228437066078,0.1299197971820831,0.0,0.0,0.8142133792093555,-0.9700148138341188
-0.0068194391205906,1.2781461477279663,0.0127118797972798,0.0208145100623369,0.0917180925607681,0.169904887676239,0.0,0.0,-0.0770298806921876,-0.9460571786401684
-0.0066139223054051,1.2783982753753662,0.0101002994924783,0.0105315959081053,0.1020777896046638,0.2071941345930099,0.0,0.0,-0.1761900703112064,-0.8428336091074169
-0.0064122201874852,1.2784113883972168,0.0079345051199197,-0.0002959709963761,0.1142324954271316,0.243094116449356,0.0,0.0,0.8826239988319975,0.6588127715292363
-0.0061464309692382,1.279515266418457,0.0155126107856631,0.0481735952198505,0.1252288222312927,0.2199263125658035,0.0,0.0,-0.6785441150729121,0.7564357670689321
-0.0057609556242823,1.2804135084152222,0.0288780182600021,0.0390842780470848,0.1348516196012497,0.1924560368061065,0.0,0.0,-0.4347240112934785,0.7899049730585642
-0.0052459714934229,1.2811014652252195,0.0434601567685604,0.0298224277794361,0.142864778637886,0.1602632105350494,0.0,0.0,0.5196930111522424,0.6588233888238646
-0.0048235892318189,1.2826213836669922,0.0357103124260902,0.0669099614024162,0.149381473660469,0.1303339302539825,0.0,0.0,-0.1991428136825561,0.9849190711975098
-0.0042435647919774,1.2839347124099731,0.0538030937314033,0.0579432807862758,0.1535709500312805,0.0837897956371307,0.0,0.0,-0.2254074811935424,0.9934877157211304
-0.0035079955123364,1.2850326299667358,0.0716321393847465,0.0485931187868118,0.1555043756961822,0.038668468594551,0.0,0.0,-0.0620672702789306,0.9743564128875732
-0.0026192665100097,1.285923719406128,0.0891592279076576,0.0396343991160392,0.1552149802446365,-0.0057880543172359,0.0,0.0,0.1112958192825317,0.9992382526397704
-0.0016502380603924,1.286881685256958,0.0991316586732864,0.042811669409275,0.1529893428087234,-0.0445123575627803,0.0,0.0,0.0439404249191284,0.4834514856338501
-0.0006210327264852,1.2879339456558228,0.1049656122922897,0.0469694100320339,0.1509472131729126,-0.0408423766493797,0.0,0.0,-0.0915548205375671,0.9664905071258544
0.0005552291986532,1.2887742519378662,0.121753953397274,0.0377616547048091,0.1468287259340286,-0.082369640469551,0.0,0.0,-0.0488523244857788,0.0904402732849121
0.0017945289146155,1.2893891334533691,0.1280051916837692,0.0277255252003669,0.142761155962944,-0.0813516229391098,0.0,0.0,0.0435826778411865,-0.1616573333740234
0.0029426575638353,1.290499925613403,0.1192311495542526,0.0497834160923957,0.1383575797080993,-0.0880714580416679,0.0,0.0,-0.0111623406410217,0.2544214725494385
0.0041530607268214,1.2913851737976074,0.1254042088985443,0.0397471003234386,0.134006455540657,-0.0870222225785255,0.0,0.0,0.0187695026397705,0.0498377084732055
0.0054657934233546,1.292586326599121,0.1351844668388366,0.0537267737090587,0.130117729306221,-0.0777745991945266,0.0,0.0,0.1516458988189697,0.2562751770019531
0.0067335129715502,1.2943177223205566,0.1308096796274185,0.077305719256401,0.1260972768068313,-0.080408975481987,0.0,0.0,0.1406406164169311,-0.1412309408187866
0.0080982204526662,1.296294927597046,0.1401142030954361,0.0881727412343025,0.1224806383252143,-0.0723326057195663,0.0,0.0,-0.1091209650039672,0.7398638725280762
0.0095810890197753,1.2980639934539795,0.1533592343330383,0.0790398344397544,0.1174314394593238,-0.1009837985038757,0.0,0.0,-0.0675352215766906,0.0471163988113403
0.0111234663054347,1.299607753753662,0.1592656672000885,0.0690030679106712,0.11243836581707,-0.0998615100979805,0.0,0.0,0.0857207775115966,-0.480237603187561
0.0126276966184377,1.301377534866333,0.1556831151247024,0.0790319591760635,0.107211634516716,-0.1045346111059188,0.0,0.0,-0.0820742845535278,-0.5538491606712341
0.0141529086977243,1.3029205799102783,0.1567965447902679,0.06888909637928,0.1029726415872573,-0.0847800225019455,0.0,0.0,0.009494662284851,0.0995959043502807
0.0157771110534667,1.3048663139343262,0.166239708662033,0.0867317095398902,0.0991819277405738,-0.0758142843842506,0.0,0.0,-0.0150032043457031,0.2267799377441406
0.0174577720463275,1.3065863847732544,0.1718350350856781,0.0766959115862846,0.095450185239315,-0.0746349915862083,0.0,0.0,-0.1735385656356811,-0.0742809772491455
0.0191941261291503,1.3080811500549316,0.1773352921009063,0.0666601732373237,0.0917781442403793,-0.0734409838914871,0.0,0.0,-0.0772756338119506,0.8482375144958496
0.0210579875856637,1.309352993965149,0.1918779909610748,0.0568570047616958,0.0863347426056861,-0.1088680177927017,0.0,0.0,0.0614961385726928,-0.1840323805809021
0.022872257977724,1.3110649585723877,0.1871614009141922,0.0763996690511703,0.0806545242667198,-0.1136043220758438,0.0,0.0,0.0055521726608276,-0.6820796728134155
0.0247456543147563,1.3130241632461548,0.1915764212608337,0.0872983708977699,0.0764645338058471,-0.083800122141838,0.0,0.0,-0.1156327724456787,0.5207946300506592
0.026712704449892,1.3147636651992798,0.2019653618335724,0.0775703862309455,0.0712592750787735,-0.1041049361228942,0.0,0.0,0.3571377992630005,-0.7791823148727417
0.0286519043147563,1.3167587518692017,0.1975368857383728,0.0888407081365585,0.0676801949739456,-0.0715817511081695,0.0,0.0,-0.192351758480072,0.7802004814147949
0.0306880958378314,1.3185338973999023,0.2084179371595382,0.0791023150086402,0.0629314631223678,-0.0949748158454895,0.0,0.0,0.2448383569717407,0.1662589311599731
0.0327463150024414,1.3210502862930298,0.2104826867580413,0.1120339781045913,0.0583229623734951,-0.0921699851751327,0.0,0.0,-0.5961822867393494,0.3602170944213867
0.0348492637276649,1.3233413696289062,0.2148868143558502,0.101997785270214,0.05378083512187,-0.0908423885703086,0.0,0.0,-0.3961613178253174,0.2377128601074218
0.0369951240718364,1.3254070281982422,0.2191034108400344,0.0919616594910621,0.049306072294712,-0.0894951894879341,0.0,0.0,-0.58502596616745,-0.5845975875854492
0.0391284003853797,1.3272405862808228,0.2164242267608642,0.0815918073058128,0.0462451390922069,-0.0612186565995216,0.0,0.0,-0.3985544443130493,0.4183683395385742
0.0413002967834472,1.3288486003875732,0.2202267199754715,0.0715566501021385,0.0432536639273166,-0.0598297901451587,0.0,0.0,-0.2245799303054809,-0.0079373717308044
0.0435087196528911,1.3302310705184937,0.2238020598888397,0.061521541327238,0.040332730859518,-0.0584188178181648,0.0,0.0,-0.3925520181655884,-0.4927980899810791
0.0457512848079204,1.3313877582550049,0.2271367758512497,0.0514864847064018,0.0374834798276424,-0.0569850206375122,0.0,0.0,-0.4343997240066528,-0.559211790561676
0.0479865074157714,1.332316756248474,0.2253456860780716,0.0413296371698379,0.0356837473809719,-0.0359946601092815,0.0,0.0,-0.133722722530365,0.658768892288208
0.0502999313175678,1.3330175876617432,0.2343420982360839,0.0312134008854627,0.0327216833829879,-0.0592414066195488,0.0,0.0,0.0334186553955078,-0.3503230810165405
0.0526753440499305,1.3337996006011963,0.2402622997760772,0.0348148755729198,0.0300316829234361,-0.0538001060485839,0.0,0.0,0.0426472425460815,0.1621756553649902
0.0550475120544433,1.3346762657165527,0.2399596869945526,0.0390162020921707,0.0273259803652763,-0.0541137866675853,0.0,0.0,-0.3450382947921753,-0.86263108253479
0.0573705658316612,1.335332274436951,0.233200192451477,0.0291694980114698,0.0264368150383234,-0.0177832599729299,0.0,0.0,-0.5417596101760864,0.4653867483139038
0.0597105994820594,1.3357625007629397,0.2348207682371139,0.0191351529210805,0.0256267543882131,-0.0162012968212366,0.0,0.0,0.2947350740432739,0.3322021961212158
0.0619600303471088,1.3369240760803225,0.2260984927415847,0.0516451671719551,0.0244902148842811,-0.0227308571338653,0.0,0.0,-0.5809671878814697,-0.0233024954795837
0.0642199516296386,0.0,0.2270625382661819,0.0416107922792434,0.0234352555125951,-0.0210992656648159,0.0,0.0,-0.4447208642959595,0.0699818134307861
0.0664870291948318,1.338570237159729,0.2276879101991653,0.031576432287693,0.0224630497395992,-0.0194440558552742,0.0,0.0,-0.4311538934707641,-0.7191712260246277
0.0686912536621093,1.3390522003173828,0.2196296900510788,0.0214144829660654,0.0232456475496292,0.0156518276780843,0.0,0.0,-0.4856868982315063,0.5423485040664673
0.0709346756339073,1.339312195777893,0.2244557589292526,0.0115573545917868,0.0231325011700391,-0.0022627371363341,0.0,0.0,-0.4893919229507446,0.3466447591781616
0.0731748566031456,1.3393465280532837,0.2240441292524337,0.0015230847056955,0.0231052674353122,-0.0005446714349091,0.0,0.0,-0.486028254032135,0.4218913316726684
0.075408361852169,1.3391549587249756,0.2232861220836639,-0.0085111856460571,0.0231648087501525,0.0011906335130333,0.0,0.0,-0.3761209845542907,0.6095256805419922
0.0776818245649337,0.0,0.2284827977418899,-0.0187151953577995,0.0220523551106452,-0.0222489312291145,0.0,0.0,-0.5011137127876282,-0.475292444229126
0.0799419432878494,1.3380862474441528,0.227042481303215,-0.0287495609372854,0.0210279803723096,-0.0204876810312271,0.0,0.0,-0.5270612239837646,0.2924113273620605
0.082185074687004,1.337213397026062,0.2252698391675949,-0.0387839041650295,0.0200920812785625,-0.0187182016670703,0.0,0.0,-0.0720399022102356,-0.2344189286231994
0.0844081863760948,1.336114764213562,0.2231729924678802,-0.0488182269036769,0.0192448738962411,-0.0169440917670726,0.0,0.0,-0.4765194654464721,-0.2183150053024292
0.0866082161664962,1.3347903490066528,0.2207614630460739,-0.0588525347411632,0.0184864085167646,-0.0151692610234022,0.0,0.0,-0.3477941155433655,-0.2607747316360473
0.0887819305062294,1.333240270614624,0.218046098947525,-0.0688868090510368,0.017816511914134,-0.0133979264646768,0.0,0.0,-0.329644501209259,-0.0460871458053588
0.0909263640642166,1.3314642906188965,0.2150388062000274,-0.0789210796356201,0.0172347947955131,-0.0116344131529331,0.0,0.0,-0.226266860961914,-0.2651600241661072
0.0930388420820236,1.3294628858566284,0.2117522954940796,-0.0889553353190422,0.016740595921874,-0.0098835416138172,0.0,0.0,-0.5081356763839722,-0.468097448348999
0.0951167121529579,1.327235460281372,0.2082000076770782,-0.0989895835518837,0.0163330882787704,-0.0081501435488462,0.0,0.0,-0.2087253332138061,-0.8047748804092407
0.0971025452017784,1.3247907161712646,0.1975187063217163,-0.1086710914969444,0.017385983839631,0.0210576504468917,0.0,0.0,-0.5246256589889526,-0.1888737082481384
0.0990488082170486,1.3221200704574585,0.1934765130281448,,0.0185230374336242,0.0227409154176712,0.0,0.0,-0.1972908973693847,0.0318013429641723
0.1009531989693641,1.3192236423492432,0.1892105042934417,-0.1287397444248199,0.0197426155209541,0.0243915133178234,0.0,0.0,-0.2993841767311096,-0.4944760203361511
0.102813720703125,1.3161017894744873,0.1847346723079681,-0.1387741416692733,0.0210428200662136,0.0260042045265436,0.0,0.0,-0.6053810715675354,0.0715460777282714
0.1046283692121505,1.3127539157867432,0.1800627708435058,-0.1488085240125656,0.0224215202033519,0.0275740269571542,0.0,0.0,-0.3770743608474731,-0.0236369371414184
0.1063951477408409,1.309180498123169,0.1752082556486129,-0.1588429361581802,0.0238763149827718,0.0290958527475595,0.0,0.0,-0.5422667860984802,-0.4026296734809875
0.1081124320626258,1.3053812980651855,0.1701840460300445,-0.168877363204956,0.025404542684555,0.0305646806955337,0.0,0.0,-0.6519029140472412,-0.2591441869735718
0.1097786873579025,1.3013564348220823,0.165002554655075,-0.1789118200540542,0.0270033366978168,0.0319758132100105,0.0,0.0,-0.1995317935943603,-0.4109978675842285
0.1113923043012619,1.2971057891845703,0.1596756279468536,-0.1889462918043136,0.0286695677787065,0.0333245992660522,0.0,0.0,-0.8056155443191528,-0.6565921306610107
0.112909123301506,1.2926316261291504,0.1488367468118667,-0.1989109516143798,0.031475655734539,0.056122075766325,0.0,0.0,-0.7888684272766113,-0.3689409494400024
0.1143706291913986,1.2879317998886108,0.1432520151138305,-0.2089458853006363,0.0343423187732696,0.0573332831263542,0.0,0.0,-0.3995853662490845,-0.4354923963546753
0.1157758682966232,1.2830063104629517,0.1375535875558853,-0.2189808338880539,0.0372658111155033,0.0584699138998985,0.0,0.0,-0.4829525947570801,-0.2930673360824585
0.117123506963253,1.2778552770614624,0.1317507475614547,-0.229015827178955,0.0402422286570072,0.0595284476876258,0.0,0.0,-0.5070567727088928,-0.0687911510467529
0.1184126883745193,1.2724785804748535,0.1258521378040313,-0.2390508353710174,0.0432675220072269,0.0605058148503303,0.0,0.0,-0.7797313332557678,-0.1743571162223816
0.1196424514055252,1.266876220703125,0.1198657751083374,-0.249085858464241,0.0463374927639961,0.0613993704319,0.0,0.0,-0.5440981388092041,-0.6764107346534729
0.1207575798034668,1.2610514163970947,0.1069889813661575,-0.2590300738811493,0.0508085675537586,0.089421659708023,0.0,0.0,-0.7286402583122253,0.0022344589233398
0.1218116730451583,1.2550010681152344,0.100848913192749,-0.2690659761428833,0.0553156174719333,0.0901411101222038,0.0,0.0,-0.3462615609169006,-0.587352454662323
0.12276391685009,1.2487189769744873,0.0896084159612655,-0.2794181406497955,0.0608672574162483,0.1110326647758483,0.0,0.0,-0.3772886991500854,-0.3988091945648193
0.123653694987297,1.2422116994857788,0.0833399593830108,-0.2894549369812011,0.0664458870887756,0.1115725263953208,0.0,0.0,-0.7144953012466431,-0.0701208114624023
0.1244805306196212,1.2354789972305298,0.0770155191421508,-0.2994917929172516,0.072046972811222,0.1120217442512512,0.0,0.0,-0.8292866349220276,-0.100622534751892
0.1252436637878418,1.2285209894180298,0.0706399977207183,-0.309528648853302,0.0776660069823265,0.1123804003000259,0.0,0.0,-0.5460134148597717,-0.17756187915802
0.1259427070617675,1.2213376760482788,0.0642178803682327,-0.31956547498703,0.0832984447479248,0.112648881971836,0.0,0.0,-0.4587987661361694,0.1237783432006836
0.1265771836042404,1.2139290571212769,0.0577532649040222,-0.3296022713184356,0.0889398530125618,0.1128281578421592,0.0,0.0,-0.4932494759559631,0.218824028968811
0.1271467208862304,1.2062950134277344,0.051249910145998,-0.3396390676498413,0.0945858284831047,0.1129195690155029,0.0,0.0,-0.5743523240089417,0.1027160882949829
0.1276507377624511,1.1984355449676514,0.0447112396359443,-0.3496758043766022,0.1002320796251297,0.1129247769713401,0.0,0.0,-0.6807324290275574,-0.0425106287002563
0.1280889511108398,1.190350890159607,0.0381403900682926,-0.3597125709056854,0.1058743521571159,0.1128457561135292,0.0,0.0,-0.4148212075233459,-0.0266354084014892
0.1284610778093338,1.1820406913757324,0.0315402261912822,-0.3697492182254791,0.1115086004137992,0.1126848459243774,0.0,0.0,-0.3466957807540893,0.0220773220062255
