x_pos,y_pos,x_vel,y_vel,angle,ang_vel,leg_1,leg_2,main_booster,lat_booster
-0.0015007972251623,1.4031765460968018,-0.1520335227251052,-0.3441613912582397,0.0017520891269668,0.0345606729388237,0.0,0.0,-0.2266032695770263,0.7290239334106445
-0.0029164315201342,1.3950047492980957,-0.1417110115289688,-0.3631936013698578,0.0018894356908276,0.0027481343131512,0.0,0.0,-0.0685140490531921,0.7818936109542847
-0.0042341230437159,1.3863788843154907,-0.1299880594015121,-0.3833687901496887,0.000133693756652,-0.0351183898746967,0.0,0.0,0.1382602453231811,0.5344295501708984
-0.0055770874023437,1.377819538116455,-0.1312626302242279,-0.3804124891757965,-0.0028687664307653,-0.0600548386573791,0.0,0.0,0.1950814723968505,0.5842974185943604
-0.0067465780302882,1.369521141052246,-0.1129418462514877,-0.3688305616378784,-0.0068320133723318,-0.0792721435427665,0.0,0.0,-0.3667128086090088,-0.0988243222236633
-0.0078929904848337,1.3607748746871948,-0.1106346026062965,-0.3887463510036468,-0.0108000012114644,-0.0793671011924743,0.0,0.0,-0.2744189500808716,-0.1060850024223327
-0.0090164188295602,1.3515808582305908,-0.108332335948944,-0.4086562991142273,-0.014772891998291,-0.0794648826122284,0.0,0.0,0.0556322336196899,0.2867581844329834
-0.0100153926759958,1.3425569534301758,-0.0963367372751236,-0.4011022448539734,-0.0182956717908382,-0.0704622417688369,0.0,0.0,-0.2621256113052368,0.1570394039154052
-0.0109915733337402,1.333085060119629,-0.0940474867820739,-0.4210194647312164,-0.0218237750232219,-0.0705681890249252,0.0,0.0,0.0004998445510864,0.0377928018569946
-0.011935805901885,1.323825120925903,-0.0908493101596832,-0.4116094410419464,-0.0253590084612369,-0.0707111284136772,0.0,0.0,-0.4365423917770386,-0.2239875793457031
-0.0128572462126612,1.314117193222046,-0.0885737314820289,-0.4315267205238342,-0.0288992989808321,-0.0708121806383133,0.0,0.0,-0.8505556583404541,-0.0240983963012695
-0.0137561801820993,1.3039615154266355,-0.0863057747483253,-0.4514370560646057,-0.03244474157691,-0.0709152966737747,0.0,0.0,-0.7440016269683838,-0.2077829837799072
-0.0146325109526515,1.2933580875396729,-0.0840464681386947,-0.471348762512207,-0.0359953939914703,-0.0710193216800689,0.0,0.0,-0.6090090870857239,-0.3057001233100891
-0.0154863353818655,1.282306671142578,-0.0817965120077133,-0.4912611544132232,-0.039551306515932,-0.0711244791746139,0.0,0.0,-0.5744093060493469,-0.4557284116744995
-0.0163178443908691,1.2708072662353516,-0.0795567631721496,-0.5111737251281738,-0.0431125164031982,-0.0712307840585708,0.0,0.0,-0.2623865604400635,-0.8602855801582336
-0.0171830169856548,1.258853793144226,-0.0843188688158989,-0.5313346982002258,-0.0452835597097873,-0.0434245951473712,0.0,0.0,-0.3977288007736206,-0.7685300707817078
-0.0180726051330566,1.2464642524719238,-0.0879445821046829,-0.5506716966629028,-0.0462822318077087,-0.0199755299836397,0.0,0.0,-0.5529677867889404,-0.9351370930671692
-0.0189968105405569,1.233622908592224,-0.0928396806120872,-0.5707185864448547,-0.0458699837327003,0.0082459338009357,0.0,0.0,-0.8667645454406738,-0.4149857759475708
-0.0198993682861328,1.220333456993103,-0.0906619727611541,-0.5906298756599426,-0.0454641580581665,0.0081170806661248,0.0,0.0,-0.403550386428833,-0.4663798213005066
-0.0207802765071392,1.2065961360931396,-0.0884995609521865,-0.6105413436889648,-0.045064128935337,0.0080010360106825,0.0,0.0,-0.2056927680969238,0.0707111358642578
-0.0216399189084768,1.192410588264465,-0.0863538160920143,-0.6304529905319214,-0.044670283794403,0.0078776236623525,0.0,0.0,-0.2436839342117309,0.0515466928482055
-0.0224782936275005,1.1777770519256592,-0.0842264145612716,-0.6503646373748779,-0.0442825630307197,0.0077551500871777,0.0,0.0,-0.3494212627410888,-0.7709694504737854
-0.0233433730900287,1.162697672843933,-0.0881161019206047,-0.6701467037200928,-0.0426985658705234,0.0316826440393924,0.0,0.0,0.5400338172912598,-0.4068812131881714
-0.0241103172302246,1.1476022005081177,-0.0785894766449928,-0.6708544492721558,-0.040819052606821,0.0375936441123485,0.0,0.0,-0.1134803295135498,0.0041062831878662
-0.0248566623777151,1.1320587396621704,-0.0765307024121284,-0.6907693147659302,-0.0389459207653999,0.0374661646783351,0.0,0.0,-0.5473809838294983,0.0464500188827514
-0.025583267211914,1.1160459518432615,-0.0745515972375869,-0.7116325497627258,-0.0370787791907787,0.0373430661857128,0.0,0.0,-0.442999005317688,0.6423938274383545
-0.0262386314570903,1.0995862483978271,-0.0661142766475677,-0.7315228581428528,-0.0365029610693454,0.011516211554408,0.0,0.0,-0.5236921906471252,-0.724003255367279
-0.0269435886293649,1.0826902389526367,-0.0728556960821151,-0.7508857846260071,-0.0341791361570358,0.0464766547083854,0.0,0.0,0.3086719512939453,-0.6417651772499084
-0.027773093432188,1.066279649734497,-0.086388386785984,-0.7292788028717041,-0.0307850949466228,0.0678809061646461,0.0,0.0,0.2418411970138549,-0.2130308151245117
-0.0285880081355571,1.0499716997146606,-0.0848452895879745,-0.7247371077537537,-0.02746925316751,0.0663165897130966,0.0,0.0,-0.4294283390045166,0.1092994213104248
-0.0293840412050485,1.0332157611846924,-0.0829638689756393,-0.7446475625038147,-0.0241583473980426,0.066218227148056,0.0,0.0,0.249234914779663,0.0681993961334228
-0.0302125923335552,1.0165109634399414,-0.085925318300724,-0.7423830032348633,-0.0211242046207189,0.0606826841831207,0.0,0.0,0.0749638080596923,0.1586332321166992
-0.0310657508671283,1.0001425743103027,-0.0881411358714103,-0.7274572253227234,-0.0183429699391126,0.0556248649954795,0.0,0.0,0.3771697282791137,0.037268042564392
-0.0319491401314735,0.9837783575057985,-0.090897336602211,-0.7272657155990601,-0.0158115923404693,0.0506275407969951,0.0,0.0,-0.1747695207595825,0.3392455577850342
-0.0328153595328331,0.9669662714004515,-0.0891901701688766,-0.7471757531166077,-0.013283965177834,0.050552625209093,0.0,0.0,0.5557065010070801,-0.1757318377494812
-0.0336385741829872,0.950774312019348,-0.0849540382623672,-0.7196244597434998,-0.0106805693358182,0.0520678050816059,0.0,0.0,-0.3436299562454223,0.4436460733413696
-0.0344456657767295,0.934134304523468,-0.0833527222275734,-0.7395344972610474,-0.0080802328884601,0.0520067885518074,0.0,0.0,-0.4467536211013794,0.1646256446838379
-0.0352374091744422,0.9170465469360352,-0.0818093419075012,-0.7594445943832397,-0.0054825744591653,0.0519532486796379,0.0,0.0,0.4208207130432129,0.3546615839004516
-0.0360442176461219,0.9005981087684631,-0.0831532329320907,-0.731035053730011,-0.0030437489040195,0.0487765595316886,0.0,0.0,-0.1585848927497863,0.6832369565963745
-0.0367803573608398,0.8837023377418518,-0.0746330991387367,-0.7509207129478455,-0.0020292003173381,0.0202905982732772,0.0,0.0,0.3554434776306152,-0.2912124395370483
-0.0375891700387001,0.8673171401023865,-0.0815020054578781,-0.7282326221466064,-0.0014213732210919,0.0121568441390991,0.0,0.0,-0.4958766102790832,0.3005678653717041
-0.0383852943778038,0.8504838347434998,-0.0802247077226638,-0.7481421232223511,-0.0008145097526721,0.0121372621506452,0.0,0.0,-0.4426606893539428,0.2297267913818359
-0.0391693115234375,0.8332027196884155,-0.07902242988348,-0.7680516839027405,-0.000208158060559,0.01212714985013,0.0,0.0,0.576756477355957,0.0699943304061889
-0.0398472771048545,0.8162302374839783,-0.0688545852899551,-0.754328727722168,0.0008364976965822,0.020892921835184,0.0,0.0,-0.0714461803436279,0.0883764028549194
-0.0405148491263389,0.7988099455833435,-0.0678119212388992,-0.7742382884025574,0.0018816342344507,0.0209026969969272,0.0,0.0,0.2597545385360718,-0.0463057160377502
-0.0411382690072059,0.7813239097595215,-0.0635617896914482,-0.7771575450897217,0.0030898188706487,0.0241636112332344,0.0,0.0,0.4891586303710937,-0.3101205825805664
-0.0416991226375103,0.763994574546814,-0.0575726218521595,-0.7702028155326843,0.0045538726262748,0.0292812399566173,0.0,0.0,0.2962419986724853,0.0384677648544311
-0.0423433296382427,0.7471976280212402,-0.0654914826154708,-0.7465270757675171,0.005612067412585,0.0211639367043972,0.0,0.0,-0.1010867953300476,0.0634711980819702
-0.0429805740714073,0.7299529910087585,-0.0648011192679405,-0.7664366960525513,0.0066728983074426,0.0212166663259267,0.0,0.0,-0.527777910232544,0.4130487442016601
-0.0436118133366107,0.7122602462768555,-0.0642041787505149,-0.7863463163375854,0.0077369282953441,0.0212806295603513,0.0,0.0,0.0351414680480957,0.4056169986724853
-0.0441509261727333,0.6946572661399841,-0.0554116740822792,-0.7823597192764282,0.0092204501852393,0.029670413583517,0.0,0.0,0.29251229763031,0.730492115020752
-0.0446839332580566,0.6774758100509644,-0.0532715320587158,-0.7636178731918335,0.0091859204694628,-0.000690494547598,0.0,0.0,0.4220442771911621,0.4179239273071289
-0.0451232902705669,0.6604217886924744,-0.0443441495299339,-0.7579630613327026,0.0095915645360946,0.0081126894801855,0.0,0.0,-0.5202039480209351,0.6864919662475586
-0.0455058105289936,0.642926812171936,-0.0372832790017128,-0.7775471806526184,0.0086299590766429,-0.0192318353801965,0.0,0.0,0.3354175090789795,0.1186423301696777
-0.0457701683044433,0.6255765557289124,-0.0260276589542627,-0.7711182236671448,0.008231496438384,-0.0079694408923387,0.0,0.0,0.236236572265625,0.7140343189239502
-0.0460609421133995,0.6083038449287415,-0.0271459128707647,-0.7676690816879272,0.0063142194412648,-0.0383452251553535,0.0,0.0,0.880561351776123,0.0224667787551879
-0.0462512969970703,0.5919448733329773,-0.0175927281379699,-0.7270582914352417,0.004899030085653,-0.0283037815243005,0.0,0.0,0.2523131370544433,0.3016397953033447
-0.0463410392403602,0.5759055614471436,-0.0080424332991242,-0.7128541469573975,0.003975270781666,-0.0184752233326435,0.0,0.0,-0.1597471237182617,0.8458425998687744
-0.0463581085205078,0.5594275593757629,0.001132010249421,-0.7323513627052307,0.0011686475481837,-0.0561322756111621,0.0,0.0,0.5761215686798096,-0.5073032975196838
-0.0464974418282508,0.5436303019523621,-0.0119083728641271,-0.7020989060401917,-0.000829299155157,-0.0399591103196144,0.0,0.0,-0.3444857597351074,0.642831563949585
-0.0465859398245811,0.52737957239151,-0.0054274005815386,-0.7222604751586914,-0.0042053186334669,-0.0675204545259475,0.0,0.0,0.7254376411437988,-0.4405158758163452
-0.0467812530696392,0.5117805600166321,-0.0156295355409383,-0.6933067440986633,-0.0080565027892589,-0.0770236253738403,0.0,0.0,0.0812276601791381,0.3709185123443603
-0.0468990318477153,0.496240496635437,-0.0082665141671895,-0.690695583820343,-0.0115240784361958,-0.0693514198064804,0.0,0.0,0.8557500839233398,-0.2079352140426635
-0.0469892509281635,0.4812847375869751,-0.0056439903564751,-0.6647291779518127,-0.0148591650649905,-0.0667017623782157,0.0,0.0,0.3767173290252685,0.0737667083740234
-0.0470756515860557,0.4663819372653961,-0.0052995737642049,-0.6623796224594116,-0.0181537307798862,-0.0658914074301719,0.0,0.0,-0.2440197467803955,-0.8163392543792725
-0.0472482666373252,0.4510339796543121,-0.0159185267984867,-0.6821511387825012,-0.0194804985076189,-0.0265352837741374,0.0,0.0,0.8926372528076172,0.3056665658950805
-0.0473862662911415,0.4367075562477112,-0.0125831859186291,-0.6367446780204773,-0.0206826366484165,-0.0240425821393728,0.0,0.0,-0.0927619934082031,0.860701322555542
-0.0474568381905555,0.4219206571578979,-0.0038779745809733,-0.6572449207305908,-0.0238194838166236,-0.0627371594309806,0.0,0.0,0.0262906551361084,-0.0328274369239807
-0.0475084297358989,0.4074804186820984,-0.0020688648801296,-0.6418373584747314,-0.026867389678955,-0.0609581992030143,0.0,0.0,0.5878257751464844,-0.3678436875343323
-0.0476491935551166,0.3932782411575317,-0.0105809131637215,-0.6312754154205322,-0.0303223095834255,-0.0690979659557342,0.0,0.0,0.9598395824432372,0.0048342943191528
-0.0478861816227436,0.3798375129699707,-0.0196981467306613,-0.5974518656730652,-0.0342695787549018,-0.0789458006620407,0.0,0.0,-0.7154921293258667,-0.5854756236076355
-0.0481792464852333,0.3659523725509643,-0.0264421645551919,-0.6171876788139343,-0.0371000654995441,-0.0566096492111682,0.0,0.0,0.524369478225708,0.534433126449585
-0.0485415458679199,0.352798193693161,-0.0319733768701553,-0.5847429037094116,-0.0413036905229091,-0.0840730369091034,0.0,0.0,0.7199969291687012,0.1039690971374511
-0.0488158240914344,0.3400924503803253,-0.0235405173152685,-0.564809262752533,-0.0451418496668338,-0.0767629370093345,0.0,0.0,0.1828820705413818,-0.7518365383148193
-0.0491782203316688,0.3273585438728332,-0.0338510908186435,-0.5660260915756226,-0.0475014373660087,-0.0471918806433677,0.0,0.0,0.7917042970657349,-0.3867037296295166
-0.0494643226265907,0.314699649810791,-0.02658287063241,-0.5626832842826843,-0.0495083294808864,-0.0401377901434898,0.0,0.0,0.2358143329620361,-0.1839433312416076
-0.0497760772705078,0.3019749820232391,-0.0290454663336277,-0.5656130909919739,-0.0516130775213241,-0.0420950539410114,0.0,0.0,0.8637099266052246,0.2149655818939209
-0.050066091120243,0.2901434898376465,-0.0268337037414312,-0.525920033454895,-0.0537501275539398,-0.0427410043776035,0.0,0.0,0.3477959632873535,-0.1378368139266967
-0.0502703674137592,0.2788556218147278,-0.0185869187116622,-0.5017502903938293,-0.0555739253759384,-0.0364759638905525,0.0,0.0,0.4459259510040283,0.3501719236373901
-0.0505487434566021,0.2681993842124939,-0.0255374647676944,-0.4736990928649902,-0.0578409619629383,-0.0453408844769001,0.0,0.0,-0.3303596973419189,0.1583766937255859
-0.0508430488407611,0.2570951879024505,-0.0271490719169378,-0.4936089217662811,-0.0600971095263958,-0.0451228693127632,0.0,0.0,0.3167853355407715,-0.7423790693283081
-0.0511381141841411,0.2464950829744339,-0.0287838764488697,-0.4711451828479767,-0.0608138106763362,-0.0143339615315198,0.0,0.0,0.0450022220611572,-0.0093877911567687
-0.0514915473759174,0.2359978556632995,-0.0343369655311107,-0.4665841162204742,-0.0618165023624897,-0.0200537052005529,0.0,0.0,0.2793991565704345,0.6905467510223389
-0.0518221855163574,0.2258407920598983,-0.0305929817259311,-0.4515286684036255,-0.0642541274428367,-0.048752449452877,0.0,0.0,0.2888743877410888,-0.6349403262138367
-0.0521950721740722,0.2160614579916,-0.0360975861549377,-0.4346888661384582,-0.0654351413249969,-0.0236202720552682,0.0,0.0,0.5620675086975098,0.7491617202758789
-0.0523993484675884,0.2066428959369659,-0.0178996995091438,-0.4187123477458954,-0.0679323896765708,-0.0499450638890266,0.0,0.0,0.0549628734588623,-0.9315226078033448
-0.0526621825993061,0.1971001774072647,-0.0256438851356506,-0.4241544604301452,-0.0685707852244377,-0.0127678485587239,0.0,0.0,0.2179954051971435,-0.1131482720375061
-0.0528542511165142,0.187546506524086,-0.0188862197101116,-0.4246188700199127,-0.0688835456967353,-0.0062553635798394,0.0,0.0,-0.042657732963562,-0.4247771501541137
-0.0530641563236713,0.1775449365377426,-0.0206840299069881,-0.4445282518863678,-0.0691873058676719,-0.0060751470737159,0.0,0.0,0.0326060056686401,0.4069868326187134
-0.0531881339848041,0.167455181479454,-0.0125081567093729,-0.4484263956546783,-0.0690792948007583,0.00216043763794,0.0,0.0,0.5057758092880249,-0.3828965425491333
-0.0532882697880268,0.1579427123069763,-0.0100993402302265,-0.4227746725082397,-0.0689866691827774,0.0018522751051932,0.0,0.0,0.1252715587615966,-0.3242707848548889
-0.0533499717712402,0.1487531810998916,-0.0063740075565874,-0.4084150493144989,-0.068788394331932,0.0039658187888562,0.0,0.0,-0.3003376722335815,-0.2508754730224609
-0.0534301772713661,0.1391156762838363,-0.0082277487963438,-0.4283244907855987,-0.068582110106945,0.0041253706440329,0.0,0.0,0.6770021915435791,-0.1845198273658752
-0.0534040443599224,0.1295155137777328,0.0019140492659062,-0.426641583442688,-0.0678945630788803,0.0137508530169725,0.0,0.0,0.7946364879608154,-0.4014370441436767
-0.0534159652888774,0.1203010156750679,-0.0016335817053914,-0.4095126092433929,-0.067463606595993,0.008619294501841,0.0,0.0,0.6398167610168457,-0.5905752778053284
-0.0533448234200477,0.111922800540924,0.0052510630339384,-0.372282326221466,-0.0656246170401573,0.0367797724902629,0.0,0.0,0.2539674043655395,-0.8415517210960388
-0.0533509254455566,0.103751502931118,-0.004150859080255,-0.3630157709121704,-0.062120396643877,0.0700844973325729,0.0,0.0,0.6641741991043091,0.766901969909668
-0.053402803838253,0.0963462442159652,-0.0069361729547381,-0.3290538787841797,-0.0603988394141197,0.0344310663640499,0.0,0.0,0.0727081298828125,0.0517948865890502
-0.0533899292349815,0.0891662910580635,-0.0007257751422002,-0.3190285563468933,-0.0584093034267425,0.0397909842431545,0.0,0.0,-0.1146138310432434,0.0864320993423461
-0.0533961281180381,0.0815383791923523,-0.0026334472931921,-0.338938295841217,-0.0564133673906326,0.0399186238646507,0.0,0.0,0.6201729774475098,0.8346261978149414
-0.0534037575125694,0.07457035779953,-0.0009623389923945,-0.3096843063831329,-0.0562183111906051,0.0039011384360492,0.0,0.0,0.2242047786712646,-0.514073371887207
-0.0534705147147178,0.0677103400230407,-0.0078694010153412,-0.304844468832016,-0.0550375431776046,0.0236153434962034,0.0,0.0,0.6249158382415771,0.8903822898864746
-0.0535816177725791,0.0612939223647117,-0.0103288609534502,-0.2852015793323517,-0.0558103509247303,-0.0154560105875134,0.0,0.0,0.5020742416381836,0.7847573757171631
-0.0537753105163574,0.0551485866308212,-0.0167786199599504,-0.2732260525226593,-0.0583823584020137,-0.0514400191605091,0.0,0.0,0.5171653032302856,0.4000246524810791
-0.053852654993534,0.049535047262907,-0.0055882968008518,-0.2495778352022171,-0.0604989267885685,-0.042331364005804,0.0,0.0,-0.2754182815551758,0.8905987739562988
-0.0538718216121196,0.043458804488182,0.0021896320395171,-0.2702256143093109,-0.0645652413368225,-0.0813262686133384,0.0,0.0,0.7345092296600342,0.2654153108596802
-0.0537064559757709,0.0381189920008182,0.0199284777045249,-0.2374748140573501,-0.0679219961166381,-0.0671350732445716,0.0,0.0,-0.1333026885986328,0.2818683385848999
-0.05356016010046,0.0323314294219017,0.018014196306467,-0.2573851644992828,-0.0712737888097763,-0.0670355334877967,0.0,0.0,0.4764716625213623,0.1572692394256591
-0.0532513633370399,0.0272248610854148,0.0336668565869331,-0.2270920872688293,-0.0740308910608291,-0.0551421232521534,0.0,0.0,0.2444424629211425,-0.0057505965232849
-0.0528718940913677,0.0223172046244144,0.0404521115124225,-0.2182465344667434,-0.0765175223350524,-0.0497325211763381,0.0,0.0,0.3503303527832031,0.1725450754165649
-0.052466295659542,0.0179603677242994,0.0430922619998455,-0.1937698423862457,-0.079026885330677,-0.050187487155199,0.0,0.0,-0.0684064626693725,-0.5925849676132202
-0.0521214492619037,0.0131657216697931,0.0359468571841716,-0.2131701856851577,-0.080469012260437,-0.0288428552448749,0.0,0.0,0.5146632194519043,-0.0771209001541137
-0.0516880042850971,0.0085427379235625,0.0444533005356788,-0.2055256813764572,-0.0815652087330818,-0.0219239853322505,0.0,0.0,0.5938618183135986,0.2674624919891357
-0.0512557998299598,0.0051221344619989,0.0258524119853973,-0.1511692851781845,-0.0643810927867889,0.3436798453330993,1.0,0.0,0.6357448101043701,-0.1569541096687317
-0.0508142486214637,0.002628824673593,0.0110489604994654,-0.1097312346100807,-0.0316182300448417,0.655314028263092,1.0,0.0,0.7902785539627075,0.7387206554412842
-0.0503342635929584,0.0005929207545705,0.0172132700681686,-0.0901147201657295,-0.0012203977676108,0.6079563498497009,1.0,0.0,0.4921832084655761,0.7594842910766602
-0.0497674942016601,-0.0011580609716475,0.0273737795650959,-0.0780520215630531,0.0277085583657026,0.5785792469978333,0.0,1.0,0.3297238349914551,0.938302993774414
-0.0491518005728721,-0.0024774933699518,0.0477415397763252,-0.0591723583638668,0.0402843654155731,0.2501371502876282,0.0,1.0,-0.8359652757644653,0.835299015045166
-0.0486299507319927,-0.0036813043989241,0.0593178272247314,-0.0533376708626747,0.033198058605194,-0.1417813301086425,0.0,1.0,-0.3186767101287842,0.076452612876892
-0.0481947883963584,-0.0048455619253218,0.0647453814744949,-0.0514167547225952,0.0122070219367742,-0.4198583662509918,1.0,1.0,0.7073441743850708,-0.7462219595909119
