x_pos,y_pos,x_vel,y_vel,angle,ang_vel,leg_1,leg_2,main_booster,lat_booster
-0.0015974044799804,1.40339994430542,-0.161816731095314,-0.3342284858226776,0.0018586714286357,0.0366712771356105,0.0,0.0,0.4071731421514752,0.7183761249781788
-0.0031632422469556,1.3962645530700684,-0.1571219265460968,-0.3171268403530121,0.0023781566414982,0.0103916097432374,0.0,0.0,0.9968389401333292,-0.6006495082983476
-0.0046778679825365,1.3896327018737793,-0.1537408828735351,-0.2947574257850647,0.0046352474018931,0.04514592140913,0.0,0.0,-0.6966907737323529,-0.5318258400920581
-0.0063135148957371,1.3827741146087646,-0.1671579927206039,-0.3048390448093414,0.0081874597817659,0.071051076054573,0.0,0.0,0.336991465300724,0.838857110095154
-0.0078388210386037,1.3764877319335938,-0.1546267718076706,-0.2794090211391449,0.0102614872157573,0.0414844304323196,0.0,0.0,0.4057787535725061,0.8381068345372107
-0.0092394826933741,1.3706717491149902,-0.1407040208578109,-0.2584953904151916,0.0108953723683953,0.0126787079498171,0.0,0.0,0.6179390413875296,-0.8123706880138988
-0.0108014103025197,1.3654780387878418,-0.1584602296352386,-0.2308520674705505,0.0131286568939685,0.0446699149906635,0.0,0.0,-0.487584916979751,-0.9689351255704254
-0.0124861719086766,1.360061526298523,-0.1722207963466644,-0.2407723218202591,0.0168405175209045,0.0742439925670623,0.0,0.0,0.7552930382252852,-0.9831244087185448
-0.0143412593752145,1.3557627201080322,-0.1912403255701065,-0.1911349445581436,0.0225116368383169,0.1134327426552772,0.0,0.0,0.3950218441985036,-0.7153028118229099
-0.0163289066404104,1.352161884307861,-0.2059667110443115,-0.160155788064003,0.0296320039778947,0.1424206793308258,0.0,0.0,-0.4621444636999465,-0.8382408620518693
-0.0184328071773052,1.34833562374115,-0.2190652340650558,-0.1702538579702377,0.0382094755768775,0.1715647280216217,0.0,0.0,0.1238740570301115,-0.8237570902019736
-0.0206171981990337,1.3448225259780884,-0.2288213968276977,-0.1564371883869171,0.048488687723875,0.205603078007698,0.0,0.0,0.9941230087648324,-0.5233748144530113
-0.02277297899127,1.3423631191253662,-0.2275620400905609,-0.1097375303506851,0.0603551939129829,0.2373514920473098,0.0,0.0,-0.3700088227054208,-0.9268621253464588
-0.0250457767397165,1.339666724205017,-0.240929514169693,-0.1204449906945228,0.0738817304372787,0.2705554664134979,0.0,0.0,0.8478148747822583,0.5430713310602995
-0.0272269248962402,1.3381564617156982,-0.2311888635158538,-0.0678168311715126,0.0868468135595321,0.2593252062797546,0.0,0.0,-0.2302206242694784,0.6066141858855938
-0.0293985363095998,1.3364238739013672,-0.2288134396076202,-0.0777256861329078,0.0984160676598548,0.2314060479402542,0.0,0.0,0.2387974317646186,-0.726563488086825
-0.0316191688179969,1.3354434967041016,-0.2353257685899734,-0.0445001572370529,0.1116086691617965,0.2638755440711975,0.0,0.0,-0.9317538776969564,0.8226203591875354
-0.0338004119694232,1.3342468738555908,-0.2293690890073776,-0.0540628023445606,0.1228010654449462,0.2238680124282837,0.0,0.0,0.2914263663874343,-0.927775504407762
-0.0360824577510356,1.3337732553482056,-0.2413621693849563,-0.0221852622926235,0.1359194219112396,0.2623911499977112,0.0,0.0,-0.0591896678310774,-0.7342890644483492
-0.0384636893868446,1.333064079284668,-0.2529470026493072,-0.0329489856958389,0.1507176607847213,0.2959916293621063,0.0,0.0,0.2151126119971831,0.5294520097213025
-0.0408162102103233,1.3329893350601196,-0.2492035925388336,-0.0047945091500878,0.1646864861249923,0.2794017493724823,0.0,0.0,0.0464264291313318,0.9944876016008588
-0.0431543365120887,1.333122730255127,-0.2457752674818039,0.0045613665133714,0.1766799688339233,0.2398911267518997,0.0,0.0,0.5132663273685223,0.8963218624463842
-0.0454009994864463,1.33382248878479,-0.2349857985973358,0.0298375114798545,0.1870578974485397,0.207577496767044,0.0,0.0,-0.0407787018352741,0.5702736279616911
-0.0476159080862998,1.3343065977096558,-0.2305479347705841,0.0203488152474164,0.1961740851402282,0.1823399513959884,0.0,0.0,0.1959326102101468,0.6712075675265756
-0.0499974265694618,1.3352360725402832,-0.2457002401351928,0.0402953997254371,0.2037908434867859,0.1523488610982895,0.0,0.0,-0.4512359078483157,0.8873121666922336
-0.052334688603878,1.3359415531158447,-0.2399377822875976,0.0304790120571851,0.2100589424371719,0.1253619492053985,0.0,0.0,-0.7667875855207351,-0.7089545826158072
-0.054732609540224,1.3364100456237793,-0.2474051266908645,0.0197192132472991,0.2177446782588958,0.1537149399518966,0.0,0.0,-0.6434032032932655,-0.534491893947282
-0.0571829788386821,1.3366436958312988,-0.2539300918579101,0.0090485196560621,0.2267367541790008,0.1798413693904876,0.0,0.0,0.818190923903714,-0.7969393529932061
-0.060037899762392,1.33783221244812,-0.2956230044364929,0.0512318760156631,0.2370113432407379,0.2054920941591262,0.0,0.0,-0.502493039226553,0.7757836905561402
-0.0628279671072959,1.3388155698776243,-0.2876381874084472,0.0422850139439106,0.2457731664180755,0.1752367466688156,0.0,0.0,0.5484891287192983,0.5815839908645194
-0.0657384842634201,1.3407597541809082,-0.2985242009162903,0.0851349830627441,0.2533919811248779,0.1523763686418533,0.0,0.0,-0.9718064069747924,0.8913713693618774
-0.0685736685991287,1.342497944831848,-0.2894403338432312,0.0762190669775009,0.2594361007213592,0.1208826526999473,0.0,0.0,-0.8177919983863831,0.9043161869049072
-0.0713317841291427,1.3440439701080322,-0.2801609635353088,0.067930944263935,0.2638811469078064,0.088900975883007,0.0,0.0,-0.9557203650474548,0.8692159652709961
-0.0740062743425369,1.3453818559646606,-0.2702526450157165,0.0589570254087448,0.26674485206604,0.0572740621864795,0.0,0.0,-0.9492982625961304,0.9297430515289308
-0.0765818580985069,1.346526861190796,-0.2584432363510132,0.0507306046783924,0.2676553726196289,0.0182101130485534,0.0,0.0,-0.99776291847229,0.7254645824432373
-0.0790712386369705,1.3474760055541992,-0.2483245581388473,0.0422970168292522,0.2670270502567291,-0.0125664668157696,0.0,0.0,-0.9917760491371156,0.5345839262008667
-0.0814875587821006,1.348214030265808,-0.2399778366088867,0.0330973640084266,0.2653433978557586,-0.0336727909743785,0.0,0.0,-0.9956024289131165,0.730127215385437
-0.0838087052106857,1.348757028579712,-0.2289034873247146,0.0247108843177557,0.2620582282543182,-0.0657036304473877,0.0,0.0,-0.9916590452194214,0.8836956024169922
-0.0860285758972168,1.34911048412323,-0.217102363705635,0.0165731590241193,0.2570657730102539,-0.0998492091894149,0.0,0.0,-0.997081995010376,0.8219541311264038
-0.0881399139761924,1.349266767501831,-0.2045098543167114,0.0080894846469163,0.25030317902565,-0.1352521628141403,0.0,0.0,-0.996094286441803,0.4635627269744873
-0.0902055725455284,1.3491990566253662,-0.1998857110738754,-0.0018898511771112,0.2435099482536316,-0.1358646303415298,0.0,0.0,-0.9987261891365052,0.9004268646240234
-0.0921393409371376,1.3489365577697754,-0.1845048367977142,-0.0102246450260281,0.2344952523708343,-0.1802937984466552,0.0,0.0,-0.9993879199028016,0.8861534595489502
-0.0939417853951454,1.3484694957733154,-0.1692733019590377,-0.0190470423549413,0.2233787178993225,-0.2223305702209472,0.0,0.0,-0.997716784477234,0.6363165378570557
-0.095633789896965,1.347797989845276,-0.1567028909921646,-0.0280018243938684,0.2107343226671219,-0.2528881430625915,0.0,0.0,-0.9296749234199524,-0.1870341300964355
-0.0972706824541091,1.346903920173645,-0.1511133164167404,-0.0379905141890049,0.1980526000261306,-0.2536338865756988,0.0,0.0,-0.661838710308075,-0.1580169200897216
-0.0988504439592361,1.345787525177002,-0.1453215777873993,-0.0479793325066566,0.1853321641683578,-0.2544089555740356,0.0,0.0,-0.9934630393981934,0.7367837429046631
-0.1003075614571571,1.3444626331329346,-0.1313715875148773,-0.0571543723344802,0.1709461659193039,-0.2877200543880462,0.0,0.0,-0.9196771383285522,-0.5381565690040588
-0.1017542853951454,1.3429083824157717,-0.1315308809280395,-0.0676132068037986,0.1577948480844497,-0.263026475906372,0.0,0.0,-0.9808539748191832,0.0008230209350585
-0.1031386405229568,1.3411319255828855,-0.1252145916223526,-0.077603206038475,0.1446009427309036,-0.2638784646987915,0.0,0.0,-0.9762197136878968,-0.2626360654830932
-0.1044590026140213,1.339133381843567,-0.1187484860420227,-0.0875933542847633,0.1313633173704147,-0.2647526860237121,0.0,0.0,-0.9593127965927124,-0.0943993330001831
-0.1057139411568641,1.3369123935699463,-0.1121439114212989,-0.0975836738944053,0.1180809512734413,-0.2656474709510803,0.0,0.0,-0.9867014288902284,-0.2956182360649109
-0.1069022193551063,1.3344693183898926,-0.1054114550352096,-0.1075741425156593,0.1047528907656669,-0.266561210155487,0.0,0.0,-0.9758172631263732,-0.6461213827133179
-0.108063980937004,1.3317937850952148,-0.1037585586309433,-0.1180899441242218,0.0924342349171638,-0.2463732957839965,0.0,0.0,-0.9896637201309204,-0.4784778356552124
-0.1091568022966384,1.3288956880569458,-0.096799686551094,-0.1280784904956817,0.0800681635737419,-0.2473213225603103,0.0,0.0,-0.9924893379211426,-0.2508707642555237
-0.1101796180009841,1.3257752656936646,-0.0897405892610549,-0.1380672007799148,0.0676539689302444,-0.2482840716838836,0.0,0.0,-0.9893415570259094,-0.3991039991378784
-0.1111314743757247,1.322432279586792,-0.0825892239809036,-0.1480560451745987,0.055190946906805,-0.2492603957653045,0.0,0.0,-0.9976718425750732,-0.192399263381958
-0.1120116263628006,1.3188670873641968,-0.0753530114889144,-0.1580450534820556,0.0426784865558147,-0.2502490878105163,0.0,0.0,-0.9993816018104552,-0.536392867565155
-0.1128519028425216,1.3150793313980105,-0.0721466615796089,-0.1680542677640915,0.0309382509440183,-0.2348046749830246,0.0,0.0,-0.9990349411964417,0.1302217245101928
-0.1136189475655555,1.311068773269653,-0.0647609382867813,-0.1780419498682022,0.0191474929451942,-0.2358153313398361,0.0,0.0,-0.9989001154899596,-0.4354447722434997
-0.1143119782209396,1.3068357706069946,-0.0573094263672828,-0.1880297809839248,0.0073057268746197,-0.2368351966142654,0.0,0.0,-0.9997181296348572,-0.1222590804100036
-0.114930436015129,1.3023799657821655,-0.0497975721955299,-0.1980177760124206,-0.0045874323695898,-0.2378633916378021,0.0,0.0,-0.9982967376708984,-0.0470747947692871
-0.1154737472534179,1.2977018356323242,-0.0422304198145866,-0.208005890250206,-0.0165323950350284,-0.2388990819454193,0.0,0.0,-0.9996833801269532,-0.1090835928916931
-0.1159413307905197,1.292801022529602,-0.0346126221120357,-0.2179941684007644,-0.0285294819623231,-0.2399414330720901,0.0,0.0,-0.9953216910362244,-0.6885972023010254
-0.1163851767778396,1.287680745124817,-0.0335136242210865,-0.2278122454881668,-0.0392629019916057,-0.2146683633327484,0.0,0.0,-0.996179699897766,-0.2000075578689575
-0.116752341389656,1.282337665557861,-0.0258070584386587,-0.2377983480691909,-0.0500490181148052,-0.2157225161790847,0.0,0.0,-0.998997688293457,-0.6164160966873169
-0.1171013861894607,1.2767760753631592,-0.025430355221033,-0.2475229948759079,-0.0594093240797519,-0.1872061192989349,0.0,0.0,-0.9889913201332092,-0.7247068881988525
-0.1174280196428299,1.271004557609558,-0.0245435889810323,-0.2568572163581848,-0.0674300044775009,-0.160413846373558,0.0,0.0,-0.9563550353050232,-0.8927944302558899
-0.1177382469177246,1.2650048732757568,-0.0244176797568798,-0.2669681310653686,-0.0739714875817298,-0.1308295130729675,0.0,0.0,-0.9913718104362488,-0.694533109664917
-0.1180225387215614,1.2587950229644775,-0.0231049247086048,-0.2762675285339355,-0.0792433992028236,-0.1054382100701332,0.0,0.0,-0.9625460505485536,-0.290359616279602
-0.1182287186384201,1.2523610591888428,-0.0152362193912267,-0.286246508359909,-0.0845689922571182,-0.1065120100975036,0.0,0.0,-0.986799418926239,-0.350102961063385
-0.1183564215898513,1.245703101158142,-0.0073437616229057,-0.2962255477905273,-0.0899484008550643,-0.1075882464647293,0.0,0.0,-0.9949701428413392,-0.0391440391540527
-0.1184055358171463,1.238821268081665,0.0005699980538338,-0.3062046468257904,-0.0953817218542099,-0.1086664423346519,0.0,0.0,-0.9945178627967834,-0.4186679720878601
-0.1183757781982421,1.2317153215408323,0.0085027515888214,-0.3161837458610534,-0.1008690372109413,-0.1097462400794029,0.0,0.0,-0.9822713136672974,-0.7147961854934692
-0.1183164566755294,1.2243927717208862,0.0102521749213337,-0.3257447481155395,-0.1051591262221336,-0.0858017951250076,0.0,0.0,-0.9895747900009156,-0.5847139358520508
-0.1182270050048828,1.2168490886688232,0.0120873982086777,-0.3354958891868591,-0.1082736551761627,-0.0622907765209674,0.0,0.0,-0.9936239719390868,-0.0840864777565002
-0.1180583015084266,1.2090812921524048,0.0200648009777069,-0.3454734086990356,-0.111442357301712,-0.0633739084005355,0.0,0.0,-0.9981982111930848,-0.4933562278747558
-0.1178101524710655,1.2010890245437622,0.02805314399302,-0.3554510176181793,-0.1146652251482009,-0.0644576475024223,0.0,0.0,-0.9821366667747498,-0.0378667116165161
-0.1174826622009277,1.1928727626800537,0.0360506176948547,-0.3654286563396454,-0.1179423034191131,-0.0655416399240493,0.0,0.0,-0.9801379442214966,0.0805118083953857
-0.11707554012537,1.1844321489334106,0.0440554954111576,-0.3754063546657562,-0.1212735921144485,-0.066625639796257,0.0,0.0,-0.9595825672149658,-0.4847621917724609
-0.1165888756513595,1.1757673025131226,0.0520660877227783,-0.3853841125965118,-0.1246590763330459,-0.0677093416452407,0.0,0.0,-0.9444159269332886,-0.4966824054718017
-0.1160226836800575,1.1668782234191897,0.0600807666778564,-0.3953619003295898,-0.1280986815690994,-0.0687924996018409,0.0,0.0,-0.9678071737289428,-0.7735540270805359
-0.1154327392578125,1.1577825546264648,0.0610480792820453,-0.4044250249862671,-0.1301479190587997,-0.040984883904457,0.0,0.0,-0.9834888577461244,-0.7916582226753235
-0.1148357391357421,1.1484769582748413,0.0599590614438056,-0.4136105477809906,-0.1304039806127548,-0.0051214816048741,0.0,0.0,-0.9328574538230896,-0.8936575651168823
-0.1142352074384689,1.1389656066894531,0.058409035205841,-0.4225825369358063,-0.1287648826837539,0.0327820591628551,0.0,0.0,-0.9910907745361328,-0.2965112924575805
-0.1135550513863563,1.12923002243042,0.0664244443178176,-0.4325595796108246,-0.1271797716617584,0.0317021533846855,0.0,0.0,-0.9089992642402648,-0.1643193960189819
-0.1127952560782432,1.1192699670791626,0.0744361132383346,-0.4425366818904876,-0.1256486028432846,0.0306232329457998,0.0,0.0,-0.9793186783790588,-0.8757025003433228
-0.1120227798819542,1.109089732170105,0.0740828812122345,-0.4521964192390442,-0.1224954575300216,0.0630628988146781,0.0,0.0,-0.9846025109291076,-0.4440592527389526
-0.1111707687377929,1.0986850261688232,0.0820822715759277,-0.4621740281581878,-0.1193961352109909,0.0619865246117115,0.0,0.0,-0.9938951134681702,-0.1888181567192077
-0.1102394089102745,1.088056206703186,0.0900731980800628,-0.4721516370773315,-0.1163505539298057,0.0609116554260253,0.0,0.0,-0.9693101644515992,0.227864384651184
-0.1092287078499794,1.0772031545639038,0.0980540290474891,-0.482129156589508,-0.113358624279499,0.0598386041820049,0.0,0.0,-0.9882616996765136,-0.4434673190116882
-0.1081389412283897,1.066125750541687,0.1060230880975723,-0.4921066164970398,-0.1104202568531036,0.058767557144165,0.0,0.0,-0.9491490721702576,-0.6891599297523499
-0.1070210486650466,1.0548378229141235,0.1075646057724952,-0.5013762712478638,-0.1062291115522384,0.0838229954242706,0.0,0.0,-0.9736565351486206,-0.4050135612487793
-0.105824276804924,1.0433257818222046,0.1155047267675399,-0.5113544464111328,-0.1020912751555442,0.0827567428350448,0.0,0.0,-0.9861217737197876,-0.4167242050170898
-0.1045488342642784,1.0315895080566406,0.1234277486801147,-0.5213325619697571,-0.0980066135525703,0.0816931426525116,0.0,0.0,-0.9816072583198548,-0.342278242111206
-0.1031949073076248,1.0196291208267212,0.1313317120075225,-0.5313106775283813,-0.0939749851822853,0.0806325450539588,0.0,0.0,-0.9752526879310608,-0.3165984749794006
-0.1017625778913497,1.0074447393417358,0.1392145454883575,-0.5412886738777161,-0.089996226131916,0.0795752480626106,0.0,0.0,-0.9345003366470336,-0.5921899080276489
-0.1003006920218467,0.995042324066162,0.1409896910190582,-0.5509098768234253,-0.0848444402217865,0.1030356734991073,0.0,0.0,-0.8803764581680298,0.0107330083847045
-0.0987609848380088,0.9824159145355223,0.1488238871097564,-0.5608888268470764,-0.0797451511025428,0.1019856482744216,0.0,0.0,-0.9057342410087584,-0.1538270711898803
-0.0971437469124794,0.9695655107498168,0.1566303968429565,-0.570867657661438,-0.074698157608509,0.1009398698806762,0.0,0.0,-0.8253605961799622,-0.7663245797157288
-0.095514677464962,0.9565040469169616,0.1561715453863144,-0.5801882147789001,-0.0680400133132934,0.1331630796194076,0.0,0.0,-0.8818673491477966,-0.8045945763587952
-0.0938807502388954,0.9432320594787598,0.154875248670578,-0.5895006060600281,-0.0596103332936763,0.1685935258865356,0.0,0.0,-0.8036589622497559,-0.2098778486251831
-0.0921701416373252,0.9297366142272948,0.1625831425189972,-0.599483072757721,-0.0512322559952735,0.1675614714622497,0.0,0.0,-0.9001051187515259,-0.7202408313751221
-0.0904512405395507,0.9160239100456238,0.1617293655872345,-0.6091419458389282,-0.0411945432424545,0.2007543593645095,0.0,0.0,-0.8850439190864563,-0.0915901660919189
-0.0886566191911697,0.9020879864692688,0.1693576574325561,-0.6191268563270569,-0.0312078706920146,0.1997332870960235,0.0,0.0,-0.041491150856018,-0.1778228282928466
-0.0867865532636642,0.8879290819168091,0.1769415587186813,-0.6291115880012512,-0.0212719421833753,0.1987186968326568,0.0,0.0,-0.747694730758667,-0.4058267474174499
-0.0848416313529014,0.8735470175743103,0.1844777017831802,-0.639096200466156,-0.0113863954320549,0.1977111399173736,0.0,0.0,-0.5897364616394043,-0.8554997444152832
-0.0828737244009971,0.8589494824409485,0.18551966547966,-0.648736298084259,-0.0002591570664662,0.2225448340177536,0.0,0.0,-0.1916381120681762,-0.7726637125015259
-0.0808954238891601,0.8441358208656311,0.1849860846996307,-0.6584358811378479,0.0124132642522454,0.2534485161304474,0.0,0.0,-0.777066707611084,0.2815278768539428
-0.0788440704345703,0.8290998339653015,0.1923568397760391,-0.6684256196022034,0.0250364895910024,0.2524642646312713,0.0,0.0,-0.7259319424629211,-0.5493547916412354
-0.0767580047249794,0.8138401508331299,0.1949022114276886,-0.6784924864768982,0.0385650992393493,0.2705725133419037,0.0,0.0,-0.8166677951812744,0.4513343572616577
-0.0746002197265625,0.7983584403991699,0.2021424025297165,-0.6884839534759521,0.0520454868674278,0.2696076035499573,0.0,0.0,-0.2777884006500244,0.443382978439331
-0.0723711997270584,0.7826544642448425,0.2093104422092437,-0.698475182056427,0.0654781684279441,0.2686538994312286,0.0,0.0,0.031695008277893,0.7314751148223877
-0.0699748024344444,0.7671647071838379,0.2275483161211013,-0.6890135407447815,0.0774462521076202,0.2393616735935211,0.0,0.0,-0.2338175177574157,-0.2989768981933594
-0.0675088912248611,0.7514523863792419,0.2345568388700485,-0.6990014910697937,0.0893679186701774,0.2384335249662399,0.0,0.0,-0.3943169116973877,0.3974777460098266
-0.064974308013916,0.7355173826217651,0.241477757692337,-0.7089892625808716,0.1012438684701919,0.2375189512968063,0.0,0.0,0.1291981935501098,0.6578502655029297
-0.0623757354915142,0.7199392318725586,0.249286264181137,-0.6931089758872986,0.1117419898509979,0.2099627554416656,0.0,0.0,0.3183803558349609,0.20004403591156
-0.0597373023629188,0.7047762274742126,0.2532318234443664,-0.6747453212738037,0.1222917139530181,0.2109943330287933,0.0,0.0,-0.1567879915237426,0.1693949699401855
-0.0570331588387489,0.6893901228904724,0.2598548531532287,-0.6847304105758667,0.1327980160713195,0.2101258933544159,0.0,0.0,-0.3923324346542358,0.3499377965927124
-0.054264448583126,0.6737809181213379,0.2663663029670715,-0.6947153806686401,0.1432617157697677,0.2092742919921875,0.0,0.0,-0.3988047838211059,0.6948034763336182
-0.0513763427734375,0.657967209815979,0.2798106074333191,-0.7037225365638733,0.1522333323955536,0.1794324666261673,0.0,0.0,-0.3808847069740295,0.6828405857086182
-0.0483663566410541,0.6419360041618347,0.2935667932033539,-0.7132806777954102,0.1596577316522598,0.1484884321689605,0.0,0.0,-0.0270148515701293,0.7708714008331299
