x_pos,y_pos,x_vel,y_vel,angle,ang_vel,leg_1,leg_2,main_booster,lat_booster
-0.001531982445158,1.403409123420715,-0.1549604088068008,-0.3338148891925812,0.0015780127141624,0.0311141163110733,0.0,0.0,-0.3760851621627807,0.8379354476928711
-0.0030000687111169,1.3957023620605469,-0.146337553858757,-0.3425235450267792,0.0011175614781677,-0.009209525771439,0.0,0.0,-0.1250076293945312,0.2036747932434082
-0.0044743539765477,1.387779951095581,-0.1467645466327667,-0.3521112501621246,0.0004587367584463,-0.0131775988265872,0.0,0.0,-0.3784730434417724,0.4795536994934082
-0.0059537887573242,1.3796422481536863,-0.1470777839422226,-0.3616799116134643,-0.0003987686068285,-0.0171518083661794,0.0,0.0,0.1183390617370605,0.1599457263946533
-0.0073496820405125,1.3719513416290283,-0.1389424055814743,-0.3418188095092773,-0.0010364364134147,-0.01275444496423,0.0,0.0,-0.2778546810150146,0.5010898113250732
-0.0086997989565134,1.3640443086624146,-0.1329358220100402,-0.3514252007007599,-0.0030895564705133,-0.0410661920905113,0.0,0.0,-0.0343992710113525,0.2198235988616943
-0.010051155462861,1.3559223413467407,-0.1328583061695099,-0.3609873652458191,-0.0053396238945424,-0.0450058989226818,0.0,0.0,0.0157346725463867,0.121467113494873
-0.0113083841279149,1.348181128501892,-0.123679481446743,-0.3440664112567901,-0.0073496936820447,-0.0402051880955696,0.0,0.0,0.0856342315673828,0.4317715167999267
-0.0125677110627293,1.3410494327545166,-0.1236586719751358,-0.3169742226600647,-0.0095951473340392,-0.044913612306118,0.0,0.0,-0.0398720502853393,0.0196971893310546
-0.013823795132339,1.3337024450302124,-0.1231290474534034,-0.3265433311462402,-0.0120374048128724,-0.0488497428596019,0.0,0.0,-0.4171935319900512,0.1017869710922241
-0.0150747299194335,1.3261406421661377,-0.1224342957139015,-0.3361058235168457,-0.0146764051169157,-0.0527852103114128,0.0,0.0,-0.1127688884735107,0.6572682857513428
-0.0162611957639455,1.3183612823486328,-0.1143089309334755,-0.3458025753498077,-0.0189674273133277,-0.0858280658721923,0.0,0.0,-0.6133081316947937,0.5263574123382568
-0.0173886306583881,1.310368299484253,-0.1069265007972717,-0.3553293347358703,-0.0247224662452936,-0.1151113882660865,0.0,0.0,-0.5510809421539307,-0.318213939666748
-0.0185056682676076,1.3021607398986816,-0.1056897640228271,-0.3648969233036041,-0.0306724794209003,-0.1190109029412269,0.0,0.0,-0.7141983509063721,0.3569352626800537
-0.0196104049682617,1.2937383651733398,-0.1042633429169654,-0.3744649291038513,-0.0368174389004707,-0.1229104250669479,0.0,0.0,-0.8790895342826843,-0.3183773159980774
-0.0207009315490722,1.2851015329360962,-0.1026414632797241,-0.3840333819389343,-0.0431565269827842,-0.1267934888601303,0.0,0.0,-0.4709178209304809,0.2916634082794189
-0.0217751506716012,1.2762501239776611,-0.1008191332221031,-0.3936023414134979,-0.0496891140937805,-0.1306637078523636,0.0,0.0,-0.8946462869644165,0.1928739547729492
-0.0228310581296682,1.2671842575073242,-0.0987917855381965,-0.4031716585159302,-0.0564144626259803,-0.1345192342996597,0.0,0.0,-0.8479348421096802,-0.2979313135147095
-0.0238664634525775,1.257903814315796,-0.0965548604726791,-0.4127415418624878,-0.0633317157626152,-0.138357788324356,0.0,0.0,-0.94814133644104,-0.7270004153251648
-0.0249443054199218,1.2484146356582642,-0.102259837090969,-0.4219828844070434,-0.0688013583421707,-0.1094028800725936,0.0,0.0,-0.4695707559585571,-0.2030216455459594
-0.0259974487125873,1.238710880279541,-0.0995973572134971,-0.4315517544746399,-0.0744618102908134,-0.1132191866636276,0.0,0.0,-0.9777717590332032,-0.7005130648612976
-0.0270779617130756,1.2287945747375488,-0.1035270690917968,-0.4409589469432831,-0.0789451599121093,-0.0896749347448349,0.0,0.0,-0.0341482758522033,-0.7573367953300476
-0.0281761176884174,1.2186678647994995,-0.1063068658113479,-0.450264036655426,-0.0824343860149383,-0.0697906836867332,0.0,0.0,-0.8167385458946228,-0.2998201847076416
-0.029242992401123,1.2083264589309692,-0.1029832810163497,-0.4598319232463836,-0.0861100852489471,-0.0735205709934234,0.0,0.0,-0.9328863620758056,-0.2590077519416809
-0.0302761085331439,1.197770118713379,-0.0994324088096618,-0.4694000482559204,-0.0899700596928596,-0.0772061347961425,0.0,0.0,-0.5983603000640869,-0.7214710712432861
-0.0313450805842876,1.1869909763336182,-0.1046211272478103,-0.4792157411575317,-0.0922260209918022,-0.0451189987361431,0.0,0.0,-0.3642866611480713,-0.5126010775566101
-0.0324157699942588,1.1760056018829346,-0.1056417822837829,-0.4883282780647278,-0.0936465188860893,-0.0284096244722604,0.0,0.0,-0.4591020345687866,-0.321742296218872
-0.0334460251033306,1.164805293083191,-0.1014175415039062,-0.4978925883769989,-0.0952449962496757,-0.0319693535566329,0.0,0.0,-0.8823152184486389,-0.5585604906082153
-0.0344868674874305,1.1534022092819214,-0.1036539450287818,-0.5068250298500061,-0.0956622958183288,-0.0083462316542863,0.0,0.0,-0.56037437915802,-0.2400214076042175
-0.0354825034737587,1.1417843103408811,-0.0989745035767555,-0.5163891911506653,-0.0962513759732246,-0.0117813413962721,0.0,0.0,-0.8303473591804504,-0.0915502905845642
-0.0364308357238769,1.1299515962600708,-0.0940690413117408,-0.5259533524513245,-0.0970086455345153,-0.0151454489678144,0.0,0.0,-0.7791122198104858,-0.0450847148895263
-0.0373294837772846,1.1179038286209106,-0.0889392346143722,-0.5355174541473389,-0.0979302749037742,-0.0184325706213712,0.0,0.0,-0.6115627288818359,-0.6883223652839661
-0.0382374748587608,1.105656623840332,-0.0912800505757331,-0.5442889928817749,-0.0974495410919189,0.0096148867160081,0.0,0.0,-0.7973632216453552,-0.5590168833732605
-0.0391402244567871,1.0931966304779053,-0.091850459575653,-0.5536795854568481,-0.0958939716219902,0.0311112664639949,0.0,0.0,-0.8414421677589417,0.3963650465011596
-0.0399867072701454,1.080521583557129,-0.0860619395971298,-0.5632436871528625,-0.0944893881678581,0.0280916057527065,0.0,0.0,-0.6052163243293762,0.4071985483169555
-0.0407745353877544,1.067631483078003,-0.0800599828362464,-0.5728077292442322,-0.0932307317852974,0.0251732375472784,0.0,0.0,-0.3137694597244262,0.0072971582412719
-0.0415018089115619,1.0545265674591064,-0.0738482698798179,-0.582371711730957,-0.0921126380562782,0.0223619081079959,0.0,0.0,-0.8860234022140503,-0.1490640640258789
-0.0421662330627441,1.0412068367004397,-0.0674308314919471,-0.5919355750083923,-0.0911294519901275,0.0196633767336606,0.0,0.0,-0.9331892132759094,-0.3206589221954345
-0.0427658073604106,1.0276716947555542,-0.06081198528409,-0.6014994382858276,-0.0902752801775932,0.0170829948037862,0.0,0.0,-0.9635937809944152,0.0800848007202148
-0.0432983413338661,1.0139217376708984,-0.0539963617920875,-0.6110631227493286,-0.0895439907908439,0.0146258994936943,0.0,0.0,-0.8965480327606201,-0.7600954174995422
-0.0438321121037006,0.9999728798866272,-0.0558009445667266,-0.6198135018348694,-0.0871439278125763,0.0480012781918048,0.0,0.0,-0.8358620405197144,-0.0807666778564453
-0.0442951209843158,0.985808789730072,-0.0486065708100795,-0.6293774843215942,-0.084853708744049,0.0458040535449981,0.0,0.0,-0.9533109068870544,-0.1439113020896911
-0.0446853637695312,0.9714297652244568,-0.041230596601963,-0.6389414072036743,-0.082666590809822,0.0437424518167972,0.0,0.0,-0.9502834677696228,-0.2987414002418518
-0.0450009331107139,0.9568358063697816,-0.0336784422397613,-0.6485051512718201,-0.0805756151676178,0.04181969165802,0.0,0.0,-0.9742295145988464,-0.0150192379951477
-0.0452403053641319,0.9420268535614014,-0.0259556584060192,-0.6580687761306763,-0.0785736963152885,0.0400381907820701,0.0,0.0,-0.9179291129112244,0.4246958494186401
-0.0454016700387001,0.9270030856132508,-0.0180679149925708,-0.6676323413848877,-0.0766536891460418,0.0383999422192573,0.0,0.0,-0.966174066066742,0.0812091827392578
-0.0454832091927528,0.9117639660835266,-0.0100209480151534,-0.6771958470344543,-0.0748083740472793,0.0369061976671218,0.0,0.0,-0.9297757148742676,-0.2451485991477966
-0.0454834923148155,0.8963098526000977,-0.0018205512315034,-0.6867592334747314,-0.0730304941534996,0.0355574861168861,0.0,0.0,-0.9254445433616638,0.2202003002166748
-0.0454009063541889,0.8806407451629639,0.0065274499356746,-0.6963226199150085,-0.0713128075003624,0.0343538746237754,0.0,0.0,-0.9532892107963562,0.0178793668746948
-0.04523391649127,0.8647565245628357,0.015017220750451,-0.7058859467506409,-0.0696480870246887,0.0332947298884391,0.0,0.0,-0.8436402082443237,-0.2802432775497436
-0.0449810996651649,0.8486572504043579,0.0236429329961538,-0.7154492139816284,-0.0680291503667831,0.0323787406086921,0.0,0.0,-0.9094016551971436,0.3176391124725342
-0.0446412079036235,0.832342803478241,0.032398797571659,-0.7250124216079712,-0.0664489343762397,0.0316041596233844,0.0,0.0,-0.8382901549339294,-0.4721662998199463
-0.0442127212882041,0.8158132433891296,0.0412790477275848,-0.7345755696296692,-0.0649004951119422,0.0309685803949832,0.0,0.0,-0.8956870436668396,0.028710126876831
-0.0436945930123329,0.7990686893463135,0.0502779968082904,-0.7441386580467224,-0.0633770301938057,0.030469262972474,0.0,0.0,-0.8262757062911987,-0.482973575592041
-0.043085478246212,0.7821089625358582,0.0593899972736835,-0.7537017464637756,-0.061871875077486,0.0301029197871685,0.0,0.0,-0.8119493126869202,0.1663120985031128
-0.0423843376338481,0.7649341225624084,0.0686095207929611,-0.7632647156715393,-0.060378573834896,0.0298659894615411,0.0,0.0,-0.8084732890129089,-0.7854017615318298
-0.0416419990360736,0.7475562691688538,0.0713910534977912,-0.7722423672676086,-0.0575701110064983,0.0561692528426647,0.0,0.0,-0.786499559879303,0.0027697086334228
-0.0408055298030376,0.7299632430076599,0.0808092653751373,-0.7818058133125305,-0.0547611638903617,0.056178979575634,0.0,0.0,-0.8702593445777893,0.4210343360900879
-0.0398738868534565,0.7121551036834717,0.0903188735246658,-0.7913691997528076,-0.0519458949565887,0.0563054792582988,0.0,0.0,-0.7477726936340332,0.5050878524780273
-0.0388111099600791,0.6941335201263428,0.1043052524328231,-0.8008884191513062,-0.0499958731234073,0.0390004068613052,0.0,0.0,-0.914971113204956,-0.1968392133712768
-0.0376513488590717,0.675896942615509,0.1139823049306869,-0.8104513883590698,-0.0480285137891769,0.0393470153212547,0.0,0.0,-0.7742770910263062,-0.2063362002372741
-0.0363938324153423,0.6574451923370361,0.1237355843186378,-0.8200143575668335,-0.0460386909544467,0.0397966131567955,0.0,0.0,-0.7850570678710938,-0.5665019154548645
-0.0350734703242778,0.63877934217453,0.1290892958641052,-0.8295037150382996,-0.0431257747113704,0.0582583621144294,0.0,0.0,-0.7259607911109924,-0.5297424793243408
-0.033694077283144,0.6199018359184265,0.1339333206415176,-0.8388869166374207,-0.0391680151224136,0.0791552066802978,0.0,0.0,-0.5995088815689087,-0.6241449117660522
-0.032263658940792,0.6008078455924988,0.1377622485160827,-0.8484964370727539,-0.0339489094913005,0.1043820157647132,0.0,0.0,0.2288130521774292,-0.5809478163719177
-0.0308650974184274,0.5821658372879028,0.133545845746994,-0.8284019827842712,-0.0277218762785196,0.1245405822992324,0.0,0.0,-0.3539142608642578,-0.2955386638641357
-0.0293654445558786,0.5633091926574707,0.1436091363430023,-0.8379679322242737,-0.0214501414448022,0.1254349052906036,0.0,0.0,0.0181480646133422,-0.5760052800178528
-999.0,0.5445011258125305,0.1539801806211471,-0.8358257412910461,-0.0139070469886064,0.150861769914627,0.0,0.0,0.6379780769348145,-0.2693619728088379
-0.0259923934936523,0.526747465133667,0.1678700745105743,-0.7889979481697083,-0.0061879325658082,0.1543823033571243,0.0,0.0,-0.636881411075592,-0.5175231099128723
-0.0241804122924804,0.5087777972221375,0.1721236109733581,-0.798641562461853,0.002776481444016,0.1792881190776825,0.0,0.0,-0.2386114001274109,-0.0516782402992248
-0.0222655292600393,0.4905940592288971,0.1823554337024688,-0.8082111477851868,0.0117994882166385,0.1804600208997726,0.0,0.0,0.6879932880401611,-0.5977551341056824
-0.020268153399229,0.4731509685516357,0.1892339289188385,-0.7753639221191406,0.0221573393791914,0.2071568667888641,0.0,0.0,0.4884896278381347,-0.5457263588905334
-0.0183527953922748,0.4566358029842376,0.1801972687244415,-0.7342121005058289,0.0333596616983413,0.2240466177463531,0.0,0.0,0.2472999095916748,0.1835496425628662
-0.0162926670163869,0.4405634999275207,0.194344013929367,-0.7146194577217102,0.0448856689035892,0.2305200397968292,0.0,0.0,-0.2306381464004516,0.3878593444824219
-0.0141285900026559,0.4242779016494751,0.2046786844730377,-0.7241935133934021,0.0564812645316123,0.2319117039442062,0.0,0.0,0.1883527040481567,0.3549498319625854
-0.0118247028440237,0.4081333875656128,0.2183644771575927,-0.7180295586585999,0.0683750882744789,0.2378763407468795,0.0,0.0,0.1293419599533081,0.2273132801055908
-0.0094539644196629,0.3921205997467041,0.2250880002975464,-0.7122662663459778,0.0802431851625442,0.2373621463775634,0.0,0.0,0.7894325256347656,0.3344502449035644
-0.007056713104248,0.3771781027317047,0.2277129888534546,-0.6647976636886597,0.0921457186341285,0.2380504608154297,0.0,0.0,0.3132853507995605,-0.2720807790756225
-0.0045514106750488,0.3629997968673706,0.2381600439548492,-0.6309534907341003,0.1044209152460098,0.2455038726329803,0.0,0.0,0.3500930070877075,-0.436840295791626
-0.0021024704910814,0.3495904803276062,0.2328803539276123,-0.5968519449234009,0.1163521334528923,0.238624170422554,0.0,0.0,0.0708367824554443,0.280280590057373
0.0003426551702432,0.336273193359375,0.2328174859285354,-0.5928303599357605,0.1279774606227874,0.2325066030025482,0.0,0.0,0.3820445537567138,-0.0236168503761291
0.0028410912491381,0.3237329721450805,0.2379292547702789,-0.5584073662757874,0.1398426443338394,0.2373038828372955,0.0,0.0,0.2715458869934082,-0.1789049506187439
0.0053046224638819,0.3116212785243988,0.2347420901060104,-0.5394327640533447,0.151432454586029,0.2317960709333419,0.0,0.0,-0.0645592212677002,0.511803150177002
0.0079082492738962,0.299306571483612,0.2496161460876464,-0.5484485030174255,0.1621772795915603,0.2148966342210769,0.0,0.0,0.1490149497985839,-0.3468300104141235
0.0105290412902832,0.287496417760849,0.251288503408432,-0.5261111855506897,0.1729719489812851,0.2158937901258468,0.0,0.0,0.0371664762496948,-0.4021342992782593
0.0132442470639944,0.2760266363620758,0.2604222893714905,-0.5111001133918762,0.1841095834970474,0.2227527648210525,0.0,0.0,0.1111476421356201,-0.2093162536621093
0.0160362236201763,0.2646874785423279,0.2679497301578522,-0.505400538444519,0.1954119801521301,0.2260479032993316,0.0,0.0,0.238513708114624,-0.1398292183876037
0.0189406387507915,0.2535995244979858,0.278803139925003,-0.4943774342536926,0.2071283012628555,0.2343264371156692,0.0,0.0,-0.0625240206718444,0.3606942892074585
0.0219472888857126,0.2422983944416046,0.2889727354049682,-0.5039530992507935,0.2189380675554275,0.2361953556537628,0.0,0.0,0.0180698633193969,-0.2664681673049927
0.0250868797302246,0.2311681658029556,0.3018098473548889,-0.496528148651123,0.231239765882492,0.246034026145935,0.0,0.0,0.2293338775634765,0.187389850616455
0.028195571154356,0.2206398099660873,0.298678994178772,-0.4698911011219024,0.2436176538467407,0.2475576698780059,0.0,0.0,0.3183736801147461,-0.0607559084892272
0.031282901763916,0.2107886672019958,0.2963756322860718,-0.4399271309375763,0.2562065124511719,0.2517769932746887,0.0,0.0,-0.1238916516304016,-0.5933293104171753
0.0344338417053222,0.2007129937410354,0.3017631471157074,-0.4501988291740417,0.2698428630828857,0.2727268636226654,0.0,0.0,0.4779499769210815,-0.4566714763641357
0.0376932136714458,0.1908831745386123,0.3121445178985595,-0.4394868910312652,0.2839952707290649,0.2830482721328735,0.0,0.0,0.7259232997894287,-0.4213926196098327
0.0408493056893348,0.1815840601921081,0.3020174205303192,-0.4160003662109375,0.2979934811592102,0.2799642980098724,0.0,0.0,0.2437102794647216,-0.4209035634994507
0.0439730659127235,0.1730321049690246,0.2984696328639984,-0.3830009698867798,0.3123871088027954,0.2878722548484802,0.0,0.0,0.5361888408660889,-0.2847708463668823
0.0470101349055767,0.1650134474039077,0.2898631989955902,-0.3594338297843933,0.3267820477485657,0.2878989279270172,0.0,0.0,0.5913023948669434,-0.5700967311859131
0.0497308745980262,0.1577925086021423,0.257388174533844,-0.3243254721164703,0.3421246111392975,0.3068508207798004,0.0,0.0,0.273802638053894,-0.6545843482017517
0.0523862838745117,0.151135116815567,0.24946328997612,-0.2997942566871643,0.3590238690376282,0.3379854559898376,0.0,0.0,0.3528840541839599,-0.3380212783813476
0.0548779480159282,0.1451063007116317,0.2332643717527389,-0.2720140516757965,0.3758246898651123,0.3360163867473602,0.0,0.0,0.4350762367248535,-0.2886173725128174
0.0571556091308593,0.1397342234849929,0.2121928185224533,-0.2429428398609161,0.3923984169960022,0.3314746618270874,0.0,0.0,-0.5663661956787109,-0.0892614126205444
0.059523582458496,0.1341510117053985,0.2212260961532592,-0.2525303661823272,0.4090784192085266,0.3335997462272644,0.0,0.0,0.0616610050201416,-0.1883026361465454
0.0617577545344829,0.128843605518341,0.2081851959228515,-0.2403744310140609,0.4255188405513763,0.3288082480430603,0.0,0.0,0.0667471885681152,-0.3793017864227295
0.0638510733842849,0.1237267330288887,0.1945184767246246,-0.2319753170013427,0.4416179358959198,0.3219824135303497,0.0,0.0,-0.2032507061958313,0.6991164684295654
0.0660868659615516,0.1184431388974189,0.2103464603424072,-0.2390665262937545,0.4561064839363098,0.2897710502147674,0.0,0.0,0.2197357416152954,0.4327318668365478
0.0683271437883377,0.1133443713188171,0.2105953693389892,-0.2310773581266403,0.4709145426750183,0.2961611449718475,0.0,0.0,0.5292364358901978,-0.2270357608795166
0.0704483017325401,0.1090690717101097,0.1981385052204132,-0.1948356628417968,0.4864544868469238,0.3107991218566894,0.0,0.0,-0.4478031396865845,0.5664384365081787
0.0726852416992187,0.104616031050682,0.2107508927583694,-0.2025464475154876,0.5009527802467346,0.2899662852287292,0.0,0.0,0.1275774240493774,0.4713009595870971
0.0748049765825271,0.1007885560393333,0.1986287534236908,-0.1750543862581253,0.5160142183303833,0.3012281656265259,0.0,0.0,-0.1784449815750122,0.4275918006896972
0.0769995674490928,0.0967492908239364,0.2061352431774139,-0.1846384853124618,0.5311891436576843,0.3034981191158294,0.0,0.0,-0.0787990689277648,0.8518385887145996
0.0793200507760047,0.0925551056861877,0.2203205525875091,-0.191068097949028,0.5446775555610657,0.2697681784629822,0.0,0.0,-0.3616964221000671,0.7292280197143555
0.0817617401480674,0.08820241689682,0.2339111119508743,-0.197646215558052,0.5565613508224487,0.2376744300127029,0.0,0.0,0.6532530784606934,0.6031584739685059
0.0841432586312294,0.084324799478054,0.2287766486406326,-0.1762648671865463,0.5674786567687988,0.2183465212583542,0.0,0.0,-0.0046955943107604,0.4918856620788574
0.0865887627005577,0.0802341774106025,0.2351666986942291,-0.185841366648674,0.5785129070281982,0.2206845730543136,0.0,0.0,0.6848196983337402,0.7949978113174438
0.0887405425310134,0.0765205025672912,0.2073762416839599,-0.1684730947017669,0.5877203941345215,0.184150144457817,0.0,0.0,-0.225975751876831,0.8418614864349365
0.0910027474164962,0.0726453885436058,0.2198474705219268,-0.1750795841217041,0.5953015089035034,0.151622861623764,0.0,0.0,0.2560372352600097,0.5588192939758301
0.0931463241577148,0.0691140964627265,0.2088808119297027,-0.1594315618276596,0.6018391847610474,0.1307531148195266,0.0,0.0,0.2918343544006347,0.7792942523956299
0.0953291878104209,0.0658601149916648,0.2140332013368606,-0.1465770602226257,0.6069352626800537,0.101921223104,0.0,0.0,-0.2444084882736206,0.6987009048461914
0.0976095199584961,0.0624484866857528,0.2251621037721634,-0.1529617458581924,0.6103931665420532,0.069157488644123,0.0,0.0,0.0022782087326049,0.7487094402313232
0.0997116118669509,0.0594951249659061,0.2085908651351928,-0.1320163160562515,0.6123443841934204,0.0390248484909534,0.0,1.0,0.9338688850402832,0.9915359020233154
0.1016575843095779,0.058000311255455,0.2076876163482666,-0.0609910115599632,0.5954599380493164,-0.3397908806800842,0.0,1.0,0.9654878377914428,0.854191780090332
