x_pos,y_pos,x_vel,y_vel,angle,ang_vel,leg_1,leg_2,main_booster,lat_booster
-0.0015233040321618,1.4029382467269895,-0.1544992625713348,-0.3547452390193939,0.001941102091223,0.0383036509156227,0.0,0.0,-0.1007291674613952,0.919436812400818
-0.0029662132728844,1.394289255142212,-0.1443782597780227,-0.3843987584114074,0.0020276699215173,0.0017322546336799,0.0,0.0,0.1595593690872192,-0.0083911418914794
-0.0043119429610669,1.3853790760040283,-0.135289266705513,-0.3960012197494507,0.0027325169648975,0.0140983257442712,0.0,0.0,0.6802699565887451,0.4640953540802002
-0.0057744979858398,1.3765445947647097,-0.1465508937835693,-0.3926478922367096,0.0030228258110582,0.0058066584169864,0.0,0.0,0.5450754165649414,0.9098771810531616
-0.007023811340332,1.3679423332214355,-0.1237660199403762,-0.3823189735412597,0.0018734713084995,-0.0229895189404487,0.0,0.0,-0.4793471097946167,0.4656529426574707
-0.0082634929567575,1.358653903007507,-0.1229808554053306,-0.412817895412445,0.0008909935713745,-0.0196511317044496,0.0,0.0,-0.1727855205535888,0.7530555725097656
-0.0094348909333348,1.348679542541504,-0.1148517876863479,-0.443304568529129,-0.0013608471490442,-0.0450410656630992,0.0,0.0,-0.4677339792251587,0.4733839035034179
-0.0105928424745798,1.3380190134048462,-0.1136870384216308,-0.4737994968891144,-0.0034468197263777,-0.0417234934866428,0.0,0.0,0.5690876245498657,0.9318130016326904
-0.0116723058745265,1.3278745412826538,-0.1041268706321716,-0.4508791863918304,-0.0072319586761295,-0.0757094547152519,0.0,0.0,0.0046651363372802,0.5267307758331299
-0.0126905441284179,1.3177093267440796,-0.0971060842275619,-0.4518162906169891,-0.0118970861658453,-0.0933112204074859,0.0,0.0,-0.5755259990692139,0.1008076667785644
-0.0136897088959813,1.3068583011627195,-0.0953699126839637,-0.4823130667209625,-0.0163996666669845,-0.0900596305727958,0.0,0.0,0.3926472663879394,-0.452633261680603
-0.0146011356264352,1.2959877252578735,-0.0870409607887268,-0.4831869900226593,-0.020459022372961,-0.0811943262815475,0.0,0.0,-0.4405032992362976,-0.1481527090072631
-0.0154898641631007,1.2844310998916626,-0.0849360674619674,-0.5136883854866028,-0.0243587102741003,-0.078000433743,0.0,0.0,-0.6646572947502136,-0.5912677645683289
-0.0163955688476562,1.2721844911575315,-0.087836742401123,-0.5443423986434937,-0.0270619131624698,-0.0540688633918762,0.0,0.0,-0.3980395793914795,-0.3246172666549682
-0.0172751434147357,1.259251594543457,-0.0853744596242904,-0.5748378038406372,-0.0296087078750133,-0.0509408228099346,0.0,0.0,-0.0605435967445373,-0.9080321788787842
-0.0181855205446481,1.2456247806549072,-0.0901091173291206,-0.6056618094444275,-0.0305268950760364,-0.0183656029403209,0.0,0.0,-0.1886120438575744,-0.5806111097335815
-0.0191015247255563,1.231320023536682,-0.0917234867811203,-0.6357659101486206,-0.0304025653749704,0.002486805897206,0.0,0.0,0.0650991201400756,-0.7612820267677307
-0.0199331287294626,1.2166826725006104,-0.0850430428981781,-0.6505123376846313,-0.028542686253786,0.0372010245919227,0.0,0.0,-0.4936822652816772,-0.4869083166122436
-0.0207318309694528,1.2013590335845947,-0.081913836300373,-0.6810101270675659,-0.026533929631114,0.0401789434254169,0.0,0.0,0.0319019556045532,-0.6327678561210632
-0.0215940475463867,1.185883402824402,-0.0895937606692314,-0.6877484917640686,-0.023187493905425,0.0669347047805786,0.0,0.0,0.0708816051483154,-0.4698061943054199
-0.0223262794315814,1.1704497337341309,-0.0771463140845298,-0.6858876347541809,-0.0193100050091743,0.0775564461946487,0.0,0.0,-0.6947784423828125,0.0778069496154785
-0.0230212211608886,1.1543298959732056,-0.0735601261258125,-0.7163873910903931,-0.0152890644967556,0.080426201224327,0.0,0.0,-0.2465709447860717,0.2105875015258789
-0.0236774440854787,1.1375242471694946,-0.0698301941156387,-0.7468823194503784,-0.011126353405416,0.0832618474960327,0.0,0.0,-0.0902013778686523,0.387911319732666
-0.0242936126887798,1.1200326681137085,-0.0659624859690666,-0.7773770689964294,-0.006824089679867,0.0860528424382209,0.0,0.0,0.0395058393478393,0.3095518350601196
-0.0249548908323049,1.1024636030197144,-0.0702029690146446,-0.7808398008346558,-0.0027987270150333,0.0805146247148513,0.0,0.0,0.2257713079452514,0.7199630737304688
-0.0256370548158884,1.0849745273590088,-0.0708183795213699,-0.777288019657135,-0.0002229107485618,0.0515161231160163,0.0,0.0,0.0219911336898803,0.129104733467102
-0.0262726787477731,1.067473530769348,-0.0663204863667488,-0.7778233289718628,0.0024977980647236,0.0544144287705421,0.0,0.0,0.0797159671783447,0.5078985691070557
-0.0269185062497854,1.0501006841659546,-0.0662680268287658,-0.7721328735351562,0.0041646203026175,0.0333365425467491,0.0,0.0,0.151609182357788,0.0669696331024169
-0.0276112556457519,1.032850980758667,-0.0706729143857956,-0.7666553854942322,0.0055407895706593,0.0275232139974832,0.0,0.0,0.6771893501281738,-0.0206037759780883
-0.0282809250056743,1.0156575441360474,-0.0683845728635788,-0.7641584873199463,0.0069464677944779,0.0281133856624364,0.0,0.0,0.3064848184585571,-0.2588486671447754
-0.0288921352475881,0.9987825751304626,-0.0627442300319671,-0.7500125765800476,0.008546675555408,0.0320042110979557,0.0,0.0,0.5824707746505737,0.2333928346633911
-0.0295323375612497,0.9818500280380248,-0.0654162019491195,-0.7525635361671448,0.0099262008443474,0.027590487152338,0.0,0.0,0.3453059196472168,0.0012370347976684
-0.030196189880371,0.965209424495697,-0.0675929337739944,-0.7395849227905273,0.011116586625576,0.0238075833767652,0.0,0.0,0.4936254024505615,0.0571516752243042
-0.0308704376220703,0.948371171951294,-0.0684853345155716,-0.7483823299407959,0.012160082347691,0.0208699740469455,0.0,0.0,0.549553394317627,0.1800334453582763
-0.0314849838614463,0.9317291975021362,-0.0627033188939094,-0.7396480441093445,0.0133916111662983,0.0246304832398891,0.0,0.0,0.3485090732574463,0.4122500419616699
-0.0320406928658485,0.915327489376068,-0.0569968335330486,-0.7289761304855347,0.0148069458082318,0.0283064451068639,0.0,0.0,-0.1049109697341919,0.7548620700836182
-0.0324861519038677,0.8982371687889099,-0.0446374826133251,-0.7595704197883606,0.0148995146155357,0.0018511321395635,0.0,0.0,0.4315917491912842,-0.2401146292686462
-0.0328548438847065,0.8814508318901062,-0.0372206196188926,-0.7460647821426392,0.015254970639944,0.0071091107092797,0.0,0.0,-0.1784104108810424,-0.0039410591125488
-0.0331690795719623,0.8639784455299377,-0.0319042317569255,-0.776557981967926,0.0157182924449443,0.0092663895338773,0.0,0.0,-0.1284358501434326,-0.2888344526290893
-0.03342866897583,0.8458199501037598,-0.026529237627983,-0.8070512413978577,0.0162868965417146,0.0113723175600171,0.0,0.0,0.72340989112854,0.3120673894882202
-0.0337573997676372,0.8281907439231873,-0.0330343171954155,-0.7835193276405334,0.0164428800344467,0.0031196414493024,0.0,0.0,0.1270166635513305,0.4456491470336914
-0.0339520461857318,0.8104132413864136,-0.0201152488589286,-0.7901204824447632,0.0170882605016231,0.012907643802464,0.0,0.0,0.2833371162414551,0.8497538566589355
-0.0339407920837402,0.7923095226287842,0.0019992098677903,-0.8045994639396667,0.0162179209291934,-0.0174067001789808,0.0,0.0,0.2356138229370117,0.4954525232315063
-0.0338050834834575,0.7741144299507141,0.0140104051679372,-0.8086627721786499,0.0157853681594133,-0.0086510386317968,0.0,0.0,-0.2700207829475403,0.7901835441589355
-0.0335538871586322,0.7552253603935242,0.0269522853195667,-0.8394954204559326,0.0139793567359447,-0.0361202433705329,0.0,0.0,0.4450299739837646,0.0696532726287841
-0.0332091338932514,0.7360895872116089,0.0360296964645385,-0.8504707217216492,0.0124475667253136,-0.0306359343230724,0.0,0.0,0.2530030012130737,-0.0462994575500488
-0.0327645316720008,0.7167767882347107,0.0457102991640567,-0.8583341240882874,0.0112150385975837,-0.024650614708662,0.0,0.0,0.2103147506713867,0.8775147199630737
-0.0322945602238178,0.6977032423019409,0.0499855987727642,-0.8476963043212891,0.0082639148458838,-0.0590225160121917,0.0,0.0,0.3109203577041626,-0.6301770210266113
-0.0319375991821289,0.6788851618766785,0.0375561341643333,-0.8363505005836487,0.0064336592331528,-0.0366050750017166,0.0,0.0,0.1302334070205688,0.0011961460113525
-0.0315385833382606,0.659902811050415,0.0417400673031806,-0.8436529636383057,0.0046120095066726,-0.0364332795143127,0.0,0.0,0.3647749423980713,0.3212659358978271
-0.0309644695371389,0.6409426927566528,0.0586318150162696,-0.8426636457443237,0.0034106886014342,-0.0240263286978006,0.0,0.0,-0.1027180552482605,0.0456296205520629
-0.0303312297910451,0.6212965846061707,0.0644704848527908,-0.8731567859649658,0.0022781807929277,-0.0226501561701297,0.0,0.0,0.6638807058334351,0.1700334548950195
-0.0295295715332031,0.6016363501548767,0.0807257071137428,-0.8737853169441223,0.0017202527960762,-0.0111586116254329,0.0,0.0,0.8772857189178467,-0.543786346912384
-0.0287092216312885,0.5826545357704163,0.0814309045672416,-0.8436347842216492,0.0023163594305515,0.0119223017245531,0.0,0.0,0.6736555099487305,-0.6053119897842407
-0.0277154929935932,0.5637257695198059,0.0970852747559547,-0.8412860631942749,0.0045746932737529,0.0451666638255119,0.0,0.0,0.7141542434692383,-0.204582929611206
-0.0267633441835641,0.5448434948921204,0.0933345630764961,-0.8392162322998047,0.0064289271831512,0.0370846502482891,0.0,0.0,0.7746963500976562,0.0922502279281616
-0.0256558414548635,0.5265604257583618,0.1083497777581214,-0.8125952482223511,0.0088011166080832,0.0474436394870281,0.0,0.0,0.4607863426208496,-0.3379296660423279
-0.0243715289980173,0.508487343788147,0.1254087835550308,-0.803266704082489,0.0117848357185721,0.0596743039786815,0.0,0.0,0.8825652599334717,-0.4735113978385925
-0.0229530334472656,0.4911370277404785,0.1383861601352691,-0.7711566090583801,0.0152056841179728,0.0684168860316276,0.0,0.0,0.472213864326477,-0.5542014837265015
-0.0216022487729787,0.4741531908512115,0.130630224943161,-0.7548885941505432,0.0195932630449533,0.0877518653869628,0.0,0.0,0.602435827255249,-0.729000449180603
-0.0202013961970806,0.4570158720016479,0.1340338289737701,-0.7617489695549011,0.0255732685327529,0.1195999830961227,0.0,0.0,0.4952692985534668,-0.4039668440818786
-0.0188470836728811,0.4401414394378662,0.1297627091407776,-0.7500843405723572,0.0311653539538383,0.1118418127298355,0.0,0.0,0.5841224193572998,-0.2476708889007568
-0.0173295028507709,0.4233302772045135,0.1455070227384567,-0.7473027110099792,0.0373333878815174,0.123360775411129,0.0,0.0,0.5843393802642822,-0.1467959880828857
-0.0157509800046682,0.4067160189151764,0.1514800786972046,-0.7385863065719604,0.0436303280293941,0.1259387284517288,0.0,0.0,0.7096076011657715,-0.4631537199020386
-0.0141220092773437,0.390038251876831,0.1564612537622451,-0.7414334416389465,0.0499852709472179,0.127098724246025,0.0,0.0,0.8998942375183105,-0.5148394107818604
-0.0126579282805323,0.3736792206764221,0.1393826305866241,-0.727320671081543,0.0569334626197814,0.1389638930559158,0.0,0.0,0.7437690496444702,0.1301009654998779
-0.0111621860414743,0.3579893112182617,0.1424282789230346,-0.6976153254508972,0.0639995485544204,0.1413218677043914,0.0,0.0,0.8100298643112183,0.5782501697540283
-0.0094846729189157,0.3421002626419067,0.1615034490823745,-0.7064592838287354,0.0701846554875373,0.1237018480896949,0.0,0.0,0.8928087949752808,0.3278218507766723
-0.007784366607666,0.326992392539978,0.1636220067739486,-0.6717751622200012,0.0765187516808509,0.1266817450523376,0.0,0.0,0.8603674173355103,-0.3493304252624511
-0.0061702728271484,0.311983972787857,0.1555077731609344,-0.6673557162284851,0.0823648422956466,0.116921879351139,0.0,0.0,0.9570436477661132,0.2594213485717773
-0.0046703340485692,0.2974754571914673,0.1446071118116378,-0.6451290845870972,0.0877064391970634,0.1068319678306579,0.0,0.0,0.8978207111358643,0.2173138856887817
-0.0031375885009765,0.2833541631698608,0.1477282643318176,-0.6279507279396057,0.0932067111134529,0.1100055128335952,0.0,0.0,0.9386630058288574,0.1955927610397339
-0.0017873763572424,0.2700059711933136,0.1301846951246261,-0.5935602188110352,0.0979996100068092,0.0958577543497085,0.0,0.0,0.8563663959503174,0.4111642837524414
-0.0003585815429687,0.2569527626037597,0.1376866996288299,-0.5804920196533203,0.1031629964709281,0.1032672673463821,0.0,0.0,0.8678771257400513,0.014210820198059
0.0010469437111169,0.2438675910234451,0.1355314552783966,-0.5819157958030701,0.1081353947520256,0.09944798797369,0.0,0.0,0.7651703357696533,0.6013232469558716
0.0026000975631177,0.230628564953804,0.1513243019580841,-0.5886967778205872,0.1120937317609787,0.079166904091835,0.0,0.0,0.9574873447418212,0.1900205612182617
0.0041307448409497,0.2172967791557312,0.1492748260498047,-0.5928142666816711,0.1158581525087356,0.0752884373068809,0.0,0.0,0.9442853927612304,-0.3172322511672973
0.0056033134460449,0.2046680748462677,0.1435383558273315,-0.5615672469139099,0.1195533350110054,0.0739036351442337,0.0,0.0,0.9144420623779296,-0.655709981918335
0.0070694922469556,0.1927763819694519,0.1413584947586059,-0.5289483070373535,0.1247830539941787,0.1045943275094032,0.0,0.0,0.7854292392730713,0.2261290550231933
0.0083646774291992,0.1814908534288406,0.1248570829629898,-0.5019749402999878,0.1294226646423339,0.0927918404340744,0.0,0.0,0.931283950805664,-0.1750460863113403
0.0095190051943063,0.1700661480426788,0.1115080863237381,-0.5081127882003784,0.1333309561014175,0.0781655833125114,0.0,0.0,0.9962670803070068,-0.5547916293144226
0.0106125827878713,0.15938201546669,0.1042056530714035,-0.4753202497959137,0.1384622901678085,0.1026267409324646,0.0,0.0,0.9663975238800048,-0.3319584727287292
0.0115508083254098,0.149004653096199,0.0892749354243278,-0.4616442322731018,0.1429993212223053,0.0907406881451606,0.0,0.0,0.99678635597229,-0.0870919823646545
0.0123651502653956,0.1391435712575912,0.0772370994091034,-0.4386811852455139,0.1471912860870361,0.083839364349842,0.0,0.0,0.9536147117614746,-0.9243943691253662
0.0130282398313283,0.1298086196184158,0.0603340938687324,-0.4154860079288482,0.1531599909067154,0.1193741932511329,0.0,0.0,0.9577066898345948,0.7717914581298828
0.0138153079897165,0.1208497583866119,0.0740583166480064,-0.398658275604248,0.1577962338924408,0.0927252098917961,0.0,0.0,0.9504611492156982,-0.8980308175086975
0.0145576475188136,0.1117855384945869,0.0677817612886428,-0.4035528302192688,0.1642493307590484,0.1290620118379593,0.0,0.0,0.9254133701324464,-0.7992444634437561
0.0153350830078125,0.1027378439903259,0.0694919973611831,-0.4030519127845764,0.1725141257047653,0.1652957946062088,0.0,0.0,0.7680809497833252,0.2426060438156128
0.0162197109311819,0.0939485654234886,0.079531006515026,-0.391695499420166,0.1814599931240081,0.1789172291755676,0.0,0.0,0.7263071537017822,0.3596007823944092
0.0172295570373535,0.0851215943694114,0.0914567038416862,-0.3935017883777618,0.1910310983657837,0.1914224624633789,0.0,0.0,0.9795292615890504,0.7971534729003906
0.0181782729923725,0.0769566595554351,0.0870255529880523,-0.3639193177223205,0.1989319026470184,0.158016175031662,0.0,0.0,0.9181616306304932,0.3026738166809082
0.0190438274294137,0.069412000477314,0.0786004364490509,-0.3364101946353912,0.2069482952356338,0.160327523946762,0.0,0.0,0.8562843799591064,0.9094619750976562
0.020031739026308,0.0623551458120346,0.0924490839242935,-0.3145380914211273,0.2133511006832122,0.1280561089515686,0.0,0.0,0.896100640296936,0.2829411029815674
0.0211081504821777,0.0551986545324325,0.1008177995681762,-0.3190663158893585,0.2202372699975967,0.1377237290143966,0.0,0.0,0.9504539966583252,0.7998495101928711
0.022103214636445,0.0482327789068222,0.0944859012961387,-0.3103549778461456,0.2253156155347824,0.1015669554471969,0.0,0.0,0.930166482925415,0.4093731641769409
0.0230228416621685,0.0420878045260906,0.0865527838468551,-0.2739448547363281,0.2307984828948974,0.1096573919057846,0.0,0.0,0.924591064453125,0.8488754034042358
0.0238798148930072,0.0362375117838382,0.0820921137928962,-0.2605829834938049,0.2344577461481094,0.0731849744915962,0.0,0.0,0.7887090444564819,0.9315471649169922
0.024513054639101,0.0309392549097538,0.0618597269058227,-0.2357123792171478,0.2359430640935897,0.0297061763703823,0.0,0.0,0.9464805126190186,0.8077051639556885
0.0251752845942974,0.0262193530797958,0.0661848038434982,-0.2097804695367813,0.2359815239906311,0.0007692508515901,0.0,0.0,0.9284780025482178,0.7238113880157471
0.0256113056093454,0.0229946952313184,0.0635697618126869,-0.1402422934770584,0.2157660126686096,-0.4042930006980896,0.0,1.0,0.8911515474319458,-0.0529626607894897
0.0256802551448345,0.0209517814218997,0.0422150157392025,-0.0860331058502197,0.1801530718803405,-0.7123029232025146,0.0,1.0,0.6709451675415039,-0.5270424485206604
0.0256110187619924,0.0189380496740341,0.0265853703022003,-0.0857755094766616,0.1466181874275207,-0.6706976294517517,0.0,1.0,0.5638742446899414,-0.4130787849426269
0.0253478996455669,0.0170738082379102,0.0078816059976816,-0.0798422992229461,0.1125746965408325,-0.680870532989502,0.0,0.0,-0.8275299668312073,-0.473940372467041
0.0251331329345703,0.0145387267693877,0.0128912301734089,-0.1104314997792244,0.078480951488018,-0.6818754076957703,0.0,0.0,0.1399440765380859,-0.8279684782028198
0.024945830926299,0.0120808221399784,0.0140715185552835,-0.1078411489725112,0.0460323356091976,-0.6489723324775696,0.0,0.0,0.0092071294784545,-0.9420114755630492
0.0247657783329486,0.0092774843797087,0.013020041398704,-0.1239263489842414,0.0153922140598297,-0.6128028631210327,0.0,0.0,0.79517662525177,-0.9495086073875428
0.0247194282710552,0.0070526455529034,0.0242629423737525,-0.0988316312432289,-0.0131361670792102,-0.5705680251121521,0.0,0.0,0.4983552694320678,-0.9643664360046388
0.0246272087097167,0.0052174422889947,0.0178063139319419,-0.0820172950625419,-0.0398181118071079,-0.533639132976532,0.0,0.0,0.3987767696380615,-0.9505598545074464
0.024671172723174,0.003796515520662,0.0294099785387516,-0.0640026032924652,-0.0645448192954063,-0.4945343434810638,1.0,0.0,0.6578943729400635,-0.497053325176239
0.0248726848512887,0.0029836988542228,0.0346448123455047,-0.0370916649699211,-0.0778035521507263,-0.2637670636177063,1.0,0.0,0.0617991685867309,-0.5294048190116882
0.0251679420471191,0.0027739501092582,0.0277824308723211,-0.0092476848512887,-0.0760349258780479,0.0354311317205429,1.0,0.0,-0.5553479790687561,-0.5157766938209534
0.0254960060119628,0.0023059225641191,0.0184507109224796,-0.0201385356485843,-0.0618026778101921,0.2846807837486267,1.0,0.0,-0.8400951623916626,-0.0511240363121032
0.0258676521480083,0.0014330244157463,0.0151128619909286,-0.0380342565476894,-0.0399845615029335,0.4363972544670105,1.0,0.0,-0.2406878471374511,0.1391875743865966
0.0262591354548931,2.3684500774834305e-05,0.0131996665149927,-0.0621544644236564,-0.0143276117742061,0.513176679611206,1.0,0.0,0.060430884361267,-0.1656320691108703
0.0265752784907817,-0.0015413308283314,0.0053903912194073,-0.0695130303502082,0.011582295410335,0.5182323455810547,1.0,1.0,0.7543478012084961,0.9815226793289183
0.0268695838749408,-0.0024900459684431,0.016994010657072,-0.0425115302205085,0.0229992512613534,0.2272573709487915,1.0,1.0,0.5904107093811035,0.9948934316635132
0.0270893089473247,-0.002719392767176,0.0231125690042972,-0.0101895183324813,0.0218631215393543,-0.0227345172315835,1.0,1.0,-0.7148783802986145,-0.1103466749191284
0.0271914489567279,-0.002830114448443,0.0157109834253788,-0.0048537706024944,0.0164679139852523,-0.107877992093563,1.0,1.0,-0.9427742958068848,-0.194226861000061
0.0272507667541503,-0.0027040862478315,0.0099461711943149,0.0056361579336225,0.0124917291104793,-0.0795332193374633,1.0,1.0,-0.3840228319168091,-0.1204731464385986
0.0273292548954486,-0.0023901963140815,0.0102361571043729,0.0139688663184642,0.0101177999749779,-0.0475065000355243,1.0,1.0,-0.6717000007629395,-0.2668694257736206
0.0273966789245605,-0.0019626880530267,0.0100471209734678,0.0190165285021066,0.0068442244082689,-0.0654832199215889,1.0,1.0,-0.7970767617225647,-0.2839889526367187
