x_pos,y_pos,x_vel,y_vel,angle,ang_vel,leg_1,leg_2,main_booster,lat_booster
-0.001618766807951,1.4033098220825195,-0.16437429189682,-0.3382298350334167,0.0022386270575225,0.0441942289471626,0.0,0.0,-0.1032267758642959,-0.626800674848867
-0.0033787726424634,1.3954052925109863,-0.1797439754009246,-0.3513262569904327,0.0059529999271035,0.0742948204278945,0.0,0.0,0.8666219091995389,0.1685794657528172
-0.0050866128876805,1.3878719806671145,-0.1756793707609176,-0.3348436951637268,0.0107853384688496,0.0966558381915092,0.0,0.0,0.2450668468027352,0.5188448253231874
-0.0069521903060376,1.3805861473083496,-0.1905626505613327,-0.323840469121933,0.0147538445889949,0.0793774798512458,0.0,0.0,0.7749230586567517,0.054310294054357
-0.0087861064821481,1.374040126800537,-0.1884679496288299,-0.2909938395023346,0.0197741203010082,0.1004149168729782,0.0,0.0,-0.2041145925840368,0.6537690653315833
-0.0106537817046046,1.3671807050704956,-0.1906266808509826,-0.3049194514751434,0.0235888827592134,0.0763019472360611,0.0,0.0,-0.5616208423651667,0.9242042073863672
-0.012548541650176,1.3600096702575684,-0.1919339597225189,-0.3187583982944488,0.0260225590318441,0.0486778691411018,0.0,0.0,0.599615361379833,0.6527422069476885
-0.014348030090332,1.3534735441207886,-0.1818565130233764,-0.2905302345752716,0.0279081426560878,0.0377152413129806,0.0,0.0,-0.0607717841928192,-0.9527890843952566
-0.0163215640932321,1.3466300964355469,-0.2015798538923263,-0.3042373955249786,0.0320879779756069,0.0836044400930404,0.0,0.0,-0.8021141139442771,-0.9413947220025528
-0.0184669494628906,1.339475154876709,-0.2210266888141632,-0.3181546926498413,0.0384989865124225,0.1282318383455276,0.0,0.0,0.4238713056136562,-0.4061996170911103
-0.0206556320190429,1.3327786922454834,-0.2260672301054,-0.2978265583515167,0.0456209927797317,0.1424532830715179,0.0,0.0,-0.3494285606438354,0.5145622697765501
-0.0228969566524028,1.3257702589035034,-0.230532020330429,-0.3116922080516815,0.051956508308649,0.126722052693367,0.0,0.0,-0.7499368109373885,0.5944311660692481
-0.0251794811338186,1.318455457687378,-0.2335530966520309,-0.3252913355827331,0.0572053231298923,0.1049860492348671,0.0,0.0,0.7500569723126806,0.3881535048760348
-0.027508545666933,1.311396598815918,-0.2388994991779327,-0.3139706254005432,0.0631407052278518,0.1187184602022171,0.0,0.0,-0.4065788308845339,-0.1784528333764509
-0.0299358367919921,1.3040237426757812,-0.2490556240081787,-0.3279598653316498,0.0694096907973289,0.1253911703824997,0.0,0.0,0.025839257588921,0.5695769173771836
-0.0323529243469238,1.2966194152832031,-0.2473471462726593,-0.3293562829494476,0.0749904960393905,0.1116261854767799,0.0,0.0,-0.2544497091456521,0.6630681783302816
-0.0348048210144043,1.288915991783142,-0.2494973391294479,-0.342598021030426,0.0792701914906501,0.0856012850999832,0.0,0.0,0.8022019970848677,-0.6880807724359376
-0.0372735038399696,1.281517744064331,-0.253287672996521,-0.32917121052742,0.0856373682618141,0.1273552328348159,0.0,0.0,-0.5489418008018669,0.3023641305033144
-0.0398406982421875,1.2738054990768433,-0.2634438574314117,-0.3431618809700012,0.0923068448901176,0.1334015876054763,0.0,0.0,0.8389592570152111,0.8024574922151345
-0.0425992980599403,1.2667155265808103,-0.2810571491718292,-0.315445601940155,0.097469113767147,0.1032546758651733,0.0,0.0,0.3434645473039164,-0.1431457203605531
-0.0454127304255962,1.2602392435073853,-0.2873092889785766,-0.288229376077652,0.1034029796719551,0.1186879426240921,0.0,0.0,-0.6162934114347558,0.2151400110483917
-0.0483247749507427,1.253449320793152,-0.2974492609500885,-0.3022193610668182,0.1096135005354881,0.1242212504148483,0.0,0.0,-0.1549976091175808,0.0065833479666591
-0.0513354316353797,1.2463458776474,-0.3075827956199646,-0.3162033855915069,0.1160923540592193,0.1295888125896453,0.0,0.0,-0.6035338478676564,0.9233350187677976
-0.0543631538748741,1.238932490348816,-0.3074714243412018,-0.329854279756546,0.1207784116268158,0.0937291607260704,0.0,0.0,0.718331311044117,-0.6905787271280137
-0.0577838905155658,1.2321652173995972,-0.3480474650859833,-0.3012667298316955,0.1267318427562713,0.1190793886780738,0.0,0.0,-0.8393605077043882,0.5631388340075287
-0.0612680427730083,1.2250720262527466,-0.3537858724594116,-0.3157147765159607,0.1320702582597732,0.1067685708403587,0.0,0.0,-0.3604123645100363,-0.4916181096074082
-0.0648507103323936,1.2176650762557983,-0.3638556897640228,-0.3296976089477539,0.1376371383666992,0.1113374233245849,0.0,0.0,0.7447252036489849,-0.3403029468978495
-0.0687880516052246,1.2112112045288086,-0.3988939821720123,-0.2873301208019256,0.1427827328443527,0.102911926805973,0.0,0.0,0.8762450044443446,-0.4284163916219077
-0.0730955153703689,1.2057178020477295,-0.4354264140129089,-0.24460469186306,0.1474484801292419,0.0933148711919784,0.0,0.0,0.8302670155184375,-0.9870980911913152
-0.0776831656694412,1.2006856203079224,-0.465568482875824,-0.2243418097496032,0.1542456746101379,0.1359439492225647,0.0,0.0,0.7961580875348859,0.4372364635753402
-0.082490250468254,1.196708917617798,-0.4877848625183105,-0.1774930357933044,0.1613194644451141,0.1414760053157806,0.0,0.0,-0.6249722242355347,0.9987727403640748
-0.0873268097639083,1.1924293041229248,-0.4891669750213623,-0.1908081173896789,0.1668261438608169,0.1101336479187011,0.0,0.0,-0.4465214014053345,0.9934828281402588
-0.0921957045793533,1.1878621578216553,-0.490817129611969,-0.2034391462802887,0.1707692146301269,0.0788615867495536,0.0,0.0,-0.5709936022758484,0.9948521852493286
-0.0970917716622352,1.1829898357391355,-0.4919239580631256,-0.2168154865503311,0.1730827391147613,0.0462708510458469,0.0,0.0,-0.723686933517456,0.9970879554748536
-0.1020059585571289,1.177826166152954,-0.4918120801448822,-0.2295370697975158,0.173478364944458,0.0079125901684165,0.0,0.0,-0.89983069896698,0.9991085529327391
-0.1069381684064865,1.1723769903182983,-0.4916763305664062,-0.2420125156641006,0.1719304472208023,-0.0309582855552434,0.0,0.0,-0.8276870846748352,0.990990400314331
-0.1118929833173751,1.1666277647018433,-0.4921537041664123,-0.2551407814025879,0.1685987114906311,-0.0666346177458763,0.0,0.0,-0.5885151028633118,0.996584415435791
-0.1168627738952636,1.1605931520462036,-0.491631805896759,-0.267607569694519,0.1632406115531921,-0.1071619540452957,0.0,0.0,-0.4621707201004028,0.9590753316879272
-0.1218604072928428,1.154272437095642,-0.4926826953887939,-0.2801571488380432,0.156170979142189,-0.1413930207490921,0.0,0.0,-0.6509777903556824,0.932658314704895
-0.1268776953220367,1.1476576328277588,-0.4927856028079986,-0.2930825054645538,0.1472250819206237,-0.1789175868034362,0.0,0.0,-0.5118067264556885,0.8487856388092041
-0.1319368332624435,1.1407487392425537,-0.4956093728542328,-0.3060750663280487,0.1369464993476867,-0.2055713832378387,0.0,0.0,-0.7293787598609924,0.9451014995574952
-0.1370017081499099,1.133543610572815,-0.4939401745796203,-0.3191272318363189,0.1244500800967216,-0.2499283105134964,0.0,0.0,-0.9403092861175536,0.9624080657958984
-0.1420725882053375,1.1260323524475098,-0.4923263490200043,-0.3326693773269653,0.1097731292247772,-0.2935389876365661,0.0,0.0,-0.8363363742828369,0.9553194046020508
-0.1471499502658844,1.11822247505188,-0.4907421469688415,-0.3459447920322418,0.0929130613803863,-0.3372015953063965,0.0,0.0,-0.8880024552345276,0.9941997528076172
-0.1522468626499176,1.1101007461547852,-0.4908382296562195,-0.3598989248275757,0.0742351859807968,-0.3735575675964355,0.0,0.0,-0.6746458411216736,0.9870810508728028
-0.1573521643877029,1.101669192314148,-0.4895172119140625,-0.3738305866718292,0.0534606017172336,-0.4154923856258392,0.0,0.0,-0.9167250990867616,0.9983669519424438
-0.1624618470668792,1.0929309129714966,-0.487750232219696,-0.3876981139183044,0.0305056795477867,-0.4590983390808105,0.0,0.0,-0.9791162610054016,0.9721081256866456
-0.1676000654697418,1.0838990211486816,-0.4889759421348572,-0.4010966122150421,0.005974356085062,-0.4906266331672668,0.0,0.0,-0.9868184328079224,0.9750287532806396
-0.1727678328752517,1.0745700597763062,-0.4903717637062073,-0.4147123098373413,-0.0200805272907018,-0.5210978388786316,0.0,0.0,-0.985083281993866,0.6430201530456543
-0.1779746115207672,1.064932942390442,-0.4930351376533508,-0.4289120137691498,-0.047389805316925,-0.546186089515686,0.0,0.0,-0.9760916233062744,0.9608868360519408
-0.1831742227077484,1.0549851655960083,-0.4899234771728515,-0.4433370530605316,-0.0770955234766006,-0.5941144824028015,0.0,0.0,-0.9167285561561584,0.6443701982498169
-0.1884127557277679,1.044734239578247,-0.4926777482032776,-0.457495629787445,-0.1079979538917541,-0.6180492639541626,0.0,0.0,-0.9386157393455504,0.3508496284484863
-0.193734735250473,1.0341813564300537,-0.5010684728622437,-0.4715536832809448,-0.1389458179473877,-0.6189576387405396,0.0,0.0,-0.9206165075302124,0.7397046089172363
-0.1990790367126464,1.0233221054077148,-0.5019123554229736,-0.4859933257102966,-0.1714302599430084,-0.6496891975402832,0.0,0.0,-0.9162054061889648,-0.6909038424491882
-0.2045433521270752,1.0121698379516602,-0.5150671601295471,-0.4995863735675812,-0.2029357850551605,-0.6301110982894897,0.0,0.0,-0.6897040009498596,-0.4714090228080749
-0.2100846767425537,1.000715970993042,-0.5229018926620483,-0.5136472582817078,-0.2345107793807983,-0.6315003633499146,0.0,0.0,-0.49321448802948,-0.7603570222854614
-0.2157487869262695,0.988985002040863,-0.5366092920303345,-0.5264186859130859,-0.2648630738258362,-0.6070462465286255,0.0,0.0,-0.6978501081466675,-0.4649946689605713
-0.2214851379394531,0.976951539516449,-0.5439857840538025,-0.5404734015464783,-0.2953002452850342,-0.6087436676025391,0.0,0.0,-0.0968840718269348,-0.878294825553894
-0.2273470908403396,0.9646500945091248,-0.5582433938980103,-0.5526605844497681,-0.3242563903331756,-0.5791236162185669,0.0,0.0,0.3306207656860351,-0.7371869683265686
-0.2331927716732025,0.9530112147331238,-0.558144211769104,-0.5234503746032715,-0.351893275976181,-0.5527375936508179,0.0,0.0,0.5072252750396729,-0.8742880821228027
-0.2390028983354568,0.9415443539619446,-0.5564932227134705,-0.515863299369812,-0.3777890503406524,-0.5179157257080078,0.0,0.0,0.901808500289917,-0.6320792436599731
-0.2447361946105957,0.9309960603713988,-0.5498763918876648,-0.4752220809459686,-0.4028094410896301,-0.5004081130027771,0.0,0.0,0.7123042345046997,-0.6989800930023193
-0.2502396702766418,0.92082941532135,-0.5286311507225037,-0.4581968486309051,-0.4262107610702514,-0.4680263102054596,0.0,0.0,0.7879276275634766,-0.4979108572006225
-0.2554994523525238,0.911245822906494,-0.5044881105422974,-0.4326262474060058,-0.4496210515499115,-0.4682060778141022,0.0,0.0,0.883124589920044,-0.7276793122291565
-0.260654866695404,0.9019977450370787,-0.495556503534317,-0.4176118969917297,-0.4716311693191528,-0.4402024745941162,0.0,0.0,0.4486171007156372,-0.3671711683273315
-0.2657173275947571,0.893208384513855,-0.4859181046485901,-0.3977222740650177,-0.4942823648452759,-0.4530240595340729,0.0,0.0,0.5048725605010986,-0.6882556676864624
-0.2704773843288421,0.8851704597473145,-0.4571122229099273,-0.3641843795776367,-0.5155773758888245,-0.4259005188941955,0.0,0.0,0.709808349609375,-0.5404822826385498
-0.2750853598117828,0.877177357673645,-0.4431979656219482,-0.3620335459709167,-0.5356519222259521,-0.4014907777309418,0.0,0.0,0.7725024223327637,0.077003002166748
-0.2792335152626037,0.8700346350669861,-0.3973978757858276,-0.3244825899600982,-0.5557481646537781,-0.4019246697425842,0.0,0.0,0.6308003664016724,-0.7614156603813171
-0.2833011150360107,0.8633033633232117,-0.3906588852405548,-0.3059665858745575,-0.5745604634284973,-0.3762469291687011,0.0,0.0,0.9303648471832277,-0.6937633156776428
-0.2871026992797851,0.8573991060256958,-0.3651427328586578,-0.2690081298351288,-0.5923157930374146,-0.355105996131897,0.0,0.0,0.8774003982543945,-0.7895166873931885
-0.2905460298061371,0.8520854711532593,-0.3308263421058655,-0.2423121333122253,-0.6084646582603455,-0.3229767680168152,0.0,0.0,0.9387080669403076,-0.8747245669364929
-0.2936233878135681,0.8478891849517822,-0.2955654561519623,-0.1922322809696197,-0.6231766939163208,-0.2942401170730591,0.0,0.0,0.9474806785583496,-0.8567014932632446
-0.2962881624698639,0.8441861867904663,-0.2559385597705841,-0.1696841716766357,-0.6360363960266113,-0.2571939527988434,0.0,0.0,0.7489485740661621,-0.7896967530250549
-0.2987926006317138,0.840755820274353,-0.241182804107666,-0.1570666134357452,-0.6474412083625793,-0.2280964851379394,0.0,0.0,0.93589448928833,-0.903314471244812
-0.301054298877716,0.8374459147453308,-0.2185296714305877,-0.1509952247142791,-0.6569333076477051,-0.1898416876792907,0.0,0.0,0.9213135242462158,-0.9456744194030762
-0.3031610548496246,0.8343896269798279,-0.2045147716999054,-0.1390242576599121,-0.66462641954422,-0.1538626849651336,0.0,0.0,0.5914645195007324,-0.980703353881836
-0.3048463761806488,0.8320085406303406,-0.163973182439804,-0.1082249656319618,-0.6703570485115051,-0.1146120801568031,0.0,0.0,0.8313660621643066,-0.8267719149589539
-0.3059219419956207,0.8303527235984802,-0.1044392809271812,-0.0752358138561248,-0.6742863059043884,-0.078585460782051,0.0,0.0,0.0815658569335937,-0.9410728812217712
-0.3067607283592224,0.8291682600975037,-0.082296535372734,-0.0534915402531623,-0.6762863397598267,-0.0400007851421833,0.0,0.0,-0.4526456594467163,-0.9044957756996156
-0.3076413571834564,0.8277434706687927,-0.0882183760404586,-0.0632398873567581,-0.6760899424552917,0.0039282934740185,0.0,0.0,0.0235723257064819,-0.4305695295333862
-0.3081627786159515,0.8265554308891296,-0.0522288754582405,-0.052755020558834,-0.6759783625602722,0.0022316719405353,0.0,0.0,-0.4109584093093872,-0.7346374988555908
-0.3086980283260345,0.825116753578186,-0.0549452230334281,-0.0631818175315857,-0.6741851568222046,0.0358646251261234,0.0,0.0,0.0002583265304565,-0.5550186038017273
-0.3089962005615234,0.8239228129386902,-0.0320110917091369,-0.0518918856978416,-0.6714158058166504,0.0553865022957325,0.0,0.0,-0.6999329328536987,-0.644321620464325
-0.3092860579490661,0.8224664330482483,-0.0321716517210006,-0.0630532279610633,-0.6674036979675293,0.0802416652441024,0.0,0.0,-0.5551521182060242,-0.6300495862960815
-0.3095578253269195,0.8207361102104187,-0.0311503149569034,-0.0748255550861358,-0.6624153852462769,0.0997658669948577,0.0,0.0,0.0523430109024047,-0.6634178757667542
-0.3096705377101898,0.8189775347709656,-0.0162635296583175,-0.075573094189167,-0.6561789512634277,0.1247291415929794,0.0,0.0,-0.4997260570526123,-0.7711190581321716
-0.309767335653305,0.816948652267456,-0.0156670901924371,-0.0871224775910377,-0.6487316489219666,0.1489454805850982,0.0,0.0,-0.438661515712738,-0.874200165271759
-0.3098431229591369,0.8146536946296692,-0.0146098583936691,-0.0984743312001228,-0.6400482058525085,0.1736693084239959,0.0,0.0,-0.5147128105163574,-0.799031674861908
-0.3098945021629333,0.8120844960212708,-0.0131347086280584,-0.1102531105279922,-0.6302424073219299,0.1961158812046051,0.0,0.0,-0.4638630151748657,-0.7355298399925232
-0.3099221587181091,0.8092586398124695,-0.0119822099804878,-0.1211516484618187,-0.6190178990364075,0.2244905680418014,0.0,0.0,-0.0022786855697631,-0.6815279126167297
-0.3099175989627838,0.8061692118644714,-0.009839623235166,-0.1324716061353683,-0.6065859198570251,0.248639315366745,0.0,0.0,-0.7078956365585327,-0.640682578086853
-0.3098708987236023,0.802804172039032,-0.00646877521649,-0.1444598883390426,-0.5932527184486389,0.266663908958435,0.0,0.0,-0.5265340805053711,-0.3982857465744018
-0.3097481727600097,0.7991282343864441,0.0011983870062977,-0.1584594547748565,-0.5801182985305786,0.2626884281635284,0.0,0.0,-0.6478021144866943,-0.6610013246536255
-0.3095946907997131,0.7951857447624207,0.0030324859544634,-0.1699160635471344,-0.5656412839889526,0.2895406484603882,0.0,0.0,-0.2326186299324035,-0.286325454711914
-0.3093608915805816,0.7909323573112488,0.0111126350238919,-0.1839175224304199,-0.5513593554496765,0.2856398224830627,0.0,0.0,-0.295779824256897,-0.5252767205238342
-0.3090812265872955,0.7864016890525818,0.0147465197369456,-0.1960299760103225,-0.5361067652702332,0.3050530254840851,0.0,0.0,-0.3968851566314697,-0.5662584900856018
-0.3087616562843323,0.7816057205200195,0.017508927732706,-0.2075204253196716,-0.5195838212966919,0.3304593563079834,0.0,0.0,-0.529079020023346,0.0229396820068359
-0.3083564639091491,0.7764998078346252,0.0260908808559179,-0.2215259671211242,-0.5032486915588379,0.3267020583152771,0.0,0.0,-0.6699369549751282,-0.1849387288093567
-0.3078644871711731,0.7710835933685303,0.0348148681223392,-0.2355309128761291,-0.4870985746383667,0.3230014741420746,0.0,0.0,0.0064218044281005,0.2443341016769409
-0.307115375995636,0.7659969925880432,0.0607756972312927,-0.2211643308401107,-0.4713636338710785,0.3146986365318298,0.0,0.0,-0.3982298970222473,-0.307828426361084
-0.3062769770622253,0.7605997920036316,0.0697491914033889,-0.2351675033569336,-0.4558074474334717,0.3111238181591034,0.0,0.0,-0.2724357843399048,0.0195326805114746
-0.3053483068943023,0.7548920512199402,0.0788314864039421,-0.2491700798273086,-0.4404265880584717,0.3076173365116119,0.0,0.0,-0.5109108686447144,-0.1418849229812622
-0.3043282926082611,0.7488736510276794,0.0880132392048835,-0.2631720602512359,-0.4252174496650696,0.3041825890541076,0.0,0.0,-0.230882465839386,-0.5551294684410095
-0.30324786901474,0.7425698041915894,0.0932328179478645,-0.2757896780967712,-0.4092211723327636,0.3199255764484405,0.0,0.0,-0.6568862795829773,0.3689401149749756
-0.3020744323730469,0.7359554171562195,0.102586880326271,-0.2897927165031433,-0.3933890759944916,0.3166419863700866,0.0,0.0,-0.4657672643661499,0.0432666540145874
-0.3008071780204773,0.7290303111076355,0.1120167598128318,-0.30379518866539,-0.3777171671390533,0.3134383261203766,0.0,0.0,-0.4059267044067383,0.3763387203216553
-0.2994454801082611,0.7217944860458374,0.1215158551931381,-0.3177970647811889,-0.3622013330459595,0.3103169500827789,0.0,0.0,-0.4042274951934814,0.1503890752792358
-0.2979887127876282,0.7142478227615356,0.1310780793428421,-0.3317983746528625,-0.3468373417854309,0.3072800040245056,0.0,0.0,-0.6513107419013977,0.2947871685028076
-0.2964363992214203,0.7063903212547302,0.1406978666782379,-0.345799058675766,-0.3316208720207214,0.3043293952941894,0.0,0.0,-0.4633923768997192,0.3384395837783813
-0.2947879731655121,0.6982218027114868,0.1503701359033584,-0.3597992360591888,-0.31654754281044,0.3014667332172394,0.0,0.0,-0.6525977253913879,0.1707057952880859
-0.2930429875850677,0.6897421479225159,0.1600901782512664,-0.3737988471984863,-0.3016128540039062,0.2986933290958404,0.0,0.0,-0.6806179881095886,0.1419686079025268
-0.2912010252475738,0.6809513568878174,0.1698537766933441,-0.3877979516983032,-0.2868123352527618,0.296010285615921,0.0,0.0,-0.6756501197814941,0.3414862155914306
-0.2892616391181946,0.6718493103981018,0.1796569973230362,-0.4017965197563171,-0.2721414268016815,0.2934184372425079,0.0,0.0,-0.8127872943878174,0.2814884185791015
-0.287224531173706,0.6624359488487244,0.1894962042570114,-0.4157946407794952,-0.2575955092906952,0.2909182906150818,0.0,0.0,-0.8500903248786926,0.1906774044036865
-0.2850892543792724,0.6527112126350403,0.1993681490421295,-0.4297923147678375,-0.2431700080633163,0.2885101437568664,0.0,0.0,-0.824406623840332,0.0889325141906738
-0.2828556895256042,0.6426750421524048,0.209269717335701,-0.4437895119190216,-0.2288602888584137,0.2861940860748291,0.0,0.0,-0.8419607877731323,0.391858696937561
-0.2805234491825104,0.632327139377594,0.2191981375217437,-0.4577862620353699,-0.2146618068218231,0.2839698195457458,0.0,0.0,-0.848111093044281,-0.2375382781028747
-0.2780922949314117,0.6216676831245422,0.2291508167982101,-0.4717826247215271,-0.2005699574947357,0.2818369269371032,0.0,0.0,-0.7563236355781555,-0.2370210886001587
-0.275562047958374,0.6106966733932495,0.2391253411769867,-0.4857785403728485,-0.1865802258253097,0.2797945737838745,0.0,0.0,-0.7823998332023621,0.0432910919189453
