x_pos,y_pos,x_vel,y_vel,angle,ang_vel,leg_1,leg_2,main_booster,lat_booster
-0.0015502929454669,1.4029191732406616,-0.1571724712848663,-0.355591744184494,0.0019210826139897,0.0379067212343215,0.0,0.0,0.0713701248168945,0.5049645900726318
-0.0030482292640954,1.394682765007019,-0.1508791744709015,-0.3660617470741272,0.0029947662260383,0.0214765183627605,0.0,0.0,-0.0025868415832519,0.6479134559631348
-0.0045044897124171,1.3857362270355225,-0.1452421396970749,-0.3976240456104278,0.002618363359943,-0.0075286640785634,0.0,0.0,-0.1865332126617431,0.9217694997787476
-0.005919742397964,1.3760817050933838,-0.1397673040628433,-0.4290885627269745,0.0008853510371409,-0.034663800150156,0.0,0.0,0.5367575883865356,0.8276159763336182
-0.0071501731872558,1.366634726524353,-0.1199667081236839,-0.419864147901535,-0.0021625235676765,-0.0609632730484008,0.0,0.0,0.1013603210449218,0.4122071266174316
-0.0082986829802393,1.357025384902954,-0.1122940331697464,-0.4270890653133392,-0.004684486426413,-0.0504436790943145,0.0,0.0,-0.1171345710754394,0.6754961013793945
-0.0094025610014796,1.3467105627059937,-0.1066240444779396,-0.4584514498710632,-0.0084156636148691,-0.0746304914355278,0.0,0.0,0.6691148281097412,0.3827426433563232
-0.0103530883789062,1.3366693258285522,-0.0920747369527816,-0.4462988972663879,-0.0113584455102682,-0.0588610842823982,0.0,0.0,-0.4064598083496094,0.1105945110321044
-0.0113028530031442,1.325922608375549,-0.0920670852065086,-0.4776488244533539,-0.014244444668293,-0.0577250830829143,0.0,0.0,-0.4189879894256592,0.4874154329299927
-0.0122483251616358,1.3144711256027222,-0.0916699022054672,-0.5089874863624573,-0.0170835871249437,-0.0567878186702728,0.0,0.0,-0.3424588441848755,-0.0183714628219604
-0.013185310177505,1.3023146390914917,-0.0908778384327888,-0.5403279662132263,-0.0198874622583389,-0.056082833558321,0.0,0.0,0.0728952884674072,-0.7670875191688538
-0.0141109470278024,1.2899658679962158,-0.0913268774747848,-0.5488448739051819,-0.0211081784218549,-0.0244159586727619,0.0,0.0,0.1265840530395507,-0.864075779914856
-0.0149749759584665,1.2776305675506592,-0.0869610533118248,-0.5482273697853088,-0.0205546282231807,0.0110717909410595,0.0,0.0,-0.5757755637168884,-0.5434099435806274
-0.0158570297062397,1.2645862102508545,-0.0897342413663864,-0.5797320604324341,-0.0190483462065458,0.0301284827291965,0.0,0.0,-0.4466199278831482,-0.6611427068710327
-0.0167551040649414,1.2508447170257568,-0.0923366993665695,-0.6107023358345032,-0.0165497083216905,0.0499774068593978,0.0,0.0,-0.0776251554489135,-0.7057135701179504
-0.0176711082458496,1.2363910675048828,-0.0952541381120681,-0.642349898815155,-0.0129312137141823,0.0723765566945076,0.0,0.0,-0.4892893433570862,0.1491541862487793
-0.0185552593320608,1.2212321758270264,-0.0920410230755806,-0.6736921668052673,-0.0093502458184957,0.0716258212924003,0.0,0.0,-0.1096060276031494,0.0413461923599243
-0.0194038394838571,1.2053687572479248,-0.0884199887514114,-0.7050344944000244,-0.0058182692155241,0.0706455260515213,0.0,0.0,-0.0999945998191833,0.0889680385589599
-0.0202126502990722,1.1887999773025513,-0.0843939706683158,-0.7363770008087158,-0.002347417641431,0.0694232881069183,0.0,0.0,-0.41128671169281,0.1981641054153442
-0.0209779739379882,1.1715261936187744,-0.0799669325351715,-0.7677195072174072,0.0010506423423066,0.0679675415158271,0.0,0.0,0.5517539978027344,0.3981053829193115
-0.0215768814086914,1.1546070575714111,-0.0637981370091438,-0.7519737482070923,0.0049235490150749,0.0774648413062095,0.0,0.0,-0.3818336725234985,0.6233487129211426
-0.0220742225646972,1.136979341506958,-0.0522835962474346,-0.7834611535072327,0.0074380096048116,0.0502938516438007,0.0,0.0,0.2308492660522461,0.4604349136352539
-0.0224229805171489,1.1192562580108645,-0.0377700813114643,-0.7877119183540344,0.0102968402206897,0.0571818947792053,0.0,0.0,-0.1998780965805053,0.230527639389038
-0.0227131843566894,1.100827932357788,-0.0317991748452186,-0.8190581798553467,0.0130383614450693,0.0548354610800743,0.0,0.0,0.4918910264968872,0.0170785188674926
-0.023077106103301,1.0825637578964231,-0.0384421944618225,-0.8117629289627075,0.0150586264207959,0.0404090955853462,0.0,0.0,0.3137156963348388,0.2238624095916748
-0.023499583825469,1.064409852027893,-0.0436115972697734,-0.8068527579307556,0.0164066739380359,0.0269611235707998,0.0,0.0,0.5891048908233643,-0.0492452979087829
-0.0238608364015817,1.0465987920761108,-0.0373591072857379,-0.7916122078895569,0.0176264941692352,0.0243966542184352,0.0,0.0,0.087909460067749,0.1186556816101074
-0.0242454521358013,1.028895378112793,-0.0391345098614692,-0.7868240475654602,0.0182945653796196,0.0133613543584942,0.0,0.0,0.041309118270874,0.1881139278411865
-0.0246457103639841,1.0112168788909912,-0.0401594638824462,-0.7857168912887573,0.0184204392135143,0.0025172070600092,0.0,0.0,0.919121503829956,-0.4670354127883911
-0.02500238455832,0.993681788444519,-0.035509318113327,-0.7793329358100891,0.0182641167193651,-0.0031263255514204,0.0,0.0,-0.1441459655761718,0.2811707258224487
-0.0252776145935058,0.9754416346549988,-0.0271928906440734,-0.8106721043586731,0.0179313234984874,-0.0066554634831845,0.0,0.0,0.7772824764251709,0.125180959701538
-0.0255608558654785,0.9572010040283204,-0.0274081081151962,-0.8106830716133118,0.0170281995087862,-0.0180627107620239,0.0,0.0,0.6145050525665283,-0.1573904752731323
-0.0258512496948242,0.939428210258484,-0.0275494456291198,-0.7898929119110107,0.0155622148886322,-0.0293197985738515,0.0,0.0,0.5348365306854248,-0.6757134795188904
-0.0261756889522075,0.9214436411857604,-0.031983233988285,-0.7993056178092957,0.0151130901649594,-0.0089827803894877,0.0,0.0,-0.3122711181640625,0.3082575798034668
-0.0264081954956054,0.902754008769989,-0.0225894693285226,-0.8306449055671692,0.0144628584384918,-0.0130045367404818,0.0,0.0,0.8487367630004883,-0.1401947736740112
-0.0265382770448923,0.8846290111541748,-0.0122388433665037,-0.805548369884491,0.0137003799900412,-0.0152495950460433,0.0,0.0,0.4568768739700317,-0.007572054862976
-0.0266004558652639,0.866400420665741,-0.0051334076561033,-0.8101438879966736,0.012619643472135,-0.0216145031154155,0.0,0.0,-0.0986143350601196,-0.0547695755958557
-0.0265642162412405,0.8474668860435486,0.0049415272660553,-0.8414832353591919,0.0113232126459479,-0.0259287599474191,0.0,0.0,0.6995861530303955,0.1962853670120239
-0.0264776237308979,0.8291276097297668,0.0103834681212902,-0.815068781375885,0.0096195377409458,-0.0340734496712684,0.0,0.0,-0.4123678207397461,0.0782302618026733
-0.026288604363799,0.8100832104682922,0.0208550486713647,-0.8464082479476929,0.0076919691637158,-0.0385511443018913,0.0,0.0,0.265587568283081,0.1349028348922729
-0.0260816570371389,0.7912273406982422,0.0232559628784656,-0.8380258083343506,0.0051584434695541,-0.0506704859435558,0.0,0.0,0.5138521194458008,0.0541783571243286
-0.0256582256406545,0.7723867893218994,0.044614378362894,-0.8373502492904663,0.0029170790221542,-0.0448272638022899,0.0,0.0,0.2038971185684204,0.1390711069107055
-0.0250571258366107,0.7531843185424805,0.062283206731081,-0.8534418344497681,0.0007690797792747,-0.0429597795009613,0.0,0.0,0.2241715192794799,-0.4382094144821167
-0.0242738723754882,0.733864426612854,0.0804051607847213,-0.8586654663085938,-0.0012756509240716,-0.0408948585391044,0.0,0.0,-0.2689480185508728,-0.8008809685707092
-0.0234478004276752,0.7138299345970154,0.0831969007849693,-0.8904201984405518,-0.0018601502524688,-0.0116900177672505,0.0,0.0,-0.0423544049263,-0.2099279165267944
-0.0225099567323923,0.6930903792381287,0.0946122854948043,-0.9217597246170044,-0.0026869231369346,-0.0165353789925575,0.0,0.0,0.9095003604888916,-0.3790727853775024
-0.0213874820619821,0.672420084476471,0.1130139604210853,-0.9186779260635376,-0.0034321467392146,-0.0149047076702117,0.0,0.0,0.7240054607391357,-0.7180647850036621
-0.0203325264155864,0.6523584723472595,0.1053364649415016,-0.8916269540786743,-0.0032723310869187,0.0031961891800165,0.0,0.0,0.7605350017547607,-0.6771648526191711
-0.0193663593381643,0.6328585743904114,0.0957034677267074,-0.8666636347770691,-0.0023720846511423,0.0180046372115612,0.0,0.0,0.6433072090148926,-0.3168004155158996
-0.0183038711547851,0.6134124994277954,0.1056898608803749,-0.86427241563797,-0.0018198321340605,0.0110451029613614,0.0,0.0,0.4146218299865722,-0.6351834535598755
-0.0170389171689748,0.5939942002296448,0.1246495842933654,-0.8630311489105225,1.0465314517205115e-05,0.0366058610379695,0.0,0.0,0.8758964538574219,-0.804925262928009
-0.0157910343259573,0.5751309990882874,0.1217199936509132,-0.8383675217628479,0.0030380585230886,0.0605517551302909,0.0,0.0,0.2323120832443237,-0.9288544654846193
-0.0144040109589695,0.5560552477836609,0.1339844614267349,-0.847830593585968,0.0076993382535874,0.0932254716753959,0.0,0.0,0.5281548500061035,-0.537175178527832
-999.0,0.537385880947113,0.1406098902225494,-0.8297901153564453,0.0131799960508942,0.1096131429076194,0.0,0.0,0.424402117729187,-0.613425076007843
-0.0112741468474268,0.5186418294906616,0.1600083708763122,-0.8331454396247864,0.0199152175337076,0.1347045004367828,0.0,0.0,0.8247206211090088,-0.5122037529945374
-0.009647655300796,0.4999667704105377,0.1553839892148971,-0.8301136493682861,0.027083721011877,0.1433700323104858,0.0,0.0,0.9190433025360109,-0.3933601379394531
-0.007815551944077,0.4819798171520233,0.1757028996944427,-0.7995750904083252,0.034497432410717,0.1482743322849273,0.0,0.0,0.6205626726150513,-0.3432320952415466
-0.0057488442398607,0.4642871022224426,0.1987932622432708,-0.7865442633628845,0.042276494204998,0.155581384897232,0.0,0.0,0.6856952905654907,-0.6481314897537231
-0.0035640716087073,0.4471577405929565,0.2093831002712249,-0.7615916728973389,0.0512749589979648,0.1799689084291458,0.0,0.0,0.2591133117675781,-0.7107469439506531
-0.0014082908164709,0.4302181005477905,0.2054071128368377,-0.7532504796981812,0.0613345019519329,0.2011908292770385,0.0,0.0,0.6190041303634644,-0.422113299369812
0.0008988380432128,0.4131224155426025,0.2205783873796463,-0.7602547407150269,0.0713631063699722,0.2005719244480133,0.0,0.0,0.9452755451202391,-0.4873229265213012
0.0031533241271972,0.3965456485748291,0.2161304652690887,-0.737217128276825,0.0805819630622863,0.184376984834671,0.0,0.0,0.8777052164077759,-0.8015229105949402
0.0055745122954249,0.3801524341106415,0.2311426848173141,-0.7292146682739258,0.0914558097720146,0.2174769341945648,0.0,0.0,0.9631751775741576,-0.6575936675071716
0.0080317500978708,0.3641413450241089,0.2336323261260986,-0.7123848795890808,0.1034536063671112,0.239955872297287,0.0,0.0,0.7588084936141968,-0.5401816964149475
0.010536384768784,0.3480543196201324,0.2375439703464508,-0.7159238457679749,0.1162898316979408,0.2567242980003357,0.0,0.0,0.9865765571594238,0.384677529335022
0.0129359243437647,0.3322966694831848,0.2280033826828003,-0.7013142704963684,0.1281724274158477,0.2376517355442047,0.0,0.0,0.98612380027771,0.3425056934356689
0.0153549192473292,0.3173707723617553,0.2301153689622879,-0.6644279956817627,0.1399091780185699,0.2347346246242523,0.0,0.0,0.984833598136902,0.4719593524932861
0.017948055639863,0.3022836744785309,0.2473661005496978,-0.6717084050178528,0.1518368422985077,0.2385534048080444,0.0,0.0,0.91987943649292,0.2211947441101074
0.0205480568110942,0.2879707813262939,0.2481850385665893,-0.6373797655105591,0.1636445075273513,0.2361533343791961,0.0,0.0,0.8867515325546265,0.5019998550415039
0.0231131557375192,0.2737334668636322,0.2463248670101165,-0.63392174243927,0.1738428920507431,0.203967809677124,0.0,0.0,0.986003875732422,-0.492712140083313
0.025554846972227,0.2599655091762543,0.2347772568464279,-0.6130331754684448,0.1832655370235443,0.1884531527757644,0.0,0.0,0.961190700531006,-0.5183596014976501
0.0279857628047466,0.2465830594301223,0.2328260391950607,-0.5960769653320312,0.1935781836509704,0.2062530070543289,0.0,0.0,0.933584451675415,-0.2438012957572937
0.0302048679441213,0.2339074462652206,0.2126253396272659,-0.5646007061004639,0.2029286473989486,0.1870093047618866,0.0,0.0,0.9442827701568604,-0.088464081287384
0.0324981696903705,0.2215517610311508,0.2199222296476364,-0.550459086894989,0.2124146074056625,0.1897190809249878,0.0,0.0,0.7507435083389282,0.1898964643478393
0.0347956642508506,0.2090877890586853,0.2207798510789871,-0.5552718639373779,0.2214711606502533,0.1811306476593017,0.0,0.0,0.9167542457580566,0.2731356620788574
0.0372137054800987,0.1964967846870422,0.2327567785978317,-0.5609838962554932,0.2306288778781891,0.1831545531749725,0.0,0.0,0.9688539505004884,-0.0118811726570129
0.0396291725337505,0.1837785989046096,0.2329406291246414,-0.5666194558143616,0.2393490672111511,0.174404427409172,0.0,0.0,0.9603997468948364,-0.4957187175750732
0.0419382080435752,0.1717234700918197,0.2226312607526779,-0.5371516346931458,0.2477604746818542,0.1682288497686386,0.0,0.0,0.974624514579773,-0.0486299991607666
0.044227410107851,0.1604162752628326,0.2204777300357818,-0.5039846301078796,0.2563521265983581,0.1718333065509796,0.0,0.0,0.90416157245636,-0.1105363965034484
0.0462787635624408,0.1497216373682022,0.1975768357515335,-0.4766591191291809,0.2640838623046875,0.1546349823474884,0.0,0.0,0.7248375415802002,-0.102629542350769
0.0482358932495117,0.1387694925069809,0.1890175640583038,-0.4879838228225708,0.2709298133850097,0.1369188725948333,0.0,0.0,0.8081611394882202,0.1561659574508667
0.0501300804316997,0.1283800452947616,0.1828020513057708,-0.4629971086978912,0.2777197062969208,0.1357980221509933,0.0,0.0,0.7857351303100586,-0.1043806076049804
0.0518744476139545,0.1181373000144958,0.168575257062912,-0.4563612043857574,0.2837435007095337,0.1204759627580642,0.0,0.0,0.7838163375854492,-0.2319846153259277
0.0534829124808311,0.1082178428769111,0.1555186212062835,-0.441911369562149,0.2892348766326904,0.1098275780677795,0.0,0.0,0.7738685607910156,-0.1359107494354248
0.0549907684326171,0.0986666083335876,0.1457562148571014,-0.4255056381225586,0.2944090664386749,0.1034841388463974,0.0,0.0,0.6960979700088501,0.644667387008667
0.0565918907523155,0.0893311575055122,0.1564034819602966,-0.4156609177589416,0.2982401847839355,0.0766222923994064,0.0,0.0,0.9505305290222168,-0.4692550897598266
0.0582262054085731,0.0798816308379173,0.1598471850156784,-0.4207200706005096,0.3019450008869171,0.074096068739891,0.0,0.0,0.9585528373718262,-0.5944939851760864
0.0599115379154682,0.0704370364546775,0.1637126505374908,-0.420769602060318,0.3069317638874054,0.0997352972626686,0.0,0.0,0.9431767463684082,-0.6845088005065918
0.0616446509957313,0.0613068677484989,0.1669494211673736,-0.4071414172649383,0.3135191202163696,0.1317472755908966,0.0,0.0,0.9891810417175292,-0.6533346772193909
0.063478372991085,0.0522033795714378,0.1755413711071014,-0.4063125848770141,0.3216596245765686,0.1628100723028183,0.0,0.0,0.9633309841156006,-0.1305619478225708
0.065147116780281,0.0436617955565452,0.1593276560306549,-0.3813197910785675,0.3295182883739471,0.1571733802556991,0.0,0.0,0.952549695968628,0.177455186843872
0.0666834861040115,0.0357049331068992,0.1461870968341827,-0.3553549349308014,0.3372970223426819,0.1555745303630828,0.0,0.0,0.9929499626159668,0.2425063848495483
0.0682462677359581,0.0294146873056888,0.1652047932147979,-0.2774562835693359,0.3281773030757904,-0.182107612490654,0.0,1.0,0.999976634979248,0.9225170612335204
0.0698167830705642,0.023966584354639,0.1847533881664276,-0.2361004501581192,0.299498587846756,-0.5734555125236511,0.0,1.0,0.9986755847930908,-0.8222299218177795
0.0709739699959755,0.0193833690136671,0.1590488255023956,-0.1954193115234375,0.2549983561038971,-0.8900313377380371,0.0,0.0,0.9973042011260986,-0.9655280113220216
0.0719491988420486,0.0161155089735984,0.1506253480911255,-0.1369339078664779,0.201081097126007,-1.0784318447113037,0.0,0.0,0.9801719188690186,-0.9431362748146056
0.0727901458740234,0.0132337426766753,0.1382592469453811,-0.1216477900743484,0.1466905325651168,-1.0879067182540894,0.0,0.0,0.94211745262146,-0.9897859692573548
0.073401354253292,0.0109934182837605,0.1127627715468406,-0.095302365720272,0.0952855944633483,-1.0281429290771484,0.0,0.0,0.2731952667236328,-0.9984546899795532
0.0740795135498046,0.0088896369561553,0.1179016008973121,-0.0910710990428924,0.0456845313310623,-0.9920626878738404,0.0,0.0,-0.4244222044944763,-0.9970459938049316
0.0747904777526855,0.0061140153557062,0.1193522363901138,-0.1225932016968727,-0.0019927346147596,-0.9535856246948242,0.0,0.0,0.9196226596832277,-0.9985108375549316
0.0754363089799881,0.0039756153710186,0.1112229377031326,-0.0957512110471725,-0.0480870716273784,-0.9219261407852172,0.0,0.0,0.2906464338302612,-0.9678745865821838
0.0761887580156326,0.0024812675546854,0.1011379808187484,-0.0674764961004257,-0.0736085847020149,-0.5103262662887573,1.0,0.0,0.5906901359558105,-0.8471748232841492
0.0769153609871864,0.0018602823838591,0.0776489004492759,-0.0278652142733335,-0.0785008743405342,-0.0977790579199791,1.0,0.0,-0.24008309841156,-0.8300818800926208
0.0776730552315712,0.0011529303155839,0.060757428407669,-0.0307299550622701,-0.0635938197374343,0.2982019782066345,1.0,0.0,-0.7454344034194946,-0.0886119604110717
0.0784999877214431,0.0001650547928875,0.0558920875191688,-0.0429933704435825,-0.0370649322867393,0.5306352376937866,1.0,0.0,-0.6947724223136902,0.0069389343261718
0.0793559998273849,-0.0013214611681178,0.0533799529075622,-0.0655891075730323,-0.0051830257289111,0.6376997232437134,1.0,0.0,-0.1330553889274597,0.0284684896469116
0.0800291076302528,-0.0027886296156793,0.0507141128182411,-0.0652469620108604,0.0112137403339147,0.3279516398906708,1.0,1.0,-0.4763041734695434,-0.125171959400177
0.0805992111563682,-0.0040415073744952,0.0508509948849678,-0.0557503029704093,0.017324237152934,0.1222482174634933,1.0,1.0,0.136417269706726,0.0162117481231689
0.0811010375618934,-0.0041497610509395,0.05062185972929,-0.0048131071962416,0.0169155672192573,-0.0081383921205997,1.0,1.0,-0.9160151481628418,-0.7282119989395142
0.0814207047224044,-0.0039135124534368,0.0347116030752658,0.0105229597538709,0.0142309628427028,-0.0536606200039386,1.0,1.0,-0.7933603525161743,-0.6880408525466919
0.0816462486982345,-0.0033226395025849,0.0238577872514724,0.0262804757803678,0.0129486285150051,-0.0256491992622613,1.0,1.0,-0.8430675268173218,-0.4712257981300354
0.0818849578499794,-0.0024314664769917,0.0240806899964809,0.039610568434,0.0127387018874287,-0.0041883951053023,1.0,1.0,-0.9375855922698976,-0.3999755978584289
0.0820486098527908,-0.0015854621306061,0.0228165574371814,0.0376417599618434,0.0063802357763051,-0.1271589249372482,1.0,1.0,-0.9727171063423156,-0.847748875617981
0.0821147933602333,-0.0008197093266062,0.0125073567032814,0.0340456925332546,0.0005864642444066,-0.1158671230077743,1.0,1.0,-0.9204198122024536,-0.6500437259674072
0.0821611434221267,-0.0007075571920722,0.0055136196315288,0.0049854875542223,-0.0002858946972992,-0.0174422226846218,1.0,1.0,-0.898301362991333,-0.1937743425369262
0.0821786895394325,-0.000711205007974,0.0017927074804902,-0.0001633163192309,-0.0003123326750937,-0.0005095390370115,1.0,1.0,-0.6795135736465454,0.1578210592269897
0.0821716338396072,-0.0007120633381418,-0.0007125257980078,-3.776797166210599e-05,-0.0003015676338691,0.0002134700480382,1.0,1.0,-0.8931392431259155,0.08046555519104
0.0821613296866417,-0.0007119918009266,-0.0010491926223039,3.196952604866965e-07,-0.0002858734515029,0.0003082153270952,1.0,1.0,-0.7302362322807312,0.0240088701248168
0.0821568518877029,-0.0007119918009266,-0.0004519417416304,1.348654592447929e-07,-0.0002791828010231,0.0001327590580331,1.0,1.0,-0.8152097463607788,0.2002465724945068
0.0821573287248611,-0.0007119918009266,4.732512388727628e-05,1.2894633805160538e-08,-0.0002799873182084,-1.3906361346016638e-05,1.0,1.0,-0.7841039299964905,-0.0432045459747314
0.0821591392159462,-0.0007119918009266,0.0001781864266376,5.6590881314377845e-08,-0.0002827674325089,-5.233646515989676e-05,1.0,1.0,-0.7241475582122803,0.2133666276931762
