x_pos,y_pos,x_vel,y_vel,angle,ang_vel,leg_1,leg_2,main_booster,lat_booster
-0.0014738083118572,1.4030096530914309,-0.1494686007499694,-0.3515825569629669,0.0018600883195176,0.0366995520889759,0.0,0.0,-0.1428576707839965,0.688109278678894
-0.0028392791282385,1.3945039510726929,-0.1370085775852203,-0.3780271112918854,0.0023156967945396,0.0091137494891881,0.0,0.0,-0.4928120970726013,0.7732703685760498
-0.0040807723999023,1.3853775262832642,-0.1228451356291771,-0.4056179821491241,0.0010230666957795,-0.025854904204607,0.0,0.0,-0.0254717469215393,0.0736360549926757
-0.0052728652954101,1.375636100769043,-0.1180135980248451,-0.4329534769058227,-0.0001503750681877,-0.0234712623059749,0.0,0.0,-0.1702644824981689,0.7616012096405029
-0.0063428878784179,1.3652820587158203,-0.1040932908654213,-0.4601805806159973,-0.0030350214801728,-0.0576984472572803,0.0,0.0,-0.1125882863998413,0.651974081993103
-0.0073011396452784,1.3543121814727783,-0.0914243012666702,-0.487570971250534,-0.0073849386535584,-0.0870061069726944,0.0,0.0,0.3368933200836181,-0.4672340154647827
-0.0082256319001317,1.3434284925460815,-0.088081456720829,-0.4837435781955719,-0.0117047000676393,-0.0864033848047256,0.0,0.0,0.339447021484375,-0.4485622644424438
-0.0089747430756688,1.332714557647705,-0.071243405342102,-0.4762071967124939,-0.0153311174362897,-0.0725347697734832,0.0,0.0,-0.6339410543441772,-0.0229746103286743
-0.0096761705353856,1.3213857412338257,-0.066601350903511,-0.5035437345504761,-0.0188424438238143,-0.0702327713370323,0.0,0.0,-0.8602926731109619,-0.8923885226249695
-0.0104009630158543,1.309449553489685,-0.0708330795168876,-0.5305154323577881,-0.0204680506139993,-0.0325148962438106,0.0,0.0,-0.2963283061981201,-0.857035219669342
-0.0111371995881199,1.2969008684158323,-0.0735647678375244,-0.5577217936515808,-0.02052485011518,-0.001136185368523,0.0,0.0,-0.0674833059310913,-0.7930691242218018
-0.0118828769773244,1.2837371826171875,-0.0760257318615913,-0.5850321650505066,-0.0190815366804599,0.0288689788430929,0.0,0.0,-0.2381818890571594,-0.7502303719520569
-0.0126297948881983,1.2699637413024902,-0.0774440318346023,-0.6121202707290649,-0.0163604095578193,0.0544275715947151,0.0,0.0,-0.3110096454620361,-0.6992116570472717
-0.0133812902495265,1.2555700540542605,-0.0792550891637802,-0.6396772265434265,-0.0123013984411954,0.0811877697706222,0.0,0.0,-0.052310824394226,-0.111448585987091
-0.0140892025083303,1.240561604499817,-0.0750104337930679,-0.6670102477073669,-0.0081331469118595,0.0833727642893791,0.0,0.0,-0.2996819019317627,0.0174460411071777
-0.0147543903440237,1.2249385118484497,-0.070842258632183,-0.6943436861038208,-0.0038560980465263,0.085548847913742,0.0,0.0,-0.4707198739051819,0.0361523628234863
-0.0153776165097951,1.2087006568908691,-0.0667544975876808,-0.7216774821281433,0.0005284647340886,0.0876991376280784,0.0,0.0,-0.4230897426605224,-0.0065932869911193
-0.0159597396850585,1.1918480396270752,-0.0627506077289581,-0.7490113973617554,0.0050193946808576,0.0898264870047569,0.0,0.0,-0.5266698598861694,0.188896894454956
-0.0165016166865825,1.1743807792663574,-0.0588340759277343,-0.776345431804657,0.0096154538914561,0.091929480433464,0.0,0.0,-0.0218113660812377,0.0793154239654541
-0.017004108056426,1.1562988758087158,-0.0550082437694072,-0.8036797046661377,0.0143153360113501,0.0940061956644058,0.0,0.0,0.0073972940444946,0.5234984159469604
-0.0173470489680767,1.138296365737915,-0.0382341817021369,-0.8001522421836853,0.0182201974093914,0.0781043395400047,0.0,0.0,0.5191147327423096,0.4901992082595825
-0.0176491737365722,1.1202894449234009,-0.034310046583414,-0.8003616333007812,0.0222764071077108,0.0811310559511184,0.0,0.0,-0.2817531228065491,0.4377244710922241
-0.0179149620234966,1.1016677618026731,-0.0307725127786397,-0.8276978731155396,0.0264317821711301,0.083114705979824,0.0,0.0,0.08711838722229,0.7294952869415283
-0.0180401802062988,1.082735538482666,-0.0154099985957145,-0.8414813876152039,0.0292802359908819,0.0569742210209369,0.0,0.0,0.2122857570648193,0.4954102039337158
-0.0182491298764944,1.0638920068740845,-0.0233871452510356,-0.8375418186187744,0.0317417308688163,0.0492345727980136,0.0,0.0,0.5450206995010376,0.4568148851394653
-0.0185814853757619,1.0453927516937256,-0.035187117755413,-0.8222314119338989,0.0336665548384189,0.0384965166449546,0.0,0.0,0.5318293571472168,0.7464368343353271
-0.018841553479433,1.0272961854934692,-0.0265460424125194,-0.8043023943901062,0.0342049524188041,0.0107675436884164,0.0,0.0,0.8424981832504272,0.3634160757064819
-0.0192476268857717,1.0099570751190186,-0.040560632944107,-0.7706269025802612,0.0341588109731674,-0.0009225123794749,0.0,0.0,0.3262438774108886,-0.3127578496932983
-0.0197497364133596,0.9929298758506776,-0.0497616790235042,-0.7567555904388428,0.0337152667343616,-0.0088708736002445,0.0,0.0,0.3322505950927734,-0.6635018587112427
-0.0203076358884573,0.9758710265159608,-0.0567231774330139,-0.7581901550292969,0.0346439182758331,0.0185729749500751,0.0,0.0,0.5490682125091553,0.4251439571380615
-0.0208478923887014,0.9593884348869324,-0.0551310889422893,-0.7325928807258606,0.035735122859478,0.021824000403285,0.0,0.0,0.3748865127563476,0.231214165687561
-0.0214395523071289,0.9428339600563048,-0.0600492469966411,-0.7357732653617859,0.0366049967706203,0.017397504299879,0.0,0.0,0.1115764379501342,0.285438060760498
-0.0220813751220703,0.9264700412750244,-0.064880721271038,-0.7273013591766357,0.0372925177216529,0.0137504953891038,0.0,0.0,-0.6757791638374329,0.0983409881591796
-0.0226994510740041,0.9094913005828856,-0.0625677406787872,-0.7546321749687195,0.0380508564412593,0.0151666207239031,0.0,0.0,0.3070169687271118,0.3840296268463135
-0.0233008377254009,0.8926420211791992,-0.0610346309840679,-0.7488757967948914,0.0389353670179843,0.0176900289952754,0.0,0.0,0.1051018238067627,0.3935171365737915
-0.0238883979618549,0.8759369254112244,-0.0597699284553527,-0.7424745559692383,0.0399383567273616,0.0200599245727062,0.0,0.0,-0.3952851891517639,0.1253083944320678
-0.0244557373225688,0.8586170077323914,-0.0578155033290386,-0.7698053121566772,0.0409989170730114,0.0212113391607999,0.0,0.0,0.558608889579773,0.8993140459060669
-0.0249223709106445,0.841772198677063,-0.0460333637893199,-0.7486419677734375,0.0403748303651809,-0.0124817211180925,0.0,0.0,0.1364483833312988,0.6345541477203369
-0.0253750793635845,0.8251894116401672,-0.0433662198483943,-0.7369622588157654,0.038491852581501,-0.0376591645181179,0.0,0.0,-0.132140040397644,-0.0834408998489379
-0.0258114822208881,0.8079918026924133,-0.041766919195652,-0.7642933130264282,0.0366507433354854,-0.0368225499987602,0.0,0.0,0.6260898113250732,-0.3824453949928283
-0.0263656619936227,0.7913221716880798,-0.0530996620655059,-0.7408133149147034,0.0343595035374164,-0.045824758708477,0.0,0.0,0.0908141136169433,0.3286259174346924
-0.0268363002687692,0.7745601534843445,-0.045155506581068,-0.744937539100647,0.03247532248497,-0.037683367729187,0.0,0.0,0.0859177112579345,-0.6749750375747681
-0.0272815711796283,0.757485568523407,-0.0440877750515937,-0.7588549256324768,0.032037366181612,-0.0087592098861932,0.0,0.0,0.1577732563018798,0.8804222345352173
-0.0275764465332031,0.7403571009635925,-0.0273192264139652,-0.7612228393554688,0.0298991631716489,-0.0427642948925495,0.0,0.0,-0.2472915053367614,0.0933992862701416
-0.0278608314692974,0.7226137518882751,-0.0262852162122726,,0.0277722384780645,-0.042538583278656,0.0,0.0,0.0826561450958252,-0.4062559604644775
-0.0281119346618652,0.7045850157737732,-0.0230969693511724,-0.801239013671875,0.0257893484085798,-0.0396578162908554,0.0,0.0,0.6962413787841797,-0.0190815925598144
-0.0283040050417184,0.6866319179534912,-0.0174878034740686,-0.7978894710540771,0.0240943934768438,-0.0338991694152355,0.0,0.0,0.0401763916015625,0.5465831756591797
-0.0285371784120798,0.6688556671142578,-0.0203679036349058,-0.7900106310844421,0.0211790148168802,-0.0583076849579811,0.0,0.0,-0.5881373286247253,-0.0059658288955688
-0.0287643428891897,0.6504644751548767,-0.0197444260120391,-0.8173418641090393,0.0182487964630126,-0.0586043298244476,0.0,0.0,0.6738976240158081,-0.3334688544273376
-0.0290172584354877,0.6322308778762817,-0.022197900339961,-0.8103479743003845,0.0151980519294738,-0.0610149800777435,0.0,0.0,0.2430131435394287,-0.3990062475204468
-0.0291646961122751,0.6140291690826416,-0.0121269328519701,-0.8089357614517212,0.0126188471913337,-0.0515840575098991,0.0,0.0,0.24232017993927,0.2123572826385498
-0.0293591506779193,0.596042811870575,-0.0166012439876794,-0.7993739247322083,0.0098054334521293,-0.0562685802578926,0.0,0.0,0.8495296239852905,0.4065968990325928
-0.0294339172542095,0.5781897902488708,-0.0051579349674284,-0.7934511303901672,0.0075181662105023,-0.0457456298172473,0.0,0.0,0.7857674360275269,0.1326470375061035
-0.0295104030519723,0.5610153079032898,-0.0052884682081639,-0.763301432132721,0.0052009718492627,-0.0463441908359527,0.0,0.0,0.5127120018005371,2.1219253540039062e-05
-0.0294520370662212,0.5438966155052185,0.0075942603871226,-0.7608259916305542,0.0034632831811904,-0.0347537770867347,0.0,0.0,0.4224371910095215,0.1234687566757202
-0.0294775012880563,0.5267711281776428,-0.0003475010453257,-0.7611291408538818,0.0012880021240562,-0.043505523353815,0.0,0.0,0.3784403800964355,0.106088638305664
-0.0294262878596782,0.5100283026695251,0.0070176236331462,-0.7441230416297913,-0.0005866868887096,-0.0374936982989311,0.0,0.0,0.3556303977966308,-0.2415900230407714
-0.0292631145566701,0.4935006499290466,0.0177549831569194,-0.7345646619796753,-0.0020048066508024,-0.0283623877912759,0.0,0.0,0.3010144233703613,-0.1419613361358642
-0.0290419571101665,0.4773304462432861,0.0233479011803865,-0.7186793088912964,-0.0032227609772235,-0.0243591908365488,0.0,0.0,0.5197269916534424,-0.1124628782272338
-0.0288912765681743,0.4616297781467438,0.0167058743536472,-0.6978083848953247,-0.0048413090407848,-0.0323710441589355,0.0,0.0,0.598975419998169,0.1947100162506103
-0.028692627325654,0.4458515346050262,0.0213557593524456,-0.701261579990387,-0.0063114492222666,-0.0294028464704751,0.0,0.0,0.9140318632125854,0.1069638729095459
-0.0286087989807128,0.4306783676147461,0.0105093820020556,-0.6743723154067993,-0.0084038246423006,-0.0418473668396472,0.0,0.0,0.603430986404419,0.1734857559204101
-0.0284049026668071,0.4156416952610016,0.0220314450562,-0.6683065891265869,-0.0100303143262863,-0.0325296595692634,0.0,0.0,0.7791497707366943,-0.1709174513816833
-0.0281736366450786,0.4009798169136047,0.0247564706951379,-0.65165114402771,-0.0116315660998225,-0.0320250503718853,0.0,0.0,-0.0818895101547241,-0.6963832378387451
-0.0280014984309673,0.3856987953186035,0.0175440572202205,-0.6791581511497498,-0.0119617395102977,-0.0066031916067004,0.0,0.0,0.9732402563095092,-0.0538392663002014
-0.0279738418757915,0.3708643317222595,0.0038944096304476,-0.6593202948570251,-0.0130745414644479,-0.0222560036927461,0.0,0.0,0.9486404657363892,0.2340508699417114
-0.0279128067195415,0.3569283485412597,0.0072107217274606,-0.6193848252296448,-0.014171864837408,-0.0219464376568794,0.0,0.0,0.8873379230499268,-0.3110783100128174
-0.0277586933225393,0.3428765833377838,0.0161926783621311,-0.6245304942131042,-0.0149397971108555,-0.0153587982058525,0.0,0.0,0.904900312423706,-0.2259004116058349
-0.0275641437619924,0.3296855688095093,0.0202034320682287,-0.5862788558006287,-0.015670595690608,-0.0146159995347261,0.0,0.0,0.6944699287414551,-0.3636486530303955
-0.0274637229740619,0.3166098892688751,0.0113359373062849,-0.5811517834663391,-0.0169573668390512,-0.0257353447377681,0.0,0.0,0.7922651767730713,-0.0362324714660644
-0.0274559017270803,0.3040236234664917,0.0026669618673622,-0.5594121217727661,-0.0188167132437229,-0.0371868647634983,0.0,0.0,0.8744802474975586,0.2936270236968994
-0.0274050720036029,0.2918804883956909,0.0069141359999775,-0.5397192239761353,-0.0206285789608955,-0.0362373627722263,0.0,0.0,0.8723258972167969,-0.4932466745376587
-0.0274855606257915,0.2805623710155487,-0.0054109785705804,-0.5030664801597595,-0.0232318025082349,-0.0520644001662731,0.0,0.0,0.0833377838134765,-0.443812608718872
-0.0275138858705759,0.2691955864429474,-0.0003041932068299,-0.5052317380905151,-0.0257301051169633,-0.0499660372734069,0.0,0.0,0.6302862167358398,-0.261278748512268
-0.0275700576603412,0.2577939927577972,-0.0028142288792878,-0.5067892670631409,-0.0285021178424358,-0.0554401949048042,0.0,0.0,0.6056532859802246,-0.5030343532562256
-0.0275908466428518,0.2462445348501205,-0.0003521583857946,-0.5133398771286011,-0.0302029941231012,-0.0340176746249198,0.0,0.0,0.8250775337219238,-0.7036087512969971
-0.0276976581662893,0.2346397191286087,-0.0101618887856602,-0.5157818794250488,-0.0307164676487445,-0.0102694723755121,0.0,0.0,0.9646426439285278,-0.4939961433410644
-0.0277887340635061,0.2238345742225647,-0.0084150144830346,-0.4802410900592804,-0.0314008295536041,-0.0136871058493852,0.0,0.0,0.7070422172546387,0.1315361261367797
-0.0277734752744436,0.2136744409799575,0.0019623604603111,-0.4515724182128906,-0.0318290181457996,-0.0085639562457799,0.0,0.0,0.0513577461242675,-0.5626169443130493
-0.0278678890317678,0.2036907523870468,-0.0098855765536427,-0.4437099397182464,-0.0313872434198856,0.008835332468152,0.0,0.0,0.2975748777389526,0.0271997451782226
-0.0280570983886718,0.1934869885444641,-0.018772792071104,-0.45350381731987,-0.0315448939800262,-0.003152709454298,0.0,0.0,0.20654296875,-0.1871594786643982
-0.0281996726989746,0.1835324913263321,-0.0140947271138429,-0.4424265623092651,-0.0316969938576221,-0.0030418219976127,0.0,0.0,0.3437588214874267,-0.6605187058448792
-0.0284707061946392,0.173671618103981,-0.0279928334057331,-0.4382418990135193,-0.0308275986462831,0.0173879973590374,0.0,0.0,0.2979178428649902,0.6370739936828613
-0.0287219043821096,0.1639967709779739,-0.0244897026568651,-0.4300049245357513,-0.0314424075186252,-0.0122960535809397,0.0,0.0,0.6019139289855957,-0.1942775249481201
-0.0289616584777832,0.1547241955995559,-0.0231619924306869,-0.4121341705322265,-0.0322455987334251,-0.0160639211535453,0.0,0.0,-0.202761709690094,-0.3922469615936279
-0.0291988365352153,0.1448366492986679,-0.0227687768638134,-0.4394651055335998,-0.03318477794528,-0.0187832806259393,0.0,0.0,0.423382043838501,0.6130728721618652
-0.0293519012629985,0.1347669214010238,-0.0130406189709901,-0.4475976526737213,-0.0354349426925182,-0.0450031422078609,0.0,0.0,0.7896244525909424,-0.6640490889549255
-0.0294292457401752,0.1247283071279525,-0.0069101713597774,-0.4461810290813446,-0.0362419411540031,-0.0161401461809873,0.0,0.0,0.9502545595169068,-0.6022645235061646
-0.0293388366699218,0.1150776445865631,0.0082687903195619,-0.428900271654129,-0.0354799926280975,0.0152391195297241,0.0,0.0,0.9017940759658812,-0.1436987519264221
-0.0290651321411132,0.1054841354489326,0.025988470762968,-0.426346093416214,-0.0341166332364082,0.0272669307887554,0.0,0.0,0.9329352378845216,-0.7806031107902527
-0.0288223270326852,0.0966027379035949,0.021493449807167,-0.3946698009967804,-0.0313581228256225,0.0551704168319702,0.0,0.0,0.8354721069335938,-0.6322360038757324
-0.0285567287355661,0.0883754342794418,0.0225372221320867,-0.365578144788742,-0.0273905135691165,0.0793523341417312,0.0,0.0,0.78377366065979,-0.3594087362289428
-0.0281265266239643,0.0806078985333442,0.038517914712429,-0.3451476693153381,-0.0229453686624765,0.0889029651880264,0.0,0.0,0.6107741594314575,-0.5984014868736267
-0.027618408203125,0.0726948082447052,0.0449908822774887,-0.3516154885292053,-0.0172007568180561,0.1148924604058265,0.0,0.0,0.7353947162628174,-0.5384612679481506
-0.0271894447505474,0.0649706199765205,0.0363018885254859,-0.3432356417179107,-0.0106941321864724,0.130132645368576,0.0,0.0,0.9057384729385376,0.5683679580688477
-0.0265862457454204,0.0581291280686855,0.0547190383076667,-0.3040357828140259,-0.0051727658137679,0.1104274541139602,0.0,0.0,0.6188530921936035,-0.2558630704879761
-0.0259871482849121,0.0515097938477993,0.0545782521367073,-0.2941838800907135,9.38430821406655e-05,0.105332113802433,0.0,0.0,0.7141412496566772,0.1097263097763061
-0.0254997257143259,0.04551387950778,0.0441602431237697,-0.2664932608604431,0.0046129603870213,0.0903826877474784,0.0,0.0,0.2801891565322876,-0.4799764156341553
-0.0249284747987985,0.0397148691117763,0.0523831918835639,-0.2577566504478454,0.0092927375808358,0.0935955867171287,0.0,0.0,0.5007232427597046,0.2539300918579101
-0.024391746148467,0.0343226306140422,0.0493111088871955,-0.2396854013204574,0.0135950949043035,0.0860472172498703,0.0,0.0,0.3413276672363281,0.001537799835205
-0.023908520117402,0.0292261466383934,0.0444330498576164,-0.2265505343675613,0.0174332335591316,0.0767627358436584,0.0,0.0,0.2715344429016113,0.4660568237304687
-0.0234276764094829,0.0240891072899103,0.0444452837109565,-0.2283567637205124,0.0210282560437917,0.0719001740217208,0.0,0.0,0.4972333908081054,0.6633628606796265
-0.0229966156184673,0.0191532708704471,0.0411958172917366,-0.2193989306688308,0.0229147803038358,0.0377304814755916,0.0,0.0,0.613353967666626,0.5097219944000244
-0.0226672179996967,0.0143643477931618,0.0326398238539695,-0.2128480970859527,0.023204531520605,0.0057949884794652,0.0,0.0,0.7442406415939331,-0.4109210968017578
-0.022215461358428,0.0101019954308867,0.0445167496800422,-0.1894485056400299,0.0238538868725299,0.0129870418459177,0.0,0.0,0.6122889518737793,-0.3164718151092529
-0.0216827392578125,0.0057667586952447,0.052502118051052,-0.1926896870136261,0.0246215220540761,0.0153526440262794,0.0,0.0,0.6487185955047607,-0.1372079253196716
-0.0209925659000873,0.001963565358892,0.0677215829491615,-0.1690525412559509,0.0258990935981273,0.0255514327436685,0.0,0.0,0.2921813726425171,-0.8066902160644531
-0.0204667095094919,-0.0008304739021696,0.0691094174981117,-0.1239741668105125,0.0095861032605171,-0.3262580335140228,0.0,1.0,0.4471129179000854,0.2543836832046509
-0.0199179649353027,-0.0025907896924763,0.0855518132448196,-0.0783245339989662,-0.0207338575273752,-0.6064376831054688,1.0,1.0,0.4159958362579345,-0.9510802626609802
-0.0192872993648052,-0.0037401700392365,0.078202411532402,-0.0516828186810016,-0.034327320754528,-0.270141065120697,1.0,1.0,0.4830210208892822,-0.902704894542694
-0.0186393745243549,-0.003725399961695,0.0645927712321281,0.0006509267259389,-0.034098032861948,0.0046354001387953,1.0,1.0,-0.2771502733230591,-0.928808331489563
-0.018135642632842,-0.0033793235197663,0.0477250888943672,0.0154338935390114,-0.0314448177814483,0.0530973747372627,1.0,1.0,-0.6288028359413147,-0.9600479006767272
-0.0177752487361431,-0.0027797245420515,0.0314697958528995,0.0267355348914861,-0.0269292537122964,0.09033203125,1.0,1.0,-0.5411288142204285,-0.4645407795906067
-0.01745948754251,-0.0020672942046076,0.0261600222438573,0.0317512936890125,-0.0215682536363601,0.1072335988283157,1.0,1.0,-0.6610438227653503,0.0712655782699585
-0.0171567909419536,-0.001349821104668,0.0247544012963771,0.0319613255560398,-0.0161247570067644,0.108871042728424,1.0,1.0,-0.2346912622451782,0.2862813472747803
-0.0168609619140625,-0.0007078075432218,0.0246639866381883,0.0285739563405513,-0.0112628377974033,0.0972510948777198,1.0,1.0,-0.1292004585266113,0.1774371862411499
-0.0165873523801565,-0.0001848125393735,0.0233432073146104,0.0232648830860853,-0.0072881076484918,0.0795146226882934,1.0,1.0,-0.2501566410064697,0.0989282131195068
-0.016363238915801,-0.0001818799937609,0.022420696914196,0.0001279880671063,-0.0072868834249675,3.3530290238559246e-05,1.0,1.0,-0.6954770684242249,-0.3331915140151977
-0.0161965377628803,-0.0001852417044574,0.0166840683668851,-0.0001525441621197,-0.0072893416509032,-3.993185237050057e-05,1.0,1.0,-0.4564347267150879,-0.36109459400177
-0.0160881038755178,-0.0001853132271207,0.0108543187379837,-2.918793825301691e-06,-0.007289710920304,-7.454538604179106e-07,1.0,1.0,-0.5942078828811646,-0.1387166380882263
-0.0160375591367483,-0.0001853132271207,0.0050557982176542,9.907307685352862e-07,-0.0072899842634797,2.73180205567769e-07,1.0,1.0,-0.7327370643615723,0.0724601745605468
