x_pos,y_pos,x_vel,y_vel,angle,ang_vel,leg_1,leg_2,main_booster,lat_booster
-0.0016028403770178,1.4033856391906738,-0.1617778837680816,-0.3348658382892608,0.0013336115516722,0.026275074109435,0.0,0.0,0.0731442646247859,-0.6010553359362962
-0.0032955170609056,1.3960819244384766,-0.1713317781686782,-0.324610561132431,0.0033839952666312,0.0410126261413097,0.0,0.0,-0.2146393416510927,-0.7083478157315592
-0.0051110265776515,1.388533592224121,-0.1842351704835891,-0.3354941010475158,0.0060209142975509,0.0527430772781372,0.0,0.0,0.3319942847215742,-0.9404197123993074
-0.0071934699080884,1.3813457489013672,-0.2121772021055221,-0.3194747269153595,0.0099143581464886,0.0778763219714164,0.0,0.0,-0.3087068257492509,-0.7611997390027754
-0.0094026569277048,1.373921036720276,-0.2255301028490066,-0.3300286829471588,0.0144760822877287,0.0912428051233291,0.0,0.0,-0.643187945251271,-0.8257262262680243
-0.0117416381835937,1.366255283355713,-0.2392590045928955,-0.3407570421695709,0.0197793878614902,0.1060757040977478,0.0,0.0,-0.4663795460639919,0.7286749970552518
-0.014104938134551,1.3583526611328125,-0.2397545576095581,-0.3512822985649109,0.023167785257101,0.0677741840481758,0.0,0.0,0.7366911336610578,0.6982315333523981
-0.0163376815617084,1.351240634918213,-0.2251790314912796,-0.3161169290542602,0.0250503905117511,0.0376552157104015,0.0,0.0,-0.5836103108046129,-0.6706040515786937
-0.0187034606933593,1.3438948392868042,-0.2393183261156082,-0.3265292048454284,0.0277534872293472,0.0540671236813068,0.0,0.0,0.6147853529480052,0.6859434079410562
-0.0211149211972951,1.33738112449646,-0.2419555187225341,-0.2895131111145019,0.0285571869462728,0.0160754583775997,0.0,0.0,-0.3227706518098054,0.6819457930298578
-0.023543644696474,1.3306312561035156,-0.2415795773267746,-0.2999680340290069,0.0272769629955291,-0.0256064645946025,0.0,0.0,-0.1294928137963362,0.9071435230237194
-0.0259709358215332,1.3236441612243652,-0.2388526499271392,-0.3104792535305023,0.0234456676989793,-0.0766332745552063,0.0,0.0,0.7970772392797143,-0.7567115175841503
-0.0283991806209087,1.317566156387329,-0.2402726113796234,-0.2700942456722259,0.0209161415696144,-0.0505949482321739,0.0,0.0,-0.8993082651882567,-0.6232056194205431
-0.0309488289058208,1.311241865158081,-0.2529573142528534,-0.281052678823471,0.0189331956207752,-0.0396622344851493,0.0,0.0,-0.498078377059445,0.6949082657763553
-0.0335083976387977,1.3046878576278689,-0.2516851127147674,-0.2912365794181824,0.0147001817822456,-0.0846682488918304,0.0,0.0,0.7258728986768848,-0.6399976085601157
-0.036076545715332,1.2983551025390625,-0.2535722553730011,-0.28143110871315,0.0114962356165051,-0.0640844851732254,0.0,0.0,-0.2829962742852223,0.7180804314045302
-0.0386519432067871,1.2917931079864502,-0.2519716620445251,-0.291611760854721,0.005988753400743,-0.1101595982909202,0.0,0.0,-0.3488446833691268,-0.9659509824433294
-0.0413619987666606,1.2849838733673096,-0.2663569748401642,-0.3026218116283417,0.0013951486907899,-0.0918804854154586,0.0,0.0,-0.5837194658924916,0.5586808942299092
-0.0440967567265033,1.2779415845870972,-0.2669718861579895,-0.3129984736442566,-0.0050399717874825,-0.1287139952182769,0.0,0.0,0.5536547662098632,0.7181232626919382
-0.0469310767948627,1.2714593410491943,-0.274753987789154,-0.2881471514701843,-0.013616619631648,-0.171548306941986,0.0,0.0,0.6093912647504787,-0.932507015637505
-0.0497640594840049,1.2658430337905884,-0.2761292159557342,-0.24968983232975,-0.0207048319280147,-0.1417770981788635,0.0,0.0,0.5255285012691628,-0.9379436027702758
-0.0527250282466411,1.2605979442596436,-0.2902655899524688,-0.2332089096307754,-0.02646966278553,-0.1153071746230125,0.0,0.0,-0.3366275002347063,0.7761863785344134
-0.0556853301823139,1.2551106214523315,-0.287745326757431,-0.2440422624349594,-0.0346626117825508,-0.1638735830783844,0.0,0.0,0.427776560776238,-0.6957254887191786
-0.0586979873478412,1.249781608581543,-0.2939421534538269,-0.2370248287916183,-0.0419036634266376,-0.1448338031768798,0.0,0.0,0.1534141160121622,0.6700753944398729
-0.0618229880928993,1.2448939085006714,-0.3031238615512848,-0.2175180464982986,-0.0511746332049369,-0.185436338186264,0.0,0.0,-0.3735991190935586,0.9042209728864584
-0.0649662017822265,1.2397483587265017,-0.3030133843421936,-0.2291169166564941,-0.062358234077692,-0.2236717641353607,0.0,0.0,0.6197569597636956,0.932120803450732
-0.0680582076311111,1.2354313135147097,-0.2954797446727752,-0.1924989223480224,-0.0759407430887222,-0.2716502845287323,0.0,0.0,0.3951368492585321,0.8540102334292857
-0.0712246894836425,1.2319364547729492,-0.3005188703536987,,-0.0919124409556388,-0.3194340765476227,0.0,0.0,0.6888947981561095,0.7788078165243659
-0.0744722336530685,1.2294085025787354,-0.3062629699707031,-0.1135968491435051,-0.1102631241083145,-0.3670138418674469,0.0,0.0,-0.8108919445558638,-0.989950284238807
-0.0778692215681076,1.226656198501587,-0.3227394223213196,-0.1236621141433715,-0.1271184235811233,-0.3371060490608215,0.0,0.0,-0.186971346016409,-0.627239545051721
-0.0813808441162109,1.22368586063385,-0.3349104225635528,-0.1334832459688186,-0.1433023363351822,-0.3236778080463409,0.0,0.0,-0.8839606642723083,-0.9531058073043824
-0.0850437134504318,1.2204935550689695,-0.3516857028007507,-0.1433523148298263,-0.1578812152147293,-0.2915772795677185,0.0,0.0,-0.8718401789665222,-0.4058011770248413
-0.088772103190422,1.2170662879943848,-0.3577241897583008,-0.1539907306432724,-0.1730019897222519,-0.3024153113365173,0.0,0.0,-0.9051702618598938,-0.8510984182357788
-0.0926388725638389,1.2134158611297607,-0.3729473948478699,-0.1638969928026199,-0.1867809891700744,-0.2755801975727081,0.0,0.0,-0.8834178447723389,-0.6233462691307068
-0.096615694463253,1.2095451354980469,-0.3846586942672729,-0.1737322062253952,-0.1998795121908188,-0.2619702219963074,0.0,0.0,-0.6208894848823547,-0.8830822110176086
-0.1007196456193924,1.2054654359817505,-0.3985914289951324,-0.1829546242952346,-0.2117874324321746,-0.2381583154201507,0.0,0.0,-0.7984654307365417,-0.8207205533981323
-0.1049509048461914,1.2011675834655762,-0.4125177264213562,-0.1925797909498214,-0.2225073724985122,-0.2143991738557815,0.0,0.0,-0.7785258889198303,-0.9015114903450012
-0.1093051880598068,1.196662425994873,-0.4260095953941345,-0.2016776651144027,-0.232049822807312,-0.1908489614725113,0.0,0.0,-0.1162472963333129,-0.9441798329353333
-0.1137926131486892,1.1919586658477783,-0.4408387541770935,-0.2103232741355896,-0.2400811463594436,-0.1606258302927017,0.0,0.0,0.1486680507659912,-0.4855566024780273
-0.1182167083024978,1.1876275539398191,-0.4340814054012298,-0.1938824206590652,-0.2485433667898178,-0.1692447960376739,0.0,0.0,-0.0117905735969543,-0.7918483018875122
-0.1227653473615646,1.183093547821045,-0.4479010701179504,-0.2027063518762588,-0.2556343376636505,-0.1418197154998779,0.0,0.0,-0.5560488104820251,-0.6053370237350464
-0.1274036467075348,1.1783360242843628,-0.4573345184326172,-0.2125879973173141,-0.262267142534256,-0.1326558589935302,0.0,0.0,0.0536272525787353,-0.2402034401893615
-0.1319812834262848,1.1736078262329102,-0.4510555863380432,-0.2113595455884933,-0.2691226601600647,-0.1371103227138519,0.0,0.0,0.2872028350830078,0.4695006608963012
-0.1364237815141677,1.1692079305648804,-0.4374260902404785,-0.1968264877796173,-0.2761249840259552,-0.1400462239980697,0.0,0.0,0.3759862184524536,-0.364717960357666
-0.1408792436122894,1.1649396419525146,-0.4380854666233063,-0.1911373287439346,-0.283783495426178,-0.1531704068183899,0.0,0.0,0.0765994787216186,-0.5366666913032532
-0.1453286111354828,1.1607470512390137,-0.4381268918514251,-0.1876785606145858,-0.2907970249652862,-0.1402706950902938,0.0,0.0,0.347877025604248,-0.028186023235321
-0.1496689766645431,1.1568207740783691,-0.4269759058952331,-0.175929382443428,-0.2980691492557525,-0.1454423069953918,0.0,0.0,0.4105257987976074,0.3962749242782593
-0.1539327651262283,1.1537210941314695,-0.4184533655643463,-0.1394051015377044,-0.3062680959701538,-0.1639792472124099,0.0,0.0,0.3558820486068725,-0.2539544105529785
-0.1581440865993499,1.1513599157333374,-0.4122753143310547,-0.106836050748825,-0.3154475092887878,-0.1835882663726806,0.0,0.0,0.3931711912155151,-0.0725957751274108
-0.1622757017612457,1.1493830680847168,-0.4037986695766449,-0.0899341031908989,-0.325179785490036,-0.1946460753679275,0.0,0.0,0.0663331747055053,-0.5283017158508301
-0.1662659645080566,1.1476649045944214,-0.3904458284378052,-0.078318104147911,-0.3341257572174072,-0.1789192259311676,0.0,0.0,-0.108380913734436,-0.1888973712921142
-0.1702879965305328,1.1457109451293943,-0.3932126462459564,-0.0889506340026855,-0.3435283303260803,-0.1880516558885574,0.0,0.0,-0.1695841550827026,-0.5177595615386963
-0.1743714362382888,1.143535614013672,-0.3997797966003418,-0.098759226500988,-0.3525155484676361,-0.1797445118427276,0.0,0.0,0.6277682781219482,-0.5551931262016296
-0.1782469749450683,1.142256259918213,-0.3796992897987366,-0.0588117279112339,-0.3607910275459289,-0.16550974547863,0.0,0.0,0.161029577255249,-0.3246349096298218
-0.1819281578063964,1.14116632938385,-0.3603351712226867,-0.0504208207130432,-0.3690158426761627,-0.1644961833953857,0.0,0.0,0.5198416709899902,-0.5133386254310608
-0.1856012344360351,1.1405175924301147,-0.3599149882793426,-0.0307592954486608,-0.3768519759178161,-0.1567224860191345,0.0,0.0,0.1551066637039184,0.1041914224624633
-0.1890277862548828,1.1403738260269165,-0.335178941488266,-0.0083866324275732,-0.3848008513450622,-0.1589779108762741,0.0,0.0,0.1149780750274658,-0.2566627264022827
-0.1922143995761871,1.1405744552612305,-0.3112234771251678,0.0068852128461003,-0.3927268981933594,-0.1585209220647812,0.0,0.0,0.1975734233856201,-0.1381223201751709
-0.1951372176408767,1.141334891319275,-0.2847346663475036,0.0316942408680915,-0.4008012413978576,-0.1614866554737091,0.0,0.0,0.4371520280838012,-0.5636730790138245
-0.1979110687971115,1.1428757905960083,-0.270448625087738,0.0665056109428405,-0.40825155377388,-0.1490059643983841,0.0,0.0,0.1097629070281982,-0.532329797744751
-0.2006008625030517,1.1445209980010986,-0.2627816796302795,0.0713200867176055,-0.4149195849895477,-0.1333608031272888,0.0,0.0,0.1613576412200927,-0.367050290107727
-0.2031637132167816,1.1466494798660278,-0.2494721114635467,0.0925774648785591,-0.4222833514213562,-0.1472750604152679,0.0,0.0,-0.3048609495162964,-0.2797257900238037
-0.2057315856218338,1.148541808128357,-0.2496634274721145,0.0819473043084144,-0.4300065338611603,-0.1544634997844696,0.0,0.0,0.0591087341308593,-0.4519340395927429
-0.2081245481967926,1.1507242918014526,-0.2319392263889312,0.0947270914912223,-0.4380087554454803,-0.1600446552038192,0.0,0.0,0.0628974437713623,-0.3325127363204956
-0.2104038298130035,1.1530178785324097,-0.2203114032745361,0.0995301753282547,-0.4463259577751159,-0.16634401679039,0.0,0.0,-0.0564699172973632,-0.588977038860321
-0.2127311676740646,1.1551114320755005,-0.2261981219053268,0.0909442082047462,-0.4534884691238403,-0.1432504951953888,0.0,0.0,0.0658950805664062,-0.456678032875061
-0.2147999703884124,1.1577041149139404,-0.200136587023735,0.1130173504352569,-0.4609031975269317,-0.1482942998409271,0.0,0.0,-0.1317466497421264,-0.4442678689956665
-0.2168623507022857,1.1600602865219116,-0.199246346950531,0.102388210594654,-0.4686229228973388,-0.1543944776058197,0.0,0.0,-0.4095764756202698,-0.4392898082733154
-0.2189161777496338,1.1621803045272827,-0.1981557011604309,0.0917589738965034,-0.4766362905502319,-0.1602667570114135,0.0,0.0,-0.1051327586174011,-0.4908565282821655
-0.2209593802690506,1.1640639305114746,-0.1968706846237182,0.081129677593708,-0.4849317073822021,-0.1659087389707565,0.0,0.0,-0.1869502067565918,-0.542856752872467
-0.2230325639247894,1.1657474040985107,-0.2008313834667205,0.0725228711962699,-0.4921786487102508,-0.1449389606714248,0.0,0.0,0.1646045446395874,-0.5497214794158936
-0.2249003946781158,1.1677886247634888,-0.181161031126976,0.0886934846639633,-0.4984839558601379,-0.1261070072650909,0.0,0.0,-0.3888119459152221,-0.709794819355011
-0.2268083989620208,1.1696479320526123,-0.1866029500961303,0.0811084806919097,-0.5032073855400085,-0.09446881711483,0.0,0.0,-0.3434611558914184,-0.6090744137763977
-0.2287349700927734,1.1713005304336548,-0.1892602294683456,0.072193332016468,-0.5070374608039856,-0.0766016095876693,0.0,0.0,0.0079889297485351,-0.4843560457229614
-0.230543851852417,1.1730436086654663,-0.177223339676857,0.0761099159717559,-0.511186420917511,-0.0829791873693466,0.0,0.0,-0.0847336053848266,-0.3885295391082763
-0.2323313653469085,1.174549579620361,-0.1749051362276077,0.0654863119125366,-0.5155474543571472,-0.087220512330532,0.0,0.0,-0.317327618598938,-0.6976141929626465
-0.2341481745243072,1.1758545637130735,-0.1790198236703872,0.0569934695959091,-0.5185658931732178,-0.0603683106601238,0.0,0.0,-0.0774725079536438,-0.6461098194122314
-0.2359828948974609,1.1769652366638184,-0.1818789690732956,0.0487498454749584,-0.5203769207000732,-0.036220297217369,0.0,0.0,-0.0914519429206848,-0.6159600615501404
-0.2378257811069488,1.1778744459152222,-0.1835429519414901,0.0401268005371093,-0.5212244987487793,-0.0169511884450912,0.0,0.0,0.0702142715454101,-0.2939676642417907
-0.2394408285617828,1.1792888641357422,-0.1603172123432159,0.0624151825904846,-0.5225747227668762,-0.0270045660436153,0.0,0.0,0.0491498708724975,-0.4979393482208252
-0.2409934997558593,1.1808006763458252,-0.1536149531602859,0.0665515214204788,-0.5244603753089905,-0.037713598459959,0.0,0.0,0.0008577108383178,-0.3723481297492981
-0.2422554492950439,1.1826781034469604,-0.1245141625404357,0.0827878341078758,-0.5263775587081909,-0.0383438058197498,0.0,0.0,-0.3213655352592468,-0.5420235991477966
-0.2435291707515716,1.1843546628952026,-0.1267505139112472,0.0742759704589843,-0.5270854830741882,-0.0141589194536209,0.0,0.0,0.1109411716461181,-0.5615615248680115
-0.2446138858795166,1.1864500045776367,-0.1087353006005287,0.0932306200265884,-0.5267838835716248,0.0060314126312732,0.0,0.0,0.0987409353256225,-0.0146259069442749
-0.2454385757446289,1.1889164447784424,-0.0826026648283004,0.1096656173467636,-0.5266326069831848,0.0030258325859904,0.0,0.0,-0.4071902632713318,-0.3715013265609741
-0.2462292164564132,1.1911447048187256,-0.0791078880429267,0.0990475937724113,-0.5265849828720093,0.0009522690670564,0.0,0.0,-0.3141762018203735,-0.2596018314361572
-0.2469849586486816,1.1931346654891968,-0.0755307227373123,0.0884299799799919,-0.5266315340995789,-0.0009311105823144,0.0,0.0,-0.0313960909843444,-0.6126863360404968
-0.2477413713932037,1.1949131488800049,-0.0764833092689514,0.0793673545122146,-0.52567058801651,0.0192186795175075,0.0,0.0,-0.3536796569824219,-0.4567352533340454
-0.2484612464904785,1.196453332901001,-0.0727589502930641,0.0687504261732101,-0.5247858166694641,0.017695877701044,0.0,0.0,-0.3933958411216736,-0.3408901691436767
-0.2491437494754791,1.1977550983428955,-0.0689694210886955,0.0581338852643966,-0.5239686965942383,0.0163429826498031,0.0,0.0,-0.3134212493896484,-0.1867374181747436
-0.2497883290052414,1.198818564414978,-0.0651202052831649,0.0475176833570003,-0.5232110619544983,0.0151526778936386,0.0,0.0,-0.3397697210311889,-0.5502153635025024
-0.2504281103610992,1.199677586555481,-0.0655749291181564,0.0387920029461383,-0.5213922262191772,0.0363769009709358,0.0,0.0,0.2262804508209228,-0.2168002128601074
-0.2507019639015198,1.2008728981018066,-0.0293193943798542,0.0538724511861801,-0.5191901922225952,0.0440405011177063,0.0,0.0,-0.3196609616279602,-0.3801994323730469
-0.2509361803531647,1.2018299102783203,-0.0253229048103094,0.0432568900287151,-0.5170256495475769,0.0432914048433303,0.0,0.0,-0.1152619123458862,-0.2709723711013794
-0.2511301934719085,1.2025485038757324,-0.021287303417921,0.0326416157186031,-0.5148919820785522,0.0426731966435909,0.0,0.0,-0.6546801924705505,-0.4076157808303833
-0.2512837946414947,1.2030282020568848,-0.0172174330800771,0.0220266114920377,-0.5127831101417542,0.0421776361763477,0.0,0.0,-0.4325302243232727,-0.3313992619514465
-0.251396507024765,1.2032694816589355,-0.0131180239841341,0.0114118522033095,-0.5106933116912842,0.0417963787913322,0.0,0.0,-0.6176380515098572,-0.759009063243866
-0.2515280842781067,1.2033305168151855,-0.0167149417102336,0.0040345187298953,-0.5066702961921692,0.0804604291915893,0.0,0.0,-0.3809665441513061,-0.5319738984107971
-0.2516482770442962,1.2031811475753784,-0.0164417177438735,-0.0050121541135013,-0.5016908049583435,0.0995898842811584,0.0,0.0,-0.1813518404960632,-0.7198030948638916
-0.251778781414032,1.202842116355896,-0.0189500357955694,-0.0129254916682839,-0.4950540065765381,0.1327362060546875,0.0,0.0,-0.4756941199302673,-0.5979257822036743
-0.2519125938415527,1.2023065090179443,-0.0205957219004631,-0.0212324392050504,-0.4869782924652099,0.1615142226219177,0.0,0.0,-0.3727580308914184,-0.1274160742759704
-0.2520042955875397,1.2015328407287598,-0.0164196901023387,-0.031850803643465,-0.4788998067378998,0.1615701913833618,0.0,0.0,-0.2209038734436035,-0.4515809416770935
-0.252053827047348,1.2005209922790527,-0.0122404266148805,-0.042469073086977,-0.4708154797554016,0.1616867184638977,0.0,0.0,-0.4359592199325561,-0.4655420184135437
-0.2520612776279449,1.199271321296692,-0.0080620469525456,,-0.4627227187156677,0.161855086684227,0.0,0.0,-0.0149622559547424,-0.2697105407714844
-0.2520264983177185,1.1977834701538086,-0.003888591658324,-0.0637054294347763,-0.4546194076538086,0.1620664894580841,0.0,0.0,-0.6362299919128418,-0.6911342740058899
-0.251995176076889,1.1960841417312622,-0.0054443720728158,-0.0727583989500999,-0.4452151358127594,0.1880854070186615,0.0,0.0,0.194513201713562,-0.286008358001709
-0.2515895962715149,1.1948260068893433,0.0314842648804187,-0.0530599728226661,-0.4353122413158417,0.198058009147644,0.0,0.0,-0.5799141526222229,-0.4217705726623535
-0.2511420845985412,1.1933300495147705,0.0356176309287548,-0.0636805519461631,-0.4253950119018554,0.1983447968959808,0.0,0.0,-0.5546997785568237,-0.4192717671394348
-0.2506528794765472,1.1915966272354126,0.0397305712103843,-0.0743011757731437,-0.4154630303382873,0.1986394226551056,0.0,0.0,-0.6482705473899841,-0.6885799169540405
-0.2501654028892517,1.1896541118621826,0.0383520945906639,-0.0833110362291336,-0.4042690098285675,0.2238809615373611,0.0,0.0,-0.6158415079116821,-0.332126259803772
-0.2496367394924163,1.187474250793457,0.0424116775393486,-0.0939338430762291,-0.3930608034133911,0.2241648435592651,0.0,0.0,-0.7206586599349976,-0.1772141456604004
-0.2490671128034591,1.1850571632385254,0.0464397892355918,-0.1045567765831947,-0.381839245557785,0.2244309186935424,0.0,0.0,-0.7985817193984985,-0.5792351961135864
-0.2484941929578781,1.1824222803115845,0.0457341447472572,-0.1140603348612785,-0.3695749640464782,0.2452854216098785,0.0,0.0,-0.0526207089424133,-0.3397058844566345
-0.2478811293840408,1.1795505285263062,0.0496874824166297,-0.1246853917837143,-0.3573004603385925,0.2454903423786163,0.0,0.0,-0.5388852953910828,-0.5430023670196533
-0.247277170419693,1.1764676570892334,0.0474328249692916,-0.1338437348604202,-0.343667209148407,0.2726653218269348,0.0,0.0,-0.770643949508667,0.1425255537033081
-0.2466338127851486,1.1731486320495603,0.0512971468269825,-0.1444718539714813,-0.3300284147262573,0.2727761268615722,0.0,0.0,-0.723186731338501,-0.1291594505310058
-0.245951697230339,1.1695927381515503,0.0551126785576343,-0.1551001518964767,-0.3163869976997375,0.272828608751297,0.0,0.0,-0.6951563358306885,-0.1290928125381469
-0.245231345295906,1.1658005714416504,0.0588761046528816,-0.1657286137342453,-0.3027462363243103,0.2728150188922882,0.0,0.0,-0.8610689043998718,0.0382227897644043
-0.2444734126329422,1.1617718935012815,0.0625841692090034,-0.1763572245836258,-0.2891098260879516,0.2727280259132385,0.0,0.0,-0.819431722164154,-0.6125525832176208
-0.2437216341495514,1.1575325727462769,0.0607546158134937,-0.1856267750263214,-0.2742835283279419,0.2965258955955505,0.0,0.0,-0.9218823313713074,0.1398401260375976
