x_pos,y_pos,x_vel,y_vel,angle,ang_vel,leg_1,leg_2,main_booster,lat_booster
-0.001522445701994,1.4029992818832395,-0.1544515192508697,-0.3520398736000061,0.0019730143249034,0.0389351621270179,0.0,0.0,0.3103243112564087,0.8581960201263428
-0.0029310225509107,1.3950212001800537,-0.1413338929414749,-0.3545805513858795,0.0024443420115858,0.0094282254576683,0.0,0.0,-0.5730440020561218,0.5215308666229248
-0.0042900084517896,1.3864136934280396,-0.1352775692939758,-0.3825560808181762,0.0018395646475255,-0.0120967160910367,0.0,0.0,-0.225192904472351,0.5852450132369995
-0.0056130411103367,1.3771791458129885,-0.1309306621551513,-0.4104261994361877,0.0004803753981832,-0.0271863304078578,0.0,0.0,0.3400973081588745,0.7864195108413696
-0.0067584989592432,1.3681153059005735,-0.1119302958250045,-0.402837336063385,-0.0021002648863941,-0.0516175404191017,0.0,0.0,0.2353111505508422,0.2162646055221557
-0.007802867796272,1.3590350151062012,-0.1024803966283798,-0.4035756886005401,-0.0040329890325665,-0.0386583805084228,0.0,0.0,-0.4787425994873047,0.3184208869934082
-0.0088503835722804,1.3493293523788452,-0.1029388308525085,-0.4313669502735138,-0.0058182664215564,-0.0357088819146156,0.0,0.0,-0.5956942439079285,0.9112709760665894
-0.0098119731992483,1.3390004634857178,-0.0922175198793411,-0.4590798020362854,-0.0097152981907129,-0.0779480561614036,0.0,0.0,-0.075526475906372,0.1332497596740722
-0.0107776643708348,1.3280465602874756,-0.0927623137831687,-0.4868703484535217,-0.0134810069575905,-0.075321152806282,0.0,0.0,0.4488723278045654,0.1263536214828491
-0.0117401126772165,1.3174229860305786,-0.0925533697009086,-0.4721960425376892,-0.0171292331069707,-0.0729712098836898,0.0,0.0,-0.6067193150520325,-0.7480229139328003
-0.012758064083755,1.306175947189331,-0.0995087623596191,-0.4998984336853027,-0.0193945802748203,-0.0453105345368385,0.0,0.0,-0.0392625927925109,0.2495059967041015
-0.0137816425412893,1.2943036556243896,-0.1001611575484275,-0.5276846289634705,-0.0215572714805603,-0.0432579852640628,0.0,0.0,0.4249303340911865,-0.3981536626815796
-0.0146855358034372,1.2827073335647583,-0.0888359695672988,-0.5154183506965637,-0.0230942945927381,-0.0307435300201177,0.0,0.0,-0.21310555934906,-0.2745970487594604
-0.015595531091094,1.2704856395721436,-0.0895327404141426,-0.5432155132293701,-0.0245463494211435,-0.0290436744689941,0.0,0.0,0.1715483665466308,-0.296446144580841
-0.016397476196289,1.2585115432739258,-0.0792809650301933,-0.5321968793869019,-0.0254502668976783,-0.0180800408124923,0.0,0.0,-0.5563974380493164,-0.7040033936500549
-0.0172515865415334,1.2459053993225098,-0.0857148617506027,-0.5602642893791199,-0.0251443199813365,0.0061192568391561,0.0,0.0,0.1260470151901245,-0.5897976756095886
-0.0180394165217876,1.233553171157837,-0.0805207565426826,-0.5489615201950073,-0.0234346725046634,0.0341963432729244,0.0,0.0,-0.0378919839859008,-0.512969970703125
-0.0188651084899902,1.2205723524093628,-0.085132859647274,-0.5768913626670837,-0.0208972599357366,0.0507529079914093,0.0,0.0,-0.3277105093002319,0.1706361770629882
-0.0196974761784076,1.2069662809371948,-0.0858513861894607,-0.6046781539916992,-0.0183171201497316,0.051607571542263,0.0,0.0,-0.3064604997634887,0.0529842376708984
-0.0205365177243948,1.192735195159912,-0.08655546605587,-0.6324668526649475,-0.0157020613551139,0.0523059964179992,0.0,0.0,-0.6284547448158264,0.351917028427124
-0.0213821418583393,1.1778788566589355,-0.0872395783662796,-0.6602571606636047,-0.0130599569529294,0.0528467781841754,0.0,0.0,-0.1220948696136474,-0.112588346004486
-0.0222342498600482,1.1623971462249756,-0.087897777557373,-0.6880475282669067,-0.0103983152657747,0.0532375462353229,0.0,0.0,0.090293288230896,0.3197556734085083
-0.0230030063539743,1.1468281745910645,-0.0799861997365951,-0.6919417977333069,-0.0073261130601167,0.0614496245980262,0.0,0.0,-0.6676081418991089,0.8140209913253784
-0.0237057693302631,1.1306239366531372,-0.0715663731098175,-0.720183253288269,-0.0060552041977643,0.0254204031080007,0.0,0.0,-0.2033739686012268,-0.2640659809112549
-0.0244139675050973,1.1137943267822266,-0.0721077248454094,-0.7479709982872009,-0.0047847921960055,0.0254108346998691,0.0,0.0,0.7147836685180664,0.0452823638916015
-0.0252751354128122,1.0974154472351074,-0.0866748094558715,-0.7279505133628845,-0.0042223250493407,0.0112489676102995,0.0,0.0,0.5930554866790771,-0.7006027102470398
-0.0261890403926372,1.0814666748046875,-0.0933717191219329,-0.7088276743888855,-0.0022725323215126,0.0389960892498493,0.0,0.0,-0.1134876012802124,-0.0346267223358154
-0.0271069519221782,1.0648927688598633,-0.0937462449073791,-0.736615777015686,-0.0003426445764489,0.0385974273085594,0.0,0.0,0.4424794912338257,-0.1073342561721801
-0.0281418804079294,1.048708200454712,-0.1048892736434936,-0.7193148732185364,0.0010345390764996,0.0275437925010919,0.0,0.0,0.0254033803939819,0.171460747718811
-0.0291928295046091,1.032352328300476,-0.1063990741968154,-0.726929247379303,0.0023205089382827,0.0257193986326456,0.0,0.0,-0.1577005386352539,0.1599200963973999
-0.0302458759397268,1.0153712034225464,-0.1065588369965553,-0.7547171115875244,0.0035706106573343,0.0250017642974853,0.0,0.0,0.2040529251098632,-0.0286374688148498
-0.0313577651977539,0.9982436895370485,-0.112152874469757,-0.7612260580062866,0.004517872352153,0.0189454145729541,0.0,0.0,0.0705207586288452,0.1785173416137695
-0.0325258262455463,0.9812696576118468,-0.1174740195274353,-0.7544016242027283,0.0051728510297834,0.0130993649363517,0.0,0.0,0.9137575626373292,0.372735857963562
-0.03376941755414,0.9642965197563172,-0.1246219500899314,-0.7543616890907288,0.0054375082254409,0.0052930889651179,0.0,0.0,-0.7939286828041077,0.3065285682678222
-0.0350114814937114,0.9466981887817384,-0.1244182139635086,-0.7821494340896606,0.005649927072227,0.0042484258301556,0.0,0.0,0.2200747728347778,0.5843887329101562
-0.0361930839717388,0.9293174743652344,-0.1171678081154823,-0.7724792957305908,0.0046717119403183,-0.0195640679448843,0.0,0.0,-0.2637635469436645,-0.7138486504554749
-0.0374299995601177,0.9113073348999025,-0.1241463646292686,-0.8004527688026428,0.0051167658530175,0.0089009394869208,0.0,0.0,0.7396081686019897,-0.3594759106636047
-0.0386262908577919,0.8938744068145752,-0.1202024221420288,-0.7747947573661804,0.0056866817176342,0.0113984905183315,0.0,0.0,-0.1231410503387451,-0.3640220761299133
-0.0398166663944721,0.8758165240287781,-0.1195523291826248,-0.8025826811790466,0.0061941491439938,0.0101492870599031,0.0,0.0,0.92131245136261,0.2025458812713623
-0.0409714691340923,0.8581937551498413,-0.1160818710923194,-0.7832310795783997,0.0067895934917032,0.011908870190382,0.0,0.0,0.6085679531097412,0.5821125507354736
-0.0421891212463378,0.841087281703949,-0.1208480149507522,-0.7602859735488892,0.0058864522725343,-0.0180630926042795,0.0,0.0,-0.7104094624519348,-0.2994646430015564
-0.0433970466256141,0.823355495929718,-0.1198143139481544,-0.7880737781524658,0.004917471203953,-0.0193794183433055,0.0,0.0,0.3971343040466308,-0.2014687657356262
-0.0445130355656147,0.8053969740867615,-0.1109429374337196,-0.7981557250022888,0.0042624613270163,-0.0131001006811857,0.0,0.0,0.1011743545532226,0.122753620147705
-0.0455519668757915,0.7873420715332031,-0.1034746766090393,-0.8024367690086365,0.0038476574700325,-0.0082960985600948,0.0,0.0,0.759641170501709,0.2094477415084839
-0.0466216094791889,0.7691322565078735,-0.1062672361731529,-0.8093249797821045,0.0031672935001552,-0.0136073501780629,0.0,0.0,0.9508116245269777,-0.4861677289009094
-0.0476227775216102,0.7508893609046936,-0.0996205508708953,-0.810797929763794,0.0026736040599644,-0.0098737832158803,0.0,0.0,0.3503570556640625,0.5215024948120117
-0.0485127456486225,0.7325666546821594,-0.0875115841627121,-0.8143433928489685,0.0012057549320161,-0.0293570160865783,0.0,0.0,0.3250538110733032,0.2905957698822021
-0.0494752898812294,0.7146216034889221,-0.0942801088094711,-0.7975576519966125,-0.0007398820598609,-0.0389125607907772,0.0,0.0,0.7158842086791992,0.658572793006897
-0.050514318048954,0.6972852349281311,-0.1001947373151779,-0.7705129981040955,-0.0044024288654327,-0.0732506811618805,0.0,0.0,0.2687853574752807,0.7832896709442139
-0.0514864921569824,0.6799072623252869,-0.0918534398078918,-0.7723792195320129,-0.0096985502168536,-0.105922594666481,0.0,0.0,0.6274024248123169,0.1455628871917724
-0.0522887222468853,0.6627459526062012,-0.0754673331975936,-0.7627582550048828,-0.014393170364201,-0.0938923433423042,0.0,0.0,0.3635276556015014,-0.2785400748252868
-0.0531048774719238,0.6458727717399597,-0.0765876173973083,-0.7499750256538391,-0.019355934113264,-0.0992556512355804,0.0,0.0,-0.1204911470413208,0.2565033435821533
-0.0538945198059082,0.6283746361732483,-0.0738952234387397,-0.7777650356292725,-0.0243627429008483,-0.100135825574398,0.0,0.0,0.7106004953384399,-0.3950452804565429
-0.0546325668692588,0.6114901900291443,-0.0687112361192703,-0.7505154013633728,-0.029393570497632,-0.1006167903542518,0.0,0.0,0.6562671661376953,-0.623282253742218
-0.0552142150700092,0.5947061777114868,-0.0546856299042701,-0.7460257411003113,-0.0328348577022552,-0.0688254982233047,0.0,0.0,0.8678902387619019,-0.3160352110862732
-0.0558549873530864,0.5781011581420898,-0.0600484684109687,-0.738092839717865,-0.0368043109774589,-0.0793893262743949,0.0,0.0,0.81705641746521,-0.2516134977340698
-0.0563268661499023,0.5621793866157532,-0.0436317436397075,-0.7077268958091736,-0.0403178483247756,-0.0702706202864646,0.0,0.0,-0.3016232252120971,-0.9206645488739014
-0.0568198189139366,0.5456396341323853,-0.0471621565520763,-0.7351604700088501,-0.0424348413944244,-0.0423397049307823,0.0,0.0,0.8854261636734009,0.2161504030227661
-0.0571513175964355,0.5298774242401123,-0.0313926003873348,-0.700595498085022,-0.0441661402583122,-0.0346262268722057,0.0,0.0,0.5476095676422119,0.3905103206634521
-0.0574833862483501,0.5145977139472961,-0.0311147663742303,-0.6791597604751587,-0.0462287999689579,-0.0412533655762672,0.0,0.0,0.5651401281356812,-0.2595309019088745
-0.057710837572813,0.4992151856422424,-0.020898949354887,-0.6837276816368103,-0.0480605512857437,-0.0366351492702961,0.0,0.0,0.8450913429260254,-0.6432103514671326
-0.0580303184688091,0.4843967258930206,-0.0310945063829422,-0.6586240530014038,-0.0489020012319088,-0.0168289020657539,0.0,0.0,-0.7634892463684082,0.4955868721008301
-0.0583065971732139,0.4689531326293945,-0.026810685172677,-0.6864118576049805,-0.0497198328375816,-0.0163563434034585,0.0,0.0,0.7901740074157715,-0.5564834475517273
-0.0585220344364643,0.4538813531398773,-0.0219425708055496,-0.6698451638221741,-0.0493227206170558,0.0079424316063523,0.0,0.0,0.8050563335418701,0.6408290863037109
-0.0586099624633789,0.4388312101364136,-0.0079638110473752,-0.6689205765724182,-0.0501364134252071,-0.0162738598883152,0.0,0.0,0.9289746284484864,-0.2009797096252441
-0.0587596893310546,0.4242005944252014,-0.0135357212275266,-0.6503021121025085,-0.0515666380524635,-0.0286042485386133,0.0,0.0,0.8048591613769531,-0.1543600559234619
-0.0587885864078998,0.4103433787822723,-0.0016131412703543,-0.6159219741821289,-0.0528260543942451,-0.0251884367316961,0.0,0.0,0.4407656192779541,-0.2103068232536316
-0.0586816780269146,0.396237164735794,0.0115541685372591,-0.6269715428352356,-0.0536814294755458,-0.0171072855591774,0.0,0.0,0.8721650838851929,-0.3324354887008667
-0.0584400184452533,0.3829523026943207,0.0248044021427631,-0.5904649496078491,-0.0543113723397254,-0.0125988889485597,0.0,0.0,0.5850508213043213,-0.4910835027694702
-0.0582101829349994,0.3697295784950256,0.0239504594355821,-0.5877099633216858,-0.0552639961242675,-0.0190524570643901,0.0,0.0,0.3926488161087036,-0.774941623210907
-0.0580413825809955,0.3567519187927246,0.0162955000996589,-0.576762318611145,-0.0546902902424335,0.0114743467420339,0.0,0.0,0.763229250907898,-0.0985645055770874
-0.0577470771968364,0.3441410958766937,0.0285760518163442,-0.5604498982429504,-0.0538465902209281,0.016873937100172,0.0,0.0,0.5644699335098267,0.1652976274490356
-0.057473849505186,0.3321126997470855,0.0269151180982589,-0.5345826745033264,-0.0534371137619018,0.0081892302259802,0.0,0.0,0.0979465246200561,-0.0031400918960571
-0.0570722594857215,0.3200298249721527,0.0393715910613536,-0.5369877219200134,-0.0526595711708068,0.0155510250478982,0.0,0.0,0.4053360223770141,-0.6178710460662842
-0.0566733367741107,0.3078214824199676,0.0377764590084552,-0.5425188541412354,-0.0505627430975437,0.0419362410902977,0.0,0.0,0.4880496263504028,-0.0877751111984252
-0.0561369881033897,0.2954218089580536,0.0510637164115905,-0.5510092377662659,-0.048015646636486,0.0509422421455383,0.0,0.0,0.4646567106246948,-0.2621910572052002
-0.0555514320731163,0.2828498184680938,0.0559210702776908,-0.5586738586425781,-0.0454185754060745,0.0519413873553276,0.0,0.0,0.7158405780792236,-0.3811445236206054
-0.0548734664916992,0.2708875238895416,0.0650144517421722,-0.5315746068954468,-0.0426695123314857,0.0549813136458396,0.0,0.0,0.5926721096038818,-0.4088793992996216
-0.0540201179683208,0.2594736218452453,0.0819919034838676,-0.5071917772293091,-0.0393586046993732,0.0662178248167038,0.0,0.0,0.1036537885665893,-0.6319749355316162
-0.0532134063541889,0.2482672035694122,0.0759436041116714,-0.4979437887668609,-0.0346844792366027,0.0934823229908943,0.0,0.0,-0.0827873945236206,-0.1820038557052612
-0.052339743822813,0.2364358752965927,0.082393005490303,-0.5257327556610107,-0.0297799091786146,0.0980916321277618,0.0,0.0,0.4990642070770263,-0.153818130493164
-0.051340389996767,0.2250532954931259,0.0945501178503036,-0.5057953000068665,-0.0244628451764583,0.1063413992524147,0.0,0.0,0.6062945127487183,-0.4289497137069702
-0.0503571517765522,0.2138884365558624,0.0931434482336044,-0.4961403608322143,-0.0193456448614597,0.1023441180586814,0.0,0.0,0.4044649600982666,-0.4074575901031494
-0.0493397712707519,0.2029642015695572,0.0965034663677215,-0.4854660928249359,-0.0141755389049649,0.1034019812941551,0.0,0.0,0.5971308946609497,-0.5936227440834045
-0.0483017936348915,0.1924332678318023,0.0971089676022529,-0.4679926931858063,-0.0075739426538348,0.1320320218801498,0.0,0.0,0.3336795568466186,-0.8158955574035645
-0.0471738800406456,0.1819823086261749,0.1040689125657081,-0.4644666910171509,0.0010341007728129,0.172160655260086,0.0,0.0,0.4739831686019897,-0.5570861101150513
-0.0459956154227256,0.1713597625494003,0.1076247543096542,-0.4721475839614868,0.011109703220427,0.201511949300766,0.0,0.0,0.7022202014923096,-0.6295357942581177
-0.0446958541870117,0.1607322096824646,0.1179339662194252,-0.4724659025669098,0.0230042189359664,0.2378904521465301,0.0,0.0,0.7290805578231812,0.0396654605865478
-0.0431824699044227,0.150383174419403,0.1382329165935516,-0.4602088332176208,0.0359404236078262,0.258724182844162,0.0,0.0,0.5136089324951172,-0.0012091398239135
-0.041480541229248,0.1399599611759185,0.1561521291732788,-0.4636473953723907,0.0498084761202335,0.2773609757423401,0.0,0.0,0.929509162902832,0.6832773685455322
-0.0397010818123817,0.1302370578050613,0.1649528890848159,-0.432609349489212,0.0626505762338638,0.2568424642086029,0.0,0.0,0.8027435541152954,-0.723607063293457
-0.0379192344844341,0.1211345046758651,0.1633051335811615,-0.4052476584911346,0.0773776546120643,0.2945415377616882,0.0,0.0,0.7935984134674072,-0.1061747074127197
-0.0359829887747764,0.1125088781118393,0.1777452528476715,-0.3842571973800659,0.0931047424674034,0.3145413994789123,0.0,0.0,0.4628665447235107,0.3606462478637695
-0.0339087471365928,0.1037060841917991,0.1907601654529571,-0.3923551142215729,0.1096301674842834,0.3305087685585022,0.0,0.0,0.929978847503662,0.5781259536743164
-0.0318427085876464,0.0951641425490379,0.1909209638833999,-0.3808663189411163,0.1252153217792511,0.3117030560970306,0.0,0.0,0.9269657135009766,0.4256042242050171
-0.0297277458012104,0.0875172019004821,0.194986343383789,-0.3413330912590027,0.1416629701852798,0.3289527297019958,0.0,0.0,0.6810665130615234,0.2320184707641601
-0.0276409145444631,0.0801043584942817,0.1918971538543701,-0.3311409652233124,0.1584165245294571,0.3350711762905121,0.0,0.0,0.6457651853561401,0.2357938289642334
-0.0257241241633892,0.0732152312994003,0.1750817596912384,-0.3080321252346039,0.1750219017267227,0.3321070969104767,0.0,0.0,0.2657177448272705,0.545647144317627
-0.0237090103328228,0.0665281638503074,0.1854820996522903,-0.2991730868816376,0.1911166757345199,0.3218950629234314,0.0,0.0,0.6328922510147095,0.5141849517822266
-0.0217728614807128,0.0603113733232021,0.1783616244792938,-0.2783405482769012,0.2064671367406845,0.3070093989372253,0.0,0.0,0.3475024700164795,-0.1661974787712097
-0.0199498180299997,0.0543495044112205,0.1669580042362213,-0.2671838700771332,0.22195765376091,0.3098103702068329,0.0,0.0,0.2367533445358276,0.3803527355194092
-0.0181488040834665,0.0483063086867332,0.1644451171159744,-0.2710183262825012,0.2378225326538086,0.3172979056835174,0.0,0.0,0.5432424545288086,0.3025667667388916
-0.0165076255798339,0.0424231141805648,0.1485526114702224,-0.2640701830387115,0.2536518275737762,0.3165863752365112,0.0,0.0,0.3334546089172363,0.2695851325988769
-0.0150115964934229,0.0364875644445419,0.1341827809810638,-0.2665448188781738,0.2693955898284912,0.3148753941059112,0.0,0.0,0.6402863264083862,0.308049201965332
-0.013525771908462,0.0310054868459701,0.1323059648275375,-0.2467359900474548,0.2861094772815704,0.3342779278755188,0.0,0.0,0.4060652256011963,0.3111281394958496
-0.0120033267885446,0.0263856500387191,0.1523774713277816,-0.2052809298038482,0.2860517203807831,-0.0010410470422357,0.0,1.0,0.9919037818908693,0.9323208332061768
-0.0106000900268554,0.0233990289270877,0.1601114720106125,-0.1289908289909362,0.265739232301712,-0.4062538743019104,0.0,1.0,0.9504296779632568,-0.7747630476951599
-0.0096114156767725,0.0217009410262107,0.1314066648483276,-0.069920927286148,0.2325463593006134,-0.6639047861099243,0.0,1.0,0.3448414802551269,-0.7382422089576721
-0.0087736127898097,0.0206673964858055,0.1211527436971664,-0.0404866151511669,0.1947495490312576,-0.7559837698936462,0.0,1.0,0.2275069952011108,-0.705670177936554
-0.0079898834228515,0.0196372848004102,0.1133274585008621,-0.0415750332176685,0.159646600484848,-0.7021044492721558,0.0,1.0,0.1911376714706421,-0.6059730648994446
-0.0073420526459813,0.0188473556190729,0.0980840846896171,-0.0318704694509506,0.1264209747314453,-0.6645124554634094,0.0,0.0,-0.9817090630531312,-0.6475927233695984
-0.0066622733138501,0.0174438096582889,0.0997567623853683,-0.0599895268678665,0.0948541685938835,-0.6313362121582031,0.0,0.0,-0.8825855255126953,-0.8982866406440735
-0.0059649469330906,0.0154149867594242,0.0995390191674232,-0.0885501280426979,0.0653440505266189,-0.5902023315429688,0.0,0.0,-0.2350347638130188,-0.8776463270187378
-0.0052720070816576,0.0127651067450642,0.0965026319026947,-0.1168030500411987,0.0384452678263187,-0.5379758477210999,0.0,0.0,0.6920722723007202,-0.9514943957328796
-0.004742813296616,0.0102740861475467,0.07792629301548,-0.1102576404809951,0.0137499598786234,-0.4939063191413879,0.0,0.0,0.7138845920562744,-0.8266715407371521
-0.0042326925322413,0.0080400919541716,0.0738933533430099,-0.099232979118824,-0.0088258069008588,-0.4515152871608734,0.0,0.0,0.4384377002716064,-0.7672322392463684
-0.0036746026016771,0.0058827376924455,0.0765482857823371,-0.0961337015032768,-0.029312077909708,-0.4097251892089844,0.0,0.0,0.6069717407226562,-0.921841561794281
-0.0029576302040368,0.0036177372094243,0.0898511037230491,-0.1011179536581039,-0.0472459904849529,-0.3586780726909637,0.0,0.0,0.4987491369247436,-0.8850365281105042
-0.002007293747738,0.002391145331785,0.0913445204496383,-0.0544248223304748,-0.0435223430395126,0.0745725780725479,1.0,0.0,-0.2438359260559082,-0.7232487201690674
-0.0010108947753906,0.0011502122506499,0.0779460594058036,-0.0546840652823448,-0.0220235306769609,0.4300714135169983,1.0,0.0,0.0092004537582397,-0.4403026103973388
1.640319896978326e-05,-0.0004459881747607,0.0815478637814521,-0.070765845477581,-0.0011145300231873,0.4181791245937347,1.0,0.0,-0.0664508342742919,-0.5325718522071838
