x_pos,y_pos,x_vel,y_vel,angle,ang_vel,leg_1,leg_2,main_booster,lat_booster
-0.0015158653259277,1.4032822847366333,-0.1531263589859008,-0.339456707239151,0.0013725196477025,0.0270453337579965,0.0,0.0,-0.7500988491995546,0.9067177560148144
-0.0029466629493981,1.3953213691711426,-0.1420565545558929,-0.3538224399089813,0.0003707642899826,-0.0200366098433733,0.0,0.0,-0.2509231608462021,-0.6638974134916942
-0.0044096945784986,1.3870127201080322,-0.1459291726350784,-0.3692675530910492,2.301490212630597e-06,-0.0073701939545571,0.0,0.0,0.0430940583050487,-0.9404538691099976
-0.0060278894379734,1.3788321018218994,-0.1629481464624405,-0.3635835349559784,0.0011113925138488,0.0221836976706981,0.0,0.0,-0.3290218642378602,-0.6031451925984387
-0.0076747895218431,1.3703111410140991,-0.166366308927536,-0.3787132203578949,0.0027721237856894,0.0332177355885505,0.0,0.0,0.6270530071558857,0.9002249281047147
-0.0090921400114893,1.3622498512268066,-0.1414651721715927,-0.3582737743854522,0.0025079455226659,-0.005284119863063,0.0,0.0,-0.2082434079287318,-0.64368969628252
-0.0105527881532907,1.3538461923599243,-0.1467545926570892,-0.3734971880912781,0.0031844712793827,0.0135319735854864,0.0,0.0,0.6681227947880468,0.5529164971130037
-0.0118010519072413,1.3460829257965088,-0.12447190284729,-0.3450348079204559,0.0028337209951132,-0.0070156371220946,0.0,0.0,0.5458848789218118,-0.8419168591228641
-0.0131209371611475,1.3391605615615845,-0.1329188644886016,-0.307659775018692,0.0037534574512392,0.0183965675532817,0.0,0.0,0.0298627162598246,-0.7377178867470671
-0.0144915580749511,1.332579493522644,-0.1390924602746963,-0.2924992144107818,0.0057593500241637,0.0401215627789497,0.0,0.0,0.0137471707094136,-0.9640835478516496
-0.0158668514341115,1.3262041807174685,-0.1410818397998809,-0.283370703458786,0.0092819361016154,0.0704579204320907,0.0,0.0,0.4210470931856578,0.857083341496776
-0.0171000473201274,1.3201682567596436,-0.1248838678002357,-0.2682739496231079,0.0108257671818137,0.0308794621378183,0.0,0.0,-0.6199065542585838,0.9639263510360334
-0.01823091506958,1.3137966394424438,-0.1119215488433837,-0.2831806242465973,0.0096820890903472,-0.0228759460151195,0.0,0.0,-0.6199087638062537,-0.6935423487025307
-0.0193998329341411,1.3070755004882812,-0.1166061908006668,-0.2987103760242462,0.0093966843560338,-0.0057083489373326,0.0,0.0,0.1624922222580569,-0.8321058127005506
-0.020514965057373,1.3008918762207031,-0.1126205921173095,-0.2748444974422455,0.010485203936696,0.0217724125832319,0.0,0.0,-0.6153184675547401,-0.7581890494758795
-0.0216687209904193,1.2943559885025024,-0.1173664107918739,-0.2904962599277496,0.0124512808397412,0.0393250919878482,0.0,0.0,0.2881730589016424,0.680120939682773
-0.0226470939815044,1.2884896993637085,-0.0983048304915428,-0.2607305943965912,0.012914516031742,0.0092657506465911,0.0,0.0,0.0777837429717307,-0.687715061423072
-0.0235666278749704,1.282642841339111,-0.0935716927051544,-0.2598790228366852,0.0145127577707171,0.031967706978321,0.0,0.0,-0.9271745111788932,0.63541233433251
-0.02441749535501,1.2764610052108765,-0.084879383444786,-0.2747471928596496,0.0143053419888019,-0.0041485340334475,0.0,0.0,0.2484215091576442,0.5498337910639742
-0.0252873413264751,0.0,-0.0851856172084808,-0.2614650130271911,0.0125341210514307,-0.0354276522994041,0.0,0.0,-0.1273573968418866,-0.7361156986324195
-0.0261923782527446,1.2643566131591797,-0.0895524770021438,-0.2764853835105896,0.0115868365392088,-0.018947185948491,0.0,0.0,0.8669960225933326,-0.9004774652793137
-0.0271492954343557,1.2585372924804688,-0.0962413996458053,-0.25864177942276,0.0121315252035856,0.0108943916857242,0.0,0.0,0.5062393333968407,0.7594158670272435
-0.0279105193912982,1.2531224489212036,-0.075040191411972,-0.2406447380781173,0.0110735157504677,-0.0211621262133121,0.0,0.0,-0.0003660483780161,0.9019020124738116
-0.02858142927289,1.24735689163208,-0.0636839419603347,-0.2562258243560791,0.0077038151212036,-0.0674002021551132,0.0,0.0,-0.8911282246753043,-0.6704651702094284
-0.029307460412383,1.2412503957748413,-0.0705541521310806,-0.271389901638031,0.0056767100468277,-0.040545605123043,0.0,0.0,0.4822718365291107,0.5096684746740165
-0.0301268585026264,1.2357299327850342,-0.0781958550214767,-0.2453505396842956,0.0019761375151574,-0.0740112662315368,0.0,0.0,0.5724692640821705,-0.740533437885257
-0.0309921260923147,1.2309088706970217,-0.0839774310588836,-0.2142650336027145,-0.0005374617758207,-0.0502721667289733,0.0,0.0,-0.795250028596677,0.60315285131166
-0.0318099036812782,1.2257522344589231,-0.0779934674501419,-0.2291932553052902,-0.0042764181271195,-0.074779063463211,0.0,0.0,0.3411547534825949,0.9781729871915146
-0.032660387456417,1.221205234527588,-0.0789359658956527,-0.2021135240793228,-0.0103081101551651,-0.1206338852643966,0.0,0.0,-0.0877415788487481,0.5025317890571348
-0.0334627144038677,1.216314435005188,-0.0728721246123313,-0.2174384295940399,-0.0175762269645929,-0.1453623175621032,0.0,0.0,-0.2950345935525866,0.8496330699162716
-0.0341860763728618,1.211090326309204,-0.0629396066069603,-0.2323237061500549,-0.0268503315746784,-0.1854822933673858,0.0,0.0,-0.9940963983535768,-0.0503937005996704
-0.0348999984562397,1.2055253982543943,-0.0617437250912189,-0.2475358992815017,-0.0363811552524566,-0.1906161457300186,0.0,0.0,-0.98073410987854,-0.273339033126831
-0.0356047637760639,1.1996196508407593,-0.0605779588222503,-0.262748658657074,-0.04616080224514,-0.1955930888652801,0.0,0.0,-0.981859803199768,0.5198559761047363
-0.0362639427185058,1.1933661699295044,-0.054848313331604,-0.2783136367797851,-0.0571069307625293,-0.2189225852489471,0.0,0.0,-0.9905699491500854,-0.715708315372467
-0.0369693748652935,1.1867783069610596,-0.0606474988162517,-0.2931998670101166,-0.0668994560837745,-0.1958507448434829,0.0,0.0,-0.9180787205696106,-0.1935886144638061
-0.0376665107905864,1.1798501014709473,-0.059585940092802,-0.3084135055541992,-0.0769163146615028,-0.2003371268510818,0.0,0.0,-0.9626984000205994,0.0022608041763305
-0.0383554473519325,1.1725811958312988,-0.0585638768970966,-0.3236276507377624,-0.0871490165591239,-0.2046542465686798,0.0,0.0,-0.9758780598640442,-0.7379128932952881
-0.0390907302498817,1.1649844646453855,-0.0643889158964157,-0.3381925225257873,-0.0962098985910415,-0.1812179237604141,0.0,0.0,-0.94531512260437,-0.9345442652702332
-0.039896298199892,1.1570684909820557,-0.073227122426033,-0.3523129522800445,-0.1034812778234481,-0.1454271972179412,0.0,0.0,-0.8799886703491211,-0.5245002508163452
-0.0407341010868549,1.148818016052246,-0.0772700086236,-0.367152065038681,-0.1099454388022422,-0.129283145070076,0.0,0.0,-0.8284400701522827,-0.081969141960144
-0.0415652282536029,1.1402263641357422,-0.0764291957020759,-0.3823615610599518,-0.1165906116366386,-0.132903516292572,0.0,0.0,-0.903677225112915,-0.3636065721511841
-0.0423901565372943,1.1312934160232544,-0.0756399929523468,-0.3975712954998016,-0.1234079152345657,-0.1363458931446075,0.0,0.0,-0.9609957337379456,-0.0728837251663208
-0.0432093627750873,1.1220190525054932,-0.0749048739671707,-0.4127812683582306,-0.1303884088993072,-0.1396095007658004,0.0,0.0,-0.9239487648010254,-0.505953311920166
-0.0440564155578613,1.112409234046936,-0.0783955156803131,-0.4276733696460724,-0.1366796493530273,-0.1258246004581451,0.0,0.0,-0.8853110671043396,0.255284309387207
-0.0448986999690532,1.102458119392395,-0.0777757763862609,-0.4428827166557312,-0.143116146326065,-0.1287300586700439,0.0,0.0,-0.7842907309532166,-0.7225050330162048
-0.0457897186279296,1.0921695232391355,-0.0838468372821807,-0.4577861428260803,-0.148358553647995,-0.1048474758863449,0.0,0.0,-0.7920809984207153,-0.641150951385498
-0.046722412109375,1.0815459489822388,-0.0890455543994903,-0.4725848138332367,-0.1525778472423553,-0.0843857675790786,0.0,0.0,-0.7587159276008606,-0.4942106604576111
-0.0476520545780658,1.0705807209014893,-0.088616594672203,-0.4877921938896179,-0.1569157391786575,-0.0867578759789466,0.0,0.0,-0.9913676977157592,-0.8271610140800476
-0.0486571304500103,1.0592997074127195,-0.0980812981724739,-0.5016346573829651,-0.1593392789363861,-0.0484707579016685,0.0,0.0,-0.9675430059432985,-0.8601056933403015
-0.0497300140559673,1.0476913452148438,-0.1065467372536659,-0.516014575958252,-0.1600832045078277,-0.0148782851174473,0.0,0.0,-0.8595167994499207,-0.3288666009902954
-0.0508016571402549,1.035740852355957,-0.1063288003206253,-0.5312202572822571,-0.1609197109937667,-0.0167301762849092,0.0,0.0,-0.7301630973815918,-0.5407806038856506
-0.0519184097647666,1.023463249206543,-0.1119549721479415,-0.5456389784812927,-0.1606521904468536,0.0053508421406149,0.0,0.0,-0.961625635623932,-0.7979691624641418
-0.0530869476497173,1.0108517408370972,-0.1183374971151351,-0.5603477358818054,-0.1591555476188659,0.0299327336251735,0.0,0.0,-0.956231951713562,0.1409735679626464
-0.0542561523616313,0.9978983402252196,-0.1183487176895141,-0.5755531787872314,-0.1577266007661819,0.0285787489265203,0.0,0.0,-0.9864675402641296,-0.012746512889862
-0.05542678758502,0.9846031665802002,-0.1184396371245384,-0.5907585024833679,-0.156357392668724,0.027384141460061,0.0,0.0,-0.9348467588424684,-0.2032451629638672
-0.0565997138619422,0.9709658026695251,-0.1186116933822631,-0.6059637069702148,-0.1550401449203491,0.0263452492654323,0.0,0.0,-0.9730881452560424,-0.5774279236793518
-0.0578130707144737,0.957000732421875,-0.12359269708395,-0.6204373240470886,-0.1527892649173736,0.0450173057615757,0.0,0.0,-0.957036793231964,0.1729267835617065
-0.059030245989561,0.9426937699317932,-0.1239306479692459,-0.6356425881385803,-0.1505753844976425,0.044277474284172,0.0,0.0,-0.912544012069702,-0.749375581741333
-0.0603023543953895,0.9280640482902528,-0.13072070479393,-0.649856448173523,-0.1470742672681808,0.0700227171182632,0.0,0.0,-0.7522198557853699,0.4311997890472412
-0.0615798011422157,0.9130924940109252,-0.1312279850244522,-0.6650621891021729,-0.1435960829257965,0.0695638582110405,0.0,0.0,-0.7915829420089722,0.2410211563110351
-0.062863253057003,0.8977789878845215,-0.1318206042051315,-0.6802677512168884,-0.140134185552597,0.0692382305860519,0.0,0.0,-0.6883842945098877,0.0972801446914672
-0.0641535744071006,0.8821236491203308,-0.1324988007545471,-0.6954732537269592,-0.1366821378469467,0.0690406411886215,0.0,0.0,-0.7520260214805603,-0.5411646366119385
-0.0654854774475097,0.8661319613456726,-0.1375068128108978,-0.7103508114814758,-0.1323749423027038,0.0861439853906631,0.0,0.0,-0.4646421670913696,0.5578259229660034
-0.0667802840471267,0.8497900366783142,-0.1326425820589065,-0.7260266542434692,-0.1292232424020767,0.0630339533090591,0.0,0.0,-0.6945832967758179,-0.3165461421012878
-0.0680843368172645,0.833106279373169,-0.1335764676332473,-0.7412317991256714,-0.1260638236999511,0.0631880089640617,0.0,0.0,-0.2345604300498962,0.5414415597915649
-0.0693646445870399,0.8160743117332458,-0.1303541511297226,-0.7567814588546753,-0.123750239610672,0.0462715439498424,0.0,0.0,-0.275407075881958,0.3631849288940429
-0.0706557258963584,0.7987003326416016,-0.1314554214477539,-0.7719860672950745,-0.1214186623692512,0.0466314926743507,0.0,0.0,-0.0458045601844787,-0.0494419932365417
-0.0719584450125694,0.7809843420982361,-0.1326388716697693,-0.7871906161308289,-0.1190643832087516,0.0470854304730892,0.0,0.0,0.4604934453964233,0.4020006656646728
-0.0731600746512413,0.7640458941459656,-0.1226752027869224,-0.7526214122772217,-0.1165724843740463,0.0498381368815898,0.0,0.0,0.092429518699646,0.0547702312469482
-0.0744002312421798,0.7472423911094666,-0.1262683272361755,-0.7466414570808411,-0.1143372133374214,0.0447053276002407,0.0,0.0,-0.3223991394042969,0.6314924955368042
-0.0756119713187217,0.730092465877533,-0.1223895922303199,-0.7621337175369263,-0.1131338849663734,0.0240669585764408,0.0,0.0,0.0181039571762084,-0.5944867134094238
-0.076820470392704,0.7131773829460144,-0.1233182102441787,-0.7515987753868103,-0.1106784045696258,0.0491093285381794,0.0,0.0,-0.1254454255104065,0.1959445476531982
-0.0780443176627159,0.6959201097488403,-0.1248895674943924,-0.7668033242225647,-0.108181320130825,0.0499414317309856,0.0,0.0,0.213282823562622,0.2665446996688843
-0.0791846290230751,0.6789443492889404,-0.1168394535779953,-0.7542713284492493,-0.1053901836276054,0.0558225288987159,0.0,0.0,0.2151343822479248,0.6371750831604004
-0.0802889838814735,0.6620471477508545,-0.111970767378807,-0.7508792281150818,-0.1038683056831359,0.0304376073181629,0.0,0.0,0.4892129898071289,0.67323899269104
-0.0812608748674392,0.6452190279960632,-0.0975497812032699,-0.7478876709938049,-0.1035105362534523,0.0071553708985447,0.0,0.0,0.457445740699768,0.1480751037597656
-0.0822475403547287,0.6284999251365662,-0.0989430844783783,-0.7430534362792969,-0.1032306104898452,0.0055983830243349,0.0,0.0,0.7812950611114502,-0.3647971153259277
-0.083173468708992,0.6127159595489502,-0.0928910821676254,-0.7014884352684021,-0.1029397174715995,0.0058176494203507,0.0,0.0,-0.3204469084739685,-0.055072546005249
-0.0841185599565506,0.5965898633003235,-0.0948594361543655,-0.716692328453064,-0.1025948747992515,0.0068968734703958,0.0,0.0,0.807732105255127,-0.0509225130081176
-0.0851139053702354,0.5814748406410217,-0.0993653833866119,-0.6717901825904846,-0.1027630493044853,-0.0033635362051427,0.0,0.0,-0.5425254106521606,-0.4886918663978576
-0.0861294716596603,0.5660176277160645,-0.1014468669891357,-0.6869941353797913,-0.1028756573796272,-0.0022518993355333,0.0,0.0,0.3618228435516357,0.3613084554672241
-0.0870658904314041,0.5511853694915771,-0.0937348902225494,-0.6592053174972534,-0.1027784645557403,0.0019436788279563,0.0,0.0,-0.4989956617355346,-0.4541507959365845
-0.0880235657095909,0.5360108613967896,-0.0959196463227272,-0.6744091510772705,-0.1026252806186676,0.0030634803697466,0.0,0.0,0.5531890392303467,0.0968286991119384
-0.0889889746904373,0.5214529633522034,-0.0965084955096244,-0.6470196843147278,-0.1026547774672508,-0.0005898353410884,0.0,0.0,-0.6839705109596252,0.4511902332305908
-0.0899765938520431,0.5065528750419617,-0.0987868532538414,-0.6622236371040344,-0.1026290655136108,0.0005141111323609,0.0,0.0,0.3739103078842163,0.512347936630249
-0.0908190757036209,0.4920143485069275,-0.0834803134202957,-0.6462082266807556,-0.1033831164240837,-0.0150813534855842,0.0,0.0,0.3696476221084595,0.3277057409286499
-0.0916357040405273,0.4775540232658386,-0.0810505896806716,-0.642723798751831,-0.1039930507540702,-0.0121987191960215,0.0,0.0,0.6893014907836914,0.016486644744873
-0.0923387557268142,0.4633509814739227,-0.0701848864555358,-0.6312549710273743,-0.10411237180233,-0.0023863497190177,0.0,0.0,0.3654255867004394,0.0240098237991333
-0.0928957015275955,0.4494909048080444,-0.0561896748840808,-0.6159691214561462,-0.1036190539598465,0.00986641459167,0.0,0.0,0.2253698110580444,0.6037759780883789
-0.0932855606079101,0.4356952607631683,-0.0385213755071163,-0.6131702661514282,-0.1040837466716766,-0.0092936595901846,0.0,0.0,0.4497601985931396,-0.0970105528831482
-0.0936364158987999,0.4225417673587799,-0.0346466600894928,-0.5846300721168518,-0.1045254468917846,-0.0088338311761617,0.0,0.0,0.2984007596969604,-0.4677397012710571
-0.0939259529113769,0.4099316000938415,-0.028655519708991,-0.5604696869850159,-0.1048110947012901,-0.0057130930945277,0.0,0.0,0.2092733383178711,0.0277830362319946
-0.0940988510847091,0.3976933658123016,-0.0174694340676069,-0.5439079403877258,-0.1046342551708221,0.0035365994554013,0.0,0.0,0.0236561298370361,-0.673552930355072
-0.0942586883902549,0.3854049146175384,-0.0176110528409481,-0.5460420846939087,-0.1030149385333061,0.0323864892125129,0.0,0.0,0.1983559131622314,0.226310133934021
-0.0944442749023437,0.3733313083648681,-0.0200418196618556,-0.5365033745765686,-0.1015372648835182,0.0295533742755651,0.0,0.0,-0.1416406631469726,-0.4193564653396606
-0.0946557968854904,0.3609155416488647,-0.0226822402328252,-0.5517076253890991,-0.100028395652771,0.0301776118576526,0.0,0.0,0.3004229068756103,0.1105226278305053
-0.0948673263192176,0.3488290905952453,-0.0226102545857429,-0.5370798707008362,-0.0985768213868141,0.0290311928838491,0.0,0.0,0.3674062490463257,0.7434992790222168
-0.0950961112976074,0.3373982906341553,-0.0227067563682794,-0.5080433487892151,-0.0987516120076179,-0.0034957956522703,0.0,0.0,-0.1022801399230957,0.8302204608917236
-0.0952767357230186,0.3256186246871948,-0.0159915536642074,-0.5236825346946716,-0.1007997468113899,-0.0409625023603439,0.0,0.0,0.5098822116851807,-0.8503751158714294
-0.0955364257097244,0.3145445883274078,-0.0255563594400882,-0.4922060072422027,-0.1012103930115699,-0.0082129957154393,0.0,0.0,-0.6516392827033997,0.2172311544418335
-0.0958233848214149,0.3031284809112549,-0.0282930880784988,-0.5074103474617004,-0.1016101241111755,-0.0079946024343371,0.0,0.0,-0.1278941631317138,0.4349188804626465
-0.0961378067731857,0.2913703024387359,-0.0310451835393905,-0.5226147174835205,-0.1020035520195961,-0.0078685730695724,0.0,0.0,0.0430989265441894,0.5615549087524414
-0.0964788421988487,0.2798428833484649,-0.0324512869119644,-0.5124409198760986,-0.1036388054490089,-0.0327051505446434,0.0,0.0,0.7407982349395752,-0.683314859867096
-0.0970154777169227,0.2688303887844085,-0.0529970116913318,-0.4894932806491852,-0.1043084114789962,-0.0133918356150388,0.0,0.0,-0.5889893770217896,0.8701671361923218
-0.0974992737174034,0.2574682533740997,-0.0456470623612403,-0.5051756501197815,-0.1070251911878585,-0.0543353781104087,0.0,0.0,0.547468900680542,-0.2775948047637939
-0.0979172736406326,0.2462704330682754,-0.0393113568425178,-0.4978627562522888,-0.1094898208975792,-0.0492926016449928,0.0,0.0,-0.4742375612258911,-0.2688730955123901
-0.098363496363163,0.2347305566072464,-0.0421241819858551,-0.5130678415298462,-0.1119734570384025,-0.0496726967394351,0.0,0.0,0.9030647277832032,0.1194378137588501
-0.098764419555664,0.2241855412721634,-0.0374511703848838,-0.4688667953014374,-0.1146034076809883,-0.052599050104618,0.0,0.0,-0.6061128973960876,-0.6445820927619934
-0.0992320999503135,0.2133126556873321,-0.0450769141316413,-0.4833693504333496,-0.1162788346409797,-0.0335085578262805,0.0,0.0,0.4775257110595703,0.0312851667404174
-0.0996005088090896,0.2028581947088241,-0.0354400053620338,-0.4647538363933563,-0.117674171924591,-0.0279067158699035,0.0,0.0,0.4026492834091186,-0.5534473657608032
-0.0999660491943359,0.1931086182594299,-0.0362037308514118,-0.4333409070968628,-0.1180189028382301,-0.0068946285173296,0.0,0.0,-0.7431684136390686,-0.7967706918716431
-0.1004161834716796,0.1830340176820755,-0.0460651218891143,-0.447677731513977,-0.116977609694004,0.0208259727805852,0.0,0.0,0.0693535804748535,-0.3216097354888916
-0.1008090004324913,0.1730504184961319,-0.040519829839468,-0.4436211585998535,-0.1157476752996444,0.0245985276997089,0.0,0.0,-0.1906682252883911,0.4321011304855346
-0.1012310981750488,0.1627247631549835,-0.0433804839849472,-0.4588262438774109,-0.1145761311054229,0.023430673405528,0.0,0.0,0.611440896987915,-0.3011195659637451
-0.1017493233084678,0.1528268456459045,-0.0523587577044963,-0.439869225025177,-0.1140479370951652,0.0105641856789588,0.0,0.0,0.3231567144393921,-0.4451333880424499
-0.1022626906633377,0.143262580037117,-0.0517205670475959,-0.4250468909740448,-0.1136694476008415,0.0075698168948292,0.0,0.0,0.2866756916046142,0.081572413444519
-0.1027382835745811,0.1339721232652664,-0.0479623265564441,-0.4128801524639129,-0.1132731065154075,0.0079267779365181,0.0,0.0,0.5983731746673584,0.4250482320785522
-0.1030785590410232,0.1248367428779602,-0.0349358096718788,-0.4059485495090484,-0.1123737767338752,0.0179867465049028,0.0,0.0,0.91196608543396,0.480035662651062
-0.1032476425170898,0.116519957780838,-0.0182500947266817,-0.3695363402366638,-0.1110398024320602,0.026679266244173,0.0,0.0,0.3467493057250976,-0.5397739410400391
-0.1033934578299522,0.1088499873876571,-0.0169682838022708,-0.3407116234302521,-0.1086700931191444,0.0473942868411541,0.0,0.0,0.3540992736816406,-0.1637934446334839
