x_pos,y_pos,x_vel,y_vel,angle,ang_vel,leg_1,leg_2,main_booster,lat_booster
-0.0015232085715979,1.4031615257263184,-0.1543611139059066,-0.3448258340358734,0.0018273672321811,0.036051258444786,0.0,0.0,0.0630322311489877,0.925363472527446
-0.0029332160484045,1.3954041004180908,-0.1410073190927505,-0.3447712063789367,0.001834598602727,0.0001453606237191,0.0,0.0,0.2688730360999773,-0.7723634360557737
-0.0042858123779296,1.3876432180404663,-0.1370228379964828,-0.3449331521987915,0.0035730176605284,0.0347716845571994,0.0,0.0,0.1169966494263288,-0.6566630278465013
-0.0057785036042332,1.3799231052398682,-0.1522437483072281,-0.3431263864040375,0.0065238173119723,0.0590213909745216,0.0,0.0,-0.2603843085428436,-0.9961703205177854
-0.0073281289078295,1.3717427253723145,-0.1595458090305328,-0.363599956035614,0.0110655399039387,0.0908423960208892,0.0,0.0,0.559008602316948,0.9380683282995932
-0.0086575504392385,1.363870620727539,-0.1358859688043594,-0.349895566701889,0.0139839490875601,0.0583733618259429,0.0,0.0,0.9166819822956104,-0.8217590605149936
-0.0100826267153024,1.3565385341644287,-0.1470744311809539,-0.3259199261665344,0.0184984542429447,0.0902981981635093,0.0,0.0,-0.264849262308537,0.9461815426601408
-0.0114068984985351,1.3487489223480225,-0.1346567422151565,-0.3462356030941009,0.0207025576382875,0.0440860800445079,0.0,0.0,0.787431492385374,0.741649864754015
-0.0126967430114746,1.3418636322021484,-0.1297183185815811,-0.3060233294963836,0.0214294176548719,0.0145385889336466,0.0,0.0,0.2011549067628382,0.6587167114177993
-0.0139364246279001,1.3353129625320437,-0.1234060302376747,-0.2911361157894134,0.0208694618195295,-0.0112002296373248,0.0,0.0,0.1249043398120579,0.6009952382757643
-0.0150604248046875,1.3289101123809814,-0.1107545047998428,-0.2845431566238403,0.0192416403442621,-0.0325593277812004,0.0,0.0,-0.4164501801058311,-0.9210008879153664
-0.0162361152470111,1.3220406770706177,-0.1175552755594253,-0.3053079843521118,0.0192356090992689,-0.0001204721047542,0.0,0.0,-0.0957835062090817,-0.7572686743857477
-0.0174450874328613,1.3147109746932983,-0.1220920905470848,-0.3257844150066376,0.0204102136194705,0.023493867367506,0.0,0.0,-0.5528972640744894,0.8808947638965701
-0.018562126904726,1.3069124221801758,-0.1109246388077735,-0.3465926349163055,0.019637556746602,-0.0154544012621045,0.0,0.0,0.6718998387571338,-0.7564653261301476
-0.0195830352604389,1.299912691116333,-0.1031530350446701,-0.3111110925674438,0.0206818245351314,0.0208875928074121,0.0,0.0,0.7797342707708137,-0.7081217502761472
-0.0205216407775878,1.2929240465164185,-0.0966360569000244,-0.3106466829776764,0.0234191790223121,0.0547519847750663,0.0,0.0,0.5283128432565893,-0.8505415510978316
-0.0213860515505075,1.2866718769073486,-0.0911057889461517,-0.2779521048069,0.0280393790453672,0.0924124866724014,0.0,0.0,0.7811446036556855,-0.9856206009612594
-0.0221491809934377,1.2805583477020264,-0.083204448223114,-0.2718561589717865,0.0348520576953887,0.1362658590078354,0.0,0.0,-0.8841540110933828,0.9971809484861196
-0.0228021629154682,1.2739965915679932,-0.0698230415582656,-0.2917510271072387,0.0393355786800384,0.0896786004304885,0.0,0.0,-0.8676786520776891,-0.9270252325435232
-0.0235178954899311,1.2669668197631836,-0.0781942158937454,-0.3126192390918731,0.0458766184747219,0.1308327317237854,0.0,0.0,-0.8675102822807064,0.7634564360720348
-0.0241401679813861,1.259485125541687,-0.0669276416301727,-0.3326707184314728,0.0505392216145992,0.0932601541280746,0.0,0.0,-0.8661847740953672,0.9257841348394236
-0.0246658325195312,1.251541018486023,-0.0553471855819225,-0.3531664907932281,0.0532854311168193,0.0549292564392089,0.0,0.0,0.044475610728335,0.9368536704385464
-0.0250154491513967,1.2436621189117432,-0.0357809327542781,-0.3502062857151031,0.0541027374565601,0.0163471344858407,0.0,0.0,0.3571445995498885,0.7582290260453076
-0.0252309795469045,1.2357057332992554,-0.0209009572863578,-0.3535901606082916,0.0534543097019195,-0.0129696549847722,0.0,0.0,-0.2119781041840931,0.7358893741464881
-0.0253781322389841,1.2272920608520508,-0.0128638418391346,-0.3738774359226227,0.0516319423913955,-0.0364505499601364,0.0,0.0,0.063211499388895,0.7156593902396043
-0.0255739204585552,1.2190725803375244,-0.0161421559751033,-0.3651909828186035,0.0482366494834423,-0.0679062902927398,0.0,0.0,0.8939532850846752,0.7231612322941026
-0.0257225986570119,1.211647391319275,-0.0099231451749801,-0.3298649191856384,0.0433499254286289,-0.0977344736456871,0.0,0.0,-0.5298589768501536,0.7891670929622887
-0.025796603411436,1.203770875930786,-0.0011382042430341,-0.3498991429805755,0.0371662639081478,-0.1236731857061386,0.0,0.0,0.0052394649890923,0.7680380098073557
-0.0258933063596487,1.1961430311203003,-0.0017548374598845,-0.3388349413871765,0.0293480847030878,-0.1563638001680374,0.0,0.0,-0.7531263971848698,-0.6802189273910118
-0.0260183326900005,1.1880481243133545,-0.005934742745012,-0.359664112329483,0.0228576231747865,-0.1298091858625412,0.0,0.0,-0.3443573414226368,-0.912004509110118
-0.0261857025325298,1.1794984340667725,-0.0118634831160306,-0.3799178004264831,0.0180480945855379,-0.0961902886629104,0.0,0.0,-0.8536374177538175,0.6259704365191254
-0.0262815468013286,1.1704838275909424,-0.0035350541584193,-0.4005904197692871,0.0120764719322323,-0.1194325238466262,0.0,0.0,-0.5991362581645359,0.6115538131662235
-0.0263069160282611,1.16101336479187,0.0046630385331809,-0.4208694696426391,0.004974341019988,-0.1420423835515976,0.0,0.0,-0.1615037476111047,-0.7715873766703018
-0.0263704303652048,1.1510730981826782,-0.0007960237562656,-0.4417869448661804,-0.0005140650318935,-0.1097680106759071,0.0,0.0,-0.7968837278909215,0.8341624613516581
-0.0263364799320697,1.140671968460083,0.0107666822150349,-0.4622887074947357,-0.0077913841232657,-0.1455462872982025,0.0,0.0,-0.1700197272719412,-0.7976114733631271
-0.0263336189091205,1.1298153400421145,0.0061878049746155,-0.4825612604618072,-0.0136176794767379,-0.1165259853005409,0.0,0.0,-0.0249456433955372,-0.9986954359210316
-0.026382828131318,1.118492603302002,-0.0010262873256579,-0.5032711625099182,-0.0174608379602432,-0.076863408088684,0.0,0.0,-0.2499586191206655,-0.7531007308293225
-0.0264569278806448,1.106714367866516,-0.0048480900004506,-0.5235069990158081,-0.0199915487319231,-0.0506143048405647,0.0,0.0,-0.2650568504122137,0.7830499693505474
-0.0264418609440326,1.094480276107788,0.0056399041786789,-0.543791651725769,-0.0240696556866168,-0.0815621167421341,0.0,0.0,0.6893758687335132,-0.6343687044022375
-0.0263992305845022,1.0827171802520752,0.0071343616582453,-0.5228527188301086,-0.0269055292010307,-0.0567175820469856,0.0,0.0,-0.0208459706917405,-0.7801128815325502
-0.0263973232358694,1.0705008506774902,0.0013038602191954,-0.5429716110229492,-0.0280093699693679,-0.0220764316618442,0.0,0.0,-0.8854449391365051,-0.7992181777954102
-0.0264137275516986,1.0578218698501587,-0.0017037962097674,-0.5635080933570862,-0.0279460158199071,0.0012670092983171,0.0,0.0,-0.9692026376724244,-0.6505390405654907
-0.026441192254424,1.0446746349334717,-0.0038031507283449,-0.5843005776405334,-0.0268957912921905,0.0210042297840118,0.0,0.0,-0.954873025417328,-0.1204591393470764
-0.0264360420405864,1.031064510345459,-0.0004491270519793,-0.6048744916915894,-0.0259441267699003,0.0190333686769008,0.0,0.0,-0.8395903706550598,-0.2844425439834595
-0.0263980869203805,1.0169914960861206,0.0029280988965183,-0.6254484057426453,-0.0250919554382562,0.0170437321066856,0.0,0.0,-0.9190860986709596,0.0826687812805175
-0.0263272281736135,1.002455711364746,0.0063269077800214,-0.646022379398346,-0.0243400912731885,0.0150369312614202,0.0,0.0,-0.9275373220443726,-0.6303144097328186
-0.0262681003659963,0.9874553084373474,0.0041173351928591,-0.6666582226753235,-0.0225631147623062,0.0355397090315818,0.0,0.0,-0.9438320398330688,0.4554576873779297
-0.0261755939573049,0.9719920754432678,0.0075548021122813,-0.687232255935669,-0.0208879765123128,0.03350280970335,0.0,0.0,-0.8994240760803223,0.701767086982727
-0.0260061267763376,0.9560707807540894,0.0164502263069152,-0.7076066136360168,-0.0204031020402908,0.009697432629764,0.0,0.0,-0.8874499201774597,-0.5376312136650085
-0.0258471481502056,0.9396864175796508,0.0143940951675176,-0.7281743288040161,-0.0189146939665079,0.0297680404037237,0.0,0.0,-0.8157268166542053,0.4150313138961792
-0.0256543159484863,0.922839105129242,0.0178794972598552,-0.7487483620643616,-0.0175299532711505,0.0276948455721139,0.0,0.0,-0.7482608556747437,0.4364916086196899
-0.0254275314509868,0.9055290818214417,0.0213784705847501,-0.7693222761154175,-0.016249381005764,0.0256116390228271,0.0,0.0,-0.5276968479156494,0.2382519245147705
-0.0251667015254497,0.8877561092376709,0.0248899310827255,-0.7898961305618286,-0.0150734232738614,0.0235191863030195,0.0,0.0,-0.5395565629005432,0.3080310821533203
-0.0248717311769723,0.8695202469825745,0.0284128375351429,-0.8104699850082397,-0.0140024945139884,0.0214183516800403,0.0,0.0,-0.6636763215065002,0.781017541885376
-0.0244654659181833,0.8508170247077942,0.0416166931390762,-0.831264853477478,-0.0149746378883719,-0.0194429270923137,0.0,0.0,0.0947350263595581,0.0136635303497314
-0.0240833275020122,0.8321205377578735,0.0395940095186233,-0.8309658169746399,-0.016345465555787,-0.0274165365844964,0.0,0.0,-0.5346664786338806,-0.6603506803512573
-0.023710822686553,0.8129684329032898,0.0376198552548885,-0.8512096405029297,-0.0167138762772083,-0.0073682642541825,0.0,0.0,0.1100085973739624,-0.4673677086830139
-0.0232035629451274,0.7940307259559631,0.0507743768393993,-0.8416773676872253,-0.0167597644031047,-0.0009177445317618,0.0,0.0,-0.3769477605819702,-0.2444515228271484
-0.0226616859436035,0.7746301293373108,0.0543405786156654,-0.8622511625289917,-0.0169122759252786,-0.0030502264853566,0.0,0.0,-0.4272099733352661,0.5508978366851807
-0.0220471378415823,0.7547704577445984,0.0626962035894393,-0.8826650977134705,-0.0181283876299858,-0.0243224501609802,0.0,0.0,0.0496917963027954,-0.5447025299072266
-0.0214004516601562,0.734796404838562,0.0648473054170608,-0.887744128704071,-0.018310310319066,-0.0036381545942276,0.0,0.0,-0.250255286693573,-0.1667152047157287
-0.0207191463559865,0.7143592238426208,0.0684297010302543,-0.9083179235458374,-0.0185994617640972,-0.0057831658050417,0.0,0.0,0.3405395746231079,-0.1423901915550232
-0.0198949817568063,0.6940858960151672,0.0823483094573021,-0.9010394811630248,-0.0185324847698211,0.0013395572314038,0.0,0.0,0.4566199779510498,-0.2298612594604492
-0.0190052036195993,0.674159586429596,0.0889211371541023,-0.8856166005134583,-0.0184769872575998,0.0011098214890807,0.0,0.0,0.1707762479782104,-0.6770296692848206
-0.0181226730346679,0.6541925072669983,0.086927093565464,-0.887403666973114,-0.0171749982982873,0.0260396562516689,0.0,0.0,0.383779764175415,-0.6364234685897827
-0.0173612590879201,0.634509801864624,0.0738749131560325,-0.8747645616531372,-0.0149346571415662,0.0448066964745521,0.0,0.0,0.6501657962799072,-0.5328667163848877
-0.0165714267641305,0.6156529784202576,0.0756974145770073,-0.8380528092384338,-0.0116808703169226,0.06507558375597,0.0,0.0,-0.1214789748191833,0.5335496664047241
-0.0156987197697162,0.5963261723518372,0.0853077620267868,-0.8589575290679932,-0.0097409775480628,0.0387978069484233,0.0,0.0,0.4975332021713257,-0.8844413161277771
-0.0148258209228515,0.5777080059051514,0.0836142748594284,-0.8274534940719604,-0.0061156973242759,0.0725055783987045,0.0,0.0,0.1112400293350219,-0.326321005821228
-0.013979434967041,0.5591052770614624,0.0813714787364006,-0.8267785310745239,-0.002891304437071,0.0644878149032592,0.0,0.0,0.5930434465408325,-0.2259243726730346
-0.0131849292665719,0.5410194396972656,0.0767160505056381,-0.803810179233551,-0.0001846273225964,0.0541333332657814,0.0,0.0,0.1177867650985717,-0.5060221552848816
-0.012372588738799,0.5231035351753235,0.0775321274995803,-0.7962707281112671,0.0034649674780666,0.0729921236634254,0.0,0.0,0.1940425634384155,0.5202610492706299
-0.0115883825346827,0.505645751953125,0.0760962218046188,-0.7759069204330444,0.0057623931206762,0.0459483787417411,0.0,0.0,0.5104645490646362,-0.3020569086074829
-0.0107051851227879,0.4885176718235016,0.0857806801795959,-0.7612599730491638,0.0082624340429902,0.0500010065734386,0.0,0.0,0.3676820993423462,-0.2409350872039795
-0.0098179820924997,0.4714119732379913,0.0864335149526596,-0.7602657079696655,0.0105253243818879,0.0452575907111167,0.0,0.0,0.7478668689727783,-0.6869263648986816
-0.0088759418576955,0.4543524980545044,0.0904586166143417,-0.7582314610481262,0.0142249884083867,0.0739932805299758,0.0,0.0,0.6995983123779297,-0.4754294157028198
-0.0079366685822606,0.4373532831668854,0.0904330611228942,-0.7555591464042664,0.0176663137972354,0.0688266903162002,0.0,0.0,0.7693232297897339,-0.3376868963241577
-0.0069869994185864,0.4211649894714355,0.0916423574090004,-0.7195221185684204,0.0209583025425672,0.0658397078514099,0.0,0.0,0.3421342372894287,-0.6126627326011658
-0.0059938430786132,0.4055145978927612,0.0947230756282806,-0.6956412196159363,0.025499252602458,0.0908186510205268,0.0,0.0,0.0720208883285522,-0.1083011627197265
-0.0050525665283203,0.3901940584182739,0.0899787917733192,-0.6809894442558289,0.0295956544578075,0.0819282233715057,0.0,0.0,0.448806881904602,-0.1327793598175048
-0.0041990280151367,0.3748412132263183,0.0818444788455963,-0.682421863079071,0.0330596566200256,0.0692802891135215,0.0,0.0,0.7459030151367188,-0.1110692024230957
-0.0032962798140943,0.3602801263332367,0.0866702795028686,-0.6472461223602295,0.0366134829819202,0.0710764229297638,0.0,0.0,0.2406723499298095,-0.4859702587127685
-0.0024515152908861,0.3458998203277588,0.0813526660203933,-0.639204740524292,0.0397081337869167,0.0618929862976074,0.0,0.0,0.7240791320800781,-0.3805953860282898
-0.0016579627990722,0.3321134150028229,0.0765960067510604,-0.612804651260376,0.0424311310052871,0.0544600412249565,0.0,0.0,0.2181043624877929,-0.1437280178070068
-0.0008613586542196,0.3186362087726593,0.0770531892776489,-0.5990622043609619,0.0450065284967422,0.0515081174671649,0.0,0.0,0.114672303199768,-0.2017247676849365
9.91821252682712e-06,0.3052883148193359,0.0843560919165611,-0.5933253169059753,0.0477475337684154,0.054819993674755,0.0,0.0,0.1043829917907714,-0.3554120063781738
0.000919628131669,0.2918214797973633,0.0882209986448288,-0.5986140370368958,0.0504555441439151,0.0541602149605751,0.0,0.0,0.6454257965087891,-0.2954879999160766
0.0019344330066815,0.278499573469162,0.0984228774905204,-0.592191755771637,0.0534849390387535,0.0605879016220569,0.0,0.0,0.5890142917633057,-0.4957072734832763
0.00309419631958,0.2655488550662994,0.1123634427785873,-0.5757219195365906,0.0570632368326187,0.0715657845139503,0.0,0.0,0.5334674119949341,-0.2998367547988891
0.0043951035477221,0.2526945769786834,0.1259725838899612,-0.5714626312255859,0.061134748160839,0.0814299285411834,0.0,0.0,0.7758967876434326,-0.0414553880691528
0.0056731225922703,0.2405860722064972,0.1238191500306129,-0.5383250713348389,0.0650731101632118,0.0787669569253921,0.0,0.0,0.6489485502243042,-0.6608371734619141
0.0069151879288256,0.2291512042284011,0.1189322248101234,-0.5084534883499146,0.0702965483069419,0.1044686436653137,0.0,0.0,-0.2609843015670776,-0.4848458766937256
0.008189296349883,0.2172537147998809,0.1222311034798622,-0.5290287733078003,0.0754159390926361,0.1023879870772361,0.0,0.0,0.5417928695678711,-0.1018519401550293
0.0095658302307128,0.2053599506616592,0.1321478188037872,-0.5289020538330078,0.0808671787381172,0.1090248003602027,0.0,0.0,0.860457181930542,-0.8679545521736145
0.0107939718291163,0.1938422471284866,0.1157988309860229,-0.5122906565666199,0.0878221616148948,0.139099434018135,0.0,0.0,0.5685211420059204,-0.2307177782058715
0.0120612140744924,0.1830967515707016,0.1194367557764053,-0.4780221581459045,0.0950464010238647,0.1444849073886871,0.0,0.0,0.5852952003479004,-0.4360318183898926
0.0132847782224416,0.1727012246847152,0.1152804717421531,-0.4624911546707153,0.1020653918385505,0.140379786491394,0.0,0.0,0.8605014085769653,-0.2833313941955566
0.0143076898530125,0.1631585657596588,0.0959697887301445,-0.4245634377002716,0.1083350703120231,0.1253934651613235,0.0,0.0,0.9455279111862184,-0.7777088284492493
0.0153203960508108,0.1543909609317779,0.0932542309165,-0.390274167060852,0.1163040697574615,0.1593800187110901,0.0,0.0,0.5255608558654785,-0.6699509620666504
0.0161748882383108,0.1461795419454574,0.0763008892536163,-0.3656887114048004,0.1253987103700637,0.1818926632404327,0.0,0.0,0.4334584474563598,-0.0753540396690368
0.0169053077697753,0.1384595036506652,0.0643264129757881,-0.3438663184642792,0.1340627670288086,0.173281192779541,0.0,0.0,0.6113312244415283,-0.1666404008865356
0.0175743103027343,0.1309944540262222,0.0584174990653991,-0.332563191652298,0.14251708984375,0.1690866649150848,0.0,0.0,0.5155496597290039,0.6451866626739502
0.0181266777217388,0.1238729357719421,0.0483973026275634,-0.3171835839748382,0.1493396162986755,0.1364506185054779,0.0,0.0,0.4208738803863525,0.1737661361694336
0.0185103416442871,0.1169280856847763,0.0322267450392246,-0.3092882037162781,0.1554682701826095,0.1225728243589401,0.0,0.0,0.5592727661132812,-0.0667303800582885
0.0189131740480661,0.1105489358305931,0.0337875559926033,-0.2842102646827698,0.1619653850793838,0.1299422532320022,0.0,0.0,0.6521986722946167,0.4779825210571289
0.0193417556583881,0.104268342256546,0.0361690185964107,-0.2798799872398376,0.1686536818742752,0.1337656378746032,0.0,0.0,0.2028778791427612,0.3140615224838257
0.0198048595339059,0.0983732789754867,0.039236307144165,-0.2628238797187805,0.1757393181324005,0.1417127251625061,0.0,0.0,0.244938850402832,0.5799365043640137
0.0202141758054494,0.0928910598158836,0.0351621285080909,-0.2443510442972183,0.1815341860055923,0.1158972531557083,0.0,0.0,0.3165315389633178,0.2888045310974121
0.0206341743469238,0.0879815444350242,0.0357883460819721,-0.2189723849296569,0.1877671182155609,0.1246587187051773,0.0,0.0,-0.3313757181167602,0.1671339273452758
0.0210745818912982,0.0826094001531601,0.0379316136240959,-0.2395478338003158,0.1939140111207962,0.1229378134012222,0.0,0.0,0.1099010705947876,0.7033641338348389
0.0214769355952739,0.0776033252477645,0.0356149710714817,-0.2231065183877945,0.1985539644956588,0.0927992314100265,0.0,0.0,0.2425388097763061,-0.5383857488632202
0.0217869766056537,0.0730121731758117,0.0253121145069599,-0.2048222422599792,0.2042922377586364,0.1147653236985206,0.0,0.0,-0.4790053367614746,0.3505384922027588
0.0221137050539255,0.0679584592580795,0.0270666480064392,-0.2253971844911575,0.209950715303421,0.1131697744131088,0.0,0.0,0.1091395616531372,-0.1272111535072326
0.0222888942807912,0.0630252659320831,0.0123722115531563,-0.2199940979480743,0.2151519656181335,0.1040246337652206,0.0,0.0,0.3359906673431396,0.8175938129425049
0.0223376266658306,0.0582201108336448,0.0015522864414379,-0.2140495926141739,0.2185050100088119,0.067061111330986,0.0,0.0,0.3650938272476196,0.92684006690979
0.0223491676151752,0.0536506287753582,-0.0002257901942357,-0.2032940834760666,0.2199046462774276,0.0279927365481853,0.0,0.0,0.7455406188964844,0.5744816064834595
0.022321606054902,0.0494664534926414,-0.0030079816933721,-0.1859974563121795,0.2201559096574783,0.005025687161833,0.0,0.0,0.7284882068634033,0.7849297523498535
0.0224287994205951,0.045432411134243,0.0118108987808227,-0.1791277229785919,0.2190549969673156,-0.0220182426273822,0.0,0.0,0.6115479469299316,0.5843064785003662
0.0225430484861135,0.0419629178941249,0.0134954471141099,-0.153894692659378,0.2169616967439651,-0.041866086423397,0.0,0.0,0.3201954364776611,0.643118143081665
0.0225942619144916,0.0390041917562484,0.0085012977942824,-0.1310063749551773,0.213547870516777,-0.0682766586542129,0.0,0.0,-0.4018523693084717,0.5171864032745361
0.0226940158754587,0.0355914197862148,0.0145535115152597,-0.1510273814201355,0.2089311629533767,-0.0923341438174247,0.0,0.0,0.2804418802261352,0.8457403182983398
