x_pos,y_pos,x_vel,y_vel,angle,ang_vel,leg_1,leg_2,main_booster,lat_booster
-0.0015264510875567,1.402992844581604,-0.1547141373157501,-0.3523246049880981,0.0018432652577757,0.0363664627075195,0.0,0.0,-0.05476576089859,0.8658950328826904
-0.002986240433529,1.394453048706055,-0.1459855586290359,-0.3795472979545593,0.0018504456384107,0.0001443168439436,0.0,0.0,0.546342134475708,0.6980005502700806
-0.0042656897567212,1.3858436346054075,-0.1269267946481704,-0.3826366364955902,0.0008429844747297,-0.0201512817293405,0.0,0.0,0.0447455644607543,0.7550921440124512
-0.0055883405730128,1.377073884010315,-0.129725843667984,-0.3897655606269836,-0.001653698971495,-0.0499383881688118,0.0,0.0,-0.3023604154586792,0.2195918560028076
-0.0069300653412938,1.367672562599182,-0.1317228376865387,-0.4178414642810821,-0.004077423363924,-0.048479039222002,0.0,0.0,-0.1632089614868164,0.659001350402832
-0.0082316398620605,1.3576383590698242,-0.1261598765850067,-0.4459778368473053,-0.0080291107296943,-0.0790414810180664,0.0,0.0,0.2723817825317383,0.6408259868621826
-0.0095260618254542,1.347639560699463,-0.1242052093148231,-0.4444281756877899,-0.0132101653143763,-0.1036304235458374,0.0,0.0,0.3743482828140259,-0.2582610845565796
-0.0107209207490086,1.3378138542175293,-0.1149206012487411,-0.4367378652095794,-0.0177235137671232,-0.090275302529335,0.0,0.0,0.0050966739654541,0.5854580402374268
-0.0119048114866018,1.3281259536743164,-0.1127258166670799,-0.4306591749191284,-0.0233327969908714,-0.1121960431337356,0.0,0.0,-0.2090536952018737,-0.1014784574508667
-0.013129043392837,1.3178064823150637,-0.1168272271752357,-0.4587382674217224,-0.0288644861429929,-0.1106438413262367,0.0,0.0,0.0312889814376831,0.6478878259658813
-0.0142747880890965,1.3074079751968384,-0.107836328446865,-0.4623020887374878,-0.0355312637984752,-0.1333477199077606,0.0,0.0,0.1296057701110839,-0.0823627710342407
-0.0154078481718897,1.296916961669922,-0.106881245970726,-0.4664297699928283,-0.041890263557434,-0.1271916329860687,0.0,0.0,-0.1806736588478088,-0.0675041675567627
-0.0165934562683105,1.285794734954834,-0.1122212037444114,-0.4945091605186462,-0.0481705702841281,-0.1256177723407745,0.0,0.0,-0.0233895182609558,-0.7087369561195374
-0.017885398119688,1.2740384340286257,-0.1241861209273338,-0.5226781368255615,-0.0531270466744899,-0.0991383865475654,0.0,0.0,0.8447060585021973,-0.2390727400779724
-0.0190317146480083,1.263016700744629,-0.1104552969336509,-0.4900063574314117,-0.0572620071470737,-0.0827065855264663,0.0,0.0,-0.1975988149642944,-0.5980528593063354
-0.0202813148498535,1.251359462738037,-0.1218484491109848,-0.5182200074195862,-0.0603466965258121,-0.0616991929709911,0.0,0.0,-0.1758341789245605,0.1449035406112671
-0.0215991027653217,1.2390708923339844,-0.1287577003240585,-0.5462896823883057,-0.0633507668972015,-0.0600866787135601,0.0,0.0,0.2889082431793213,-0.3865153789520263
-0.0228595733642578,1.2265775203704834,-0.1236181110143661,-0.5553634762763977,-0.0657525435090065,-0.0480397567152977,0.0,0.0,0.6119384765625,-0.6932462453842163
-0.0240949634462595,1.2146263122558594,-0.1228183731436729,-0.5311934351921082,-0.0664724707603454,-0.0144002120941877,0.0,0.0,0.5555351972579956,0.292054533958435
-0.0254498478025198,1.2028483152389526,-0.1344848573207855,-0.523507297039032,-0.0674665719270706,-0.019883619621396,0.0,0.0,0.724048376083374,0.9043787717819214
-0.0266146659851074,1.19159734249115,-0.1139857545495033,-0.5001601576805115,-0.0699349790811538,-0.0493727698922157,0.0,0.0,0.0562976598739624,0.283555269241333
-0.0278377532958984,1.180137038230896,-0.1199352145195007,-0.5094607472419739,-0.0722862854599952,-0.0470301806926727,0.0,0.0,0.3085494041442871,0.0101840496063232
-0.0290158279240131,1.168679118156433,-0.1159963831305503,-0.5093318223953247,-0.07407758384943,-0.0358291938900947,0.0,0.0,-0.8173468112945557,-0.6388556957244873
-0.0303304679691791,1.1565872430801392,-0.1308700740337371,-0.5374482274055481,-0.0746648609638214,-0.0117468200623989,0.0,0.0,-0.7880370020866394,0.7859969139099121
-0.031692124903202,1.1438604593276978,-0.134451612830162,-0.5657201409339905,-0.0763659328222274,-0.0340241156518459,0.0,0.0,0.2327485084533691,-0.0598394870758056
-0.0332204811275005,1.1312787532806396,-0.1506946980953216,-0.5592967867851257,-0.0784877389669418,-0.0424360856413841,0.0,0.0,-0.8786736130714417,0.2474697828292846
-0.0348487868905067,1.1180654764175415,-0.1607682406902313,-0.5873690843582153,-0.0805286094546318,-0.0408175811171531,0.0,0.0,0.7208476066589355,0.8554298877716064
-0.036592673510313,1.1055245399475098,-0.1704270392656326,-0.5575868487358093,-0.084450863301754,-0.0784454345703125,0.0,0.0,-0.786273717880249,0.1399570703506469
-0.0384413711726665,1.0923523902893066,-0.1809850335121154,-0.5856600403785706,-0.0882941335439682,-0.0768653899431228,0.0,0.0,-0.8750386238098145,0.9669921398162842
-0.0403236374258995,1.0785353183746338,-0.1825570166110992,-0.614439070224762,-0.0939203426241874,-0.1125239506363868,0.0,0.0,-0.865899920463562,0.6190576553344727
-0.0422643646597862,1.0640867948532104,-0.1871978938579559,-0.6426008343696594,-0.1007396280765533,-0.1363856047391891,0.0,0.0,-0.977053701877594,-0.5262526869773865
-0.0443633086979389,1.04901123046875,-0.2042852938175201,-0.6704166531562805,-0.1062995791435241,-0.1111989766359329,0.0,0.0,0.353258728981018,0.4733291864395141
-0.0465727820992469,1.034294366836548,-0.215112566947937,-0.6545085310935974,-0.1120979860424995,-0.1159680113196373,0.0,0.0,-0.4184038043022156,0.9223179817199708
-0.0488329902291297,1.0189273357391355,-0.2186020314693451,-0.6835640072822571,-0.1194719225168228,-0.1474787443876266,0.0,0.0,0.0464376211166381,-0.5529214143753052
-0.0511943809688091,1.0035274028778076,-0.2299208343029022,-0.6849468946456909,-0.1256519556045532,-0.123600997030735,0.0,0.0,-0.1000014543533325,0.0642474889755249
-0.0536738410592079,0.987496256828308,-0.2418148815631866,-0.7130218148231506,-0.1317613124847412,-0.1221870929002761,0.0,0.0,0.2917602062225342,-0.4010873436927795
-0.0562466606497764,0.971367359161377,-0.2511191964149475,-0.7173982858657837,-0.1378961652517318,-0.1226971596479415,0.0,0.0,-0.3715587854385376,0.3169319629669189
-0.0589405074715614,0.9546071887016296,-0.2633036077022552,-0.7454730272293091,-0.1439628899097442,-0.1213339939713478,0.0,0.0,0.7658441066741943,0.1216692924499511
-0.0616692528128623,0.9385616183280944,-0.2666640281677246,-0.7137461304664612,-0.1501572579145431,-0.123887799680233,0.0,0.0,-0.9046114087104796,0.5230348110198975
-0.0644787773489952,0.9218759536743164,-0.2737205028533935,-0.7423339486122131,-0.157380998134613,-0.1444749236106872,0.0,0.0,-0.4669306874275207,0.5454661846160889
-0.0673776641488075,0.9045554995536804,-0.2818270921707153,-0.7706736326217651,-0.1654359698295593,-0.1610992848873138,0.0,0.0,-0.2924413681030273,0.3777556419372558
-0.0704024285078048,0.8866040110588074,-0.294491708278656,-0.7987505197525024,-0.1734277606010437,-0.1598357856273651,0.0,0.0,0.5464209318161011,0.6134345531463623
-0.0733592063188552,0.8684107661247253,-0.2867614924907684,-0.8096590638160706,-0.1823689192533493,-0.178823322057724,0.0,0.0,0.9914774894714355,0.7332363128662109
-0.0761443153023719,0.8504744172096252,-0.268521249294281,-0.7984322905540466,-0.1924100071191787,-0.2008218318223953,0.0,0.0,-0.2071038484573364,0.6635036468505859
-0.0790111571550369,0.8318860530853271,-0.2755381464958191,-0.8276388049125671,-0.2036391496658325,-0.2245829403400421,0.0,0.0,0.9870223999023438,0.0860044956207275
-0.0818721801042556,0.8132410645484924,-0.2752833068370819,-0.8301921486854553,-0.2145543396472931,-0.2183039635419845,0.0,0.0,0.9721459150314332,0.0245848894119262
-0.0846787467598915,0.7947245240211487,-0.2702499032020569,-0.8245108723640442,-0.2250754833221435,-0.2104232013225555,0.0,0.0,0.9838556051254272,-0.5365999341011047
-0.0875724777579307,0.777108907699585,-0.2796995043754577,-0.7844247221946716,-0.2348775416612625,-0.1960412859916687,0.0,0.0,0.8940696716308594,-0.3551779985427856
-0.09053535759449,0.7602340579032898,-0.2860115468502044,-0.7516717910766602,-0.2453283220529556,-0.2090153247117996,0.0,0.0,0.4863710403442383,0.4383443593978882
-0.0935379043221473,0.7434016466140747,-0.289961040019989,-0.7498649954795837,-0.2558132708072662,-0.2096997052431106,0.0,0.0,0.9805139303207396,0.1652889251708984
-0.0963336005806922,0.7268666625022888,-0.2701416611671448,-0.7365587949752808,-0.2654500305652618,-0.1927352845668792,0.0,0.0,0.5135650634765625,0.7705948352813721
-0.0990825667977333,0.7106822729110718,-0.2639267742633819,-0.7213308811187744,-0.2766854166984558,-0.2247079610824585,0.0,0.0,0.1404980421066284,0.5147029161453247
-0.1017632484436035,0.6942574381828308,-0.2563231587409973,-0.7322638034820557,-0.2887568771839142,-0.2414286434650421,0.0,0.0,0.9449789524078368,-0.8407359719276428
-0.1043686866760253,0.6785866022109985,-0.2505571246147156,-0.6984941959381104,-0.299054890871048,-0.2059604376554489,0.0,0.0,0.4754281044006347,-0.8445551991462708
-0.1069018393754959,0.662869393825531,-0.245246335864067,-0.7002206444740295,-0.3073989152908325,-0.1668806225061416,0.0,0.0,0.5319428443908691,-0.8837899565696716
-0.1095999702811241,0.6472188830375671,-0.2634272277355194,-0.6969462633132935,-0.314023345708847,-0.1324886381626129,0.0,0.0,0.2294689416885376,-0.7410427927970886
-0.1122291535139083,0.6317800879478455,-0.2581415772438049,-0.6872208118438721,-0.3189948797225952,-0.0994301736354827,0.0,0.0,0.9232769012451172,-0.3025243282318115
-0.1145955100655555,0.6167523264884949,-0.2326138019561767,-0.6687946319580078,-0.3231767416000366,-0.083637036383152,0.0,0.0,0.6777085065841675,-0.8823969960212708
-0.1168161407113075,0.6022832989692688,-0.2199550420045852,-0.6435367465019226,-0.3253739178180694,-0.0439442172646522,0.0,0.0,0.0602469444274902,-0.858734667301178
-0.1191288009285926,0.5879663228988647,-0.2308818101882934,-0.6363974809646606,-0.3257680833339691,-0.0078835394233465,0.0,0.0,0.8732137680053711,-0.6699328422546387
-0.1214356422424316,0.5736039280891418,-0.231800839304924,-0.6380761861801147,-0.3246032893657684,0.023296121507883,0.0,0.0,0.8938138484954834,-0.6882099509239197
-0.1237907409667968,0.5598414540290833,-0.2377456426620483,-0.6111689209938049,-0.3222824037075043,0.0464177392423152,0.0,0.0,0.8154997825622559,-0.5226073265075684
-0.1260053664445877,0.5462056398391724,-0.22515270113945,-0.6052199006080627,-0.3184428513050079,0.0767910033464431,0.0,0.0,0.8381729125976562,-0.2279183864593505
-0.1281185150146484,0.5328973531723022,-0.2151741087436676,-0.5906357169151306,-0.3144378960132599,0.0800988972187042,0.0,0.0,0.9201934337615968,-0.5568444132804871
-0.1302580833435058,0.5196341872215271,-0.2189742624759674,-0.5883991122245789,-0.309230774641037,0.104142390191555,0.0,0.0,0.8106625080108643,0.5230802297592163
-0.1324357092380523,0.5067121386528015,-0.2214026451110839,-0.5735406279563904,-0.3054536879062652,0.0755419135093689,0.0,0.0,0.985062837600708,-0.1308358311653137
-0.1344165802001953,0.4946178793907165,-0.2018986046314239,-0.536729097366333,-0.3015135526657104,0.0788029581308364,0.0,0.0,0.919664740562439,0.1435540914535522
-0.1363427191972732,0.4823362231254577,-0.1968928277492523,-0.5449702739715576,-0.2970885038375854,0.0885002166032791,0.0,0.0,0.8574951887130737,0.0465612411499023
-0.1380958557128906,0.4707862734794616,-0.1797881722450256,-0.5124258995056152,-0.2924792766571045,0.0921847373247146,0.0,0.0,0.9512326717376708,0.2744398117065429
-0.1399313956499099,0.4594557583332062,-0.1875712722539901,-0.5027757287025452,-0.2883404791355133,0.0827759951353073,0.0,0.0,0.8574106693267822,-0.0297241806983947
-0.1417864859104156,0.4486325085163116,-0.1891075074672699,-0.4803285300731659,-0.2846355140209198,0.0740990489721298,0.0,0.0,0.99393892288208,0.666121244430542
-0.1434787809848785,0.4382211863994598,-0.171658843755722,-0.4622535109519958,-0.2821352481842041,0.0500052981078624,0.0,0.0,0.9132401943206788,0.8363596200942993
-0.1451272964477539,0.428636759519577,-0.1653652936220169,-0.4258770942687988,-0.281606525182724,0.0105744805186986,0.0,0.0,0.3297483921051025,0.8099386692047119
-0.1466577500104904,0.4190357327461242,-0.1520701050758361,-0.4269004464149475,-0.2826045751571655,-0.0199611112475395,0.0,0.0,0.5482587814331055,0.2644702196121216
-0.1482527703046798,0.4093440175056457,-0.1584316045045852,-0.4309480786323547,-0.2837050557136535,-0.0220096316188573,0.0,0.0,-0.3189837336540222,0.9312727451324464
-0.1499075889587402,0.3989769518375397,-0.1623965203762054,-0.4613614976406097,-0.2868750691413879,-0.0634011551737785,0.0,0.0,0.7958827018737793,0.9168585538864136
-0.1515629738569259,0.3884859383106231,-0.1606298089027404,-0.4672422707080841,-0.2919334769248962,-0.1011680215597152,0.0,0.0,0.827491044998169,0.0193498134613037
-0.1531103104352951,0.3786277770996094,-0.1498319208621978,-0.4391297101974487,-0.2969911098480224,-0.1011518388986587,0.0,0.0,0.8930010795593262,-0.3393864035606384
-0.1544317305088043,0.3694386184215545,-0.1276941001415252,-0.4093234241008758,-0.3015809059143066,-0.0917961373925209,0.0,0.0,0.8497934341430664,-0.0755218267440795
-0.1557361632585525,0.3609845638275146,-0.1254834979772567,-0.3767712414264679,-0.3067083656787872,-0.1025491133332252,0.0,0.0,0.930390238761902,-0.7348330020904541
-0.1572709083557129,0.3525455594062805,-0.1496383994817733,-0.3758841156959533,-0.3106815218925476,-0.0794633254408836,0.0,0.0,0.8887312412261963,-0.3613304495811462
-0.1586194038391113,0.344744324684143,-0.1312723606824875,-0.3474907279014587,-0.3143979012966156,-0.0743273049592971,0.0,0.0,0.7986674308776855,0.3321393728256225
-0.1600126326084137,0.3372565507888794,-0.1352905929088592,-0.3336731195449829,-0.3185810446739197,-0.0836622342467308,0.0,0.0,0.8701303005218506,0.2682050466537475
-0.1613573133945465,0.3302592635154724,-0.1302126497030258,-0.3119349181652069,-0.3230076730251312,-0.0885327756404876,0.0,0.0,0.8590428829193115,-0.3964009284973144
-0.1625971794128418,0.3237559497356415,-0.1197272092103958,-0.2899933755397796,-0.3274530172348022,-0.0889071002602577,0.0,0.0,0.7385897636413574,-0.7054232954978943
-0.1637298613786697,0.3174693584442138,-0.1106321960687637,-0.2800036966800689,-0.330197811126709,-0.0548957772552967,0.0,0.0,0.8122565746307373,-0.3977984189987182
-0.1648470908403396,0.3110710978507995,-0.1092436537146568,-0.2849318087100982,-0.3327787518501282,-0.0516188070178031,0.0,0.0,0.7248108386993408,-0.7338067293167114
-0.1659128218889236,0.3046084642410278,-0.1057802885770797,-0.2874106466770172,-0.3336048722267151,-0.0165226384997367,0.0,0.0,0.970887303352356,-0.511653482913971
-0.1667474806308746,0.2984081506729126,-0.0842553377151489,-0.2753905653953552,-0.3327849805355072,0.0163976587355136,0.0,0.0,0.6147763729095459,-0.5808277726173401
-0.1674898117780685,0.2920686900615692,-0.076534703373909,-0.2812234461307525,-0.3303833603858948,0.0480321533977985,0.0,0.0,0.724022388458252,-0.8014211654663086
-0.168169304728508,0.2862492799758911,-0.0718628317117691,-0.2577528953552246,-0.3263053596019745,0.0815602391958236,0.0,0.0,0.4268808364868164,-0.5764951109886169
-0.1687790900468826,0.2807410955429077,-0.0661368668079376,-0.243654191493988,-0.3209379017353058,0.1073490604758262,0.0,0.0,0.2500816583633423,-0.610908031463623
-0.1693004667758941,0.2752957344055176,-0.0587181821465492,-0.2405768483877182,-0.314098984003067,0.1367781162261963,0.0,0.0,-0.0467691421508789,0.070685863494873
-0.1699449568986892,0.2692190408706665,-0.0710875540971756,-0.2686518728733063,-0.3072157800197601,0.1376639306545257,0.0,0.0,0.0751230716705322,0.2072386741638183
-0.1706434190273285,0.2630005478858948,-0.0763902887701988,-0.2750121057033539,-0.3004464209079742,0.1353873461484909,0.0,0.0,-0.068640649318695,-0.3984744548797607
-0.1714618653059005,0.2561507523059845,-0.0884447246789932,-0.3030871450901031,-0.2936326861381531,0.1362743973731994,0.0,0.0,0.2217830419540405,0.1835795640945434
-0.1722931861877441,0.2492815852165222,-0.0897112041711807,-0.3039872050285339,-0.286854475736618,0.1355641633272171,0.0,0.0,0.2013907432556152,0.2798233032226562
-0.173163890838623,0.2426518052816391,-0.0932979434728622,-0.2934466898441314,-0.2804507315158844,0.1280743181705474,0.0,0.0,-0.4952709674835205,0.205512523651123
-0.174148753285408,0.2353907376527786,-0.104771688580513,-0.3215214014053345,-0.2740031480789184,0.1289515644311905,0.0,0.0,0.4010018110275268,0.7350101470947266
-0.1750653237104416,0.2284191399812698,-0.0964666381478309,-0.3089555203914642,-0.2690745890140533,0.0985710769891738,0.0,0.0,0.2336592674255371,0.7252011299133301
-0.1759537756443023,0.2216345220804214,-0.0921953916549682,-0.3009299635887146,-0.2656512856483459,0.0684662759304046,0.0,0.0,0.2244796752929687,0.6059772968292236
-0.1768261939287185,0.2147396653890609,-0.0894020646810531,-0.3060500919818878,-0.263449102640152,0.0440439023077487,0.0,0.0,0.2653845548629761,0.1261694431304931
-0.1777689903974533,0.2079150527715683,-0.0960777401924133,-0.3029952049255371,-0.2616187036037445,0.0366085097193717,0.0,0.0,0.5740947723388672,-0.3049222230911255
-0.1788222342729568,0.2012373507022857,-0.1065108031034469,-0.2965755462646484,-0.2604108452796936,0.0241573080420494,0.0,0.0,-0.0194668173789978,0.7687408924102783
-0.1799035966396331,0.19390469789505,-0.1075651049613952,-0.3259933590888977,-0.2609885036945343,-0.0115529764443635,0.0,0.0,0.1106537580490112,-0.0748400092124939
-0.1809751540422439,0.1862838566303253,-0.1068190485239029,-0.3387649953365326,-0.2613371312618255,-0.0069725895300507,0.0,0.0,0.7734603881835938,0.5139055252075195
-0.1817258894443512,0.179142028093338,-0.0742027983069419,-0.3175703883171081,-0.2622156143188476,-0.0175697095692157,0.0,0.0,0.2755627632141113,-0.5863706469535828
-0.1824699342250824,0.1722665578126907,-0.0747140198945999,-0.3055196106433868,-0.2619044184684753,0.0062240520492196,0.0,0.0,0.37204110622406,-0.5790485143661499
-0.183030217885971,0.1657616049051284,-0.0577792339026927,-0.288799375295639,-0.260111391544342,0.0358598195016384,0.0,0.0,0.7301592826843262,-0.4989825487136841
-0.183434396982193,0.1594739258289337,-0.0425703227519989,-0.279073029756546,-0.2579173445701599,0.0438806749880313,0.0,0.0,-0.2636169195175171,-0.646728515625
-0.1839597672224044,0.1525806486606598,-0.0560180954635143,-0.3057613372802734,-0.2543643414974212,0.0710600391030311,0.0,0.0,0.2941465377807617,-0.4658597707748413
-0.1843510568141937,0.1459334194660186,-0.0428599752485752,-0.2947898507118225,-0.2505644559860229,0.0759976282715797,0.0,0.0,0.6082543134689331,-0.8077276945114136
-0.1846716850996017,0.139290764927864,-0.0375515408813953,-0.2942991554737091,-0.2449668049812317,0.1119529753923416,0.0,0.0,0.7597702741622925,-0.6889925599098206
-0.1850780546665191,0.133047729730606,-0.0472206994891166,-0.2763889729976654,-0.238274946808815,0.1338373720645904,0.0,0.0,0.6573491096496582,-0.657194972038269
-0.1855990439653396,0.1269924491643905,-0.0597057938575744,-0.2679090797901153,-0.2305524051189422,0.1544507443904876,0.0,0.0,0.8000438213348389,-0.2753828167915344
-0.1860461235046386,0.1212113201618194,-0.0522441938519477,-0.2557829022407532,-0.2229224890470504,0.1525987684726715,0.0,0.0,0.821164608001709,0.2705081701278686
-0.1863725632429123,0.1156498491764068,-0.04032913595438,-0.2460306286811828,-0.2151474505662918,0.1555007249116897,0.0,0.0,0.755861759185791,0.7778897285461426
-0.1864403784275055,0.1099421828985214,-0.0132357869297266,-0.2527467310428619,-0.2086315304040908,0.1303185522556305,0.0,0.0,0.8829509019851685,-0.4685457944869995
-0.1862617433071136,0.1047126650810241,0.0108802262693643,-0.23145791888237,-0.2015960365533828,0.140710175037384,0.0,0.0,0.3912115097045898,0.0623172521591186
-0.1859431266784668,0.0998439863324165,0.0247725788503885,-0.2154373228549957,-0.1944608986377716,0.1427031457424163,0.0,0.0,0.6798722743988037,-0.4104561805725097
