x_pos,y_pos,x_vel,y_vel,angle,ang_vel,leg_1,leg_2,main_booster,lat_booster
-0.0015545844798907,1.403235912322998,-0.1572301238775253,-0.3415159881114959,0.0015891041839495,0.0313336439430713,0.0,0.0,-0.3268004059791565,0.567657470703125
-0.0030920028220862,1.395183801651001,-0.1538618505001068,-0.3578704595565796,0.0017154556699097,0.0025277128443121,0.0,0.0,-0.0588567852973938,0.4775294065475464
-0.0046603204682469,1.3867428302764893,-0.156752124428749,-0.3751592636108398,0.001638391520828,-0.0015414347872138,0.0,0.0,-0.2155772447586059,0.5695980787277222
-0.0062235831283032,1.3779114484786987,-0.1551220118999481,-0.3925058543682098,0.0004531661979854,-0.0237066503614187,0.0,0.0,0.0283997058868408,0.6692540645599365
-0.0076734544709324,1.3693026304244995,-0.1423495560884475,-0.3826124966144562,-0.0021577416919171,-0.0522230863571167,0.0,0.0,0.1114908456802368,0.7503831386566162
-0.0089882854372262,1.3608518838882446,-0.127236932516098,-0.3755990266799927,-0.0063530746847391,-0.0839147418737411,0.0,0.0,0.0145970582962036,0.4309644699096679
-0.0103448871523141,1.3525450229644775,-0.1311513036489486,-0.3692200481891632,-0.0108176581561565,-0.0892998278141021,0.0,0.0,0.2899024486541748,-0.1017341017723083
-0.0116094592958688,1.3446056842803955,-0.1222972646355629,-0.3528966605663299,-0.0149298720061779,-0.0822518244385719,0.0,0.0,-0.4857636094093323,0.3893424272537231
-0.0129037853330373,1.336277961730957,-0.1250714510679245,-0.3701677620410919,-0.01924604550004,-0.086331307888031,0.0,0.0,0.2320103645324707,-0.1866529583930969
-0.0142178535461425,1.3283746242523191,-0.1268292963504791,-0.3513260781764984,-0.0237683914601802,-0.0904550999402999,0.0,0.0,-0.495867371559143,0.2055963277816772
-0.0155610088258981,1.3200830221176147,-0.129543200135231,-0.3686000406742096,-0.0284942854195833,-0.0945267528295517,0.0,0.0,-0.1658896207809448,0.2135223150253296
-0.0169331543147563,1.3114033937454224,-0.1322225779294967,-0.3858653306961059,-0.0334238298237323,-0.0986000522971153,0.0,0.0,-0.2737640142440796,0.2974278926849365
-0.0183337219059467,1.3023357391357422,-0.1348649263381958,-0.4031327068805694,-0.0385570488870143,-0.1026737689971923,0.0,0.0,-0.3527114391326904,0.176259160041809
-0.0197622291743755,1.2928800582885742,-0.1374672800302505,-0.420401006937027,-0.0438939556479454,-0.1067476049065589,0.0,0.0,-0.3911659717559814,0.6763976812362671
-0.0211524963378906,1.2830392122268677,-0.1317542493343353,-0.4376008808612823,-0.0510897934436798,-0.1439298242330551,0.0,0.0,0.0009690523147583,-0.4956793785095215
-0.0224943161010742,1.2730753421783447,-0.1270257979631424,-0.4430961012840271,-0.0581760071218013,-0.1417374312877655,0.0,0.0,-0.2696000337600708,-0.2824875116348266
-0.0238628387451171,1.2627239227294922,-0.1294896006584167,-0.4603692293167114,-0.0654663741588592,-0.14582060277462,0.0,0.0,-0.741293728351593,-0.1756427884101867
-0.0252575874328613,1.2519848346710205,-0.1319026350975036,-0.4776406288146972,-0.072960153222084,-0.1498893201351165,0.0,0.0,-0.4675300121307373,-0.0594772696495056
-0.0266778953373432,1.2408580780029297,-0.1342632472515106,-0.4949122369289398,-0.0806575194001197,-0.1539612263441085,0.0,0.0,0.5667722225189209,-0.4590533971786499
-0.0281561855226755,1.2301557064056396,-0.1395072638988495,-0.4761276245117187,-0.0889159515500068,-0.1651833355426788,0.0,0.0,-0.2319673895835876,-0.1631099581718444
-0.0296589843928813,1.2190660238265991,-0.1417554020881652,-0.4934080243110657,-0.0973775535821914,-0.169247418642044,0.0,0.0,-0.0376720428466796,0.7985258102416992
-0.0311218257993459,1.2075753211975098,-0.135936751961708,-0.5114027261734009,-0.1076659560203552,-0.2057865411043167,0.0,0.0,-0.2311462163925171,-0.8693115711212158
-0.0326616279780864,1.1957050561904907,-0.1447944343090057,-0.5282493829727173,-0.1167980134487152,-0.182657390832901,0.0,0.0,-0.2084046602249145,-0.7622178792953491
-0.0342775359749794,1.1834485530853271,-0.1535647809505462,-0.5453822016716003,-0.1247938126325607,-0.1599303781986236,0.0,0.0,-0.2082678079605102,0.0552871227264404
-0.0359154716134071,1.170804738998413,-0.1555663645267486,-0.5626575350761414,-0.1329935938119888,-0.1640101969242096,0.0,0.0,-0.5635870695114136,-0.4216103553771972
-0.0375767722725868,1.1577523946762085,-0.1576897501945495,-0.5808786749839783,-0.1413974910974502,-0.1680777966976165,0.0,0.0,0.8193626403808594,-0.0695251822471618
-0.0391419418156147,1.1455000638961792,-0.1479057967662811,-0.5453887581825256,-0.1499869376420974,-0.1717893779277801,0.0,0.0,0.1029008626937866,-0.8196687698364258
-0.0408082976937294,1.133723258972168,-0.1594239175319671,-0.5241557359695435,-0.1571853160858154,-0.143967255949974,0.0,0.0,0.377173900604248,0.179646611213684
-0.0425003990530967,1.122541427612305,-0.1613032966852188,-0.4978300034999847,-0.1650922149419784,-0.1581378430128097,0.0,0.0,0.0024832487106323,0.4165868759155273
-0.0441751480102539,1.1114131212234497,-0.1593150794506073,-0.495513379573822,-0.1732634454965591,-0.1634243428707122,0.0,0.0,-0.3558971881866455,-0.4012832641601562
-0.0458678230643272,1.0998979806900024,-0.1609186083078384,-0.5127856135368347,-0.1816400438547134,-0.1675322204828262,0.0,0.0,-0.4414646625518799,0.083242654800415
-0.0475778579711914,1.0879957675933838,-0.1624480485916137,-0.5300582647323608,-0.1902220249176025,-0.1716398745775222,0.0,0.0,-0.5254895687103271,-0.2398212552070617
-0.0493042953312397,1.0757066011428833,-0.16390261054039,-0.5473313927650452,-0.1990093439817428,-0.1757467091083526,0.0,0.0,0.6168837547302246,-0.7039346694946289
-0.051098920404911,1.06358003616333,-0.1717937886714935,-0.5400136113166809,-0.2067310214042663,-0.154433935880661,0.0,0.0,0.7004525661468506,-0.4591850042343139
-0.0527594573795795,1.0520087480545044,-0.158281534910202,-0.5153830647468567,-0.2145804166793823,-0.1569875180721283,0.0,0.0,0.8025529384613037,0.6726140975952148
-0.0541848167777061,1.04124116897583,-0.1332897543907165,-0.4799305498600006,-0.223933607339859,-0.1870636641979217,0.0,0.0,-0.6902803182601929,-0.0050194263458251
-0.0556235313415527,1.030086874961853,-0.1344399452209472,-0.4972053170204162,-0.2334913313388824,-0.1911549121141433,0.0,0.0,-0.7848397493362427,-0.7582144141197205
-0.057128332555294,1.018570899963379,-0.1422877758741378,-0.5131398439407349,-0.2418161481618881,-0.1664962470531463,0.0,0.0,-0.2739228010177612,-0.6058065295219421
-0.0586933121085166,1.0066930055618286,-0.1494017839431762,-0.5290994644165039,-0.2490362673997879,-0.1444022953510284,0.0,0.0,-0.8674666285514832,-0.8557802438735962
-0.0603315345942974,0.9944525361061096,-0.1581558138132095,-0.5449935793876648,-0.2548107504844665,-0.1154904216527938,0.0,0.0,0.4676575660705566,-0.9353097081184388
-0.0619801506400108,0.982904851436615,-0.1607649624347686,-0.5139451622962952,-0.2589932978153229,-0.083651065826416,0.0,0.0,-0.0664794445037841,-0.3547021746635437
-0.0636384040117263,0.9709696769714355,-0.1615333259105682,-0.531214714050293,-0.2633777260780334,-0.0876886472105979,0.0,0.0,-0.6136618852615356,-0.8587436079978943
-0.0653619766235351,0.9586600065231324,-0.1692989617586136,-0.5476503968238831,-0.2665140330791473,-0.06272554397583,0.0,0.0,0.8943315744400024,-0.502750813961029
-0.0668563842773437,0.9468069076538086,-0.1475284099578857,-0.5271555185317993,-0.2684744894504547,-0.0392091125249862,0.0,0.0,-0.5355042219161987,-0.766485333442688
-0.0684221237897872,0.934583067893982,-0.1560738533735275,-0.5433763265609741,-0.2689849734306335,-0.0102097708731889,0.0,0.0,0.3006298542022705,-0.3798439502716064
-0.0698898285627365,0.922337293624878,-0.1462368667125702,-0.5443488955497742,-0.2695258259773254,-0.0108170080929994,0.0,0.0,-0.373056411743164,-0.7948232293128967
-0.0714185684919357,0.9097222089767456,-0.1535621434450149,-0.5605438947677612,-0.2688199281692505,0.014117881655693,0.0,0.0,-0.118407130241394,-0.9390881061553956
-0.0730353370308876,0.8967640399932861,-0.1643983423709869,-0.5754197239875793,-0.2660421133041382,0.055556196719408,0.0,0.0,-0.4140404462814331,-0.4370385408401489
-0.0746567696332931,0.8834182620048523,-0.1646743416786193,-0.5926883816719055,-0.263457179069519,0.0516987219452858,0.0,0.0,-0.9758315682411194,-0.3740864992141723
-0.0762822180986404,0.8696847558021545,-0.1648866236209869,-0.6099568605422974,-0.2610631585121155,0.0478804484009742,0.0,0.0,-0.9472756385803224,-0.7154194712638855
-0.0779525786638259,0.8555800318717957,-0.1702709794044494,-0.6263018250465393,-0.2577552199363708,0.0661585479974746,0.0,0.0,-0.945225715637207,-0.694131076335907
-0.0796827301383018,0.8411151766777039,-0.1775890290737152,-0.6420876383781433,-0.2530913054943084,0.0932784229516983,0.0,0.0,-0.6680752038955688,0.1096961498260498
-0.081414982676506,0.8262627124786377,-0.1776238232851028,-0.6593570113182068,-0.2486111223697662,0.0896035134792327,0.0,0.0,-0.345216155052185,-0.4017688035964966
-0.0831487625837326,0.8110226392745972,-0.1776040494441986,-0.6766262054443359,-0.2443118244409561,0.0859860405325889,0.0,0.0,-0.538765013217926,-0.4921113848686218
-0.0848835930228233,0.795395016670227,-0.1775323450565338,-0.6938951015472412,-0.240190252661705,0.0824310034513473,0.0,0.0,-0.3992822170257568,-0.4188621044158935
-0.0866189002990722,0.7793797254562378,-0.1774114221334457,-0.7111636996269226,-0.2362430393695831,0.0789442658424377,0.0,0.0,-0.2223946452140808,-0.5635364651679993
-0.0883897766470909,0.7629950642585754,-0.1817561089992523,-0.7274709939956665,-0.231502890586853,0.0948030725121498,0.0,0.0,0.2307326793670654,0.2485547065734863
-0.0899447426199913,0.7469207048416138,-0.1604791581630706,-0.7136380672454834,-0.2264538407325744,0.1009809151291847,0.0,0.0,-0.5106186270713806,0.0602846145629882
-0.0914987549185752,0.7304587960243225,-0.1602284461259842,-0.7309070229530334,-0.2215671390295028,0.0977340042591095,0.0,0.0,0.0319740772247314,-0.1198899149894714
-0.0929899215698242,0.7143429517745972,-0.1535760313272476,-0.7155895829200745,-0.2170582264661789,0.0901783257722854,0.0,0.0,-0.3315677642822265,-0.2996829152107239
-0.0944793671369552,0.6978395581245422,-0.1532539576292038,-0.7328578233718872,-0.2127020508050918,0.0871234387159347,0.0,0.0,-0.42648845911026,0.2989004850387573
-0.0959667190909385,0.6809481978416443,-0.152901142835617,-0.7501257658004761,-0.2084932923316955,0.0841747969388961,0.0,0.0,0.5297467708587646,-0.1406247615814209
-0.0972405448555946,0.6643363833427429,-0.1319433748722076,-0.7376649975776672,-0.2038973271846771,0.0919193178415298,0.0,0.0,0.2494168281555175,0.4169847965240478
-0.0984003096818924,0.6480123996734619,-0.1204883605241775,-0.7249000072479248,-0.1993547230958938,0.0908524543046951,0.0,0.0,0.5065246820449829,-0.0343692898750305
-0.0994777679443359,0.6318357586860657,-0.1121577471494674,-0.7183719873428345,-0.1949085146188736,0.0889239162206649,0.0,0.0,-0.4156979322433471,-0.1785953044891357
-0.100551888346672,0.615271270275116,-0.1117164939641952,-0.7356393933296204,-0.1905850321054458,0.0864697992801666,0.0,0.0,0.8475866317749023,-0.1129793524742126
-0.1014178246259689,0.5997216105461121,-0.0908823832869529,-0.6905479431152344,-0.1862661391496658,0.0863780006766319,0.0,0.0,-0.1051641106605529,0.336688756942749
-0.1022800430655479,0.5837841629981995,-0.0904183685779571,-0.7078149914741516,-0.1820555180311203,0.084212377667427,0.0,0.0,0.3714543581008911,-0.1308755278587341
-0.1029881462454795,0.5684979557991028,-0.075012631714344,-0.6788776516914368,-0.1778417080640792,0.0842759758234024,0.0,0.0,0.0164103507995605,-0.3334037065505981
-0.1036978736519813,0.55326908826828,-0.0748193562030792,-0.6763855218887329,-0.1739883124828338,0.0770680755376815,0.0,0.0,-0.4121220111846924,0.1683199405670166
-0.1044037789106369,0.5376520752906799,-0.0743491202592849,-0.6936517953872681,-0.1702192276716232,0.0753818899393081,0.0,0.0,0.9159824848175048,0.1546242237091064
-0.1049483269453048,0.5227049589157104,-0.0583045855164527,-0.663881242275238,-0.1663608849048614,0.0771668627858161,0.0,0.0,0.5020961761474609,-0.7659193873405457
-0.1055487617850303,0.508561372756958,-0.0651530623435974,-0.6280376315116882,-0.1612440943717956,0.1023358702659607,0.0,0.0,-0.2649300694465637,0.8730225563049316
-0.1060688942670822,0.4940111339092254,-0.0551091134548187,-0.6463455557823181,-0.1581465601921081,0.0619505159556865,0.0,0.0,-0.0541538000106811,-0.338607907295227
-0.106585219502449,0.4790726602077484,-0.0546841695904731,-0.6636108160018921,-0.1550979763269424,0.0609716661274433,0.0,0.0,0.7074300050735474,-0.5410746932029724
-0.1070145592093467,0.4642307460308075,-0.0472394190728664,-0.6591989398002625,-0.1508067399263382,0.0858249738812446,0.0,0.0,0.7784271240234375,0.1531360149383545
-0.1074192076921463,0.4495501816272735,-0.0445756018161773,-0.6520581841468811,-0.1467031985521316,0.0820709392428398,0.0,0.0,0.9384405612945556,-0.5582327842712402
-0.1077380180358886,0.4358794391155243,-0.0370557568967342,-0.6070862412452698,-0.1415315866470337,0.1034322828054428,0.0,0.0,0.5798482894897461,0.7779507637023926
-0.1077980026602745,0.4229556918144226,-0.0097723705694079,-0.574034571647644,-0.1377754807472229,0.0751220658421516,0.0,0.0,0.5406143665313721,-0.2068045139312744
-0.1078541725873947,0.4107976257801056,-0.0089014116674661,-0.5400573015213013,-0.1345056146383285,0.065397523343563,0.0,0.0,-0.4436094760894775,-0.6221834421157837
-0.107967659831047,0.3982571363449096,-0.0161569155752658,-0.5569336414337158,-0.1297214925289154,0.0956823229789733,0.0,0.0,0.4480155706405639,0.7524411678314209
-0.1078907996416091,0.3863462507724762,0.0043082651682198,-0.5290807485580444,-0.1263579577207565,0.0672708302736282,0.0,0.0,-0.4319897294044494,-0.1263986825942993
-0.1078122109174728,0.3740471601486206,0.004455299116671,-0.5463453531265259,-0.1229689344763755,0.0677804946899414,0.0,0.0,0.4061412811279297,-0.0925458669662475
-0.1077077835798263,0.3622269630432129,0.0072147659957408,-0.5250770449638367,-0.1197613179683685,0.0641525983810424,0.0,0.0,0.1429880857467651,-0.3439674377441406
-0.1075529083609581,0.3507404625415802,0.0122521352022886,-0.5102580785751343,-0.1165487840771675,0.0642508268356323,0.0,0.0,0.3203628063201904,-0.2368948459625244
-0.1072744354605674,0.3395460844039917,0.0242371037602424,-0.4972497522830963,-0.1129621118307113,0.0717332512140274,0.0,0.0,-0.0969561338424682,-0.2169790267944336
-0.1069961562752723,0.3279634416103363,0.0241530910134315,-0.5145140290260315,-0.1093153432011604,0.07293551415205,0.0,0.0,0.4561332464218139,0.2379552125930786
-0.1065987572073936,0.3165081143379211,0.0356214568018913,-0.5088279247283936,-0.1052221581339836,0.0818636044859886,0.0,0.0,0.4191117286682129,0.2442522048950195
-0.1060255989432334,0.3053763806819916,0.0525321364402771,-0.4944165647029876,-0.1004683598875999,0.095075748860836,0.0,0.0,0.2915748357772827,-0.0583640336990356
-0.1053151115775108,0.2943001389503479,0.0656650811433792,-0.4919251501560211,-0.0951268523931503,0.1068299040198326,0.0,0.0,0.1217999458312988,0.3755496740341186
-0.104562759399414,0.2835979759693146,0.0697739943861961,-0.4753139913082123,-0.0897122770547866,0.1082915216684341,0.0,0.0,-0.3682102560997009,0.5368285179138184
-0.1037692055106163,0.2725055813789367,0.0749272033572197,-0.4927339553833008,-0.0853232517838478,0.0877805426716804,0.0,0.0,0.0617308616638183,0.267086386680603
-0.1028635948896408,0.2616554498672485,0.0856457576155662,-0.4819569587707519,-0.0804593786597251,0.0972776412963867,0.0,0.0,0.4465353488922119,-0.1776578426361084
-0.1018521338701248,0.2508337497711181,0.0957096964120864,-0.4806804060935974,-0.0750759541988372,0.1076687797904014,0.0,0.0,0.1596770286560058,0.0975134372711181
-0.1008564978837966,0.2401627153158188,0.0941731557250022,-0.4740074276924133,-0.0697458684444427,0.1066018566489219,0.0,0.0,0.3418327569961548,-0.0216942429542541
-0.0997502356767654,0.2301449179649353,0.1047894954681396,-0.4449752271175384,-0.0639746561646461,0.1154242753982544,0.0,0.0,-0.434030532836914,0.0180226564407348
-0.0986516922712326,0.219739094376564,0.1038891822099685,-0.4622411131858825,-0.0580746568739414,0.1180000305175781,0.0,0.0,0.2037965059280395,0.4709408283233642
-0.0976185798645019,0.2098210006952285,0.0976302698254585,-0.4405959248542785,-0.0524599067866802,0.1122946962714195,0.0,0.0,-0.2682262659072876,0.4525403976440429
-0.0965950936079025,0.1995147317647934,0.0965332239866256,-0.4578617811203003,-0.0467059276998043,0.1150796562433242,0.0,0.0,0.3450560569763183,0.485015869140625
-0.0955969840288162,0.1897386908531189,0.0940387547016143,-0.4343216121196747,-0.0410094708204269,0.1139291524887085,0.0,0.0,0.2167582511901855,-0.2752251625061035
-0.0946487411856651,0.1804048120975494,0.0891970247030258,-0.4146952927112579,-0.0354461334645748,0.1112667918205261,0.0,0.0,0.0490893125534057,0.580528974533081
-0.0936735123395919,0.1711533367633819,0.0929256975650787,-0.4110748469829559,-0.030910138040781,0.0907198414206504,0.0,0.0,-0.1003089547157287,-0.3295190334320068
-0.0927119255065918,0.1615136265754699,0.0914123281836509,-0.4283399879932403,-0.0262168925255537,0.0938647836446762,0.0,0.0,0.2282840013504028,-0.0949450731277465
-0.0918663963675499,0.1520739644765854,0.0801538005471229,-0.419468879699707,-0.0218799728900194,0.0867385417222976,0.0,0.0,0.457273006439209,0.1978367567062378
-0.0909292250871658,0.143193632364273,0.0887163132429122,-0.3946167528629303,-0.0169459283351898,0.0986808091402053,0.0,0.0,0.0904057025909423,-0.5282167792320251
-0.0900017768144607,0.1342858374118805,0.086434319615364,-0.3958453834056854,-0.0107130035758018,0.124658465385437,0.0,0.0,0.582352876663208,0.190845251083374
-0.0889451950788497,0.1260838657617569,0.0985114127397537,-0.3644964396953583,-0.0036656821612268,0.1409465968608856,0.0,0.0,0.0892428159713745,0.834708571434021
-0.087857149541378,0.1182681173086166,0.1031791120767593,-0.3473634123802185,0.0018900628201663,0.1111147999763488,0.0,0.0,-0.3063980340957641,0.8000283241271973
-0.0867106467485427,0.1100737154483795,0.110835000872612,-0.3642047047615051,0.0056557548232376,0.0753141194581985,0.0,0.0,0.1715425252914428,-0.0764508843421936
-0.0855333358049392,0.1021080613136291,0.1134807616472244,-0.3540502488613128,0.0098525052890181,0.0839347466826438,0.0,0.0,0.3577886819839477,-0.6697067022323608
-0.0844443291425705,0.0947666019201278,0.1031345501542091,-0.3263336420059204,0.0155527079477906,0.114003799855709,0.0,0.0,-0.0154079794883728,0.7496755123138428
-0.0833130851387977,0.0870452746748924,0.1088225618004798,-0.3432221114635467,0.0197973456233739,0.0848930552601814,0.0,0.0,0.7126407623291016,0.6515591144561768
-0.0820734053850174,0.0796494558453559,0.1205745786428451,-0.3287515938282013,0.0231477227061986,0.0670074969530105,0.0,0.0,0.4226491451263428,0.8244127035140991
-0.0809246078133583,0.0726633369922638,0.1131135374307632,-0.3105228841304779,0.0248946659266948,0.0349388122558593,0.0,0.0,0.278378963470459,-0.0409973263740539
-0.0799112319946289,0.0658824294805526,0.0998392552137374,-0.3013986647129059,0.026374764740467,0.029602263122797,0.0,0.0,0.3955268859863281,-0.4527228474617004
-0.0789558440446853,0.0594264604151248,0.0939273685216903,-0.2869600653648376,0.0279652960598468,0.031810637563467,0.0,0.0,0.3401730060577392,0.7482532262802124
-0.0779579132795333,0.0532330609858036,0.099448338150978,-0.2752672135829925,0.0282973404973745,0.0066410512663424,0.0,0.0,0.3760963678359985,0.5734779834747314
-0.0768338218331337,0.0471021756529808,0.1127736344933509,-0.2724781632423401,0.0279432032257318,-0.0070825866423547,0.0,0.0,0.6466008424758911,0.093762993812561
-0.0756618529558181,0.0416087955236434,0.1168994456529617,-0.2441553771495819,0.0282381121069192,0.005898140836507,0.0,0.0,0.3154804706573486,-0.4423238039016723
-0.0745191574096679,0.0366909839212894,0.1136644333600997,-0.2185830026865005,0.028826467692852,0.0117673594504594,0.0,0.0,-0.0647173523902893,0.6154948472976685
