x_pos,y_pos,x_vel,y_vel,angle,ang_vel,leg_1,leg_2,main_booster,lat_booster
-0.001469898270443,1.4035042524337769,-0.1484258025884628,-0.3295949101448059,0.001289811450988,0.025407463312149,0.0,0.0,-0.4394690148346292,0.9909892041179174
-0.0028026581276208,1.3959866762161257,-0.1319449245929718,-0.33411705493927,-3.206405745004304e-05,-0.02643927000463,0.0,0.0,-0.2485117690776477,-0.8936637706358633
-0.0041391374543309,1.3883416652679443,-0.133240669965744,-0.3397736549377441,-0.0004310406802687,-0.0079802377149462,0.0,0.0,0.6004580780513751,-0.9305320298462508
-0.0056290626525878,1.381299614906311,-0.1497920006513595,-0.312983363866806,0.0003607151156757,0.0158366356045007,0.0,0.0,-0.3044278941214371,-0.96695058170594
-0.0071311951614916,1.3741400241851809,-0.1520737111568451,-0.3182013928890228,0.0021945335902273,0.0366798862814903,0.0,0.0,0.0574175354309125,-0.7899478473013083
-0.0085487365722656,1.3673808574676514,-0.1447819620370865,-0.3004164695739746,0.0051901284605264,0.0599175468087196,0.0,0.0,0.6831022087642986,-0.9265869306259022
-0.0100244525820016,1.361383318901062,-0.1519357711076736,-0.2665863037109375,0.0095093753188848,0.086392767727375,0.0,0.0,0.9022941734557528,-0.8830612705493781
-0.0113460542634129,1.3563871383666992,-0.1382125467061996,-0.2221007943153381,0.0154921896755695,0.1196670308709144,0.0,0.0,0.5508321759427626,0.8214677151443797
-0.0125887868925929,1.352459192276001,-0.1281732022762298,-0.1746240705251693,0.019351240247488,0.0771881490945816,0.0,0.0,0.3856472573364966,0.8921712289598451
-0.013737010769546,1.349331974983215,-0.1164537519216537,-0.1390068531036377,0.0209674295037984,0.0323268361389637,0.0,0.0,0.1131522367826822,0.9181044192005816
-0.014718341641128,1.3466901779174805,-0.0974701568484306,-0.1174060255289077,0.020303476601839,-0.0132800294086337,0.0,0.0,-0.1851895539006673,-0.9996311386093142
-0.0157374385744333,1.343923807144165,-0.1025189980864524,-0.1229609996080398,0.0209118817001581,0.0121690994128584,0.0,0.0,0.242356869755336,0.8549828947571596
-0.0165584571659564,1.3418357372283936,-0.0806168764829635,-0.0927766263484954,0.0194422528147697,-0.0293950773775577,0.0,0.0,0.8884490920664698,0.8948682761074991
-0.0172032359987497,1.340232491493225,-0.0608913972973823,-0.071214310824871,0.0158901717513799,-0.0710482746362686,0.0,0.0,0.3491552703500822,-0.779869745113097
-0.017767334356904,1.3395283222198486,-0.0540768094360828,-0.031273815780878,0.0135872233659029,-0.0460632219910621,0.0,0.0,0.8660417331366927,-0.8263814472057974
-0.0182450301945209,1.3391989469528198,-0.0469021908938884,-0.0146280052140355,0.0127287758514285,-0.0171704050153493,0.0,0.0,0.0780324277951229,0.6207746891338292
-0.0185626037418842,1.3395966291427612,-0.0293004866689443,0.0176952052861452,0.0102995326742529,-0.048589289188385,0.0,0.0,-0.0293345508552296,0.8191194581723023
-0.0187861435115337,1.339868426322937,-0.017387006431818,0.0121050467714667,0.0053834412246942,-0.0983308255672454,0.0,0.0,-0.2920443426374215,-0.9710156951671156
-0.0190634727478027,1.3400288820266724,-0.0239133909344673,0.0071401512250304,0.0016083288937807,-0.0755090788006782,0.0,0.0,0.93577677518212,-0.7374713829388841
-0.0194952003657817,1.341063141822815,-0.0401130355894565,0.0459696389734745,-0.0014248320367187,-0.0606686659157276,0.0,0.0,-0.380251772488551,-0.8535683179219693
-0.0199766159057617,1.341983437538147,-0.0459406040608882,0.0408996157348156,-0.003596210386604,-0.043431170284748,0.0,0.0,0.2249070556195158,-0.6275900562310944
-0.0204968452453613,1.3432724475860596,-0.0506178140640258,0.0572825483977794,-0.0049784290604293,-0.0276468750089406,0.0,0.0,0.9164202395664744,0.9312862075452158
-0.0207773204892873,1.3453854322433472,-0.0246098209172487,0.0938955917954444,-0.0083823502063751,-0.0680849701166153,0.0,0.0,0.8217180702413622,0.7689227062550998
-0.0209173206239938,1.3478844165802002,-0.0087175071239471,0.1110215112566948,-0.0136041073128581,-0.1044445857405662,0.0,0.0,0.8597237076964965,-0.7430263436004376
-0.0212907791137695,1.3513567447662354,-0.0326950550079345,0.1542782485485077,-0.0182087235152721,-0.0921002626419067,0.0,0.0,-0.0855668154721287,-0.7250124826291834
-0.0217505451291799,1.3546934127807615,-0.0426441915333271,0.1482541263103485,-0.0214888621121644,-0.0656026750802993,0.0,0.0,0.7717490194027838,-0.8515329269712559
-0.0222745891660451,1.3590857982635498,-0.0503418631851673,0.1951848566532135,-0.0235315952450037,-0.0408546589314937,0.0,0.0,-0.9306434564493566,-0.8651362371232552
-0.0229040142148733,1.3633699417114258,-0.0625201910734176,0.1904038041830063,-0.0239422805607318,-0.0082137268036603,0.0,0.0,-0.1722431376239648,-0.7807835742128016
-0.0236341468989849,1.367543339729309,-0.0740456283092498,0.1854970306158065,-0.0229236800223588,0.0203720740973949,0.0,0.0,-0.8567047243752786,-0.8464715527391532
-0.0244628898799419,1.3715957403182983,-0.0852114930748939,0.1801443547010421,-0.0206216536462306,0.0460405386984348,0.0,0.0,0.6912780101505995,0.7147289153382457
-0.0252290721982717,1.3768335580825806,-0.0770872682332992,0.2327999323606491,-0.0201523564755916,0.009385866113007,0.0,0.0,0.4144155208653359,-0.6138620618067376
-0.0261452682316303,1.3825141191482544,-0.0927256941795349,0.2524816691875458,-0.0190671253949403,0.0217045992612838,0.0,0.0,0.4141764280246152,-0.9992509298817152
-0.0272484775632619,1.3891175985336304,-0.1129168272018432,0.293519914150238,-0.0165006555616855,0.0513294115662574,0.0,0.0,0.5896659993928528,-0.69251573231466
-0.0285106655210256,1.396118402481079,-0.1296220123767852,0.3111767768859863,-0.0131453368812799,0.0671062618494033,0.0,0.0,0.337177193016378,0.8903302552148669
-0.0297266002744436,1.4037606716156006,-0.1227557435631752,0.339664876461029,-0.011995336972177,0.022999869659543,0.0,0.0,-0.8775481716146718,0.7369005198029918
-0.0309313777834177,1.4112870693206787,-0.1196538358926773,0.3345066010951996,-0.0128006767481565,-0.0161067210137844,0.0,0.0,-0.5221779324221625,0.911481977367298
-0.0321188941597938,1.4186877012252808,-0.1157323867082595,0.3288819491863251,-0.0157837029546499,-0.0596604570746421,0.0,0.0,-0.5563256125000646,-0.9545207591205144
-0.033431626856327,1.4259772300720217,-0.1296094506978988,0.3239576518535614,-0.0174299869686365,-0.0329256728291511,0.0,0.0,-0.7897539425165159,-0.742969749484033
-0.0348641388118267,1.4331564903259275,-0.1427293270826339,0.3190719783306122,-0.0179415941238403,-0.0102321496233344,0.0,0.0,0.8787255132763567,0.8011904237979408
-0.0362453460693359,1.4412508010864258,-0.1356179267168045,0.3597127497196197,-0.0204105395823717,-0.0493790544569492,0.0,0.0,-0.6129327330248115,0.7739433474410566
-0.0376380905508995,1.4492299556732178,-0.1350477635860443,0.3545724153518677,-0.024581367149949,-0.0834165886044502,0.0,0.0,-0.6199953556060791,-0.7959802746772766
-0.0391450896859169,1.4570894241333008,-0.1473167538642883,0.3492501080036163,-0.0279279164969921,-0.0669309943914413,0.0,0.0,-0.5132704973220825,-0.7745414972305298
-0.0407701507210731,1.46482253074646,-0.1599756777286529,0.343644767999649,-0.0304156616330146,-0.0497551895678043,0.0,0.0,-0.5703486800193787,-0.7647319436073303
-0.0425139442086219,1.4724363088607788,-0.1727114915847778,0.3383592665195465,-0.0320638306438922,-0.0329631268978118,0.0,0.0,-0.7412018775939941,-0.5942803025245667
-0.0443781837821006,1.4799256324768066,-0.18560291826725,0.3328365385532379,-0.0328796170651912,-0.016315758228302,0.0,0.0,-0.6746346354484558,-0.6675891280174255
-999.0,1.4872905015945437,-0.1984923332929611,0.3273241817951202,-0.0328964851796627,-0.0003369574842508,0.0,0.0,-0.5469564199447632,-0.5156441330909729
-0.0484585762023925,1.494534254074097,-0.21001498401165,0.3219556212425232,-0.0324169173836708,0.0095912087708711,0.0,0.0,-0.5791886448860168,-0.4519539475440979
-0.0506288520991802,1.5016579627990725,-0.2170844823122024,0.3166115581989288,-0.0323605202138423,0.0011279529426246,0.0,0.0,-0.5928588509559631,-0.6348784565925598
-0.0529366508126258,1.508670210838318,-0.2319719046354293,0.3116823434829712,-0.0311837885528802,0.0235347412526607,0.0,0.0,-0.5329797267913818,-0.342288613319397
-0.0553221702575683,1.5155625343322754,-0.2393140494823455,0.3063382506370544,-0.030426463112235,0.0151465283706784,0.0,0.0,-0.6202136874198914,-0.4761863946914673
-0.0577865615487098,1.5223346948623655,-0.246778205037117,0.3009942471981048,-0.0300866030156612,0.0067970277741551,0.0,0.0,-0.5764683485031128,-0.7178086042404175
-0.0603929534554481,1.5289944410324097,-0.2621510624885559,0.2960196435451507,-0.0285975411534309,0.0297811571508646,0.0,0.0,-0.5789245963096619,-0.4827417135238647
-0.0630804076790809,1.535534143447876,-0.2698330283164978,0.2906756103038788,-0.0275219026952981,0.0215126574039459,0.0,0.0,-0.502860426902771,-0.4238762855529785
-0.0658498778939247,1.5419539213180542,-0.277612030506134,0.285331666469574,-0.0268575381487607,0.0132870702072978,0.0,0.0,-0.5232843160629272,-0.4326093792915344
-0.0687021240592002,1.5482534170150757,-0.2854806184768677,0.2799878418445587,-0.0266022179275751,0.0051063941791653,0.0,0.0,-0.6021956205368042,-0.7086620330810547
-0.0717029571533203,1.554432392120361,-0.3015877604484558,0.2746483385562897,-0.0251208133995533,0.0296278856694698,0.0,0.0,-0.5167465209960938,-0.5856417417526245
-0.0748271942138671,1.5604982376098633,-0.3145122230052948,0.2696258723735809,-0.0230602715164423,0.0412107333540916,0.0,0.0,-0.6415470838546753,-0.6409857273101807
-0.0780756026506424,1.5664479732513428,-0.3275113701820373,0.2644729316234588,-0.0204184558242559,0.0528363808989524,0.0,0.0,-0.7811942100524902,-0.5279378890991211
-0.0814461708068847,1.5722843408584597,-0.3402582705020904,0.2594329416751861,-0.0172553453594446,0.0632622241973877,0.0,0.0,-0.8524457216262817,-0.6634537577629089
-0.0849619880318641,1.578008055686951,-0.3558949828147888,0.2544313371181488,-0.0130013730376958,0.0850795209407806,0.0,0.0,-0.8233537673950195,-0.6096172332763672
-0.0886088386178016,1.5836074352264404,-0.369716614484787,0.2488992810249328,-0.0080309025943279,0.099409282207489,0.0,0.0,-0.9020270109176636,-0.5399594902992249
-0.0923927277326583,1.5890905857086182,-0.384299099445343,0.2437121719121933,-0.0021968644578009,0.1166807189583778,0.0,0.0,-0.8895464539527893,0.4994155168533325
-0.096264362335205,1.5944538116455078,-0.3926761746406555,0.2383663654327392,0.0032519195228815,0.1089756712317466,0.0,0.0,-0.8502020239830017,-0.0906492471694946
-0.100223921239376,1.599697232246399,-0.4010964930057525,0.2330210953950882,0.0083195082843303,0.1013517007231712,0.0,0.0,-0.8928807377815247,0.0922889709472656
-0.1042719855904579,1.604820728302002,-0.4095565378665924,0.2276763319969177,0.0130102876573801,0.0938154533505439,0.0,0.0,-0.8822775483131409,-0.4600949287414551
-0.1084087342023849,1.6098241806030271,-0.4180532991886139,0.2223320007324218,0.0173289980739355,0.0863742977380752,0.0,0.0,-0.957801640033722,-0.5395731925964355
-0.1126758605241775,1.614712834358215,-0.4317565858364105,0.2172080427408218,0.0223151575773954,0.0997231528162956,0.0,0.0,-0.9169386029243468,-0.2879613637924194
-0.1170322448015213,1.6194814443588257,-0.4403179585933685,0.2118637263774871,0.0269400309771299,0.092497132718563,0.0,0.0,-0.9540229439735411,-0.370107889175415
-0.1214779838919639,1.6241300106048584,-0.4489079117774963,0.2065198421478271,0.0312096662819385,0.0853929296135902,0.0,0.0,-0.8674011826515198,-0.4657099843025207
-0.1260135620832443,1.6286585330963137,-0.4575240015983581,0.2011763602495193,0.0351307168602943,0.0784210786223411,0.0,0.0,-0.9554373025894164,-0.3972576856613159
-0.130638986825943,1.6330667734146118,-0.4661641120910644,0.1958331912755966,0.0387103669345378,0.0715930983424186,0.0,0.0,-0.9462631940841676,-0.4944970607757568
-0.1353543251752853,1.637354850769043,-0.4748262465000152,0.1904903054237365,0.0419564433395862,0.0649215430021286,0.0,0.0,-0.9625593423843384,-0.8366537690162659
-0.1402404755353927,1.6415270566940308,-0.4936100840568542,0.1852814108133316,0.0468964800238609,0.0988006666302681,0.0,0.0,-0.957530438899994,-0.3682329058647156
-0.1452167481184005,1.6455790996551514,-0.5023108124732971,0.1799377351999282,0.0515206307172775,0.092483103275299,0.0,0.0,-0.7550485730171204,-0.4925168752670288
-0.1502833366394043,1.6495108604431152,-0.5110284686088562,0.17459437251091,0.0558388866484165,0.0863653197884559,0.0,0.0,-0.97524493932724,-0.0579560995101928
-0.1554403305053711,1.653322696685791,-0.5197616219520569,0.1692512780427932,0.0598620697855949,0.0804638341069221,0.0,0.0,-0.9406851530075072,-0.2901399135589599
-0.1606875360012054,1.6570141315460205,-0.5285087823867798,0.1639084666967392,0.0636018812656402,0.074796088039875,0.0,0.0,-0.910436511039734,-0.6404908895492554
-0.1660767495632171,1.6605863571166992,-0.5437280535697937,0.1585493981838226,0.0683622285723686,0.0952069088816642,0.0,0.0,-0.9289987087249756,0.1175503730773925
-0.1715561896562576,1.6640383005142212,-0.5524994134902954,0.1532060801982879,0.0728653594851493,0.0900624841451644,0.0,0.0,-0.9254449605941772,-0.3155295848846435
-0.1771260201930999,1.6673699617385864,-0.5612812638282776,0.1478629559278488,0.0771258324384689,0.0852093547582626,0.0,0.0,-0.9444512724876404,0.0395264625549316
-0.1827859878540039,1.6705814599990845,-0.5700722932815552,0.1425200402736663,0.0811592489480972,0.0806681141257286,0.0,0.0,-0.9783951640129088,-0.1101232767105102
-0.1885360777378082,1.673672795295715,-0.5788716077804565,0.1371772140264511,0.0849822163581848,0.0764594227075576,0.0,0.0,-0.8836292028427124,0.4112002849578857
-0.1943762749433517,1.676643967628479,-0.5876781940460205,0.1318344622850418,0.0886124595999717,0.0726048722863197,0.0,0.0,-0.8200934529304504,0.1830236911773681
-0.2003063261508941,1.6794947385787964,-0.5964909791946411,0.1264917403459549,0.0920687168836593,0.0691252201795578,0.0,0.0,-0.7339584231376648,0.5369936227798462
-0.2062848508358001,1.6822336912155151,-0.6001211404800415,0.121590681374073,0.0943208634853363,0.0450430437922477,0.0,0.0,-0.6789758801460266,0.180293321609497
-0.2123529464006424,1.6848522424697876,-0.6089436411857605,0.1162484064698219,0.0964395925402641,0.0423746332526207,0.0,0.0,-0.9283413887023926,0.442667007446289
-0.2185103893280029,1.6873506307601929,-0.6177695393562317,0.1109060272574424,0.098446637392044,0.0401407815515995,0.0,0.0,-0.735413670539856,0.6732826232910156
-0.2246955335140228,1.6897329092025757,-0.6188873052597046,0.1058509349822998,0.098817266523838,0.0074125565588474,0.0,0.0,-0.9577328562736512,0.0407642126083374
-0.2309696227312088,1.6919947862625122,-0.6277170181274414,0.1005085632205009,0.0991222038865089,0.0060987952165305,0.0,0.0,-0.9311540126800536,0.2637734413146972
-0.2373324930667877,1.694136381149292,-0.6365472078323364,0.0951659902930259,0.0993855744600296,0.0052672317251563,0.0,0.0,-0.8691546320915222,0.6597965955734253
-0.2437326461076736,1.6961703300476074,-0.6389500498771667,0.0904650688171386,0.0983271449804306,-0.0211684145033359,0.0,0.0,-0.9803546071052552,0.2876344919204712
-0.2502210140228271,1.6980841159820557,-0.6477779746055603,0.0851220190525055,0.0972768813371658,-0.0210053231567144,0.0,0.0,-0.9282382130622864,0.3664333820343017
-0.2567973136901855,1.6998775005340576,-0.6566030979156494,0.0797787606716156,0.0962601751089096,-0.0203344635665416,0.0,0.0,-0.9549625515937804,0.8166558742523193
-0.2633855938911438,1.7015533447265625,-0.6559456586837769,0.0746618658304214,0.0934049487113952,-0.0571046583354473,0.0,0.0,-0.9658420085906982,0.8545958995819092
-0.2699995636940002,1.7031153440475464,-0.6570340991020203,0.0696911290287971,0.0890804380178451,-0.0864904299378395,0.0,0.0,-0.8889259099960327,0.7231671810150146
-0.2766360640525818,1.7045748233795166,-0.6577358245849609,0.0652143806219101,0.083219476044178,-0.1172191873192787,0.0,0.0,-0.9702175259590148,0.4934288263320923
-0.2833592295646667,1.7059149742126465,-0.6665366291999817,0.0598676688969135,0.0774935856461525,-0.1145179867744445,0.0,0.0,-0.9978748559951782,0.5466964244842529
-0.2901348173618316,1.7071443796157837,-0.6710591316223145,0.0549646168947219,0.0710620507597923,-0.1286307871341705,0.0,0.0,-0.9873223900794984,0.8340655565261841
-0.2969212532043457,1.7082667350769043,-0.6704031229019165,0.0502523928880691,0.062912218272686,-0.1629967987537384,0.0,0.0,-0.9900895357131958,0.9678032398223876
-0.3037239611148834,1.709283709526062,-0.6704599857330322,0.0455806925892829,0.0532124377787113,-0.1939956098794937,0.0,0.0,-0.9994295835494996,0.9702978134155272
-0.3105460107326507,1.7101943492889404,-0.6709361672401428,0.0408327654004097,0.0420750975608825,-0.2227468937635421,0.0,0.0,-0.668508768081665,0.8738765716552734
-0.3173865675926208,1.710988163948059,-0.6713505983352661,0.0355826020240783,0.0295225325971841,-0.2510512173175812,0.0,0.0,-0.998637855052948,0.7008850574493408
-0.3242669105529785,1.7116665840148926,-0.6744577884674072,0.030367475003004,0.0161176361143589,-0.2680977582931518,0.0,0.0,-0.9933382868766784,0.8392965793609619
-0.3311814367771148,1.712226629257202,-0.6768983006477356,0.0249923262745142,0.0017522064736112,-0.2873088717460632,0.0,0.0,-0.996836483478546,0.9549721479415894
-0.3380905985832214,1.7126755714416504,-0.6744174957275391,0.0198961440473794,-0.0145364012569189,-0.3257723450660705,0.0,0.0,-0.9430580735206604,0.7324092388153076
-0.3450190424919128,1.7130002975463867,-0.6750534772872925,0.0141693856567144,-0.0321027748286724,-0.3513275980949402,0.0,0.0,-0.977205753326416,0.9731097221374512
-0.3519343733787536,1.713212490081787,-0.6716657876968384,0.0088809113949537,-0.051726259291172,-0.392469972372055,0.0,0.0,-0.9965476393699646,-0.4125761985778808
-0.3589316308498382,1.7133090496063232,-0.6802459955215454,0.0035073198378086,-0.0709904730319976,-0.3852842152118683,0.0,0.0,-0.9884017109870912,0.7231307029724121
-0.3659392893314361,1.7132912874221802,-0.6798903346061707,-0.0019122601952403,-0.0916602164506912,-0.4133951067924499,0.0,0.0,-0.9836376309394836,0.5500462055206299
-0.3729787468910217,1.7131518125534058,-0.6822656393051147,-0.0076612392440438,-0.1131784170866012,-0.4303642809391022,0.0,0.0,-0.9641437530517578,0.6439625024795532
-0.3800477981567383,1.7128958702087402,-0.6843991875648499,-0.0132298786193132,-0.1355647295713424,-0.4477261900901794,0.0,0.0,-0.8645946383476257,0.5564322471618652
-0.3871477544307709,1.7125210762023926,-0.6867398619651794,-0.01894211769104,-0.1587625294923782,-0.463956207036972,0.0,0.0,-0.8082994818687439,0.1102908849716186
-0.3943262100219726,1.7120318412780762,-0.6950980424880981,-0.0243240837007761,-0.1815400868654251,-0.4555510878562927,0.0,0.0,-0.8427804112434387,-0.5071532726287842
-0.401629775762558,1.7114417552947998,-0.7093461155891418,-0.0289360750466585,-0.2026638388633728,-0.4224751889705658,0.0,0.0,-0.8246726393699646,0.2637052536010742
-0.4090104699134826,1.71073579788208,-0.7175769209861755,-0.0343083254992961,-0.2233498692512512,-0.4137203097343445,0.0,0.0,-0.6647810339927673,0.3355511426925659
-0.4164673388004303,1.709913969039917,-0.7257348895072937,-0.0396780371665954,-0.2435905188322067,-0.404813289642334,0.0,0.0,-0.9120697379112244,-0.9544287919998168
-0.424069881439209,1.7089993953704834,-0.7426446676254272,-0.0436626002192497,-0.2615364789962768,-0.3589192032814026,0.0,0.0,-0.3720567226409912,0.426469087600708
-0.4317469596862793,1.7079672813415527,-0.7506319284439087,-0.049021728336811,-0.2790241837501526,-0.3497538268566131,0.0,0.0,-0.6769843101501465,0.7570828199386597
-0.4394302368164062,1.706791877746582,-0.7500598430633545,-0.0558390617370605,-0.2978291511535644,-0.3760994374752044,0.0,0.0,-0.7694798707962036,-0.7989620566368103
-0.4472420215606689,1.705532431602478,-0.7649696469306946,-0.0593845434486866,-0.3146001994609833,-0.3354207575321197,0.0,0.0,-0.7112134695053101,0.53426194190979
-0.4550820291042328,1.7041274309158323,-0.7671782374382019,-0.0661999210715293,-0.3321089744567871,-0.3501753211021423,0.0,0.0,-0.5372693538665771,0.8065195083618164
