x_pos,y_pos,x_vel,y_vel,angle,ang_vel,leg_1,leg_2,main_booster,lat_booster
-0.0016156196361407,1.4033704996109009,-0.1636443436145782,-0.3355386853218078,0.0018587709637358,0.036673430353403,0.0,0.0,-0.6744249672880549,-0.9195155504922
-0.0033915520180016,1.395585536956787,-0.1811321824789047,-0.3460088670253753,0.0053543727844953,0.0699193999171257,0.0,0.0,-0.5153438459610711,0.9875305165604562
-0.0051681520417332,1.3875397443771362,-0.1788052171468734,-0.357597678899765,0.0064825327135622,0.0225653387606143,0.0,0.0,-0.0467242067413571,-0.6189679548214917
-0.0070997239090502,1.379237413406372,-0.1957949846982956,-0.3690106570720672,0.0090941274538636,0.0522367730736732,0.0,0.0,-0.5664579331428021,0.7008404795786334
-0.0090621951967477,1.370684027671814,-0.1972032636404037,-0.3801507949829101,0.0100346868857741,0.0188131183385849,0.0,0.0,0.775722277836361,-0.7719380510302107
-0.0110289575532078,1.362752914428711,-0.1995326578617096,-0.3525201678276062,0.0128727760165929,0.0567668005824089,0.0,0.0,-0.998146235041915,-0.7708795435158393
-0.0131584163755178,1.35456645488739,-0.2174258232116699,-0.363883763551712,0.017300670966506,0.0885659083724021,0.0,0.0,0.6912049284555934,0.8628180350302675
-0.0151625629514455,1.3471283912658691,-0.203475996851921,-0.3306227624416351,0.0203311499208211,0.0606150142848491,0.0,0.0,0.4104732364948165,0.9088584074836418
-0.0172231681644916,1.3405191898345947,-0.207289308309555,-0.2937566637992859,0.0215520281344652,0.02441992983222,0.0,0.0,-0.6562678740620533,0.7735695496920364
-0.0193251613527536,1.3336628675460815,-0.2098967134952545,-0.304725706577301,0.0212446730583906,-0.0061473911628127,0.0,0.0,-0.7786574473486907,-0.9498185939473832
-0.0215944293886423,1.3265511989593506,-0.2282397449016571,-0.3160933554172516,0.0225515179336071,0.0261393971741199,0.0,0.0,0.8105400010760104,0.6357575827793688
-0.0238468162715435,1.3200567960739136,-0.2255056351423263,-0.2886398434638977,0.0228151567280292,0.005273085553199,0.0,0.0,-0.152972043530372,0.6685350938958744
-0.0261393543332815,1.3133139610290527,-0.2278874218463897,-0.2996610701084137,0.0214648731052875,-0.0270083807408809,0.0,0.0,-0.7713155258803686,0.8958363679852945
-0.0284576416015625,1.3063114881515503,-0.2284624278545379,-0.3111756145954132,0.0181322637945413,-0.0666582137346267,0.0,0.0,0.9192929694979844,-0.909825819357958
-0.0307896621525287,1.300503849983215,-0.2320012301206588,-0.2581044733524322,0.0169497858732938,-0.0236514210700988,0.0,0.0,0.4252837864297214,0.7628943482252903
-0.0330657958984375,1.294821858406067,-0.2250465899705886,-0.2525058686733246,0.0144166722893714,-0.0506670176982879,0.0,0.0,0.6617315806258259,0.7134323851846013
-0.0352523811161518,1.290189266204834,-0.2149983644485473,-0.2058570384979248,0.0107891866937279,-0.0725565776228904,0.0,0.0,0.9204226134484887,0.8785592185927004
-0.0372984893620014,1.2859526872634888,-0.1995489299297332,-0.1882622689008712,0.0057754563167691,-0.1002834066748619,0.0,0.0,0.0524950415146023,0.6407976371889973
-0.0393335334956646,1.282236933708191,-0.1972233951091766,-0.1651408672332763,-0.0004330702358856,-0.1241818442940712,0.0,0.0,-0.217522833718208,-0.8472351282009196
-0.0415513031184673,1.2782670259475708,-0.2174154818058014,-0.1764514446258545,-0.0047411085106432,-0.086168460547924,0.0,0.0,0.4801469057064453,0.7890945473199774
-0.0436829552054405,1.2750582695007324,-0.2074230164289474,-0.1426393985748291,-0.0104243047535419,-0.1136743873357772,0.0,0.0,0.4521859051631272,0.8051183425819999
-0.0458427444100379,1.2721736431121826,-0.2086181193590164,-0.1282777935266494,-0.017698036506772,-0.1454878151416778,0.0,0.0,-0.6125772842046495,0.814637816315153
-0.0480316169559955,1.2690324783325195,-0.209532231092453,-0.1397374421358108,-0.0269475448876619,-0.1850067973136901,0.0,0.0,0.0612914397036372,-0.9701521514181988
-0.0503458008170127,1.2659292221069336,-0.2239882051944732,-0.1380708068609237,-0.0342922322452068,-0.1469068974256515,0.0,0.0,-0.1757025884075418,-0.9858821998772558
-0.0528640747070312,0.0,-0.2468358278274536,-0.1489689201116562,-0.0392230525612831,-0.0986254513263702,0.0,0.0,0.883304748458845,0.6313778241823578
-0.055587388575077,1.2601702213287354,-0.2655939757823944,-0.1073076725006103,-0.0458834394812583,-0.1332076489925384,0.0,0.0,-0.9754650220306832,0.7760887793368543
-0.058357048779726,1.2575074434280396,-0.2686404585838318,-0.1186198368668556,-0.0541073083877563,-0.1644775420427322,0.0,0.0,-0.2899702314901986,-0.6833917447892246
-0.0613003745675087,1.2546038627624512,-0.2876770794391632,-0.1292993128299713,-0.0606858097016811,-0.1315698623657226,0.0,0.0,-0.4319553438111903,-0.6375532927814022
-0.0644129738211631,1.2514578104019165,-0.3061650693416595,-0.1400443613529205,-0.0657309517264366,-0.1009031310677528,0.0,0.0,-0.6393746378138057,-0.858855407972293
-0.0677043944597244,1.2480617761611938,-0.325809508562088,-0.1510900408029556,-0.0690199211239814,-0.0657796189188957,0.0,0.0,0.8231048015994566,0.8659094785477084
-0.0709481239318847,1.2458101511001587,-0.319335788488388,-0.1003077253699302,-0.0740017965435981,-0.0996374636888504,0.0,0.0,-0.6123432461897127,0.6353836073278165
-0.0742567032575607,1.2432966232299805,-0.3246984183788299,-0.1120313927531242,-0.0801001861691474,-0.1219677552580833,0.0,0.0,0.5892053578317447,0.7529811445918246
-0.0776393860578537,1.241693139076233,-0.3304237723350525,-0.0717070400714874,-0.0878724679350853,-0.1554455608129501,0.0,0.0,-0.1069814092726424,-0.6622413154911564
-0.0811883956193924,1.239837884902954,-0.3485184013843536,-0.0828395560383796,-0.0942021533846855,-0.1265936493873596,0.0,0.0,-0.029717372589644,-0.989796494794463
-0.0849213600158691,1.2377419471740725,-0.3688342571258545,-0.0934384986758232,-0.0986268892884254,-0.0884949192404747,0.0,0.0,-0.0961300840418686,-0.9889939799538984
-0.0888374298810958,1.2354109287261963,-0.3890619874000549,-0.1037736609578132,-0.1011526957154274,-0.050515778362751,0.0,0.0,-0.1486127483987107,-0.7486456468555105
-0.0929232612252235,1.232831358909607,-0.4075925946235657,-0.1147079914808273,-0.1021383479237556,-0.0197131838649511,0.0,0.0,-0.1570163414614498,-0.9100046480817466
-0.0971836075186729,1.2300153970718384,-0.4267388880252838,-0.1251094937324524,-0.1014382764697074,0.0140014979988336,0.0,0.0,0.4253855982199841,0.6973248002566056
-0.101460076868534,1.2280353307724,-0.4268600344657898,-0.0880574882030487,-0.1022090762853622,-0.0154159618541598,0.0,0.0,0.8581611013756794,-0.9459312497156004
-0.1058134064078331,1.2268288135528564,-0.4365041851997375,-0.0535477437078952,-0.1010522171854972,0.0231370963156223,0.0,0.0,-0.9136917956412818,-0.8230675931371654
-0.1103499382734298,1.2253867387771606,-0.4567484259605407,-0.0638805776834487,-0.0979785770177841,0.061472862958908,0.0,0.0,-0.2108333110809326,0.4029518365859985
-0.1149935722351074,1.2236909866333008,-0.467442899942398,-0.0751679092645645,-0.0949230045080185,0.0611112341284751,0.0,0.0,0.0337554216384887,-0.0415635108947753
-0.1196649521589279,1.2220258712768557,-0.470482736825943,-0.0737981721758842,-0.0916046574711799,0.0663669630885124,0.0,0.0,-0.2307699918746948,0.7058875560760498
-0.1243783012032508,1.2200965881347656,-0.4730003774166107,-0.0856475159525871,-0.0899442732334137,0.0332073830068111,0.0,0.0,-0.7373235821723938,0.571825385093689
-0.1291562020778656,1.2179008722305298,-0.4783756136894226,-0.0975515097379684,-0.0893678218126297,0.0115293385460972,0.0,0.0,-0.2494828701019287,0.4187850952148437
-0.1340400725603103,1.2154511213302612,-0.488949716091156,-0.108838066458702,-0.0888107642531395,0.0111411493271589,0.0,0.0,-0.6599314212799072,-0.0619958639144897
-0.1390295028686523,1.212747573852539,-0.4994863867759704,-0.1201246157288551,-0.0882734805345535,0.0107457339763641,0.0,0.0,0.1093759536743164,-0.1341376900672912
-0.1441498696804046,1.2106367349624634,-0.5122101306915283,-0.0938094407320022,-0.0881054475903511,0.0033604702912271,0.0,0.0,-0.4132108092308044,0.0127809047698974
-0.1493750512599945,1.2082717418670654,-0.5226616859436035,-0.1050959751009941,-0.087957888841629,0.0029511856846511,0.0,0.0,-0.5946174263954163,0.6585397720336914
-0.1546544134616851,1.2056444883346558,-0.5267910957336426,-0.1168361231684684,-0.0890979170799255,-0.022800488397479,0.0,0.0,-0.596748948097229,0.8860101699829102
-0.1599511206150055,1.202751636505127,-0.5262935161590576,-0.1287795454263687,-0.0924453809857368,-0.066949613392353,0.0,0.0,-0.6002333164215088,0.1771663427352905
-0.165351003408432,1.199604868888855,-0.536589503288269,-0.1400670260190963,-0.0958145037293434,-0.0673821866512298,0.0,0.0,-0.3357104659080505,0.73944091796875
-0.1707848608493805,1.196190595626831,-0.5382154583930969,-0.1520900428295135,-0.1009486392140388,-0.102682925760746,0.0,0.0,-0.8340578675270081,0.2200238704681396
-0.1763207465410232,1.1925225257873535,-0.5483867526054382,-0.163378819823265,-0.1061052680015564,-0.1031325906515121,0.0,0.0,-0.3348332643508911,0.5843656063079834
-0.1819006949663162,1.1885898113250732,-0.5513057708740234,-0.1752759963274002,-0.11273954808712,-0.1326859146356582,0.0,0.0,-0.465188980102539,-0.6068921089172363
-0.1876364648342132,1.1844103336334229,-0.5682914853096008,-0.1861619651317596,-0.1179954037070274,-0.1051171422004699,0.0,0.0,-0.2134604454040527,-0.2406027913093567
-0.1934719979763031,1.1799774169921875,-0.5782384276390076,-0.1974508762359619,-0.1232751980423927,-0.1055959612131118,0.0,0.0,0.1799148321151733,-0.1935809850692749
-0.199249267578125,1.1759896278381348,-0.5728522539138794,-0.1776423901319503,-0.1281235665082931,-0.0969672724604606,0.0,0.0,-0.5152795314788818,0.7887217998504639
-0.2050541937351226,1.1717431545257568,-0.5738204121589661,-0.1893227398395538,-0.1347638815641403,-0.1328065991401672,0.0,0.0,-0.4642137289047241,0.0324734449386596
-0.2109560072422027,1.1672431230545044,-0.5834919810295105,-0.2006130665540695,-0.1414297968149185,-0.1333182752132415,0.0,0.0,0.0240950584411621,-0.8041825294494629
-0.2169481813907623,1.1628293991088867,-0.5941274166107178,-0.1966583281755447,-0.1465077996253967,-0.1015601903200149,0.0,0.0,-0.3762304782867431,0.9858336448669434
-0.2229703366756439,1.158153057098389,-0.5954598784446716,-0.2085161954164505,-0.1532531827688217,-0.1349077075719833,0.0,0.0,-0.0270063281059265,0.9594829082489014
-0.228995993733406,1.153200387954712,-0.5934721231460571,-0.2210818082094192,-0.1623408943414688,-0.1817541718482971,0.0,0.0,-0.3990229368209839,0.7219040393829346
-0.2350552529096603,1.1479820013046265,-0.5953189730644226,-0.2331311106681823,-0.1729582101106643,-0.2123466432094574,0.0,0.0,0.6109321117401123,0.5214934349060059
-0.2410898655653,1.1430721282958984,-0.5918276309967041,-0.219613492488861,-0.1846303045749664,-0.2334420382976532,0.0,0.0,-0.6154952645301819,0.6347794532775879
-0.2471746951341629,1.1378997564315796,-0.5958343148231506,-0.2315088063478469,-0.1973436772823333,-0.2542672753334045,0.0,0.0,-0.2920103073120117,0.272144079208374
-0.2533473372459411,1.1324753761291504,-0.6046183705329895,-0.242808997631073,-0.2100875973701477,-0.2548783123493194,0.0,0.0,0.4944024085998535,0.5376582145690918
-0.2594321668148041,1.127143144607544,-0.5949576497077942,-0.2389688938856125,-0.2237531244754791,-0.2733109295368194,0.0,0.0,0.5417969226837158,0.3381674289703369
-0.26540008187294,1.122716188430786,-0.5833889245986938,-0.1988399773836136,-0.2373344153165817,-0.271625816822052,0.0,0.0,0.3892673254013061,0.7304461002349854
-0.2713871002197265,1.118626356124878,-0.5837365984916687,-0.1842650324106216,-0.2525612711906433,-0.3045374155044555,0.0,0.0,0.6286940574645996,0.5672558546066284
-0.277338445186615,1.1152774095535278,-0.5788355469703674,-0.1517384499311447,-0.2692110538482666,-0.3329954743385315,0.0,0.0,0.1201858520507812,0.5299580097198486
-0.283193439245224,1.1122636795043943,-0.5682362914085388,-0.1372213065624237,-0.2869272530078888,-0.3543241322040558,0.0,0.0,-0.0158076286315917,0.5455706119537354
-0.2890911102294922,1.1089917421340942,-0.5717226266860962,-0.149077370762825,-0.3055448532104492,-0.3723519444465637,0.0,0.0,0.4648342132568359,0.439510703086853
-0.2948465943336487,1.1061732769012451,-0.5578683614730835,-0.1290854066610336,-0.3238987326622009,-0.3670774400234222,0.0,0.0,0.4467663764953613,-0.050134539604187
-0.300592839717865,1.1036065816879272,-0.5568785071372986,-0.1181582883000373,-0.3424280285835266,-0.3705858588218689,0.0,0.0,0.4293184280395508,0.149188756942749
-0.3062584996223449,1.1011579036712646,-0.5491588115692139,-0.1130685731768608,-0.3607252240180969,-0.3659447729587555,0.0,0.0,0.229106068611145,0.2161872386932373
-0.3119238018989563,1.0988267660140991,-0.5490996837615967,-0.1081043854355812,-0.379172533750534,-0.3689462542533874,0.0,0.0,0.5660507678985596,0.3465654850006103
-0.317382276058197,1.0972980260849,-0.528469979763031,-0.0726687461137771,-0.3976991772651672,-0.3705326914787292,0.0,0.0,0.4200239181518554,0.4546363353729248
-0.3225671648979187,1.096449613571167,-0.5015004873275757,-0.0425807908177375,-0.4159514605998993,-0.3650457561016083,0.0,0.0,0.0682305097579956,-0.0113236904144287
-0.3276635110378265,1.0961203575134275,-0.4924288392066955,-0.0198048055171966,-0.4345844984054565,-0.3726610541343689,0.0,0.0,-0.1634087562561035,-0.2582009434700012
-0.3328154981136322,1.0955417156219482,-0.498101532459259,-0.0311193522065877,-0.4532638788223266,-0.3735877871513366,0.0,0.0,0.3713562488555908,0.2615425586700439
-0.3377027511596679,1.0955766439437866,-0.4718762934207916,-0.0040398691780865,-0.4718359708786011,-0.371441900730133,0.0,0.0,0.2894755601882934,0.0255926847457885
-0.3425058722496032,1.0960159301757812,-0.4632505476474762,0.0136029617860913,-0.4908226728439331,-0.3797339200973511,0.0,0.0,0.6372332572937012,-0.2722165584564209
-0.3470866084098816,1.0971330404281616,-0.4409238398075104,0.0434079058468341,-0.5101105570793152,-0.385758101940155,0.0,0.0,0.3544635772705078,-0.3347372412681579
-0.3514391481876373,1.0987582206726074,-0.4182009696960449,0.0657486915588378,-0.5294948220252991,-0.3876855969429016,0.0,0.0,0.3915057182312011,-0.5098894834518433
-0.3555500507354736,1.1007386445999146,-0.3952810168266296,0.0817335546016693,-0.5476656556129456,-0.3634169697761535,0.0,0.0,0.5596492290496826,-0.5657030344009399
-0.3595486283302307,1.102893590927124,-0.3852456510066986,0.0897368863224983,-0.5646368861198425,-0.3394250571727752,0.0,0.0,0.2070221900939941,-0.7389549612998962
-0.3634093403816223,1.1051509380340576,-0.372963398694992,0.0947046428918838,-0.5800203084945679,-0.3076681196689605,0.0,0.0,0.1386760473251342,-0.600936233997345
-0.3670296669006347,1.107596516609192,-0.3502267599105835,0.1034590154886245,-0.5940150022506714,-0.2798942923545837,0.0,0.0,-0.1004486680030822,-0.6141964793205261
-0.3707095980644226,1.1098172664642334,-0.3570874631404876,0.0937348306179046,-0.607056736946106,-0.2608345150947571,0.0,0.0,0.2971904277801513,-0.5937567949295044
-0.3741173148155212,1.1125602722167969,-0.3309735655784607,0.1173189803957939,-0.6188734173774719,-0.2363331764936447,0.0,0.0,-0.317575454711914,-0.1602657437324524
-0.3775457739830017,1.115051031112671,-0.3330859243869781,0.106020264327526,-0.6307465434074402,-0.2374628037214279,0.0,0.0,-0.5260267853736877,-0.3398798704147339
-0.3809916079044342,1.1172900199890137,-0.3348598182201385,0.0947214886546135,-0.6426764130592346,-0.2385978400707245,0.0,0.0,-0.3064514398574829,-0.2107371687889099
-0.3844513893127441,1.119276762008667,-0.3362966775894165,0.0834226459264755,-0.6546632051467896,-0.239735871553421,0.0,0.0,0.1366486549377441,-0.5176675319671631
-0.3877723813056946,1.1215002536773682,-0.3233027160167694,0.0942715406417846,-0.6656477451324463,-0.2196910083293914,0.0,0.0,0.0400542020797729,-0.2452025413513183
-0.3907233774662018,1.1240627765655518,-0.2865331172943115,0.1093618795275688,-0.6764427423477173,-0.215900033712387,0.0,0.0,-0.0945719480514526,-0.029079258441925
-0.3936785161495209,1.1263728141784668,-0.2869738936424255,0.0980648547410965,-0.6872943043708801,-0.2170316278934478,0.0,0.0,-0.0370502471923828,-0.3811991214752197
-0.3966345191001892,1.1284308433532717,-0.287092000246048,0.0867678076028823,-0.6982020735740662,-0.218155175447464,0.0,0.0,-0.1251614689826965,-0.2197866439819336
-0.3995881974697113,1.1302366256713867,-0.2868930399417877,0.0754707381129264,-0.7091654539108276,-0.2192678153514862,0.0,0.0,0.0020592212677001,-0.2091040015220642
-0.4022646844387054,1.1323398351669312,-0.2590976357460022,0.0885396525263786,-0.720333993434906,-0.2233711928129196,0.0,0.0,-0.0447021722793579,-0.0054851770401
-0.4049325883388519,1.1341909170150757,-0.2582844793796539,0.0772423669695854,-0.7315566539764404,-0.2244532853364944,0.0,0.0,0.0031068325042724,-0.1476134061813354
-0.4073982238769531,1.1361422538757324,-0.23804771900177,0.0815849229693412,-0.742902398109436,-0.2269131690263748,0.0,0.0,-0.0369566679000854,-0.2456863522529602
-0.4098493456840515,1.1378414630889893,-0.2366502583026886,0.0702875852584838,-0.754300057888031,-0.2279529571533203,0.0,0.0,0.4030467271804809,-0.7320195436477661
-0.4121238589286804,1.1399768590927124,-0.2201066315174102,0.0902661979198455,-0.7642974257469177,-0.1999472081661224,0.0,0.0,0.0479340553283691,-0.2913875579833984
-0.4140146374702453,1.1422834396362305,-0.1819884777069091,0.0979514047503471,-0.7740334272384644,-0.1947198957204818,0.0,0.0,-0.2464194297790527,-0.1966164708137512
-999.0,1.1443376541137695,-0.1797754019498825,0.0866564959287643,-0.7838172912597656,-0.1956768035888672,0.0,0.0,-0.2856608629226684,-0.2951312065124511
-0.4177262783050537,1.1461389064788818,-0.1773099303245544,0.0753616541624069,-0.7936474084854126,-0.1966008394956588,0.0,0.0,0.0311915874481201,-0.0122731328010559
-0.4192067682743072,1.1482126712799072,-0.1410241425037384,0.0873568579554557,-0.8035880327224731,-0.1988113224506378,0.0,0.0,-0.4018597602844238,-0.6015744805335999
-0.4206785559654236,1.1500762701034546,-0.1409235596656799,0.0784731283783912,-0.8125206232070923,-0.1786518096923828,0.0,0.0,-0.345129132270813,-0.2635497450828552
-0.4221184253692627,1.1516870260238647,-0.1377572864294052,0.067179650068283,-0.8214938640594482,-0.1794648021459579,0.0,0.0,0.1424340009689331,-0.5214822292327881
-0.4231391847133636,1.1536753177642822,-0.0966909378767013,0.0844796746969223,-0.8293211460113525,-0.1565462499856948,0.0,0.0,-0.5511940717697144,0.0487191677093505
-0.4241239130496979,1.1554104089736938,-0.0931058004498481,0.0731875374913215,-0.8371850252151489,-0.1572770476341247,0.0,0.0,-0.5874938368797302,0.0754169225692749
-0.4250705242156982,1.1568925380706787,-0.089326873421669,0.06189551576972,-0.8450832366943359,-0.1579646468162536,0.0,0.0,-0.4346328973770141,0.1264586448669433
-0.4259772896766662,1.1581214666366575,-0.0853639096021652,0.0506036207079887,-0.8530136346817017,-0.1586079001426696,0.0,0.0,-0.3069507479667663,0.2625422477722168
-0.4268423914909363,1.15909743309021,-0.0812265574932098,0.0393118597567081,-0.8609739542007446,-0.1592059433460235,0.0,0.0,-0.0974714756011962,-0.4074501991271972
-0.4276641309261322,1.1598201990127563,-0.0769243389368057,0.0280202329158782,-0.8689618706703186,-0.1597579419612884,0.0,0.0,-0.4049223661422729,-0.3408188223838806
-0.4284409880638122,1.1602898836135864,-0.0724666491150856,0.0167287550866603,-0.8769750595092773,-0.1602633148431778,0.0,0.0,-0.1269438862800598,-0.4436197876930237
-0.4291715025901794,1.1605064868927002,-0.0678627043962478,0.0054374262690544,-0.8850111365318298,-0.1607216745615005,0.0,0.0,0.0892242193222045,0.2138471603393554
-0.4294646382331848,1.1608234643936155,-0.0243534483015537,0.0100176762789487,-0.8927705883979797,-0.1551895439624786,0.0,0.0,-0.3731629848480224,0.3320819139480591
-0.4297086596488952,1.1608871221542358,-0.0194835662841796,-0.0012730859452858,-0.9005482792854309,-0.1555536687374115,0.0,0.0,-0.0616106390953063,-0.1191333532333374
