x_pos,y_pos,x_vel,y_vel,angle,ang_vel,leg_1,leg_2,main_booster,lat_booster
-0.0016186714638024,1.402930736541748,-0.163727805018425,-0.355089783668518,0.00166533049196,0.0328427553176879,0.0,0.0,-0.4194161891937256,0.9400157928466796
-0.0032532692421227,1.394266128540039,-0.1628872156143188,-0.3850935399532318,0.0010999609949067,-0.011307687498629,0.0,0.0,0.3315328359603882,0.8548996448516846
-0.0047947885468602,1.3853896856307983,-0.1518358737230301,-0.3945100605487823,-0.0011824864195659,-0.0456531681120395,0.0,0.0,0.2692636251449585,0.386560320854187
-0.0065237046219408,1.3763952255249023,-0.169969841837883,-0.3997596800327301,-0.0040737623348832,-0.0578309521079063,0.0,0.0,-0.0950867533683776,0.8784476518630981
-0.0082653043791651,1.3667092323303225,-0.1689380705356598,-0.4305082559585571,-0.0092441346496343,-0.1034167557954788,0.0,0.0,0.4213290214538574,0.7429232597351074
-0.0099095348268747,1.3570270538330078,-0.1577673256397247,-0.4303715825080871,-0.015823533758521,-0.1316001415252685,0.0,0.0,-0.0537294745445251,0.6617913246154785
-0.011600399389863,1.3466506004333496,-0.1609834730625152,-0.4612857699394226,-0.0238335747271776,-0.1602155566215515,0.0,0.0,0.0498225688934326,0.5857126712799072
-0.0132256504148244,1.3361941576004028,-0.1532579213380813,-0.4649099707603454,-0.0330068469047546,-0.1834823191165924,0.0,0.0,0.2588316202163696,0.6454770565032959
-0.0148859024047851,1.3260056972503662,-0.1552741825580597,-0.4530829787254333,-0.0436451248824596,-0.2127852439880371,0.0,0.0,-0.2356528043746948,0.7681964635848999
-0.0165822990238666,1.3151261806488037,-0.1571876853704452,-0.4839441180229187,-0.0559712536633014,-0.2465451955795288,0.0,0.0,0.0409886837005615,0.6712439060211182
-0.0182394981384277,1.3041070699691772,-0.1518453359603881,-0.4903141856193542,-0.0697288438677787,-0.2751769423484802,0.0,0.0,0.3706154823303222,-0.1115211248397827
-0.0199041366577148,1.2930463552474976,-0.1526960283517837,-0.4922884404659271,-0.0833761841058731,-0.2729715704917907,0.0,0.0,-0.4005649089813232,0.0081421136856079
-0.021664809435606,1.2812942266464231,-0.162160724401474,-0.5231468677520752,-0.0971914455294609,-0.2763304114341736,0.0,0.0,0.3189647197723388,0.2702782154083252
-0.0234392173588275,1.2692663669586182,-0.163628488779068,-0.5355279445648193,-0.110913798213005,-0.2744719386100769,0.0,0.0,-0.3100205659866333,0.0163071155548095
-0.0253092758357524,1.256547451019287,-0.1730527877807617,-0.5663883090019226,-0.1248035207390785,-0.277819812297821,0.0,0.0,0.182883620262146,-0.0643974542617797
-0.0271703712642192,1.2434393167495728,-0.1723813563585281,-0.5837866067886353,-0.1384909749031067,-0.273774117231369,0.0,0.0,0.5311205387115479,-0.5630512833595276
-0.0289238933473825,1.230804681777954,-0.1629541516304016,-0.5627357363700867,-0.150876447558403,-0.2477320730686187,0.0,0.0,0.4766044616699219,-0.7245640754699707
-0.0306398384273052,1.2179497480392456,-0.1607478410005569,-0.5724653601646423,-0.1617311686277389,-0.2171142399311065,0.0,0.0,0.028305172920227,-0.4904438257217407
-0.0323101058602333,1.2051279544830322,-0.1563163995742797,-0.5710623264312744,-0.1724705994129181,-0.2148079872131347,0.0,0.0,-0.4350694417953491,-0.869988739490509
-0.0341511741280555,1.191633224487305,-0.1752119958400726,-0.6008198857307434,-0.1814028173685073,-0.1786601096391677,0.0,0.0,0.8580021858215332,-0.6516568064689636
-0.0358314514160156,1.1786701679229736,-0.1606732010841369,-0.577045202255249,-0.1888013482093811,-0.1479842364788055,0.0,0.0,0.8017857074737549,-0.687675416469574
-0.0375546440482139,1.1657326221466064,-0.1662047356367111,-0.5757907629013062,-0.1949585378170013,-0.1231549158692359,0.0,0.0,0.9364125728607178,-0.8600931763648987
-0.0391499511897563,1.1530113220214844,-0.1553097516298294,-0.5659605264663696,-0.1992221623659134,-0.0852800458669662,0.0,0.0,0.0926952362060546,-0.5862820744514465
-0.0407923683524131,1.1398921012878418,-0.1610897779464721,-0.5835047960281372,-0.20240318775177,-0.0636258050799369,0.0,0.0,0.6668691635131836,-0.8889060020446777
-0.0426208488643169,1.127105474472046,-0.1810564398765564,-0.568543553352356,-0.2042065262794494,-0.0360703542828559,0.0,0.0,0.5564780235290527,0.1304233074188232
-0.0445429794490337,1.1146202087402344,-0.1896323263645172,-0.5552517771720886,-0.2068124562501907,-0.0521185621619224,0.0,0.0,0.9182467460632324,-0.0338199138641357
-0.0463777557015419,1.1026787757873535,-0.1807478070259094,-0.5311182141304016,-0.2095661014318466,-0.0550728626549243,0.0,0.0,0.4922999143600464,-0.0978432297706604
-0.0482623092830181,1.0911743640899658,-0.1850130409002304,-0.511789858341217,-0.2130345404148101,-0.0693686977028846,0.0,0.0,0.4408950805664062,0.3031795024871826
-0.0502037033438682,1.0800037384033203,-0.1900162547826767,-0.4970836043357849,-0.2171988040208816,-0.0832852497696876,0.0,0.0,0.9208030700683594,-0.3352574110031128
-0.0521343238651752,1.0689777135849,-0.1886672079563141,-0.4906880259513855,-0.2216459959745407,-0.0889433920383453,0.0,0.0,0.6406905651092529,0.2564058303833008
-0.0539485923945903,1.0584831237792969,-0.1769543588161468,-0.4671100676059723,-0.2261777818202972,-0.0906356126070022,0.0,0.0,0.4571633338928222,-0.407544732093811
-0.0558287613093853,1.04788339138031,-0.1830590218305587,-0.4718632400035858,-0.2311980724334716,-0.1004056110978126,0.0,0.0,0.0988504886627197,0.1585314273834228
-0.0577246658504009,1.0373882055282593,-0.184230238199234,-0.4673079550266266,-0.2366441190242767,-0.1089208871126174,0.0,0.0,0.3088068962097168,-0.1256902813911438
-0.0596861839294433,1.0266344547271729,-0.1903945207595825,-0.4788817763328552,-0.2424961030483245,-0.1170396655797958,0.0,0.0,0.677118182182312,0.168186068534851
-0.061561107635498,1.0161088705062866,-0.1816446632146835,-0.4687724709510803,-0.2484446913003921,-0.1189717650413513,0.0,0.0,0.5269260406494141,0.0652207136154174
-0.0633289366960525,1.0059008598327637,-0.1708491742610931,-0.4547086656093597,-0.2544891238212585,-0.1208889484405517,0.0,0.0,0.057969331741333,0.5819995403289795
-0.0650774985551834,0.9954102635383606,-0.1675784438848495,-0.4675289392471313,-0.2619135975837707,-0.1484903395175933,0.0,0.0,-0.6995410323143005,-0.0698031187057495
-0.0669044479727745,0.9842271208763124,-0.175269678235054,-0.4983745813369751,-0.2695129811763763,-0.1519874036312103,0.0,0.0,0.1948819160461425,-0.4956992864608764
-0.0686736106872558,0.9732440710067748,-0.1692113578319549,-0.4895795285701751,-0.2774195373058319,-0.1581304371356964,0.0,0.0,-0.2885605096817016,-0.1733941435813903
-0.0705184936523437,0.9615686535835266,-0.1766246855258941,-0.5204260945320129,-0.285502165555954,-0.1616526544094085,0.0,0.0,-0.6870321035385132,-0.8072279095649719
-0.0725081413984298,0.9492387771606444,-0.1928234994411468,-0.5492099523544312,-0.2918254435062408,-0.1264657527208328,0.0,0.0,-0.3453883528709411,-0.8983004689216614
-0.0746248215436935,0.9362385869026184,-0.2067715674638748,-0.5787805914878845,-0.2968767881393432,-0.1010276451706886,0.0,0.0,0.6606795787811279,-0.4504278898239136
-0.0766271576285362,0.9229547381401062,-0.195604532957077,-0.5913435816764832,-0.3016542792320251,-0.0955498293042182,0.0,0.0,0.97965669631958,-0.6226629018783569
-0.0784366577863693,0.909849226474762,-0.1777095794677734,-0.583143413066864,-0.3050029277801513,-0.0669734328985214,0.0,0.0,0.033392310142517,-0.937171757221222
-0.080360509455204,0.8963505029678345,-0.190819501876831,-0.6002694964408875,-0.3066226840019226,-0.0323958396911621,0.0,0.0,0.1919546127319336,-0.8894959688186646
-0.0823098197579383,0.8825092911720276,-0.1949518769979477,-0.6151672005653381,-0.3066045641899109,0.0003621015348471,0.0,0.0,-0.0448988676071167,-0.8391782641410828
-0.0843812972307205,0.8679973483085632,-0.208469957113266,-0.6446961760520935,-0.3052349388599396,0.0273924376815557,0.0,0.0,0.3844718933105469,-0.8060538172721863
-0.0864654555916786,0.8538765907287598,-0.2110281288623809,-0.6270424723625183,-0.3025242984294891,0.0542125888168811,0.0,0.0,-0.6042147278785706,-0.4183875322341919
-0.0886104553937912,0.8390628099441528,-0.216949313879013,-0.657884955406189,-0.2999935448169708,0.0506150722503662,0.0,0.0,0.2392817735671997,-0.6213273406028748
-0.0907656699419021,0.8241304159164429,-0.2189931422472,-0.662947416305542,-0.296409547328949,0.071679949760437,0.0,0.0,-0.6976749897003174,-0.2601244449615478
-0.0929780974984169,0.8085050582885742,-0.2245385199785232,-0.6937902569770813,-0.293005496263504,0.0680811256170272,0.0,0.0,-0.6346256732940674,0.0460083484649658
-0.0952457413077354,0.7921867966651917,-0.229891151189804,-0.724632978439331,-0.289781242609024,0.0644843503832817,0.0,0.0,0.3937861919403076,-0.4960523843765259
-0.0973710045218467,0.7756749987602234,-0.2159065008163452,-0.7331892848014832,-0.286310076713562,0.0694238692522049,0.0,0.0,0.6697878837585449,0.3304359912872314
-0.0993168801069259,0.75962895154953,-0.197799876332283,-0.712530791759491,-0.2830032110214233,0.0661369264125824,0.0,0.0,0.132500410079956,0.0833123922348022
-0.1011206656694412,0.7433285117149353,-0.1838784217834472,-0.7237910032272339,-0.2794027030467987,0.0720097050070762,0.0,0.0,0.3617119789123535,-0.1797643899917602
-0.1029402762651443,0.7269275784492493,-0.1849416196346283,-0.7283666133880615,-0.2763447761535644,0.061159361153841,0.0,0.0,0.3953962326049804,-0.378073513507843
-0.1045451164245605,0.7107725143432617,-0.1636492162942886,-0.7174126505851746,-0.2730969190597534,0.0649573132395744,0.0,0.0,0.2521030902862549,-0.3861063122749328
-0.1059545502066612,0.6946201920509338,-0.1444162726402282,-0.7172346711158752,-0.2695416808128357,0.0711044818162918,0.0,0.0,0.1867042779922485,-0.3681952953338623
-0.1071960479021072,0.6786084771156311,-0.1276868283748626,-0.7109832763671875,-0.2659134566783905,0.0725650265812873,0.0,0.0,-0.5001620650291443,-0.4290751814842224
-0.1084766387939453,0.6619037985801697,-0.1314351558685302,-0.7418256998062134,-0.2624589800834656,0.0690890103578567,0.0,0.0,0.7859535217285156,-0.5177367329597473
-0.1096737831830978,0.6450745463371277,-0.1241213902831077,-0.7471863627433777,-0.2579659819602966,0.0898598581552505,0.0,0.0,0.9354126453399658,-0.8252842426300049
-0.1108826622366905,0.6288222670555115,-0.1265008449554443,-0.721347451210022,-0.2522354125976562,0.1146114841103553,0.0,0.0,0.1231980323791503,-0.1738144755363464
-0.1119554489850997,0.6123563647270203,-0.1131196394562721,-0.7308245897293091,-0.2462843358516693,0.1190219745039939,0.0,0.0,0.9462242126464844,-0.4113820791244507
-0.1128561943769455,0.5962378978729248,-0.0958940237760543,-0.71541428565979,-0.2403701394796371,0.1182840093970298,0.0,0.0,0.7397305965423584,-0.6637486815452576
-0.1137285232543945,0.5800523161888123,-0.0942300111055374,-0.718230664730072,-0.2332620322704315,0.1421620398759842,0.0,0.0,0.8999968767166138,-0.0874549746513366
-0.1146092414855957,0.5642152428627014,-0.094276376068592,-0.702899158000946,-0.2269714772701263,0.1258110851049423,0.0,0.0,0.8431851863861084,-0.5176429152488708
-0.1153143867850303,0.5490919947624207,-0.0776723772287368,-0.6710616946220398,-0.2197146713733673,0.1451358497142791,0.0,0.0,0.6915497779846191,0.304079532623291
-0.1158952713012695,0.5336868762969971,-0.0655083730816841,-0.6835887432098389,-0.2122201919555664,0.149889662861824,0.0,0.0,0.8064439296722412,-0.5964754223823547
-0.116314984858036,0.5189693570137024,-0.0505239553749561,-0.652903139591217,-0.203584149479866,0.1727204173803329,0.0,0.0,0.3519166707992553,0.756812334060669
-0.1167022734880447,0.5041331648826599,-0.0455322936177253,-0.6584691405296326,-0.1967315375804901,0.1370523273944854,0.0,0.0,0.8419365882873535,0.3615500926971435
-0.117060087621212,0.4897444248199463,-0.0419885292649269,-0.638684868812561,-0.1904881298542022,0.1248680502176284,0.0,0.0,0.7069898843765259,-0.3076695203781128
-0.1172809600830078,0.4756008684635162,-0.0283122714608907,-0.6278178691864014,-0.1842272281646728,0.1252179890871048,0.0,0.0,0.5483055114746094,0.0491993427276611
-0.117489717900753,0.4619644582271576,-0.026434501633048,-0.6053845286369324,-0.1786476373672485,0.1115918904542923,0.0,0.0,-0.1170330047607421,0.4333659410476684
-0.117711067199707,0.4476348161697387,-0.0275867842137813,-0.6362263560295105,-0.1731836646795272,0.1092794984579086,0.0,0.0,0.9439218044281006,-0.009009838104248
-0.1179032325744628,0.4333020746707916,-0.0243798159062862,-0.6364149451255798,-0.1680110692977905,0.1034520119428634,0.0,0.0,0.9815119504928588,-0.12123703956604
-0.1179592162370681,0.4188322424888611,-0.0110469674691557,-0.6424973011016846,-0.1625607758760452,0.1090057492256164,0.0,0.0,0.9653100967407228,0.3725005388259887
-0.1179948821663856,0.4042760133743286,-0.0087578808888793,-0.6463888883590698,-0.1573751270771026,0.1037129014730453,0.0,0.0,0.955890655517578,-0.2055317163467407
-0.1178997009992599,0.3904197812080383,0.0044526858255267,-0.615303099155426,-0.1523167639970779,0.1011676043272018,0.0,0.0,0.8646471500396729,-0.3663972616195678
-0.117580696940422,0.3772147893905639,0.0264868941158056,-0.5863451361656189,-0.1469121426343917,0.1080920249223709,0.0,0.0,0.8976998329162598,-0.5810197591781616
-0.1173088997602462,0.3647555410861969,0.0210366267710924,-0.553148627281189,-0.1407836824655532,0.1225691437721252,0.0,0.0,0.8631482124328613,0.2758315801620483
-0.1171317100524902,0.3521884977817535,0.0122953634709119,-0.5580332279205322,-0.1353809237480163,0.1080550700426101,0.0,0.0,0.9157246351242064,0.4249287843704223
-0.1167859062552452,0.3402810096740722,0.0289811287075281,-0.52872633934021,-0.1298015862703323,0.1115871295332908,0.0,0.0,0.763347864151001,0.6934928894042969
-0.1164228469133377,0.328605592250824,0.0323858074843883,-0.5185686945915222,-0.1259031295776367,0.077968992292881,0.0,0.0,0.835378885269165,-0.2443398833274841
-0.1160249710083007,0.3173686265945434,0.036172192543745,-0.4991194605827331,-0.1223033741116523,0.0719949975609779,0.0,0.0,0.0018240213394165,-0.302226722240448
-0.1155807524919509,0.3060705959796905,0.0408333539962768,-0.5018447637557983,-0.1187425777316093,0.0712159872055053,0.0,0.0,0.7279701232910156,0.2174298763275146
-0.1149713546037674,0.2949691116809845,0.0569269247353076,-0.4930883347988128,-0.1147536188364029,0.079779140651226,0.0,0.0,0.528261661529541,-0.3696116209030151
-0.1143005341291427,0.2836419641971588,0.0629520565271377,-0.5031161308288574,-0.1106452271342277,0.082167662680149,0.0,0.0,0.3221100568771362,0.2786951065063476
-0.1135160475969314,0.2720893025398254,0.0739296823740005,-0.5131260752677917,-0.1061638370156288,0.0896277353167533,0.0,0.0,0.3544919490814209,0.0184355974197387
-0.1125572174787521,0.2605221271514892,0.0907669216394424,-0.5137415528297424,-0.1010834276676178,0.1016085594892501,0.0,0.0,0.6110341548919678,0.106850266456604
-0.1114188209176063,0.2488148063421249,0.1080308407545089,-0.5199446082115173,-0.0953218564391136,0.1152314692735672,0.0,0.0,0.7633676528930664,-0.2711273431777954
-0.1102040261030197,0.2376121133565902,0.1156241744756698,-0.4975342750549316,-0.0895249396562576,0.1159385591745376,0.0,0.0,0.7418621778488159,-0.2812036871910095
-0.1088788956403732,0.2269064486026764,0.1264410316944122,-0.4754564166069031,-0.0835030600428581,0.1204376220703125,0.0,0.0,0.4500514268875122,-0.6143940687179565
-0.1074274033308029,0.2163760215044021,0.1374929547309875,-0.4676088392734527,-0.0759196653962135,0.1516679227352142,0.0,0.0,0.4387838840484619,-0.3874427676200866
-0.1058596596121788,0.205567792057991,0.1486107409000396,-0.4799762964248657,-0.0678356736898422,0.1616795063018798,0.0,0.0,0.8164772987365723,-0.6233863830566406
-0.1043577194213867,0.1949139982461929,0.1408166587352752,-0.4731044471263885,-0.0585661977529525,0.1853896230459213,0.0,0.0,0.8608921766281128,0.0629959106445312
-0.1026962250471115,0.1850142776966095,0.1562092751264572,-0.4396275579929352,-0.0487428903579711,0.1964659988880157,0.0,0.0,-0.2218599319458007,-0.6025722622871399
-0.101076602935791,0.1744254976511001,0.1506292223930359,-0.4702800512313843,-0.0375527888536453,0.2238021790981292,0.0,0.0,0.8270975351333618,-0.3825639486312866
-0.0995539650321006,0.1644708514213562,0.1414461731910705,-0.4421904981136322,-0.0268696341663599,0.2136631458997726,0.0,0.0,0.4894413948059082,-0.1321511268615722
-0.0979285240173339,0.1547641158103943,0.1512175500392913,-0.4312444031238556,-0.0156861972063779,0.223668485879898,0.0,0.0,0.6346447467803955,0.6277902126312256
-0.0962918251752853,0.1454830318689346,0.15359927713871,-0.4124142229557037,-0.005740525200963,0.1989132761955261,0.0,0.0,0.375375747680664,0.0284856557846069
-0.094713307917118,0.1364449858665466,0.1479438692331314,-0.4016781747341156,0.0040379371494054,0.1955693811178207,0.0,0.0,0.544624924659729,0.7026582956314087
-0.0930998772382736,0.1274105161428451,0.1527425795793533,-0.4015780389308929,0.0125270718708634,0.1697825938463211,0.0,0.0,0.5013833045959473,-0.63987797498703
-0.0916534438729286,0.1185005754232406,0.1348393857479095,-0.3961086571216583,0.0222085248678922,0.1936290264129638,0.0,0.0,0.7432811260223389,0.8748371601104736
-0.0903202071785926,0.1097210943698883,0.1254192441701889,-0.3903352618217468,0.0300198979675769,0.156227558851242,0.0,0.0,0.7933621406555176,0.8631160259246826
-0.0888097733259201,0.1014319956302642,0.1444593966007232,-0.3685508966445923,0.0365183912217617,0.129969909787178,0.0,0.0,0.5877974033355713,0.2592705488204956
-0.087248608469963,0.0929845422506332,0.1490793526172638,-0.3756309151649475,0.0434691682457923,0.1390153765678405,0.0,0.0,0.8715307712554932,0.420812726020813
-0.0855567008256912,0.0851499885320663,0.1612016558647155,-0.3484581112861633,0.0513641238212585,0.1578991860151291,0.0,0.0,0.775977373123169,-0.8592596650123596
-0.0839995369315147,0.0778721198439598,0.145864650607109,-0.3238280117511749,0.0611071959137916,0.1948610991239547,0.0,0.0,0.8561131954193115,0.8015351295471191
-0.082260325551033,0.0713702291250228,0.1651169210672378,-0.2893577516078949,0.0698085278272628,0.1740270256996154,0.0,0.0,0.4337663650512695,0.869269609451294
-0.0804111510515213,0.0649432986974716,0.1775912344455719,-0.2860016524791717,0.0770622119307518,0.1450736224651336,0.0,0.0,0.8070461750030518,0.2367516756057739
-0.0786376968026161,0.0591580979526042,0.1698610484600067,-0.2575244605541229,0.0844791904091835,0.1483393311500549,0.0,0.0,0.4752784967422485,0.0688753128051757
-0.0768695846199989,0.0537381023168563,0.1688675880432129,-0.2413603663444519,0.0923498198390007,0.1574125587940216,0.0,0.0,0.4990798234939575,0.5954469442367554
-0.0750146880745887,0.0482611022889614,0.1783553063869476,-0.2438796162605285,0.0994203090667724,0.1414097249507904,0.0,0.0,0.6064718961715698,-0.6788315773010254
-0.073404312133789,0.0429624877870082,0.1526140570640564,-0.2360749244689941,0.107777714729309,0.1671481877565384,0.0,0.0,0.7655315399169922,0.9138504266738892
-0.0719360336661338,0.0377760976552963,0.1402853429317474,-0.2309915423393249,0.1142792329192161,0.1300303637981414,0.0,0.0,0.7430293560028076,0.6065553426742554
-0.0705163925886154,0.0327866896986961,0.1364784240722656,-0.2221822440624237,0.1197234019637107,0.1088834851980209,0.0,0.0,0.7873660326004028,0.799565315246582
-0.0690777748823165,0.0279789548367261,0.1397107690572738,-0.2140178382396698,0.1238505020737648,0.0825421810150146,0.0,0.0,0.8965650796890259,-0.2149983048439026
-0.0675481781363487,0.0231202226132154,0.1478965729475021,-0.2163729518651962,0.1288906633853912,0.1008031144738197,0.0,0.0,0.9085791110992432,0.4807268381118774
-0.0660164803266525,0.0187651012092828,0.1473641097545623,-0.1940711289644241,0.1346735507249832,0.1156573891639709,0.0,0.0,0.8834974765777588,-0.2889875173568725
-0.0645893067121505,0.0150897596031427,0.1365608274936676,-0.163918524980545,0.1408126354217529,0.1227817758917808,0.0,0.0,0.3747267723083496,-0.2016474604606628
-0.0632282271981239,0.0119019364938139,0.147904485464096,-0.1406245827674865,0.1290262043476104,-0.2357791364192962,0.0,1.0,0.776347279548645,-0.0902528762817382
