x_pos,y_pos,x_vel,y_vel,angle,ang_vel,leg_1,leg_2,main_booster,lat_booster
-0.0014857292408123,1.403247356414795,-0.151028960943222,-0.34101203083992,0.0022037918679416,0.0435046628117561,0.0,0.0,-0.4771530223733891,-0.8482970906411881
-0.002995491027832,1.395216464996338,-0.1551677286624908,-0.3569411039352417,0.0063508935272693,0.0829505324363708,0.0,0.0,0.7678633077068693,0.8597397125372894
-0.0042468071915209,1.387452483177185,-0.1283935904502868,-0.3450845777988434,0.0095803970471024,0.0645956695079803,0.0,0.0,0.1163533914175285,-0.6524967427637738
-0.0056088445708155,1.3798136711120603,-0.1411222964525222,-0.3395427763462066,0.014452033676207,0.097441665828228,0.0,0.0,0.5890177823873428,0.9095141502607114
-0.0067359926179051,1.3727461099624634,-0.1165302544832229,-0.3141543567180633,0.0182226970791816,0.0754201710224151,0.0,0.0,-0.3196085733332683,-0.9085056484509416
-0.007886791601777,1.3652989864349363,-0.1208018064498901,-0.331065684556961,0.0238810554146766,0.1131776794791221,0.0,0.0,-0.0782326451612791,-0.7769704410486111
-0.0090710641816258,1.357473373413086,-0.1262711435556411,-0.3479533493518829,0.0316384546458721,0.1551625281572342,0.0,0.0,0.5724832930498069,0.8549958569974756
-0.0100204469636082,1.350207805633545,-0.101851001381874,-0.3230710625648498,0.0384703874588012,0.1366511583328247,0.0,0.0,-0.8366332358105659,-0.7675336589146313
-0.0110051156952977,1.3425709009170532,-0.1074604392051696,-0.3396730422973633,0.0473693162202835,0.1779952943325042,0.0,0.0,-0.8555814171328109,-0.7452028258902228
-0.01202392578125,1.3345590829849243,-0.1128881201148033,-0.356466144323349,0.0582672581076622,0.2179789543151855,0.0,0.0,-0.2629108482182725,0.9662326843891764
-0.0129329683259129,1.326180100440979,-0.1002317890524864,-0.372784823179245,0.0675011053681373,0.184693843126297,0.0,0.0,0.8086919776613741,0.8078212261297408
-0.0137116434052586,1.3183043003082275,-0.0862882807850837,-0.3504312336444855,0.0758437886834144,0.1668692231178283,0.0,0.0,-0.2378950506988386,-0.6916245025753671
-0.0145140644162893,1.3100515604019165,-0.0902706161141395,-0.3673232495784759,0.0857985839247703,0.1991140097379684,0.0,0.0,-0.4426113908642071,-0.8993120284673551
-0.0153613090515136,1.3014076948165894,-0.0968945324420929,-0.3849148750305176,0.0978780463337898,0.2416109591722488,0.0,0.0,-0.9196644076419428,-0.9794071468427404
-0.0162530895322561,1.2923911809921265,-0.1033782735466957,-0.4017282426357269,0.1119896471500396,0.282257467508316,0.0,0.0,0.2576624784132315,0.8149943206968681
-0.0169981960207223,1.2833552360534668,-0.0876967757940292,-0.4026406109333038,0.1251278519630432,0.2627878785133362,0.0,0.0,-0.0350107400454167,0.8613037636819989
-0.0176502224057912,1.273970603942871,-0.0768188312649726,-0.4181114733219147,0.1367053240537643,0.2315707206726074,0.0,0.0,0.574778031679889,-0.7075549298070931
-0.0182491298764944,1.2647557258605957,-0.0737593695521354,-0.4108799695968628,0.1505560874938964,0.2770406901836395,0.0,0.0,0.0174265407228639,0.7905242885492477
-0.0187854766845703,1.2559373378753662,-0.0664679631590843,-0.3932797312736511,0.1634061932563781,0.2570253610610962,0.0,0.0,-0.0378905616724816,-0.6597719704801652
-0.0193751342594623,1.2467305660247805,-0.0738306790590286,-0.4108875095844269,0.178315058350563,0.2982040047645569,0.0,0.0,0.1824850883786926,0.7807733406327844
-0.019894789904356,1.237994909286499,-0.0659028217196464,-0.3899808526039123,0.192314475774765,0.2800140082836151,0.0,0.0,0.7743736898820821,0.8321502411529172
-0.0204259864985942,1.2296037673950195,-0.0659386217594146,-0.3746622502803802,0.2052416503429412,0.2585667371749878,0.0,0.0,0.3429557232865086,-0.7990346214762767
-0.0209935195744037,1.2215051651000977,-0.0718330889940261,-0.3620946705341339,0.2204901129007339,0.3049966096878052,0.0,0.0,0.3588576583288234,-0.9369368298528232
-0.0216266624629497,1.213397741317749,-0.0808183550834655,-0.3630437850952148,0.2382514178752899,0.3552580773830414,0.0,0.0,-0.0237676303049791,0.7542925533741429
-0.0222213752567768,1.2049368619918823,-0.0763230919837951,-0.3788599073886871,0.2554214894771576,0.343432605266571,0.0,0.0,-0.4895459415107634,0.6882379336650237
-0.0227803234010934,1.196102738380432,-0.0722224786877632,-0.3955572545528412,0.272112101316452,0.3338119685649872,0.0,0.0,0.0722851724003834,-0.81153332524334
-0.0235343929380178,1.1875592470169067,-0.0938155949115753,-0.3832525908946991,0.2910244166851043,0.3782466948032379,0.0,0.0,-0.6224623100103739,0.8194969818882175
-0.0242521278560161,1.1786750555038452,-0.0893810912966728,-0.3984732925891876,0.3092072010040283,0.3636557459831238,0.0,0.0,0.2565340451124758,0.6749750187925405
-0.0252174381166696,1.1702407598495483,-0.1131011471152305,-0.3784793317317962,0.3264324069023132,0.3445042371749878,0.0,0.0,0.0513678958341581,-0.6672709419022822
-0.0263593681156635,1.1618422269821167,-0.1325358599424362,-0.3775305449962616,0.3455953598022461,0.3832589089870453,0.0,0.0,0.8445732777793369,0.8729542043655087
-0.0277531631290912,1.1544630527496338,-0.1564674228429794,-0.3321631550788879,0.3635869026184082,0.3598310053348541,0.0,0.0,0.8693478281230638,0.9601625929072588
-0.0293594356626272,1.1473915576934814,-0.1761703640222549,-0.3183219730854034,0.3800488114356994,0.3292382359504699,0.0,0.0,0.991953882972994,0.6754032821649206
-0.0313938148319721,1.1412712335586548,-0.2178769409656524,-0.2759366035461426,0.3954314887523651,0.3076543509960174,0.0,0.0,0.307556214357209,-0.8280016165396715
-0.033668614923954,1.1350977420806885,-0.2439155578613281,-0.2790533304214477,0.4130744338035583,0.3528597354888916,0.0,0.0,0.1374004803552775,-0.6044709841858604
-0.036170195788145,1.1291279792785645,-0.2681789100170135,-0.2707185745239258,0.4325794577598572,0.3901000022888183,0.0,0.0,-0.2151729457973175,0.9863066185044702
-0.0386239998042583,1.1228454113006592,-0.2618477046489715,-0.2844066917896271,0.4505529701709747,0.3594704270362854,0.0,0.0,0.8457494346696006,0.6448946894957766
-0.041304588317871,1.1168888807296753,-0.2836449742317199,-0.2698488533496856,0.4677016139030456,0.3429725766181946,0.0,0.0,-0.4713461272614683,0.7754625610657191
-0.0439539924263954,1.1106112003326416,-0.2793609499931335,-0.2839522063732147,0.4837086498737335,0.3201406002044678,0.0,0.0,-0.434792465923123,0.7194450638566948
-0.046584703028202,1.10400652885437,-0.2766441702842712,-0.2983662784099579,0.4988854527473449,0.3035364151000976,0.0,0.0,0.6778951185467028,-0.6387803519667287
-0.0495541580021381,1.097831964492798,-0.3121706247329712,-0.280053049325943,0.5160735845565796,0.3437634110450744,0.0,0.0,0.8396698454750149,0.93452307501927
-0.0530326850712299,1.092381715774536,-0.3615505993366241,-0.2474932372570037,0.5316681861877441,0.3118922412395477,0.0,0.0,-0.9949127435684204,0.9373540878295898
-0.0564628615975379,1.086626052856445,-0.3550161719322204,-0.260580450296402,0.5454638600349426,0.2759131491184234,0.0,0.0,-0.9574155807495116,0.9769874811172484
-0.0598423965275287,1.0805588960647583,-0.3482968211174011,-0.2738874554634094,0.5574566721916199,0.2398554384708404,0.0,0.0,-0.99248069524765,0.848921537399292
-0.0631851181387901,1.0741798877716064,-0.3432640433311462,-0.2872801721096039,0.5679369568824768,0.2096062153577804,0.0,0.0,-0.9951645731925964,0.9050579071044922
-0.0664984732866287,1.067473292350769,-0.3392491340637207,-0.3014667630195617,0.5772249698638916,0.1857602596282959,0.0,0.0,-0.968423306941986,0.9379079341888428
-0.0697729140520095,1.0604511499404907,-0.3339978158473968,-0.3149631321430206,0.5849600434303284,0.1547016054391861,0.0,0.0,-0.9970699548721312,0.74434494972229
-0.0730236992239952,1.0531063079833984,-0.3306203186511993,-0.3289035558700561,0.5915368795394897,0.1315370947122573,0.0,0.0,-0.8314239978790283,0.9132840633392334
-0.0762618035078048,1.045445442199707,-0.3284755349159241,-0.3425837755203247,0.5970948934555054,0.1111599579453468,0.0,0.0,-0.9875982403755188,0.9421292543411256
-0.0794878974556922,1.0374670028686523,-0.3264207243919372,-0.3563277125358581,0.6016519069671631,0.0911407843232154,0.0,0.0,-0.9537253379821776,0.976149320602417
-0.0826849937438964,1.0291762351989746,-0.3223161101341247,-0.3696842193603515,0.6047775745391846,0.0625138953328132,0.0,0.0,-0.8594809174537659,0.941856861114502
-0.0858403220772743,1.0205895900726318,-0.3165320456027984,-0.3820834755897522,0.6059812903404236,0.0240747146308422,0.0,0.0,-0.9713072776794434,0.857756495475769
-0.0889815315604209,1.0116865634918213,-0.314216285943985,-0.3957310616970062,0.6060947179794312,0.002268988173455,0.0,0.0,-0.9112803339958192,0.6707937717437744
-0.0921042412519455,1.0024607181549072,-0.3114432692527771,-0.4096608459949493,0.6050969362258911,-0.0199561212211847,0.0,0.0,-0.9511195421218872,0.9328241348266602
-0.0952044501900672,0.9929311871528624,-0.3079773783683777,-0.4225947260856628,0.6026530265808105,-0.0488787330687046,0.0,0.0,-0.972726821899414,0.8453449010848999
-0.0982701331377029,0.9830963015556335,-0.3031278848648071,-0.4355346858501434,0.5985313653945923,-0.0824335888028144,0.0,0.0,-0.9911327362060548,0.3286341428756714
-0.1013704314827919,0.9728888869285583,-0.3070706725120544,-0.4523237645626068,0.5950008034706116,-0.0706108435988426,0.0,0.0,-0.9957981705665588,0.3175899982452392
-0.1045055389404296,0.962308943271637,-0.3110394477844238,-0.4691123366355896,0.5920602679252625,-0.0588112249970436,0.0,0.0,-0.9946132898330688,0.5424779653549194
-0.1076335906982421,0.95140141248703,-0.309607446193695,-0.4833504259586334,0.5882694125175476,-0.0758173987269401,0.0,0.0,-0.9713973999023438,0.1990916728973388
-0.1107967346906662,0.9401214122772216,-0.3136196434497833,-0.5001387000083923,0.5850657224655151,-0.0640733614563942,0.0,0.0,-0.9731582403182985,0.3059213161468506
-0.1139953583478927,0.928468644618988,-0.3176501989364624,-0.5169265270233154,0.5824475884437561,-0.052362285554409,0.0,0.0,-0.9614320397377014,0.0488731861114501
-0.1172295585274696,0.9164430499076844,-0.3216966986656189,-0.5337139964103699,0.5804131627082825,-0.040688507258892,0.0,0.0,-0.9581100344657898,0.1660747528076172
-0.1204994171857833,0.9040448069572448,-0.3257568776607513,-0.5505009293556213,0.5789603590965271,-0.0290555749088525,0.0,0.0,-0.8603259921073914,-0.0434552431106567
-0.1238050460815429,0.8912734389305115,-0.3298284709453583,-0.5672876834869385,0.5780869126319885,-0.0174687504768371,0.0,0.0,-0.9012472033500672,0.7219603061676025
-0.1270981729030609,0.8781780004501343,-0.327696681022644,-0.5813149213790894,0.576178789138794,-0.0381628982722759,0.0,0.0,-0.9383169412612916,0.0324777364730834
-0.1304273605346679,0.864709734916687,-0.3317843675613403,-0.5981013178825378,0.5748446583747864,-0.0266820937395095,0.0,0.0,-0.6660228371620178,0.3034732341766357
-0.1337925940752029,0.8508685231208801,-0.3358772397041321,-0.6148874163627625,0.5740814805030823,-0.0152629716321825,0.0,0.0,-0.8995699286460876,0.0668660402297973
-0.1371940672397613,0.8366542458534241,-0.3399732112884521,-0.631673276424408,0.5738859176635742,-0.0039113056845963,0.0,0.0,-0.9491872191429138,0.3264808654785156
-0.1406315863132476,0.8220669031143188,-0.3440703153610229,-0.6484588980674744,0.5742542147636414,0.0073657273314893,0.0,0.0,-0.9366291165351868,-0.0230892300605773
-0.1441053450107574,0.807106614112854,-0.3481665253639221,-0.6652444005012512,0.5751822590827942,0.0185605622828006,0.0,0.0,-0.8558302521705627,0.1568605899810791
-0.1476153433322906,0.7917730808258057,-0.3522599339485168,-0.6820297837257385,0.5766655206680298,0.0296650789678096,0.0,0.0,-0.8931213021278381,0.719348669052124
-0.1511229574680328,0.7761078476905823,-0.3513721823692322,-0.6964980363845825,0.5773863196372986,0.0144162122160196,0.0,0.0,-0.8976636528968811,0.368487000465393
-0.1546667069196701,0.7600695490837097,-0.3554543554782867,-0.7132828831672668,0.578652024269104,0.0253139343112707,0.0,0.0,-0.922030746936798,0.6013259887695312
-0.1582184731960296,0.7436935901641846,-0.3558345437049866,-0.7281018495559692,0.5794311165809631,0.0155814988538622,0.0,0.0,-0.883903980255127,0.6303380727767944
-0.1617603302001953,0.7269898056983948,-0.3540096879005432,-0.7423174977302551,0.579224705696106,-0.0041287830099463,0.0,0.0,-0.913532257080078,0.4355148077011108
-0.1653382331132888,0.7099126577377319,-0.3580610454082489,-0.7591016292572021,0.5795437693595886,0.006380749400705,0.0,0.0,-0.7722738981246948,0.5033668279647827
-0.168913647532463,0.692493736743927,-0.3572412133216858,-0.7740486860275269,0.5791870355606079,-0.0071345134638249,0.0,0.0,-0.6742458343505859,0.5857248306274414
-0.1724865883588791,0.6747319102287292,-0.3564290404319763,-0.7890347838401794,0.5781583189964294,-0.0205739475786685,0.0,0.0,-0.5903129577636719,0.4714481830596924
-0.1760953962802887,0.6565966010093689,-0.3604325354099273,-0.805817723274231,0.5776299834251404,-0.0105666238814592,0.0,0.0,-0.6137385964393616,0.6251990795135498
-0.1796960830688476,0.6381379961967468,-0.3587384521961212,-0.8198018670082092,0.5760621428489685,-0.0313568785786628,0.0,0.0,-0.4793181419372558,0.6935372352600098
-0.1832982003688812,0.6193475127220154,-0.3582437336444855,-0.8342845439910889,0.573752224445343,-0.0461978390812873,0.0,0.0,-0.2347092628479004,0.6342570781707764
-0.1869006156921386,0.6002095341682434,-0.3577848076820373,-0.8495180606842041,0.5708537697792053,-0.0579675547778606,0.0,0.0,-0.4793944358825683,0.7493898868560791
-0.1904886215925216,0.580753743648529,-0.3552426993846893,-0.8631826639175415,0.5666871070861816,-0.0833335146307945,0.0,0.0,-0.0071080327033996,0.4301578998565674
-0.1941118240356445,0.560924232006073,-0.359126478433609,-0.879963755607605,0.5629625916481018,-0.0744901522994041,0.0,0.0,-0.2484399080276489,0.322266936302185
-999.0,0.5407208204269409,-0.3629806637763977,-0.8967438340187073,0.5596656799316406,-0.0659377202391624,0.0,0.0,-0.3118637204170227,0.5059499740600586
-0.2014309465885162,0.5201762318611145,-0.3627131581306457,-0.9116792678833008,0.555716872215271,-0.0789763778448104,0.0,0.0,-0.1808469295501709,0.4960432052612304
-0.2051265686750412,0.4992575347423553,-0.3665011823177337,-0.9284577965736388,0.552163302898407,-0.0710712820291519,0.0,0.0,-0.3306889533996582,0.0271708965301513
-0.2088565379381179,0.4779645204544067,-0.3702530860900879,-0.9452352523803712,0.548987090587616,-0.0635237693786621,0.0,0.0,-0.5018723607063293,-0.1559935808181762
-0.2126205414533615,0.4562969207763672,-0.373966634273529,-0.9620115756988524,0.5461692214012146,-0.0563570037484169,0.0,0.0,-0.5018798112869263,-0.2312841415405273
-0.2164184600114822,0.4342546463012695,-0.3776395916938782,-0.9787867665290833,0.543689489364624,-0.049594260752201,0.0,0.0,-0.6841692328453064,-0.5137860774993896
-0.2202748358249664,0.4118103682994842,-0.3844955563545227,-0.9970656037330629,0.5423736572265625,-0.0263170711696147,0.0,0.0,-0.8666107654571533,-0.7451602220535278
-0.2242166101932525,0.3889502286911011,-0.3946743309497833,-1.01620614528656,0.5429444909095764,0.0114169996231794,0.0,0.0,-0.8958079814910889,-0.8426538705825806
-0.2282470762729644,0.3656719326972961,-0.405238538980484,-1.035472750663757,0.5454775094985962,0.0506609380245208,0.0,0.0,-0.9197567701339722,-0.775883674621582
-0.2323523014783859,0.3419835865497589,-0.4140589237213135,-1.0542504787445068,0.5495628118515015,0.0817060470581054,0.0,0.0,-0.961354911327362,-0.4843418598175049
-0.2364901006221771,0.3179198801517486,-0.4174929559230804,-1.071021318435669,0.5538684725761414,0.0861137881875038,0.0,0.0,-0.984660506248474,-0.7299197912216187
-0.2407118827104568,0.2934303283691406,-0.4275137782096863,-1.0906386375427246,0.5600650310516357,0.1239321678876876,0.0,0.0,-0.9832480549812316,-0.4051480293273926
-0.2449657022953033,0.2685652375221252,-0.430834949016571,-1.1074087619781494,0.5664282441139221,0.1272643208503723,0.0,0.0,-0.9816428422927856,-0.3323678970336914
-0.2492511719465255,0.2433244287967682,-0.4340969026088714,-1.1241779327392578,0.5729301571846008,0.1300378292798996,0.0,0.0,-0.9810088276863098,-0.2601767778396606
-0.2535679340362549,0.2177078276872635,-0.4372973442077636,-1.1409460306167605,0.5795422792434692,0.1322424709796905,0.0,0.0,-0.9401838779449464,0.0499665737152099
-0.2579156458377838,0.1917151510715484,-0.4404341578483581,-1.1577128171920776,0.5862358212471008,0.1338710784912109,0.0,0.0,-0.9275350570678712,0.2150030136108398
-0.2622938752174377,0.1653463244438171,-0.4435052275657654,-1.1744784116744995,0.59298175573349,0.1349191963672638,0.0,0.0,-0.7296565771102905,0.2151722908020019
-0.2667021751403808,0.1386010497808456,-0.4465085864067077,-1.1912426948547363,0.5997510552406311,0.1353856027126312,0.0,0.0,-0.4529526233673095,0.3182985782623291
-0.2711400985717773,0.1114791259169578,-0.4494421482086181,-1.2080057859420776,0.6065146327018738,0.1352718472480774,0.0,1.0,0.9972434043884276,0.9999446868896484
-0.2696039080619812,0.1067203879356384,0.0448528453707695,-0.2899390161037445,0.6943444609642029,1.6675094366073608,0.0,1.0,-0.4581037759780884,-0.6822730898857117
-0.2667158544063568,0.1087660193443298,0.2072815150022506,0.0364091284573078,0.785494863986969,1.794088363647461,0.0,1.0,-0.9721370935440063,-0.2589926719665527
-0.264140784740448,0.1108661517500877,0.207162469625473,0.0573548302054405,0.8581153750419617,1.45209002494812,0.0,1.0,-0.9854075908660888,0.5257493257522583
-0.2615919709205627,0.1130314469337463,0.2129778563976287,0.0616705268621444,0.9232090711593628,1.3009636402130127,0.0,1.0,-0.8134033679962158,0.5455126762390137
-0.2590287625789642,0.114895686507225,0.2185396254062652,0.0473886206746101,0.987695813179016,1.289820432662964,0.0,1.0,-0.8875675201416016,0.5036466121673584
-0.2564791738986969,0.116459310054779,0.2212491482496261,0.0331310592591762,1.0510600805282593,1.267366647720337,0.0,0.0,-0.999820590019226,0.5417511463165283
-0.2539691925048828,0.1177381873130798,0.2215595245361328,0.0201367121189832,1.112753987312317,1.2339565753936768,0.0,0.0,-0.99977046251297,0.5154845714569092
-0.2514995634555816,0.1187178716063499,0.221562385559082,0.0066238879226148,1.1729586124420166,1.204168438911438,0.0,0.0,-0.999814748764038,0.2798864841461181
-0.2490887641906738,0.1193362772464752,0.2190951108932495,-0.0103049660101532,1.2330420017242432,1.2017438411712646,0.0,0.0,-0.9996798634529114,0.1899855136871338
-0.2467365711927414,0.1195902675390243,0.2167188674211502,-0.0272214617580175,1.292976140975952,1.1987590789794922,0.0,0.0,-0.9996079802513124,0.2963225841522217
-0.2444425523281097,0.1194763258099556,0.2144353836774826,-0.0441250056028366,1.3527344465255735,1.195243239402771,0.0,0.0,-0.9995567202568054,0.2594214677810669
-0.2422060072422027,0.1189910992980003,0.2122441083192825,-0.0610146671533584,1.412291169166565,1.1912100315093994,0.0,0.0,-0.9994496703147888,0.3621134757995605
-0.2400259971618652,0.1181314289569854,0.2101446837186813,-0.0778897255659103,1.47162127494812,1.1866788864135742,0.0,0.0,-0.9995262622833252,0.2131507396697998
-0.2379016876220703,0.1168940365314483,0.2081367075443267,-0.0947498455643653,1.5307010412216189,1.1816707849502563,0.0,0.0,-0.99924498796463,0.1781153678894043
-0.2358318269252777,0.1152757033705711,0.2062192261219024,-0.1115944385528564,1.5895076990127563,1.1762076616287231,0.0,0.0,-0.9990748763084412,0.0666396617889404
-0.2338149547576904,0.113273486495018,0.204391598701477,-0.128423199057579,1.648019552230835,1.1703112125396729,0.0,0.0,-0.9982707500457764,-0.0390964150428772
-0.2318496257066726,0.110884316265583,0.2026526182889938,-0.1452359408140182,1.7062160968780518,1.1640057563781738,0.0,0.0,-0.998203992843628,-0.0490941405296325
-0.2299340665340423,0.1081054061651229,0.2010011672973632,-0.1620326042175293,1.7640782594680786,1.1573140621185305,0.0,0.0,-0.9971015453338624,0.2056465148925781
-0.2280665338039398,0.1049340367317199,0.1994361281394958,-0.1788131892681121,1.8215876817703247,1.150259017944336,0.0,0.0,-0.9949475526809692,0.2783904075622558
