x_pos,y_pos,x_vel,y_vel,angle,ang_vel,leg_1,leg_2,main_booster,lat_booster
-0.0015185356605798,1.4030616283416748,-0.1531053781509399,-0.3492611348628998,0.0011174146784469,0.0219941027462482,0.0,0.0,-0.5029900199519373,-0.7628729198757924
-0.0030879974365234,1.3946598768234253,-0.1587821245193481,-0.3734140992164612,0.0029338486492633,0.0363325923681259,0.0,0.0,-0.4855126612132592,0.7113552092393481
-0.0045862197875976,1.3856899738311768,-0.1492569893598556,-0.3986614346504211,0.0023815631866455,-0.0110467700287699,0.0,0.0,-0.5437399242344807,-0.9172076318736714
-0.006168651394546,1.3761539459228516,-0.159222200512886,-0.4238259196281433,0.003352781292051,0.0194259937852621,0.0,0.0,0.9745045010955896,0.9801487833027857
-0.0075049400329589,1.3672285079956057,-0.1323150843381881,-0.3966853320598602,0.0020568508189171,-0.0259212050586938,0.0,0.0,0.1582061469174607,0.8721878004242035
-0.0086612701416015,1.358310580253601,-0.1119984835386276,-0.3963522017002105,-0.0015468061901628,-0.072079949080944,0.0,0.0,-0.4885973827734899,-0.6742782792272779
-0.0098734851926565,1.3488301038742063,-0.1183227077126503,-0.4213567078113556,-0.0044152992777526,-0.0573751218616962,0.0,0.0,0.9959490395809484,-0.6689555419764839
-0.0109431268647313,1.3399605751037598,-0.1052784472703933,-0.3942087888717651,-0.0060777510516345,-0.0332518629729747,0.0,0.0,0.0439354903881104,0.9267770074023012
-0.0119482036679983,1.33133065700531,-0.0963173061609268,-0.3835653960704803,-0.0102259311825037,-0.0829713866114616,0.0,0.0,0.0912944046277099,-0.9788130272746376
-0.0130295753479003,1.3228654861450195,-0.1052500754594802,-0.3762564957141876,-0.0130828246474266,-0.0571430400013923,0.0,0.0,-0.0918645694148692,0.8662933848814167
-0.014037418179214,1.3138368129730225,-0.095250479876995,-0.4013291895389557,-0.0185522306710481,-0.1093980446457862,0.0,0.0,-0.0421706242933237,-0.9481810600285472
-0.0151163097470998,1.304245948791504,-0.1033921018242836,-0.4263248741626739,-0.0230100341141223,-0.0891644060611724,0.0,0.0,0.7246285914757851,0.6445017151993087
-0.0159867294132709,1.2951842546463013,-0.0809574127197265,-0.4028440117835998,-0.0290281493216753,-0.1203733906149864,0.0,0.0,-0.2094407207004007,-0.844423323360092
-0.0169230457395315,1.285555124282837,-0.0883939638733863,-0.4280743598937988,-0.034211229532957,-0.1036708727478981,0.0,0.0,-0.5389984936326531,0.9026237005303714
-0.0177789684385061,1.2753691673278809,-0.0774618536233902,-0.452921599149704,-0.0422510169446468,-0.1608104258775711,0.0,0.0,-0.3170527421826588,-0.9672883097980022
-0.0187058448791503,1.2646141052246094,-0.0854925960302352,-0.478223979473114,-0.0493666939437389,-0.1423267424106598,0.0,0.0,-0.7918456137834036,-0.9886948418685364
-0.0197013858705759,1.2533131837844849,-0.093243695795536,-0.5024815201759338,-0.0556127838790416,-0.1249331682920456,0.0,0.0,0.4204787982990561,-0.8844707411578565
-0.0206197742372751,1.241919755935669,-0.0868256837129592,-0.5065735578536987,-0.0605899542570114,-0.0995524674654007,0.0,0.0,0.6970912664832749,0.6851158879939044
-0.0213360786437988,1.23119056224823,-0.0648290365934372,-0.477137416601181,-0.0673250928521156,-0.134715050458908,0.0,0.0,-0.4781924635749501,0.9089070756434984
-0.0220011714845895,1.219893217086792,-0.0574805550277233,-0.5025336742401123,-0.0762684866786003,-0.1788838505744934,0.0,0.0,0.1439540879286782,0.81495438293654
-0.022471522912383,1.2088006734848022,-0.03581003844738,-0.4936060607433319,-0.087404578924179,-0.2227422446012497,0.0,0.0,0.6718054140428036,0.753487026478107
-0.0228424072265625,1.197803258895874,-0.0237405523657798,-0.4896023571491241,-0.1006570979952812,-0.2650740146636963,0.0,0.0,0.4657600296278394,-0.6260756709567887
-0.0231007579714059,1.1869548559188845,-0.0133912023156881,-0.4830443561077118,-0.1130351349711418,-0.2475830018520355,0.0,0.0,0.4688294075356249,-0.9606427141268332
-0.0233461372554302,1.1759499311447144,-0.0134500507265329,-0.4899784326553345,-0.1240755319595336,-0.2208275347948074,0.0,0.0,-0.6957112970463168,-0.9821507982850533
-0.0236994735896587,1.164405345916748,-0.0260438472032547,-0.5138949155807495,-0.133330300450325,-0.1851114779710769,0.0,0.0,-0.1125674842301105,-0.8869354227946559
-0.0241538994014263,1.1523005962371826,-0.0377316884696483,-0.5386895537376404,-0.1410202234983444,-0.1537982374429702,0.0,0.0,-0.5853679358533352,-0.7773502088085136
-0.0246822349727153,1.139652967453003,-0.0460333079099655,-0.5627787709236145,-0.1478013843297958,-0.1356233060359954,0.0,0.0,-0.0729914215392131,0.9208482456322472
-0.0251671783626079,1.1264417171478271,-0.0396346971392631,-0.5880821943283081,-0.1566560864448547,-0.1770944595336914,0.0,0.0,-0.0030680785077026,0.97079131987801
-0.0256061553955078,1.112663984298706,-0.0328904278576374,-0.6135395765304565,-0.1676635593175888,-0.2201495617628097,0.0,0.0,0.1692335995570517,-0.9039913712005206
-0.0260897632688283,1.09885573387146,-0.0385406762361526,-0.614844024181366,-0.1775017976760864,-0.1967646926641464,0.0,0.0,0.1263076912541296,-0.815627962654601
-0.0265336036682128,1.0853614807128906,-0.0355933643877506,-0.6008138060569763,-0.1863234043121338,-0.1764319837093353,0.0,0.0,-0.2213312227416481,-0.7461895926715292
-0.0270578376948833,1.0713214874267578,-0.0447001233696937,-0.6249959468841553,-0.1940882951021194,-0.1552979797124862,0.0,0.0,-0.7019948262362374,-0.6302088087113129
-0.0276514049619436,1.0567431449890137,-0.0524379983544349,-0.6488469243049622,-0.2010396718978881,-0.1390277743339538,0.0,0.0,-0.8802846764463834,-0.9174150378049456
-0.0283389091491699,1.0416200160980225,-0.0632464811205864,-0.6728922128677368,-0.2065861374139785,-0.1109288558363914,0.0,0.0,-0.1063869758543709,-0.6533488532564455
-0.0290895458310842,1.0259532928466797,-0.0702219977974891,-0.6969919800758362,-0.2114793807268142,-0.0978651791810989,0.0,0.0,0.3537728431737339,-0.6223846085122471
-0.0297555923461914,1.0106494426727295,-0.0624180026352405,-0.680774986743927,-0.2157099395990371,-0.084611065685749,0.0,0.0,0.8531739081368703,0.6316799692296392
-0.0303089134395122,0.9955244064331056,-0.0491881817579269,-0.6731353998184204,-0.2219167649745941,-0.1241364330053329,0.0,0.0,0.19238841614948,0.8224327507835826
-0.0306597705930471,0.980617344379425,-0.026728456839919,-0.6638163924217224,-0.2303720116615295,-0.1691049337387085,0.0,0.0,-0.6875064074467423,0.9451936563449996
-0.030954074114561,0.96513694524765,-0.0187489539384841,-0.6897245049476624,-0.2412164956331253,-0.2168899327516555,0.0,0.0,-0.0536058895995119,0.7444803194992407
-0.0312010757625103,0.9490765929222108,-0.0119036678224802,-0.7159474492073059,-0.2542473077774048,-0.2606163024902344,0.0,0.0,0.9739796726124644,0.7173756756466473
-0.0313035026192665,0.9338452219963074,0.0048563191667199,-0.6796413660049438,-0.2696667313575744,-0.3083891570568084,0.0,0.0,-0.998284876346588,-0.99885231256485
-0.0314780250191688,0.9180789589881896,-0.0033906803000718,-0.7033790349960327,-0.2840865850448608,-0.2883979380130768,0.0,0.0,-0.787640392780304,-0.98751699924469
-0.0317280776798725,0.9017715454101562,-0.0120416674762964,-0.7273479104042053,-0.2974394559860229,-0.2670576870441437,0.0,0.0,-0.9907580614089966,-0.9964881539344788
-0.0320513732731342,0.8849328756332397,-0.0204776898026466,-0.7508573532104492,-0.3097014129161834,-0.2452392876148224,0.0,0.0,-0.9455114006996156,-0.9919511079788208
-0.0324662216007709,0.8675622940063477,-0.0311631001532077,-0.7742542624473572,-0.3204133510589599,-0.2142387628555297,0.0,0.0,-0.9160363674163818,-0.9454954266548156
-0.0329573638737201,0.8496564626693726,-0.0399581678211689,-0.7978729605674744,-0.3299435973167419,-0.1906050741672516,0.0,0.0,-0.6919398307800293,-0.9873855113983154
-0.0335239395499229,0.8312201499938965,-0.0486986897885799,-0.82122802734375,-0.3382511436939239,-0.1661508381366729,0.0,0.0,-0.5984684824943542,-0.9704530239105223
-0.0341808311641216,0.8122793436050415,-0.0594667717814445,-0.8432900905609131,-0.3447692096233368,-0.1303618103265762,0.0,0.0,-0.1916795969009399,-0.9958565831184388
-0.0349321365356445,0.7928354144096375,-0.0707524940371513,-0.8652299046516418,-0.3493601679801941,-0.0918192118406295,0.0,0.0,-0.108585238456726,-0.9767131805419922
-0.0357643142342567,0.7728695869445801,-0.0802831798791885,-0.8880821466445923,-0.3524471521377563,-0.0617398023605346,0.0,0.0,-0.4031935930252075,-0.9870842099189758
-0.0366565696895122,0.7523742318153381,-0.0872339755296707,-0.9113996028900146,-0.3545498549938202,-0.0420542433857917,0.0,0.0,0.1176037788391113,-0.9901685118675232
-0.0374942794442176,0.732090413570404,-0.0832026004791259,-0.9016388058662416,-0.3551483154296875,-0.0119690988212823,0.0,0.0,0.5343999862670898,-0.9936761856079102
-0.0381568893790245,0.7118023633956909,-0.0672026425600051,-0.9014562964439392,-0.3541548550128937,0.0198694858700037,0.0,0.0,0.46083664894104,-0.9960762858390808
-0.0386442169547081,0.6919940710067749,-0.0511283762753009,-0.8797805309295654,-0.3516347408294678,0.0504022538661956,0.0,0.0,0.8762519359588623,-0.973491072654724
-0.0388367660343647,0.6723442673683167,-0.0233356282114982,-0.8723351955413818,-0.3473528623580932,0.0856378450989723,0.0,0.0,0.1698627471923828,-0.9815817475318908
-0.0390630736947059,0.6526810526847839,-0.028152197599411,-0.8725998997688293,-0.3415653705596924,0.1157492622733116,0.0,0.0,0.8914201259613037,-0.9525089263916016
-0.0389370918273925,0.633733332157135,0.0054842848330736,-0.8404523134231567,-0.3341185450553894,0.1489356458187103,0.0,0.0,0.0681350231170654,-0.9603643417358398
-0.0386337265372276,0.6148322820663452,0.0218162573873996,-0.838104784488678,-0.3252212107181549,0.1779459863901138,0.0,0.0,0.0397442579269409,-0.938041627407074
-0.0381734855473041,0.5961255431175232,0.0360804721713066,-0.8292087316513062,-0.3148832619190216,0.2067586928606033,0.0,0.0,0.410929799079895,-0.9615055918693542
-0.0376392379403114,0.5778944492340088,0.0420351848006248,-0.8078435063362122,-0.3030780553817749,0.2361047714948654,0.0,0.0,-0.4679633378982544,-0.7426795959472656
-0.0371484756469726,0.5591221451759338,0.0367241315543651,-0.8318049907684326,-0.290328174829483,0.2549980878829956,0.0,0.0,0.8348815441131592,-0.8801391124725342
-0.0366074554622173,0.5409974455833435,0.0405702330172061,-0.8029095530509949,-0.276416152715683,0.2782406210899353,0.0,0.0,-0.1371314525604248,-0.4747476577758789
-0.0360543243587017,0.5223138928413391,0.0421126186847686,-0.8279432058334351,-0.2628972828388214,0.2703767418861389,0.0,0.0,0.7519676685333252,-0.5940243005752563
-0.0353376381099224,0.5040214657783508,0.0575354322791099,-0.810524582862854,-0.2484787106513977,0.2883715033531189,0.0,0.0,0.3142331838607788,-0.0536612868309021
-0.0345211029052734,0.4856314659118652,0.0677894949913024,-0.8150500059127808,-0.2343807965517044,0.2819585800170898,0.0,0.0,0.6542160511016846,-0.7598739862442017
-0.0337407104671001,0.4676146209239959,0.0631865113973617,-0.7984529137611389,-0.2193338572978973,0.3009384274482727,0.0,0.0,0.757413387298584,-0.5449459552764893
-0.0327605232596397,0.4503841698169708,0.0822558924555778,-0.763533890247345,-0.2034189850091934,0.3182974457740783,0.0,0.0,0.7383184432983398,-0.4868749380111694
-0.0316128730773925,0.4330209195613861,0.0988256186246872,-0.7695868611335754,-0.1873791664838791,0.3207967877388,0.0,0.0,0.8091940879821777,-0.5592142343521118
-0.0302800182253122,0.4164867103099823,0.1163277402520179,-0.7327987551689148,-0.1703735738992691,0.3401120901107788,0.0,0.0,0.2234328985214233,-0.8805129528045654
-0.0290118213742971,0.3999470472335815,0.1083165258169174,-0.7330793738365173,-0.1518717855215072,0.3700353801250458,0.0,0.0,0.782771110534668,-0.2436080574989318
-0.0277049057185649,0.3839553594589233,0.1127898097038269,-0.7090168595314026,-0.1340183913707733,0.3570683598518371,0.0,0.0,0.6137664318084717,0.0009670257568359
-0.0262590404599905,0.3683030009269714,0.1266611516475677,-0.6941462755203247,-0.1161860451102256,0.356646716594696,0.0,0.0,0.6808726787567139,-0.2285178899765014
-0.0248141288757324,0.3533951342105865,0.1272799670696258,-0.6613225936889648,-0.0990894883871078,0.3419313728809356,0.0,0.0,0.4976767301559448,-0.2536470890045166
-0.0232195854187011,0.3387000560760498,0.1419959068298339,-0.6520479321479797,-0.0817834213376045,0.3461213707923889,0.0,0.0,0.3483064174652099,0.4341024160385132
-0.0215930938720703,0.3239268064498901,0.1453614234924316,-0.6557328701019287,-0.0646719932556152,0.3422285914421081,0.0,0.0,0.523163914680481,0.2038981914520263
-0.0198495872318744,0.3090373277664184,0.1567853689193725,-0.6610864400863647,-0.0473065748810768,0.347308337688446,0.0,0.0,0.8121113777160645,0.3304450511932373
-0.0180863384157419,0.2941494286060333,0.1589207202196121,-0.6612246632575989,-0.0301062017679214,0.344007670879364,0.0,0.0,0.9277517795562744,0.3999092578887939
-0.0162662509828805,0.280090719461441,0.1646016389131546,-0.6245666742324829,-0.0129245948046445,0.3436321914196014,0.0,0.0,0.9098184108734132,0.2998336553573608
-0.0143011091277003,0.2668860256671905,0.1786103099584579,-0.5868143439292908,0.0047420286573469,0.3533327579498291,0.0,0.0,0.7881031036376953,0.1024903059005737
-0.0124197006225585,0.254448652267456,0.170730635523796,-0.5529137253761292,0.0219340622425079,0.3438405692577362,0.0,0.0,0.6659166812896729,0.3347138166427612
-0.0106323240324854,0.2419490665197372,0.1618216633796692,-0.5558690428733826,0.0386392213404178,0.3341032862663269,0.0,0.0,0.7643201351165771,0.6278700828552246
-0.0087364194914698,0.230166807770729,0.1736934781074524,-0.5241395831108093,0.0543553866446018,0.3143231868743896,0.0,0.0,0.6209241151809692,0.5362100601196289
-0.0068881986662745,0.2186654955148697,0.1701181381940841,-0.5117679834365845,0.0688971132040023,0.2908344864845276,0.0,0.0,0.5749876499176025,0.7434792518615723
-0.0050349235534667,0.2075743824243545,0.1720455586910247,-0.4936022460460663,0.0820504128932952,0.2630660831928253,0.0,0.0,0.6332848072052002,0.4557334184646606
-0.0031999587081372,0.1969551146030426,0.1700500249862671,-0.4727577865123749,0.0953743159770965,0.2664782702922821,0.0,0.0,-0.0319685339927673,0.2740074396133423
-0.0013134956825524,0.1857758909463882,0.1749672442674636,-0.4977836608886719,0.1089478805661201,0.2714713513851166,0.0,0.0,0.8112483024597168,0.6743507385253906
0.0006666183471679,0.1746028065681457,0.1853568702936172,-0.4975503981113434,0.1215189695358276,0.2514219284057617,0.0,0.0,0.6743646860122681,0.5805456638336182
0.0027978897560387,0.1634995341300964,0.2011032998561859,-0.4944977760314941,0.133484199643135,0.239304706454277,0.0,0.0,0.7399810552597046,-0.1590609550476074
0.0050583840347826,0.1527613252401352,0.2130119055509567,-0.478474348783493,0.1464818865060806,0.2599536180496216,0.0,0.0,0.7901983261108398,-0.5540634989738464
0.007430076599121,0.1421192437410354,0.2222616374492645,-0.474513977766037,0.1613672077655792,0.2977068126201629,0.0,0.0,0.9591736793518066,-0.0023845434188842
0.0097102168947458,0.1322354823350906,0.2128120213747024,-0.4409939348697662,0.1765750646591186,0.30415740609169,0.0,0.0,0.7992658615112305,0.231097936630249
0.0119376182556152,0.1230218484997749,0.2070628702640533,-0.4114338457584381,0.1923096477985382,0.3146920800209045,0.0,0.0,0.7913913726806641,0.4860867261886596
0.0142195699736475,0.1143536642193794,0.2115726917982101,-0.3874984681606293,0.2090558111667633,0.3349233269691467,0.0,0.0,0.6592292785644531,0.1159700155258178
0.0165939331054687,0.1056402772665023,0.2200086861848831,-0.3898216784000397,0.2266723960638046,0.3523313105106354,0.0,0.0,0.6061224937438965,-0.0307583212852478
0.0188695900142192,0.097075879573822,0.2100282907485962,-0.3834338188171386,0.2444686144590377,0.3559243381023407,0.0,0.0,0.638733983039856,0.596800684928894
0.0211336128413677,0.0892564132809639,0.2095045745372772,-0.3504309952259063,0.2617014646530151,0.3446565270423889,0.0,0.0,0.6064965724945068,0.0962253808975219
0.0232967380434274,0.0816729143261909,0.1991617679595947,-0.3402081727981567,0.279270589351654,0.3513824343681335,0.0,0.0,0.032637596130371,-0.1629377603530883
0.0253129955381155,0.0742170214653015,0.1844734996557235,-0.3347510993480682,0.2969323992729187,0.3532353341579437,0.0,0.0,0.2038161754608154,0.5485754013061523
0.0273536685854196,0.0669856369495391,0.1875092685222625,-0.3248672783374786,0.3140706121921539,0.3427645266056061,0.0,0.0,0.4952467679977417,0.3938823938369751
0.0292051322758197,0.0601435750722885,0.1684342622756958,-0.3078088164329529,0.331457257270813,0.3477328419685364,0.0,0.0,0.541334867477417,0.4168692827224731
0.0308234207332134,0.0536978356540203,0.1451097130775451,-0.2904137372970581,0.3489683866500854,0.3502228856086731,0.0,0.0,0.1315947771072387,0.4119468927383423
0.0323770530521869,0.0471676215529441,0.1383513659238815,-0.2944631576538086,0.3668904900550842,0.3584414720535278,0.0,0.0,0.7585821151733398,0.5089280605316162
0.0336836799979209,0.0409281589090824,0.114628754556179,-0.281509518623352,0.3838912546634674,0.3400150239467621,0.0,0.0,0.600637674331665,0.6015282869338989
0.0348130241036415,0.0360525473952293,0.1141069084405899,-0.2163306623697281,0.3828221559524536,-0.0211331713944673,0.0,1.0,0.9943358898162842,0.9978315830230712
0.0357199683785438,0.0328657254576683,0.1107018813490867,-0.1364031732082367,0.3616484701633453,-0.4234177470207214,0.0,1.0,0.9954073429107666,0.268900990486145
0.0364592559635639,0.0305541604757308,0.1087230890989303,-0.0943985730409622,0.3251186907291412,-0.7306227684020996,0.0,1.0,0.9322490692138672,-0.593544065952301
0.0370442382991313,0.0290267318487167,0.0917140170931816,-0.0608090013265609,0.2906826734542846,-0.6887508630752563,0.0,0.0,-0.9946622252464294,-0.6560056805610657
0.0376464836299419,0.0269346814602613,0.0918657630681991,-0.0870109498500824,0.2581927478313446,-0.6498240232467651,0.0,0.0,-0.9686145782470704,-0.5419232845306396
0.0382855422794818,0.0242888070642948,0.0945013388991355,-0.1125189289450645,0.2270514965057373,-0.622850239276886,0.0,0.0,-0.7475816607475281,-0.3914526700973511
0.0389950759708881,0.0210945457220077,0.1012540310621261,-0.1375966519117355,0.1964353621006012,-0.6123475432395935,0.0,0.0,-0.0554319024085998,-0.726582407951355
0.039718247950077,0.0173409562557935,0.1007961630821228,-0.1633042693138122,0.1678198128938675,-0.5723337531089783,0.0,0.0,0.1798603534698486,-0.4029775857925415
0.0404623039066791,0.0138794044032692,0.1023004874587059,-0.1509414315223693,0.1399408131837844,-0.5576022267341614,0.0,0.0,0.7760030031204224,-0.7327204942703247
0.041241742670536,0.0106928683817386,0.1058133244514465,-0.1392475962638855,0.1121881380677223,-0.5550737977027893,0.0,1.0,0.9802840948104858,-0.6558811068534851
0.0417138114571571,0.0081007815897464,0.0763665363192558,-0.1132707148790359,0.0832333341240882,-0.5791196227073669,0.0,1.0,0.8870577812194824,-0.7658283710479736
0.0419133193790912,0.0058227991685271,0.0484829470515251,-0.0999046340584755,0.0549853108823299,-0.5649831891059875,0.0,1.0,0.8979474306106567,-0.2010998129844665
0.04206333309412,0.003944537602365,0.0430599600076675,-0.0826850086450576,0.0272614173591136,-0.5544781684875488,0.0,1.0,0.266055703163147,-0.1971035599708557
0.0422219261527061,0.00212750188075,0.0438468530774116,-0.0804813876748085,-0.0003686352574732,-0.5526012182235718,0.0,0.0,0.4527261257171631,-0.8908278346061707
0.0425142273306846,0.0002231335674878,0.054727453738451,-0.0848369970917701,-0.0255426224321126,-0.5034794807434082,1.0,0.0,0.5696502923965454,-0.4450175762176513
0.0429682731628418,-0.0008164191385731,0.0589191019535064,-0.0466787256300449,-0.0381833054125309,-0.2519132494926452,1.0,0.0,-0.2622233629226684,-0.5392313003540039
0.0434887893497943,-0.0018423104193061,0.0474665760993957,-0.045492872595787,-0.0336148738861084,0.0914147645235061,1.0,0.0,-0.4047722816467285,-0.7245772480964661
0.0440443977713584,-0.0029434824828058,0.0355725437402725,-0.0486187562346458,-0.0138516081497073,0.3952947854995727,1.0,0.0,-0.3348106145858764,0.2256985902786255
