x_pos,y_pos,x_vel,y_vel,angle,ang_vel,leg_1,leg_2,main_booster,lat_booster
-0.0014620780711993,1.4030914306640625,-0.1479774266481399,-0.347938984632492,0.0015914937248453,0.0313806645572185,0.0,0.0,-0.332923412322998,0.9512920379638672
-0.0027828216552734,1.394748568534851,-0.131433218717575,-0.3707949221134186,0.0009596533491276,-0.0126373153179883,0.0,0.0,-0.3130736351013183,-0.1682116389274597
-0.004045105073601,1.3858721256256104,-0.1254492253065109,-0.3945068418979645,0.0001875995367299,-0.0154425231739878,0.0,0.0,0.3537676334381103,0.7939797639846802
-0.005298709962517,1.377074122428894,-0.1226804479956626,-0.3910208642482757,-0.0024548363871872,-0.0528535954654216,0.0,0.0,0.1591341495513916,0.0535632371902465
-0.0064063072204589,1.368429183959961,-0.1083897799253463,-0.3842279314994812,-0.0048040640540421,-0.0469888746738433,0.0,0.0,-0.5150084495544434,0.1177319288253784
-0.0074622156098484,1.3592512607574463,-0.1030606776475906,-0.4079202711582184,-0.0072952243499457,-0.0498279966413974,0.0,0.0,-0.3390501737594604,-0.1943732500076294
-0.0084686279296875,1.34954035282135,-0.0979822054505348,-0.4316072165966034,-0.0099272951483726,-0.0526466444134712,0.0,0.0,-0.0181454420089721,0.1916332244873047
-0.0094283102080225,1.339296579360962,-0.0931715071201324,-0.4552956819534302,-0.012700199149549,-0.0554631166160106,0.0,0.0,-0.3656423091888428,0.2145979404449463
-0.0103442193940281,1.3285201787948608,-0.0886455625295639,-0.4789850413799286,-0.0156134637072682,-0.0582704730331897,0.0,0.0,-0.4220753908157348,0.2614552974700928
-0.0112192155793309,1.317210674285889,-0.0844212919473648,-0.5026744604110718,-0.0186664201319217,-0.0610643699765205,0.0,0.0,0.0182667970657348,-0.6689093708992004
-0.0120418546721339,1.3059182167053225,-0.0804385915398597,-0.5019134283065796,-0.0204700622707605,-0.0360761806368827,0.0,0.0,-0.7588828206062317,-0.5670989751815796
-0.0128697399049997,1.2940927743911743,-0.0818234533071518,-0.5255919694900513,-0.0214201342314481,-0.0190032850950956,0.0,0.0,-0.6173188090324402,-0.2364882826805114
-0.0136669157072901,1.2817344665527344,-0.078611820936203,-0.549278974533081,-0.0225071907043457,-0.0217429473996162,0.0,0.0,-0.2306507229804992,-0.6644238829612732
-0.0144834518432617,1.2688384056091309,-0.081596240401268,-0.57315593957901,-0.0225631184875965,-0.0011188390199095,0.0,0.0,-0.6803749203681946,-0.5879405736923218
-0.0153120998293161,1.2554166316986084,-0.0835846737027168,-0.5965077877044678,-0.0218595676124095,0.0140727069228887,0.0,0.0,-0.3166566491127014,-0.0897964835166931
-0.016121482476592,1.2414621114730835,-0.0815233141183853,-0.6201965808868408,-0.0212883595377206,0.0114254327490925,0.0,0.0,-0.1322643160820007,-0.1462903618812561
-0.0169157031923532,1.226974606513977,-0.0798688307404518,-0.643885612487793,-0.0208471100777387,0.0088256150484085,0.0,0.0,-0.0199605226516723,-0.4340444207191467
-0.017698859795928,1.211954116821289,-0.0786314234137535,-0.6675747036933899,-0.0205338019877672,0.0062667117454111,0.0,0.0,0.1435306072235107,-0.0249305367469787
-0.0183965675532817,1.1972317695617676,-0.0702730342745781,-0.6543182134628296,-0.0200314242392778,0.0100484993308782,0.0,0.0,-0.4278148412704468,-0.0085585117340087
-0.0190917011350393,1.1819764375686646,-0.0698930099606514,-0.67801433801651,-0.0196523740887641,0.0075814574956893,0.0,0.0,0.2784395217895508,-0.572941780090332
-0.0197139736264944,1.1670629978179932,-0.0638682916760444,-0.6627978682518005,-0.0180356204509735,0.0323379673063755,0.0,0.0,-0.6928777694702148,-0.5815554857254028
-0.0203874595463275,1.1516144275665283,-0.0700215324759483,-0.6865726113319397,-0.0154045969247818,0.0526253655552864,0.0,0.0,-0.4995176792144775,-0.0708343386650085
-0.0210715290158987,1.135633111000061,-0.0709539651870727,-0.7102590203285217,-0.0128887118771672,0.0503224618732929,0.0,0.0,0.1273387670516967,-0.1987144947052002
-0.0217199325561523,1.119437336921692,-0.0674995183944702,-0.7197880148887634,-0.0102633079513907,0.0525129921734333,0.0,0.0,-0.1076147556304931,-0.4433908462524414
-0.0223874095827341,1.1027088165283203,-0.0692896395921707,-0.743480384349823,-0.0077470536343753,0.0503294169902801,0.0,0.0,0.2460694313049316,-0.3363723754882812
-0.0231838226318359,1.086223602294922,-0.0815724954009056,-0.7326672673225403,-0.0058448459021747,0.0380443967878818,0.0,0.0,0.7195123434066772,0.2713758945465088
-0.023999024182558,1.0703394412994385,-0.08335742354393,-0.7059516310691833,-0.0040267403237521,0.0363618806004524,0.0,0.0,0.5948141813278198,0.178389310836792
-0.0249680522829294,1.0551180839538574,-0.0980613306164741,-0.6764965057373047,-0.0028917707968503,0.0226996950805187,0.0,0.0,-0.6169724464416504,-0.0627038478851318
-0.0259720794856548,1.039363980293274,-0.1014472246170044,-0.7001835107803345,-0.0018533973488956,0.0207672975957393,0.0,0.0,-0.3197965025901794,-0.5104049444198608
-0.0270563121885061,1.0230752229690552,-0.1104452610015869,-0.7239495515823364,0.0001415356091456,0.0398986712098121,0.0,0.0,-0.6607224941253662,-0.0372222065925598
-0.0281825065612792,1.006253361701965,-0.1145496815443039,-0.7476367354393005,0.0020455461926758,0.0380803011357784,0.0,0.0,-0.4724618196487427,-0.6364536285400391
-0.0294108390808105,0.9888948798179626,-0.1261239796876907,,0.005290497560054,0.0648992359638214,0.0,0.0,-0.6956607103347778,0.6979261636734009
-0.0306400302797555,0.971010446548462,-0.1249022483825683,-0.7948740720748901,0.0072522754780948,0.0392355844378471,0.0,0.0,0.7850217819213867,0.6793862581253052
-0.0319440849125385,0.9531711339950562,-0.1307688504457473,-0.7928599119186401,0.0076048485934734,0.0070513589307665,0.0,0.0,-0.0018875002861022,-0.3253986835479736
-0.033302403986454,0.934798777103424,-0.136106252670288,-0.8165467977523804,0.0078772837296128,0.0054487814195454,0.0,0.0,0.5015769004821777,-0.8377557992935181
-0.0347707755863666,0.916930377483368,-0.1487419307231903,-0.794162392616272,0.0097640007734298,0.0377340987324714,0.0,0.0,-0.1436448693275451,0.0526314973831176
-0.0362982749938964,0.8985289931297302,-0.1545906066894531,-0.8178495168685913,0.0115756820887327,0.0362338088452816,0.0,0.0,0.7224109172821045,0.576531171798706
-0.0378084182739257,0.8807909488677979,-0.1517202854156494,-0.7883614897727966,0.0122792413458228,0.0140710966661572,0.0,0.0,0.5426416397094727,0.597614049911499
-0.0393842682242393,0.8637067675590515,-0.1569378077983856,-0.7592899799346924,0.0116316424682736,-0.012951816432178,0.0,0.0,-0.0314879417419433,0.4205527305603027
-0.0410258285701274,0.8460896015167236,-0.1634290367364883,-0.7829768657684326,0.0109164984896779,-0.0143029019236564,0.0,0.0,-0.4734419584274292,-0.2388525009155273
-0.0427348129451274,0.8279395699501038,-0.1701038032770156,-0.8066637516021729,0.0101362718269228,-0.0156047819182276,0.0,0.0,0.8035454750061035,0.8068475723266602
-0.0443069450557231,0.8101150989532471,-0.1550296247005462,-0.7921833395957947,0.0079833818599581,-0.0430579409003257,0.0,0.0,-0.4944431185722351,-0.5662599802017212
-0.0459872260689735,0.7917510867118835,-0.1667420417070388,-0.8161739706993103,0.0067148758098483,-0.0253699459135532,0.0,0.0,0.7377220392227173,0.653145432472229
-0.0475785247981548,0.7736884355545044,-0.1567490845918655,-0.8027757406234741,0.0043588704429566,-0.0471200384199619,0.0,0.0,0.6513576507568359,0.836615800857544
-0.0492233261466026,0.7555248141288757,-0.1602755934000015,-0.8072693943977356,0.0002086393506033,-0.0830043703317642,0.0,0.0,0.8726862668991089,-0.1843045949935913
-0.0508906356990337,0.7373963594436646,-0.1627165377140045,-0.8057064414024353,-0.0037531498819589,-0.0792360454797744,0.0,0.0,0.1833164691925048,0.6677525043487549
-0.0525303855538368,0.7192113995552063,-0.1586385071277618,-0.808247447013855,-0.0090250857174396,-0.1054384857416153,0.0,0.0,0.6797952651977539,-0.6027194261550903
-0.054409883916378,0.7017740607261658,-0.1834705621004104,-0.7750272154808044,-0.0134503124281764,-0.088504321873188,0.0,0.0,0.1051818132400512,0.8928811550140381
-0.0563933365046978,0.6846034526824951,-0.1920031309127807,-0.7632067203521729,-0.0197144150733947,-0.1252822577953338,0.0,0.0,-0.9106501340866088,0.6424902677536011
-0.0584061630070209,0.6668972969055176,-0.1936409771442413,-0.7870603203773499,-0.0272528454661369,-0.1507686078548431,0.0,0.0,-0.3331735134124756,0.6687257289886475
-0.0604324340820312,0.6486563086509705,-0.1932904422283172,-0.8109093904495239,-0.0364764519035816,-0.1844725310802459,0.0,0.0,0.8384000062942505,-0.1316860914230346
-0.0625725761055946,0.6311159133911133,-0.2043407261371612,-0.7798412442207336,-0.0460315980017185,-0.1911027133464813,0.0,0.0,-0.3368045091629028,0.7658352851867676
-0.0647215843200683,0.6130349636077881,-0.2033832967281341,-0.8040009140968323,-0.057419691234827,-0.2277620285749435,0.0,0.0,0.6664135456085205,-0.1369775533676147
-0.0669020637869834,0.5956272482872009,-0.2065217941999435,-0.7741602063179016,-0.0688213258981704,-0.2280327528715133,0.0,0.0,-0.905176877975464,0.5429913997650146
-0.0691104903817176,0.5776808857917786,-0.2079410254955291,-0.7982571125030518,-0.0815970301628112,-0.2555141448974609,0.0,0.0,0.2908871173858642,-0.1731789112091064
-0.0714451819658279,0.5597633719444275,-0.2202018797397613,-0.7971082925796509,-0.0947393253445625,-0.2628459334373474,0.0,0.0,0.6437407732009888,-0.6046686768531799
-0.0737336128950119,0.5424970388412476,-0.2170480787754058,-0.7681808471679688,-0.1064474210143089,-0.2341621220111847,0.0,0.0,0.7280361652374268,0.8385787010192871
-0.0758049041032791,0.5257193446159363,-0.1939262449741363,-0.7466661334037781,-0.1195558235049247,-0.2621680796146393,0.0,0.0,-0.0300782918930053,-0.9685137271881104
-0.0780247673392295,0.5084326863288879,-0.2105078399181366,-0.7692574262619019,-0.1309760212898254,-0.2284038811922073,0.0,0.0,0.0784980058670044,-0.142253577709198
-0.0803100615739822,0.4913874268531799,-0.2168359458446502,-0.7586386799812317,-0.1426312178373336,-0.2331040650606155,0.0,0.0,0.6628806591033936,0.6310698986053467
-0.0825218185782432,0.4743365049362182,-0.208358809351921,-0.7590921521186829,-0.1554202884435653,-0.2557809948921203,0.0,0.0,0.9215092658996582,-0.2194826602935791
-0.0848060622811317,0.4579910039901733,-0.2151025980710983,-0.7279149293899536,-0.1687446981668472,-0.2664882838726043,0.0,0.0,-0.4123702049255371,-0.118074357509613
-0.0871740356087684,0.4411148130893707,-0.2235220670700073,-0.7516164779663086,-0.1820601224899292,-0.2663083672523498,0.0,0.0,0.2749043703079223,-0.3235629796981811
-0.0895225554704666,0.4244008064270019,-0.2216958999633789,-0.7445154786109924,-0.195277452468872,-0.2643463909626007,0.0,0.0,0.6632107496261597,0.2664732933044433
-0.0918691605329513,0.4077475666999817,-0.2215942144393921,-0.7419224381446838,-0.208439216017723,-0.2632355988025665,0.0,0.0,0.7002685070037842,-0.5833097696304321
-0.0943530052900314,0.3915131092071533,-0.2362008839845657,-0.7232987284660339,-0.2207515090703964,-0.2462457865476608,0.0,0.0,0.7694268226623535,-0.7228173613548279
-0.0967506393790245,0.3761075139045715,-0.229127436876297,-0.6863202452659607,-0.2315175235271453,-0.2153200805187225,0.0,0.0,-0.0427199602127075,0.3842110633850097
-0.0992327705025672,0.3601703345775604,-0.2376472502946853,-0.7100159525871277,-0.2422481924295425,-0.2146130800247192,0.0,0.0,0.9053075313568116,-0.3291188478469848
-0.1015331298112869,0.3451239168643951,-0.2196777760982513,-0.6704702973365784,-0.2527936398983001,-0.2109090089797973,0.0,0.0,0.839327335357666,-0.8714234828948975
-0.1039655655622482,0.3303764164447784,-0.2344665825366974,-0.6569792628288269,-0.2617434561252594,-0.1789963990449905,0.0,0.0,0.6798083782196045,0.088315725326538
-0.1063947677612304,0.316130518913269,-0.2338049411773681,-0.6348024606704712,-0.2710724174976349,-0.1865796893835067,0.0,0.0,0.8004928827285767,0.202410340309143
-0.1086951270699501,0.3023193776607513,-0.2211339175701141,-0.6155011653900146,-0.2801876664161682,-0.1823047697544098,0.0,0.0,0.7514153718948364,-0.8843905329704285
-0.1110432595014572,0.2893677353858948,-0.2275302857160568,-0.5770471096038818,-0.2876824140548706,-0.1498954445123672,0.0,0.0,0.5572929382324219,-0.842058002948761
-0.1133114844560623,0.2766615748405456,-0.221385195851326,-0.5657997727394104,-0.2932847142219543,-0.112046018242836,0.0,0.0,0.8745405673980713,-0.439130425453186
-0.1155732125043869,0.2640764415264129,-0.2206406146287918,-0.5604655742645264,-0.2989872097969055,-0.1140498891472816,0.0,0.0,0.983344316482544,-0.5810827612876892
-0.1177670508623123,0.2514936625957489,-0.2153242081403732,-0.5600755214691162,-0.3031871020793915,-0.083997443318367,0.0,0.0,0.9381990432739258,-0.6159548163414001
-0.120012566447258,0.2389813959598541,-0.2216809242963791,-0.5567015409469604,-0.3061565458774566,-0.0593891441822052,0.0,0.0,0.9942452907562256,-0.5382900834083557
-0.1221042647957801,0.2273338884115219,-0.2074220478534698,-0.518036961555481,-0.3079617023468017,-0.0361030660569667,0.0,0.0,0.977668046951294,-0.0808016061782836
-0.1238936409354209,0.2165052741765976,-0.1777301728725433,-0.4815296828746795,-0.3092231750488281,-0.0252295695245265,0.0,0.0,0.9932727813720704,-0.5853347778320312
-0.1256479322910308,0.2066446840763092,-0.1750799715518951,-0.4383258819580078,-0.309583842754364,-0.0072133215144276,0.0,0.0,0.9286949634552002,-0.6356207132339478
-0.127572625875473,0.1968935281038284,-0.1930681467056274,-0.4332530796527862,-0.3089649975299835,0.0123771792277693,0.0,0.0,0.967057466506958,0.4757903814315796
-0.1292504370212555,0.187932088971138,-0.1687037050724029,-0.3980915248394012,-0.30800661444664,0.019167797639966,0.0,0.0,0.5910274982452393,0.2710887193679809
-0.1309381425380706,0.179273709654808,-0.1693816781044006,-0.384686678647995,-0.3073769211769104,0.0125937703996896,0.0,0.0,0.9343256950378418,0.6916532516479492
-0.1324841529130935,0.1712259352207183,-0.1538042873144149,-0.3578473329544067,-0.3081938326358795,-0.0163381360471248,0.0,0.0,0.7577049732208252,-0.3877164125442505
-0.1339014023542404,0.1637137532234192,-0.1410064250230789,-0.3340262174606323,-0.3089369535446167,-0.0148624079301953,0.0,0.0,0.7012813091278076,-0.887611448764801
-0.1351926773786544,0.1565106213092804,-0.1304297000169754,-0.3198596835136413,-0.3075808882713318,0.0271207652986049,0.0,0.0,0.5114731788635254,-0.660140335559845
-0.1365020722150802,0.1492284685373306,-0.1337222754955291,-0.3230670690536499,-0.3046979308128357,0.0576588623225688,0.0,0.0,-0.1787324547767639,-0.7237393260002136
-0.1379431784152984,0.141429528594017,-0.1482348144054412,-0.3457593619823456,-0.3004279136657715,0.0853996947407722,0.0,0.0,0.6289923191070557,0.8028130531311035
-0.139088436961174,0.1338044703006744,-0.1174858957529068,-0.3382842242717743,-0.2973694801330566,0.0611685626208782,0.0,0.0,0.8935055732727051,-0.763336181640625
-0.1400781571865081,0.1262388527393341,-0.1039583459496498,-0.3352421224117279,-0.2922309041023254,0.1027708873152732,0.0,0.0,0.3910173177719116,-0.8516838550567627
-0.1410381346940994,0.1190859377384185,-0.1028143763542175,-0.3165552020072937,-0.2852035760879516,0.1405471265316009,0.0,0.0,0.8568952083587646,0.1764843463897705
-0.1418087929487228,0.1126126646995544,-0.0842199474573135,-0.2863230407238006,-0.2778542339801788,0.1469870507717132,0.0,0.0,0.8450950384140015,-0.862013041973114
-0.1423763334751129,0.1066493615508079,-0.0660738795995712,-0.263294368982315,-0.2683074176311493,0.1909365355968475,0.0,0.0,0.5237774848937988,-0.505212664604187
-0.1428910195827484,0.1005603894591331,-0.0622201040387153,-0.2686879336833954,-0.2573158740997314,0.2198310643434524,0.0,0.0,0.8535921573638916,0.0633625984191894
-0.1434006690979004,0.0947907790541648,-0.06165586784482,-0.2545931935310364,-0.2464267313480377,0.2177830636501312,0.0,0.0,0.9424823522567748,0.4237269163131714
-0.1436497718095779,0.0899283960461616,-0.0362369194626808,-0.2142449468374252,-0.2349042445421219,0.2304495126008987,0.0,0.0,0.5945572853088379,-0.0141976475715637
-0.1438757926225662,0.0853435397148132,-0.0340482853353023,-0.2019924223423004,-0.2233103811740875,0.2318772077560424,0.0,0.0,0.4942777156829834,0.6114592552185059
-0.1440969407558441,0.0813092067837715,-0.0322859063744545,-0.1777972728013992,-0.2130322009325027,0.2055639326572418,0.0,0.0,0.4461817741394043,0.3862568140029907
-0.1441972702741623,0.0776143372058868,-0.0207438580691814,-0.1627104580402374,-0.2022216022014618,0.2162120640277862,0.0,0.0,0.4840817451477051,0.4296503067016601
-0.1442917883396148,0.0743922591209411,-0.0201466307044029,-0.1417757719755172,-0.1914515793323516,0.2154006063938141,0.0,0.0,0.10541832447052,-0.0026726126670837
-0.1444273889064788,0.0713919028639793,-0.0242174286395311,-0.1320100426673889,-0.1807539314031601,0.2139533311128616,0.0,0.0,0.0393437147140502,0.8936066627502441
-0.1445379257202148,0.068304643034935,-0.0201163925230503,-0.1361304372549057,-0.1716634333133697,0.1818099468946457,0.0,0.0,-0.2450609803199768,0.8529205322265625
-0.1446764916181564,0.0646720007061958,-0.0217458605766296,-0.1605618596076965,-0.1637637019157409,0.1579944193363189,0.0,0.0,0.5054025650024414,0.9473252296447754
-0.1448986977338791,0.0612305514514446,-0.0282536055892705,-0.1523016989231109,-0.1577343791723251,0.1205861940979957,0.0,0.0,0.2380502223968505,0.959343671798706
-0.1449503898620605,0.0580196939408779,-0.0094971703365445,-0.1422511488199234,-0.1534033715724945,0.0866200476884841,0.0,0.0,0.0600533485412597,0.9278420209884644
-0.1449285447597503,0.0545911155641078,-0.0004792308900505,-0.1521122604608535,-0.1507500112056732,0.053067110478878,0.0,0.0,0.2283350229263305,0.7353425025939941
-0.1447233259677887,0.0514354817569255,0.0190026573836803,-0.1400970816612243,-0.1492289155721664,0.0304222796112298,0.0,0.0,0.2595242261886596,0.4260816574096679
-0.1445270478725433,0.048627957701683,0.0179863572120666,-0.124614879488945,-0.1475965529680252,0.0326474532485008,0.0,0.0,0.0765938758850097,0.7305262088775635
-0.1441647559404373,0.0460854396224021,0.0357835702598094,-0.1129575297236442,-0.1471442580223083,0.0090456353500485,0.0,0.0,-0.0174285769462585,0.4276380538940429
-0.1438810378313064,0.043009553104639,0.0277213100343942,-0.1366421282291412,-0.1464988738298416,0.0129077536985278,0.0,0.0,0.4986147880554199,0.7557387351989746
-0.1435145437717437,0.0404953584074974,0.0373268947005271,-0.1118102818727493,-0.1471795439720153,-0.0136132910847663,0.0,0.0,-0.0348151922225952,0.8371332883834839
-0.1431527137756347,0.0374391414225101,0.0385178551077842,-0.1360654830932617,-0.1495053917169571,-0.0465170368552207,0.0,0.0,0.3369436264038086,-0.1286263465881347
-0.1427476853132248,0.0343854278326034,0.0423313342034816,-0.1359093338251114,-0.151335671544075,-0.0366055332124233,0.0,0.0,0.5502103567123413,0.3541257381439209
-0.1424445211887359,0.0316846221685409,0.0324869081377983,-0.1202593594789505,-0.1535027623176574,-0.0433420836925506,0.0,0.0,0.3698195219039917,0.7695508003234863
-0.1422091424465179,0.029094610363245,0.0272210296243429,-0.1154933497309684,-0.1571808010339737,-0.0735610872507095,0.0,0.0,0.3760126829147339,0.0900115966796875
-0.1419920027256012,0.026671253144741,0.025289062410593,-0.1080858409404754,-0.1607479155063629,-0.0713424161076545,0.0,0.0,0.3521503210067749,-0.3606123924255371
-0.1417568176984787,0.0243560411036014,0.0267885718494653,-0.1032569408416748,-0.1640230864286422,-0.0655034333467483,0.0,0.0,0.3441909551620483,0.3692400455474853
-0.1414408683776855,0.0219145156443119,0.0341838002204895,-0.1088017746806144,-0.1666134595870971,-0.0518074408173561,0.0,0.0,0.5961287021636963,0.2126892805099487
-0.1409931182861328,0.0198933463543653,0.0467425063252449,-0.0900492817163467,-0.1685754209756851,-0.0392392203211784,0.0,0.0,0.1694967746734619,-0.2874757051467895
-0.1405011117458343,0.0181788057088851,0.050877146422863,-0.0763965174555778,-0.1702630370855331,-0.0337523333728313,0.0,0.0,0.1427589654922485,0.0312108993530273
