x_pos,y_pos,x_vel,y_vel,angle,ang_vel,leg_1,leg_2,main_booster,lat_booster
-0.0015108108054846,1.4034669399261477,-0.1532191783189773,-0.3312473893165588,0.001912280335091,0.0377326384186744,0.0,0.0,0.1353941952986859,-0.9261497842615218
-0.0030386925209313,1.396350622177124,-0.1567015647888183,-0.3162897825241089,0.0057789394631981,0.0773413479328155,0.0,0.0,-0.92143744384842,0.6126394375733631
-0.0044916151091456,1.3890724182128906,-0.1478807926177978,-0.3234846293926239,0.0083301765844225,0.0510294139385223,0.0,0.0,-0.064285767051879,-0.528822124838444
-0.005976581480354,1.3816347122192385,-0.1525215804576873,-0.330594927072525,0.0123097011819481,0.079597920179367,0.0,0.0,-0.6473863521862457,-0.6708676030915359
-0.0074836732819676,1.374041199684143,-0.1559725403785705,-0.3375426530838012,0.0175156313925981,0.1041283383965492,0.0,0.0,-0.348886614307506,0.7889001418227418
-0.008893584832549,1.3662914037704468,-0.14450404047966,-0.3444807827472687,0.0209973733872175,0.0696412250399589,0.0,0.0,0.5232421334246493,-0.9505835180887648
-0.0103901866823434,1.3591798543930054,-0.1552586853504181,-0.3161557018756866,0.02653444185853,0.1107514277100563,0.0,0.0,0.0553099304117488,0.946045793287746
-0.0116849895566701,1.352541208267212,-0.1333934366703033,-0.2951317131519317,0.0303972661495208,0.0772635191679,0.0,0.0,-0.1477160296747588,-0.6544010278937213
-0.0130064962431788,1.3457499742507937,-0.1376012712717056,-0.3019502460956573,0.0358013212680816,0.1080909222364425,0.0,0.0,-0.2718970854688975,-0.8719027532036794
-0.0143689159303903,1.338803768157959,-0.1436835080385208,-0.3089123368263244,0.0431608036160469,0.147203117609024,0.0,0.0,-0.48457316704024,-0.7671326615479317
-0.0157536510378122,1.331698298454285,-0.1474720537662506,-0.3160775005817413,0.0520582124590873,0.1779646128416061,0.0,0.0,-0.3991092247712551,-0.5524910689449105
-0.0171458236873149,1.324432611465454,-0.1494229137897491,-0.3232998847961426,0.0621658712625503,0.2021717280149459,0.0,0.0,-0.7050038782966359,-0.8415954339475238
-0.0185575485229492,1.3170108795166016,-0.152938038110733,-0.3303860425949096,0.0738324895501136,0.2333533465862274,0.0,0.0,0.0283645048972223,0.8322998231276557
-0.0198351852595806,1.3097692728042605,-0.1381269544363021,-0.3223896026611328,0.0841197445988655,0.2057637423276901,0.0,0.0,0.2517333763330402,-0.8394341702986308
-0.0210738182067871,1.3033215999603271,-0.1362928450107574,-0.2873092591762543,0.0964525565505027,0.2466785907745361,0.0,0.0,-0.2405144164207575,-0.7795472095296203
-0.0223246570676565,1.2967027425765991,-0.1390467286109924,-0.2951388359069824,0.1103288158774375,0.2775505781173706,0.0,0.0,0.7469239197785356,-0.7753436846201462
-0.0235389713197946,1.2913033962249756,-0.1375433951616287,-0.2412335127592086,0.1263561397790908,0.3205761015415191,0.0,0.0,0.2918798411108672,0.5824776345948126
-0.0245828628540039,1.2862130403518677,-0.1198282092809677,-0.2276182025671005,0.1417581290006637,0.3080675303936004,0.0,0.0,0.2784801331426978,0.7625913609115303
-0.0255298614501953,1.2819291353225708,-0.1089876890182495,-0.1918236911296844,0.156034767627716,0.2855587899684906,0.0,0.0,0.7788104004521208,0.7139644414289331
-0.026565933600068,1.2783843278884888,-0.1165191754698753,-0.1589555144309997,0.1689700782299041,0.2587295770645141,0.0,0.0,0.4110139054365727,-0.8371208083649719
-0.0276099201291799,1.275654911994934,-0.1194088906049728,-0.1230784654617309,0.1840377002954483,0.3013791441917419,0.0,0.0,0.4413627458915687,0.733543794761976
-0.0286099426448345,1.2733557224273682,-0.1138526424765586,-0.103964664041996,0.1979672610759735,0.2786166965961456,0.0,0.0,0.0055158877594418,-0.7159899539649589
-0.0295939445495605,0.0,-0.1139880046248436,-0.0891148075461387,0.2137117385864257,0.3149179816246032,0.0,0.0,-0.1880826585847574,-0.7500928628341612
-0.0305794719606637,1.269264817237854,-0.1157319545745849,-0.0974386781454086,0.2311185002326965,0.3481664359569549,0.0,0.0,-0.1894576343223981,-0.5335568777693714
-0.0315665230154991,0.0,-0.1174396052956581,-0.1054082065820694,0.2501814365386963,0.3812934458255768,0.0,0.0,-0.0484179489958425,0.6579907553429527
-0.0324618332087993,1.2645041942596436,-0.1075396388769149,-0.1124065741896629,0.2685683369636535,0.3677381873130798,0.0,0.0,-0.7004246671632328,0.905332701955075
-0.0332368835806846,1.2619283199310305,-0.093947485089302,-0.1175934970378875,0.2854457199573517,0.3375478088855743,0.0,0.0,0.6453664160755785,0.6471446005838856
-0.034277819097042,1.2603509426116943,-0.1192169189453125,-0.0731395632028579,0.3010320663452148,0.3117267191410064,0.0,0.0,-0.5305666831275053,0.9041082066468932
-0.0352126136422157,1.2586524486541748,-0.1074748039245605,-0.0784551277756691,0.3155210316181183,0.2897792160511017,0.0,0.0,0.8336848246970279,-0.8798264112181926
-0.0363495834171772,1.2575253248214722,-0.1296470910310745,-0.0536513142287731,0.3321184515953064,0.3319489061832428,0.0,0.0,0.155561676741623,0.6912330027394009
-0.0375597961246967,1.2571263313293457,-0.1358913630247116,-0.0212193094193935,0.3476710021495819,0.3110512793064117,0.0,0.0,-0.8507246971130371,0.9507139921188354
-0.0386506095528602,1.2566026449203491,-0.1225928664207458,-0.0266075059771537,0.3618979752063751,0.2845395505428314,0.0,0.0,-0.8523451685905457,0.971184492111206
-0.039624024182558,1.2559689283370972,-0.1095027551054954,-0.0312844738364219,0.3747612535953522,0.2572655081748962,0.0,0.0,-0.7893219590187073,0.9956421852111816
-0.0404712669551372,1.255211591720581,-0.0954638049006462,-0.0365195423364639,0.3861756324768066,0.228286862373352,0.0,0.0,-0.8697031736373901,0.9873979091644288
-0.0411856658756732,1.2543469667434692,-0.0805279910564422,-0.0409213043749332,0.3958717882633209,0.193923994898796,0.0,0.0,-0.9150803685188292,0.989922285079956
-0.0417679771780967,1.2533810138702393,-0.0656562224030494,-0.0450258031487464,0.403830885887146,0.159181922674179,0.0,0.0,-0.846629798412323,0.9923934936523438
-0.0422194488346576,1.2522995471954346,-0.0510874390602111,-0.0497750826179981,0.4102156460285187,0.1276954412460327,0.0,0.0,-0.8827792406082153,0.9939349889755248
-0.0425355918705463,1.251119613647461,-0.0358496308326721,-0.0536814257502555,0.4147870540618896,0.0914281457662582,0.0,0.0,-0.8902153968811035,0.8805104494094849
-0.0427332893013954,1.249832272529602,-0.0227770768105983,-0.0580953173339366,0.4180280566215515,0.0648206248879432,0.0,0.0,-0.7678748369216919,0.9402787685394288
-0.0427983291447162,1.248438000679016,-0.0079860892146825,-0.0624077580869197,0.4196168780326843,0.0317763090133667,0.0,0.0,-0.955586314201355,0.9353747367858888
-0.0427479743957519,1.2469323873519895,0.0046942587941884,-0.0670187100768089,0.4199924170970917,0.0075107999145984,0.0,0.0,-0.9262195825576782,0.9079291820526124
-0.0425557121634483,1.2453219890594482,0.0206073187291622,-0.0711548253893852,0.4184967279434204,-0.0299137886613607,0.0,0.0,-0.9837473034858704,0.9445159435272216
-0.0422188751399517,1.2435996532440186,0.0367925502359867,-0.0756344348192215,0.41513791680336,-0.0671759247779846,0.0,0.0,-0.9950832724571228,0.8504045009613037
-0.041747473180294,1.2417675256729126,0.0517978779971599,-0.0800674185156822,0.4101281762123108,-0.1001950725913047,0.0,0.0,-0.98942631483078,0.762458086013794
-0.0411592498421669,1.2398056983947754,0.0644661486148834,-0.0855684727430343,0.4040603339672088,-0.1213570088148117,0.0,0.0,-0.9960343241691588,0.7488148212432861
-0.0404478088021278,1.2377195358276367,0.0779715105891227,-0.090792678296566,0.3967392146587372,-0.1464222371578216,0.0,0.0,-0.9961825609207152,0.8610825538635254
-0.0396036133170127,1.2355177402496338,0.092711791396141,-0.0955705419182777,0.3878703713417053,-0.1773764938116073,0.0,0.0,-0.99156391620636,0.7756602764129639
-0.0386532768607139,1.2331973314285278,0.104212000966072,-0.1006607338786125,0.3780967593193054,-0.1954722106456756,0.0,0.0,-0.9889896512031556,0.9011757373809814
-0.0375914573669433,1.2307605743408203,0.1163817793130874,-0.1056286543607711,0.3672747015953064,-0.2164403945207595,0.0,0.0,-0.9843299388885498,0.9850122928619384
-0.0363976471126079,1.2282077074050903,0.1311012953519821,-0.1105024591088295,0.3549120128154754,-0.2472539693117141,0.0,0.0,-0.956420600414276,0.90780770778656
-0.0350597389042377,1.2255475521087646,0.1473726481199264,-0.1149441003799438,0.3406542241573334,-0.2851556241512298,0.0,0.0,-0.980372428894043,0.8154006004333496
-0.0336076728999614,1.222768783569336,0.159897968173027,-0.1201067268848419,0.3252926766872406,-0.3072312176227569,0.0,0.0,-0.9135602116584778,0.9444270133972168
-0.0320115089416503,1.2198748588562012,0.1761924624443054,-0.1249911710619926,0.3080709278583526,-0.3444351553916931,0.0,0.0,-0.8499609231948853,0.052606463432312
-0.0303562171757221,1.2168288230895996,0.1817996501922607,-0.1320207267999649,0.2912629246711731,-0.3361608684062958,0.0,0.0,-0.8827002644538879,0.4314852952957153
-0.0286423675715923,1.213630437850952,0.1873257011175155,-0.1390487402677536,0.2748690843582153,-0.3278771042823791,0.0,0.0,-0.6950442790985107,0.4967325925827026
-0.0268708225339651,1.2102797031402588,0.1927619278430938,-0.1460752338171005,0.2588897943496704,-0.3195856213569641,0.0,0.0,-0.7109487056732178,-0.2447682619094848
-0.0250424388796091,1.2067759037017822,0.1980993896722793,-0.1531001925468444,0.2433253824710846,-0.3112883865833282,0.0,0.0,-0.641889750957489,0.5399250984191895
-0.0231080055236816,1.2031404972076416,0.209692507982254,-0.1589700728654861,0.2268341332674026,-0.329825222492218,0.0,0.0,-0.4189969301223755,-0.8198664784431458
-0.0211752895265817,1.1993412971496582,0.2077304124832153,-0.166699081659317,0.2121984511613845,-0.2927135825157165,0.0,0.0,-0.4770107269287109,-0.4991776943206787
-0.0191891677677631,1.1953884363174438,0.2127164304256439,-0.1737193614244461,0.1979778707027435,-0.2844114005565643,0.0,0.0,-0.2113403677940368,-0.4976881742477417
-0.01715087890625,1.191281795501709,0.2175663709640503,-0.1807382106781005,0.1841723173856735,-0.2761116623878479,0.0,0.0,-0.3658148646354675,-0.5694159865379333
-0.0151136396452784,1.187009334564209,0.2157493382692337,-0.188431903719902,0.1721121072769165,-0.2412046492099762,0.0,0.0,-0.2988495826721191,0.0911047458648681
-0.0130270002409815,1.1825823783874512,0.2202968597412109,-0.1954452842473983,0.1604662239551544,-0.2329176217317581,0.0,0.0,-0.2244185209274292,-0.6881343126296997
-0.0109443664550781,1.1779890060424805,0.2181856632232666,-0.2031120955944061,0.1505573093891143,-0.1981783211231231,0.0,0.0,-0.4474356770515442,-0.4122329950332641
-0.0088156703859567,1.1732404232025146,0.2223906815052032,-0.2101208567619323,0.1410616338253021,-0.1899136453866958,0.0,0.0,0.0973405838012695,-0.450460135936737
-0.0067792893387377,1.168901801109314,0.2131323516368866,-0.1919527202844619,0.1315980851650238,-0.1892708241939544,0.0,0.0,0.1976542472839355,-0.7481050491333008
-0.0048240660689771,1.1653306484222412,0.2031081169843673,-0.1580711305141449,0.1240549981594085,-0.1508618146181106,0.0,0.0,-0.4094699621200561,-0.7205948233604431
-0.0028765678871423,1.161585807800293,0.2006595432758331,-0.1659650653600692,0.1181688159704208,-0.1177235394716262,0.0,0.0,-0.038673460483551,-0.8568827509880066
-0.000956249248702,1.1576826572418213,0.1959073096513748,-0.1731684803962707,0.1143210083246231,-0.076955996453762,0.0,0.0,0.0126755237579345,-0.117059051990509
0.0009094238048419,1.154045581817627,0.1903028339147567,-0.1613704413175583,0.1106141358613967,-0.0741373300552368,0.0,0.0,0.0379441976547241,0.3072589635848999
0.0027042389847338,1.1508764028549194,0.1830703914165496,-0.1405888348817825,0.1070465072989463,-0.071352943778038,0.0,0.0,-0.0390282273292541,0.8545323610305786
0.0046003339812159,1.1475635766983032,0.1946047693490982,-0.1468825787305832,0.102090910077095,-0.0991119816899299,0.0,0.0,0.1030266284942627,-0.7853837013244629
0.0063059804961085,1.1449196338653564,0.1736451387405395,-0.1173013150691986,0.0990373343229293,-0.0610715337097644,0.0,0.0,0.0392134189605712,0.6410893201828003
0.0081039424985647,1.1426763534545898,0.1836924850940704,-0.0994423255324363,0.0951630175113678,-0.0774858519434928,0.0,0.0,0.0600670576095581,-0.8899437785148621
0.0098054884001612,1.1406306028366089,0.1718751043081283,-0.0908180400729179,0.0934612452983856,-0.0340355671942234,0.0,0.0,0.1891943216323852,0.530968189239502
0.0116005893796682,1.1387851238250732,0.1817883402109146,-0.0818793252110481,0.091203935444355,-0.0451462529599666,0.0,0.0,0.0333667993545532,0.912564754486084
0.013442039489746,1.1370975971221924,0.1878586262464523,-0.0747792571783065,0.0875256210565567,-0.0735666081309318,0.0,0.0,0.2298815250396728,-0.3408270478248596
0.015239143744111,1.1361348628997805,0.183071494102478,-0.042599257081747,0.0842054560780525,-0.0664035677909851,0.0,0.0,0.3746736049652099,-0.9043599367141724
0.0169936176389455,1.1360392570495603,0.1765265315771103,-0.0041879094205796,0.0831356421113014,-0.0213963203132152,0.0,0.0,0.3668739795684814,0.9956393241882324
0.0186697002500295,1.1368038654327393,0.1703758686780929,0.0341378226876258,0.080397829413414,-0.054756186902523,0.0,0.0,0.4999623298645019,0.8346924781799316
0.0202603340148925,1.137844800949097,0.163318783044815,0.0464898124337196,0.076187252998352,-0.0842116028070449,0.0,0.0,0.7856398820877075,0.4691548347473144
0.0218297000974416,1.1400117874145508,0.1606060117483139,0.0964946970343589,0.072546437382698,-0.0728162676095962,0.0,0.0,0.539581298828125,-0.7214440107345581
0.0231960304081439,1.1428067684173584,0.1386934518814087,0.124313436448574,0.0705094262957573,-0.0407403334975242,0.0,0.0,0.3771888017654419,-0.2084517478942871
0.0244699474424123,1.1462851762771606,0.1293130815029144,0.1546851992607116,0.0686168521642685,-0.0378516986966133,0.0,0.0,0.0953288078308105,0.7070860862731934
0.0257481578737497,1.1503087282180786,0.1308168321847915,0.1789615154266357,0.0656555444002151,-0.0592261776328086,0.0,0.0,-0.2103660702705383,0.5586050748825073
0.0270626060664653,1.1541804075241089,0.1353767961263656,0.1722457259893417,0.0617622733116149,-0.0778653919696807,0.0,0.0,0.0342326164245605,-0.5923039317131042
0.0283158309757709,1.1582074165344238,0.1277105510234832,0.179072231054306,0.0594044886529445,-0.0471557900309562,0.0,0.0,-0.2105339169502258,0.2392399311065673
0.0295473095029592,1.1620773077011108,0.1252034306526184,0.1720747202634811,0.0573707558214664,-0.0406745821237564,0.0,0.0,-0.2127010226249694,0.3180693387985229
0.0307532306760549,1.16579008102417,0.1223288625478744,0.1650774329900741,0.055651482194662,-0.0343854986131191,0.0,0.0,-0.3104226589202881,0.1396348476409912
0.0319297797977924,1.169345736503601,0.1190867871046066,0.1580803394317627,0.0542363375425338,-0.0283030532300472,0.0,0.0,-0.0391634106636047,0.0314531326293945
0.0330732353031635,1.1727441549301147,0.1154781952500343,0.1510834097862243,0.0531142279505729,-0.0224422253668308,0.0,0.0,-0.2006806135177612,0.7273662090301514
0.0342399589717388,1.175995707511902,0.1190689578652381,0.1446003764867782,0.0507503300905227,-0.0472779534757137,0.0,0.0,0.0795215368270874,0.326397180557251
0.0354251861572265,1.1797493696212769,0.1202707290649414,0.1668862402439117,0.049031376838684,-0.0343793109059333,0.0,0.0,-0.3070131540298462,0.7273966073989868
0.036633588373661,1.1833431720733645,0.1240254640579223,0.159825399518013,0.0458790808916091,-0.0630457550287246,0.0,0.0,0.0403441190719604,-0.0205913186073303
0.0377461425960063,1.1872581243515017,0.1143596917390823,0.1740870326757431,0.0428146608173847,-0.0612887926399707,0.0,0.0,0.0272449254989624,0.0956044197082519
0.0388366691768169,1.1918232440948486,0.1116834878921508,0.2029637843370437,0.0402194820344448,-0.0519033968448638,0.0,0.0,-0.5599486231803894,-0.0372462272644043
0.0398720726370811,1.1962310075759888,0.105949267745018,0.1959671080112457,0.0378343909978866,-0.0477017536759376,0.0,0.0,-0.3155699372291565,0.4639813899993896
0.0408486351370811,1.200481653213501,0.0998812094330787,0.1889705955982208,0.0356427989900112,-0.04383160546422,0.0,0.0,-0.5230076313018799,0.0944033861160278
0.0417632088065147,1.2045750617980957,0.0934871584177017,0.181974247097969,0.0336274094879627,-0.0403076745569705,0.0,0.0,-0.2850410938262939,0.0090086460113525
0.042612075805664,1.2085111141204834,0.0867755860090255,0.1749780476093292,0.0317702107131481,-0.0371439419686794,0.0,0.0,-0.2969334721565246,0.2647907733917236
0.0433922782540321,1.2122899293899536,0.0797555148601532,0.1679819375276565,0.0300525445491075,-0.0343534462153911,0.0,0.0,-0.208450973033905,-0.0061456561088562
0.0441004745662212,1.2159113883972168,0.0724364072084426,0.1609859615564346,0.0284551363438367,-0.0319481045007705,0.0,0.0,-0.2097311615943908,0.3769744634628296
0.0447336211800575,1.2193756103515625,0.0648281350731849,0.1539900749921798,0.0269581880420446,-0.0299385394901037,0.0,0.0,-0.0802923440933227,0.0429105758666992
0.0452887527644634,1.2226823568344116,0.0569408312439918,0.1469942778348922,0.0255414936691522,-0.0283337738364934,0.0,0.0,-0.2471753358840942,-0.5035802125930786
0.045729923993349,1.2258336544036863,0.0446605533361434,0.140060693025589,0.0250095091760158,-0.0106397662311792,0.0,0.0,0.0067564249038696,-0.5278326272964478
0.0460818298161029,1.229159951210022,0.0345489792525768,0.1478259265422821,0.0256323684006929,0.0124574257060885,0.0,0.0,-0.0680148005485534,-0.4717079401016235
0.0463472381234169,1.2323288917541504,0.0258875042200088,0.1408304125070572,0.026272851973772,0.0128097953274846,0.0,0.0,-0.0302234292030334,-0.3175958395004272
0.0465234741568565,1.2353403568267822,0.0169892311096191,0.1338349729776382,0.0269097760319709,0.0127383042126894,0.0,0.0,-0.1197892427444458,-0.1831740736961364
0.0466083511710166,1.238194465637207,0.0078647788614034,0.1268395632505417,0.0275219213217496,0.0122429700568318,0.0,0.0,-0.2127432823181152,0.0858207941055297
0.0465992912650108,1.2408913373947144,-0.0014753260184079,0.1198442131280899,0.0280882138758897,0.0113257616758346,0.0,0.0,-0.2489430904388427,-0.281093955039978
0.0464941039681434,1.2434306144714355,-0.0110206995159387,0.1128489151597023,0.0285877473652362,0.0099906008690595,0.0,0.0,0.0240441560745239,-0.3914072513580322
0.0463144294917583,1.2465461492538452,-0.0185723006725311,0.1384527385234832,0.0291737709194421,0.0117206694558262,0.0,0.0,-0.3215374946594238,-0.1457585096359253
0.0460342392325401,1.2495039701461792,-0.0284978356212377,0.1314575523138046,0.029652189463377,0.0095685701817274,0.0,0.0,-0.2393614649772644,-0.3956186771392822
0.0456519126892089,1.2523046731948853,-0.0385987348854541,0.1244624331593513,0.0300032254308462,0.0070208562538027,0.0,0.0,-0.0515339374542236,-0.2727366685867309
0.0451652519404888,1.2549476623535156,-0.0488655492663383,0.1174673661589622,0.0302076358348131,0.0040880809538066,0.0,0.0,-0.2376075983047485,-0.7385546565055847
0.0445122718811035,1.2574301958084106,-0.0668804869055748,0.1103004440665245,0.031768299639225,0.0312130264937877,0.0,0.0,-0.0459009408950805,-0.2737276554107666
0.0437517166137695,1.2597553730010986,-0.0774519965052604,0.10330531001091,0.0331456251442432,0.0275467038154602,0.0,0.0,0.0043975114822387,0.0641146898269653
0.0429541580379009,1.2622547149658203,-0.0813234224915504,0.1110436618328094,0.0346895195543766,0.0308780167251825,0.0,0.0,-0.1941370368003845,0.1584210395812988
0.0420459732413291,0.0,-0.0921656340360641,0.1040486842393875,0.0360161885619163,0.0265332516282796,0.0,0.0,-0.1388323307037353,0.6133831739425659
0.041076086461544,1.2667893171310425,-0.0968049466609954,0.097467765212059,0.0358380079269409,-0.0035637505352497,0.0,0.0,-0.3214247226715088,-0.3045132160186767
0.039992906153202,1.268824577331543,-0.1078865155577659,0.0904730930924415,0.0354116782546043,-0.0085267666727304,0.0,0.0,-0.351284384727478,-0.508103609085083
0.038761518895626,0.0,-0.1232992783188819,0.0834164395928382,0.0355687849223613,0.0031421347521245,0.0,0.0,-0.0827577114105224,-0.3835328817367553
