x_pos,y_pos,x_vel,y_vel,angle,ang_vel,leg_1,leg_2,main_booster,lat_booster
-0.0015541076427325,1.4031535387039185,-0.1572894752025604,-0.345182716846466,0.0016788052162155,0.0331101641058921,0.0,0.0,0.5256983884365447,0.25732504981944
-0.0030914307571947,1.395578145980835,-0.1555073857307434,-0.3366835713386535,0.0034271106123924,0.0349704287946224,0.0,0.0,-0.1624827244484095,0.4345958709785221
-0.0046587944962084,1.3875311613082886,-0.1583818048238754,-0.3576445281505584,0.0050507206469774,0.0324750021100044,0.0,0.0,-0.9775444821264636,-0.9351349354183596
-0.0063438415527343,1.37900972366333,-0.1722561120986938,-0.3787504136562347,0.0087601589038968,0.0741958171129226,0.0,0.0,0.8276127033322505,0.4220549436021072
-0.0079218866303563,1.3711014986038208,-0.1621036529541015,-0.3515142500400543,0.0130173899233341,0.085152581334114,0.0,0.0,-0.3218557116373859,-0.5860028761088504
-0.0095644947141408,1.3627207279205322,-0.1693211644887924,-0.3725329637527466,0.0180314313620328,0.1002896428108215,0.0,0.0,0.8269282802477596,0.028625197258692
-0.0112719535827636,1.3548262119293213,-0.175551950931549,-0.3509257137775421,0.0227817315608263,0.0950147062540054,0.0,0.0,0.9645488497197084,-0.5648942567082507
-0.012880802154541,1.3476214408874512,-0.1672464311122894,-0.3203266263008117,0.0290714595466852,0.1258061379194259,0.0,0.0,-0.5468126772228261,-0.5436011461608096
-0.0145610813051462,1.3399500846862793,-0.1753395199775695,-0.3411103785037994,0.036303874105215,0.1446616947650909,0.0,0.0,-0.5326250092497222,-0.5642571064581902
-0.0163131710141897,1.331809639930725,-0.1834832578897476,-0.3620210289955139,0.0444968417286872,0.1638743728399276,0.0,0.0,-0.0460238026478942,0.6798251316926337
-0.0180307384580373,1.3232033252716064,-0.1783149242401123,-0.3827084302902221,0.050985861569643,0.1297922730445861,0.0,0.0,0.6835444527766115,-0.0404824792429652
-0.0197299011051654,1.3149384260177612,-0.1766445040702819,-0.3675708770751953,0.057649653404951,0.1332880109548568,0.0,0.0,-0.0313048054103251,0.0635600693620928
-0.0214546211063861,1.3062028884887695,-0.1790269911289215,-0.3885128796100616,0.0641413703560829,0.1298464238643646,0.0,0.0,-0.5855873266946778,-0.3932968735929864
-0.0232044216245412,1.296996831893921,-0.1813488751649856,-0.4094456732273102,0.0704577565193176,0.1263393759727478,0.0,0.0,0.6506624155596714,0.1944882868550255
-0.0248958580195903,1.2885675430297852,-0.1760134994983673,-0.3749760389328003,0.0772587284445762,0.1360322833061218,0.0,0.0,-0.8939240142820062,0.092501122339843
-0.0266112331300973,1.2796673774719238,-0.1782094985246658,-0.3959217369556427,0.0838760361075401,0.1323580294847488,0.0,0.0,-0.4067334853055677,0.8448371249606761
-0.0282689090818166,1.2703166007995603,-0.1701523959636688,-0.4158423840999603,0.0882402956485748,0.0872929096221923,0.0,0.0,0.3306703317936146,0.3637180105493713
-0.0298612602055072,1.2609609365463257,-0.1639819145202636,-0.4160931706428528,0.092953436076641,0.0942712947726249,0.0,0.0,-0.7929546829851672,-0.2324560896356825
-0.03147554397583,1.2511343955993652,-0.165973350405693,-0.4370302259922027,0.0974725410342216,0.0903900116682052,0.0,0.0,-0.9420887523553492,-0.8194680263473347
-0.0331840515136718,1.2408257722854614,-0.1770588308572769,-0.4585770070552826,0.1036455184221267,0.1234705224633216,0.0,0.0,-0.7749833703376154,-0.0471895316116425
-0.0349131599068641,1.230046272277832,-0.1789156347513198,-0.4795121848583221,0.1096182838082313,0.1194659247994422,0.0,0.0,-0.1402265115461722,0.7509752586493387
-0.0366016402840614,1.218801736831665,-0.1731215417385101,-0.5000811219215393,0.1138649508357048,0.0849409699440002,0.0,0.0,-0.0635252581825045,0.5058264165266367
-0.0382609367370605,1.2070934772491455,-0.1687634289264679,-0.5205829739570618,0.1166819185018539,0.0563445761799812,0.0,0.0,0.9846479212864973,-0.7869694797256555
-0.0399529449641704,1.1954691410064695,-0.1736051440238952,-0.5169867277145386,0.1210734024643898,0.0878377556800842,0.0,0.0,0.0561482061015068,0.5689616335377821
-0.0417684540152549,1.1839776039123535,-0.1844550222158432,-0.5109761357307434,0.1239650845527648,0.0578382238745689,0.0,0.0,0.4807902855094446,0.3799963872133581
-0.0438067428767681,1.1729084253311155,-0.2059199512004852,-0.4921326637268066,0.1260423809289932,0.0415458418428897,0.0,0.0,-0.9032430240614712,0.5973025658231266
-0.0458144173026084,1.1613807678222656,-0.2014331817626953,-0.512396514415741,0.1267049312591552,0.0132510783150792,0.0,0.0,0.8116520198117134,-0.1388689033881728
-0.0480940826237201,1.1507012844085691,-0.227745771408081,-0.4746270477771759,0.1264900416135788,-0.0042978343553841,0.0,0.0,0.4811358488553343,0.4405020417348155
-0.0505920425057411,1.1405616998672483,-0.248822882771492,-0.4505677819252014,0.1255178153514862,-0.0194448418915271,0.0,0.0,0.1733200137821111,0.1807662844916281
-0.0531621947884559,1.1304633617401123,-0.2557511925697326,-0.4487114548683166,0.1242590248584747,-0.025175591930747,0.0,0.0,0.0996716534518384,-0.8450547595534209
-0.0558682456612587,1.1207321882247925,-0.2708130776882171,-0.4325143098831177,0.1244696155190467,0.0042114658281207,0.0,0.0,-0.9554693698883056,0.9890872240066528
-0.0585187897086143,1.1105366945266724,-0.2633170187473297,-0.4529890418052673,0.1227433010935783,-0.0345263630151748,0.0,0.0,-0.8452839255332947,0.9963274002075196
-0.0611145980656147,1.0998917818069458,-0.2558861970901489,-0.4728077352046966,0.1190759763121604,-0.0733464658260345,0.0,0.0,-0.9740294218063354,0.977658987045288
-0.0636521354317665,1.0887794494628906,-0.2480926066637039,-0.4934415519237518,0.1134466454386711,-0.1125861629843711,0.0,0.0,-0.9110937118530272,0.9814852476119996
-0.0661211982369422,1.077211856842041,-0.2389879673719406,-0.5135266780853271,0.1055839955806732,-0.1572529375553131,0.0,0.0,-0.980148434638977,0.9938278198242188
-0.0685200691223144,1.065194606781006,-0.2296857833862304,-0.5334165692329407,0.0954552888870239,-0.2025740593671798,0.0,0.0,-0.9874513745307922,0.9876108169555664
-0.070853516459465,1.052713394165039,-0.2210052013397216,-0.5539814829826355,0.0832244530320167,-0.2446166723966598,0.0,0.0,-0.9820566773414612,0.8356633186340332
-0.0731259360909462,1.0397785902023315,-0.2128701955080032,-0.5741488337516785,0.0690011158585548,-0.2844666838645935,0.0,0.0,-0.999104917049408,0.452737808227539
-0.0754061713814735,1.0263752937316897,-0.2134273052215576,-0.5950947999954224,0.0545580573379993,-0.2888611257076263,0.0,0.0,-0.9981960654258728,0.8486742973327637
-0.077623650431633,1.0125107765197754,-0.2051159590482711,-0.6156729459762573,0.0381277911365032,-0.3286056816577911,0.0,0.0,-0.9968380928039552,0.775229811668396
-0.0797974616289138,0.9981884360313416,-0.199237123131752,-0.6361741423606873,0.0202103946357965,-0.3583483099937439,0.0,0.0,-0.9924809336662292,-0.5895266532897949
-0.0820142775774002,0.9833969473838806,-0.2042625248432159,-0.6572531461715698,0.0030093223322182,-0.3440214991569519,0.0,0.0,-0.9927884340286256,-0.2057362794876098
-0.0842365249991417,0.968138575553894,-0.2045802175998687,-0.6782082915306091,-0.0144058754667639,-0.3483040332794189,0.0,0.0,-0.980911135673523,-0.0513429045677185
-0.086463451385498,0.9524132609367372,-0.2048431634902954,-0.6991643309593201,-0.0320331342518329,-0.3525452613830566,0.0,0.0,-0.9760335683822632,-0.8695741295814514
-0.0887682884931564,0.9362141489982604,-0.2142879664897918,-0.7203826308250427,-0.0480249263346195,-0.3198360502719879,0.0,0.0,-0.9335989952087402,-0.0262936949729919
-0.0910765677690506,0.9195476770401,-0.2144479006528854,-0.7413352727890015,-0.0642238855361938,-0.3239791393280029,0.0,0.0,-0.9015111327171326,-0.8592466711997986
-0.0934492126107215,0.902414858341217,-0.2222315371036529,-0.7621693015098572,-0.0790909305214881,-0.2973409295082092,0.0,0.0,-0.8618282675743103,-0.6703675389289856
-0.0958866104483604,0.8848287463188171,-0.2301336228847503,-0.7823845744132996,-0.0925724804401397,-0.2696314454078674,0.0,0.0,-0.3770868182182312,-0.9176114797592164
-0.0984137505292892,0.8667942881584167,-0.2411772012710571,-0.8022879362106323,-0.1040171459317207,-0.2288931906223297,0.0,0.0,0.6090525388717651,-0.3739800453186035
-0.1009116172790527,0.8490332961082458,-0.2379659712314605,-0.7902488708496094,-0.1157507598400116,-0.2346723973751068,0.0,0.0,-0.4089839458465576,-0.5895118117332458
-0.1034458130598068,0.8308091759681702,-0.2423380315303802,-0.8108562231063843,-0.1267776191234588,-0.2205372303724289,0.0,0.0,0.6743879318237305,-0.4570797681808471
-0.1059442535042762,0.8132382035255432,-0.2383175641298294,-0.7819548845291138,-0.1382591426372528,-0.2296306192874908,0.0,0.0,0.006941795349121,-0.7938088774681091
-0.1083910912275314,0.79559326171875,-0.2345941960811615,-0.7851923108100891,-0.1483159959316253,-0.2011371850967407,0.0,0.0,0.6931941509246826,-0.466058075428009
-0.1107137650251388,0.7786910533905029,-0.2220416814088821,-0.752261757850647,-0.1585322171449661,-0.204324334859848,0.0,0.0,-0.629199743270874,-0.7126509547233582
-0.1130782142281532,0.7613269686698914,-0.2271401584148407,-0.7727603316307068,-0.1678452342748642,-0.1862603276968002,0.0,0.0,-0.096986174583435,-0.6999119520187378
-0.1155055984854698,0.7435060739517212,-0.2349001616239547,-0.7929399609565735,-0.1756983250379562,-0.1570616364479065,0.0,0.0,0.8033261299133301,-0.8101252317428589
-0.1177311912178993,0.7264947295188904,-0.2164202183485031,-0.7567983865737915,-0.181858018040657,-0.1231938973069191,0.0,0.0,0.6650490760803223,-0.8099241852760315
-0.1197440177202224,0.709994912147522,-0.1968849748373031,-0.7338743805885315,-0.1862695962190628,-0.0882315710186958,0.0,0.0,0.4125155210494995,-0.8645754456520081
-0.1216198951005935,0.6940697431564331,-0.1848656684160232,-0.7081268429756165,-0.189002588391304,-0.0546599812805652,0.0,0.0,-0.157176673412323,-0.7800008654594421
-0.1235614791512489,0.6777002215385437,-0.1930571943521499,-0.7276697754859924,-0.190102219581604,-0.0219925604760646,0.0,0.0,-0.1633526086807251,-0.7057141661643982
-0.125552088022232,0.6608687043190002,-0.1991237699985504,-0.7480619549751282,-0.1900364756584167,0.0013149242149665,0.0,0.0,0.8393517732620239,-0.398982286453247
-0.1275027245283126,0.6447483897209167,-0.1945013403892517,-0.716530978679657,-0.1906054317951202,-0.0113789858296513,0.0,0.0,0.5649188756942749,0.1753952503204345
-0.1292435675859451,0.6288455724716187,-0.1739443689584732,-0.7068049907684326,-0.1907427161931991,-0.0027455415111035,0.0,0.0,0.7996163368225098,0.0897965431213378
-0.1308301985263824,0.6134482622146606,-0.1585510671138763,-0.6843429207801819,-0.1908616125583648,-0.0023771859705448,0.0,0.0,0.57016921043396,-0.5817533135414124
-0.1323799192905426,0.5981478095054626,-0.1559472233057022,-0.6798948049545288,-0.1898870468139648,0.019491309300065,0.0,0.0,0.8011125326156616,0.1644034385681152
-0.1339380294084549,0.583363950252533,-0.1560827046632766,-0.6570259928703308,-0.1896174997091293,0.0053910640999674,0.0,0.0,0.5841372013092041,-0.5415376424789429
-0.1353584229946136,0.5693302154541016,-0.143370896577835,-0.623552143573761,-0.1882707327604293,0.0269350819289684,0.0,0.0,0.5332149267196655,-0.6600444316864014
-0.1366956681013107,0.5552091002464294,-0.1364923417568206,-0.62725430727005,-0.1854925453662872,0.0555638559162616,0.0,0.0,0.7781538963317871,0.6453375816345215
-0.1377787590026855,0.5419564247131348,-0.1098273023962974,-0.5888221859931946,-0.1839766800403595,0.0303172525018453,0.0,0.0,-0.1312432885169983,0.6305537223815918
-0.1388183534145355,0.528218686580658,-0.1043581739068031,-0.6105180978775024,-0.1835673451423645,0.0081865722313523,0.0,0.0,0.2418873310089111,-0.3777967691421509
-0.1398301124572754,0.5147795081138611,-0.1012390404939651,-0.5972863435745239,-0.183503046631813,0.0012857033871114,0.0,0.0,0.5162792205810547,-0.1521751880645752
-0.1407072097063064,0.5017041563987732,-0.087888479232788,-0.5811055302619934,-0.1833219826221466,0.0036209833342581,0.0,0.0,0.4929242134094238,-0.5548743009567261
-0.1416085213422775,0.4893358647823334,-0.0911226719617843,-0.5495795607566833,-0.1823258399963379,0.0199228692799806,0.0,0.0,-0.6454412937164307,-0.4204427599906921
-0.1425072699785232,0.4764965772628784,-0.0908790305256843,-0.5705098509788513,-0.1813188791275024,0.020139655098319,0.0,0.0,0.7943943738937378,0.3996057510375976
-0.1433629989624023,0.4638229608535766,-0.0864292234182357,-0.5631669759750366,-0.1804578155279159,0.0172210931777954,0.0,0.0,0.8399285078048706,0.3828730583190918
-0.1440768241882324,0.4511922001838684,-0.0726314410567283,-0.56121826171875,-0.1792102009057998,0.024952370673418,0.0,0.0,0.3163918256759643,0.2511062622070312
-0.144765093922615,0.4384962618350982,-0.0699990838766098,-0.5641217827796936,-0.1780298352241516,0.0236076973378658,0.0,0.0,0.972740650177002,0.7816359996795654
-0.1452324837446212,0.4267208576202392,-0.0463994815945625,-0.5233907699584961,-0.1783744245767593,-0.0068920189514756,0.0,0.0,0.7006818056106567,0.2695902585983276
-0.1454678475856781,0.4156921207904815,-0.0236547626554965,-0.4901546835899353,-0.1782625019550323,0.0022383581381291,0.0,0.0,0.2668458223342895,-0.4887983798980713
-0.1456751823425293,0.4051403105258941,-0.0205294005572795,-0.4689949154853821,-0.178460031747818,-0.0039506228640675,0.0,0.0,-0.0591753125190734,-0.0312867164611816
-0.1458809822797775,0.3941172361373901,-0.0204814411699771,-0.4899238049983978,-0.1785558015108108,-0.001915531232953,0.0,0.0,0.6909471750259399,-0.4045605659484863
-0.1459011137485504,0.3838063180446625,-0.0022239121608436,-0.4582385122776031,-0.1783457547426223,0.0042008874006569,0.0,0.0,0.1962406635284423,-0.7775031328201294
-0.1459891349077224,0.3736778497695923,-0.0106159467250108,-0.4499366879463196,-0.1765259951353073,0.0363951250910759,0.0,0.0,-0.4634079933166504,0.6411322355270386
-0.1460307091474533,0.3630686998367309,-0.0049506910145282,-0.4714249670505523,-0.1757321059703827,0.0158781521022319,0.0,0.0,0.6250855922698975,-0.6021150946617126
-0.1460104882717132,0.3530229330062866,-0.000101264580735,-0.4462290406227112,-0.1736061871051788,0.0425179786980152,0.0,0.0,0.2789850234985351,-0.2456206083297729
-0.145845890045166,0.3431538343429565,0.0138706434518098,-0.438323438167572,-0.1710018366575241,0.0520866736769676,0.0,0.0,0.335365891456604,-0.0592958331108093
-0.1456152945756912,0.3332175612449646,0.0201887004077434,-0.4412832856178283,-0.1681303530931472,0.0574298799037933,0.0,0.0,0.4674527645111084,-0.2576877474784851
-0.1452440321445465,0.3233183622360229,0.0336822867393493,-0.43958181142807,-0.1646870374679565,0.0688661634922027,0.0,0.0,-0.502025306224823,0.0823001861572265
-0.1448736190795898,0.3129478693008423,0.0334012508392334,-0.4605104327201843,-0.1610411554574966,0.0729172304272651,0.0,0.0,0.4641284942626953,0.1129484176635742
-0.1443262994289398,0.3025940358638763,0.05030133202672,-0.4596986472606659,-0.156609758734703,0.0886279940605163,0.0,0.0,0.6325891017913818,0.1022508144378662
-0.1436701714992523,0.2928701937198639,0.0609792284667491,-0.4316864311695099,-0.1519789099693298,0.0926167145371437,0.0,0.0,-0.4238603115081787,0.1598967313766479
-0.1430158615112304,0.2826752960681915,0.0605543777346611,-0.4526156783103943,-0.1471118330955505,0.0973419696092605,0.0,0.0,0.2523159980773926,-0.2002368569374084
-0.1421963721513748,0.27273890376091,0.0763939470052719,-0.4410794079303741,-0.1415612697601318,0.1110113486647605,0.0,0.0,-0.351229190826416,0.0112895965576171
-0.1413794457912445,0.2623314261436462,0.0758692398667335,-0.4620093703269958,-0.1357536911964416,0.1161516159772872,0.0,0.0,0.4556512832641601,0.5434718132019043
-0.1405119001865387,0.2521197199821472,0.0818624123930931,-0.4534179270267486,-0.1308854222297668,0.0973651558160781,0.0,0.0,-0.0375494956970214,-0.4766552448272705
-0.1396478712558746,0.2414368689060211,0.0812360122799873,-0.474347323179245,-0.1257408857345581,0.1028908267617225,0.0,0.0,0.7540096044540405,0.2869926691055298
-0.1387365311384201,0.2311868220567703,0.0857969596982002,-0.4551159739494324,-0.1204255297780036,0.1063070893287658,0.0,0.0,0.6572873592376709,0.08108651638031
-0.137857437133789,0.2216764986515045,0.0828450769186019,-0.4222792088985443,-0.1153935939073562,0.1006389409303665,0.0,0.0,-0.0233730673789978,-0.5163341760635376
-0.1370176374912262,0.2117039114236831,0.0777267813682556,-0.4427571594715118,-0.109176866710186,0.1243343204259872,0.0,0.0,0.3482210636138916,0.7016856670379639
-0.1361089646816253,0.2021771967411041,0.0857753157615661,-0.4230482876300812,-0.104125440120697,0.1010287031531333,0.0,0.0,0.5715889930725098,0.3102618455886841
-0.1352101266384124,0.1932543069124221,0.0848362669348716,-0.3962297737598419,-0.0991203039884567,0.1001027375459671,0.0,0.0,-0.1186766028404235,-0.3113919496536255
-0.134317398071289,0.1838604360818863,0.083900548517704,-0.4171595871448517,-0.0937902852892875,0.1066007167100906,0.0,0.0,0.5454965829849243,0.5180995464324951
-0.1334541290998459,0.1748468428850174,0.0819614827632904,-0.4003356695175171,-0.0894658640027046,0.0864882618188858,0.0,0.0,0.3899304866790771,0.323724627494812
-0.1326846182346344,0.1660373955965042,0.0728445053100586,-0.3912886679172516,-0.0853888988494873,0.0815392881631851,0.0,0.0,0.3389441967010498,-0.3459150791168213
-0.1317872107028961,0.1576164066791534,0.0848788693547248,-0.3739988207817077,-0.0805706456303596,0.0963650196790695,0.0,0.0,0.4714674949645996,0.1582870483398437
-0.1308166533708572,0.1492091566324234,0.0915795043110847,-0.3733709752559662,-0.0751496851444244,0.1084192618727684,0.0,0.0,0.4190876483917236,-0.0794825553894043
-0.1296808272600174,0.1412972062826156,0.10715863853693,-0.3513323962688446,-0.0687970295548439,0.1270529329776764,0.0,0.0,-0.0624225139617919,0.3646243810653686
-0.1285537779331207,0.1329146176576614,0.1059259921312332,-0.3722641766071319,-0.0620838217437267,0.1342642903327942,0.0,0.0,0.2800368070602417,0.7640671730041504
-0.127209186553955,0.1250440180301666,0.1286767274141311,-0.3495755195617676,-0.056373257189989,0.1142112761735916,0.0,0.0,0.0404855012893676,-0.9502289295196532
-0.1258711814880371,0.1172510981559753,0.1257555782794952,-0.346069186925888,-0.0484189689159393,0.1590857207775116,0.0,0.0,0.6182618141174316,0.8814921379089355
-0.1244422942399978,0.1101902350783348,0.1362535804510116,-0.3136157095432281,-0.0418546684086322,0.1312858760356903,0.0,0.0,-0.447310209274292,0.7640430927276611
-0.1229568496346473,0.1026613116264343,0.1432032436132431,-0.3344826996326446,-0.0365843437612056,0.1054065227508544,0.0,0.0,0.2404217720031738,0.3293795585632324
-0.1214091330766677,0.0951742231845855,0.1487706303596496,-0.3326217830181122,-0.0306521952152252,0.1186431050300598,0.0,0.0,0.524024486541748,0.8705675601959229
-0.1199127212166786,0.0880758166313171,0.1451640576124191,-0.3154026865959167,-0.0262362211942672,0.0883195400238037,0.0,0.0,0.2926207780838012,-0.4057599306106567
-0.118517592549324,0.0811142995953559,0.1351173967123031,-0.309326022863388,-0.0218959674239158,0.0868051052093505,0.0,0.0,0.4718488454818725,0.7750787734985352
-0.1170831695199012,0.0744334533810615,0.1402360051870346,-0.296886146068573,-0.01873897947371,0.0631397664546966,0.0,0.0,0.2375746965408325,0.0402530431747436
-0.1156340613961219,0.0678804218769073,0.1412301510572433,-0.2912051081657409,-0.0150972055271267,0.0728355422616005,0.0,0.0,0.6937024593353271,0.5129663944244385
-0.1140085235238075,0.0614005662500858,0.1590957343578338,-0.2879616618156433,-0.011680269613862,0.0683386474847793,0.0,0.0,0.5595229864120483,0.0434610843658447
-0.1122961044311523,0.0554163791239261,0.1669427901506424,-0.2659341990947723,-0.0074377879500389,0.0848495960235595,0.0,0.0,0.6020195484161377,-0.3642052412033081
-0.1105666160583496,0.050134502351284,0.1681339293718338,-0.2347343266010284,-0.0026806031819432,0.0951437652111053,0.0,0.0,0.2345082759857177,0.4533759355545044
-0.1088021248579025,0.0447314605116844,0.1709925681352615,-0.2401340454816818,0.0027011332567781,0.107634887099266,0.0,0.0,0.3761309385299682,-0.8251012563705444
