x_pos,y_pos,x_vel,y_vel,angle,ang_vel,leg_1,leg_2,main_booster,lat_booster
-0.0015215873718261,1.4029276371002195,-0.1540760099887848,-0.3552204072475433,0.0017109186155721,0.0337460488080978,0.0,0.0,-0.4843364052038235,0.9023022295505164
-0.0029641152359545,1.3942573070526123,-0.1439158022403717,-0.3853467404842376,0.0013852769043296,-0.0065128272399306,0.0,0.0,-0.1052472315180896,-0.7490049974821331
-0.0044495584443211,1.3848841190338137,-0.1493376791477203,-0.4165871739387512,0.0021621261257678,0.0155384195968508,0.0,0.0,0.3612237759219281,0.6952734019119882
-0.0059871673583984,1.3754291534423828,-0.1529029309749603,-0.4202228784561157,0.0013157678768038,-0.0169286616146564,0.0,0.0,-0.3751582391281491,0.866460286369205
-0.0074384687468409,1.3652801513671875,-0.1421298235654831,-0.4510683119297027,-0.001652798615396,-0.059376697987318,0.0,0.0,0.1465160598440857,0.6356409906644442
-0.0087285041809082,1.3549984693527222,-0.1248653903603553,-0.4569689929485321,-0.0057475450448691,-0.0819022208452224,0.0,0.0,-0.4864958041194307,0.5467435341280453
-0.0099726673215627,1.3440200090408323,-0.1191946417093277,-0.4879646301269531,-0.0109175387769937,-0.1034089475870132,0.0,0.0,-0.6552017318284742,0.8651210502783119
-0.0111270900815725,1.3323463201522827,-0.1080221086740493,-0.51889967918396,-0.0182526893913745,-0.1467167139053344,0.0,0.0,0.7352956336208836,-0.5887978199720592
-0.0123199466615915,1.321302890777588,-0.1129940152168273,-0.4909153878688812,-0.0244810637086629,-0.1245791092514991,0.0,0.0,-0.8608648153112435,0.5211573322833178
-0.0134661672636866,1.3095645904541016,-0.1072621718049049,-0.5218385457992554,-0.0317602641880512,-0.1455970406532287,0.0,0.0,-0.1895631664651578,-0.787499758021046
-0.0146594047546386,1.2971333265304563,-0.1133058071136474,-0.5526412129402161,-0.0377150140702724,-0.1191060096025466,0.0,0.0,0.2717104092646532,0.6521986625568816
-0.0157192237675189,1.2846077680587769,-0.0987400934100151,-0.5568969249725342,-0.0448674261569976,-0.1430615484714508,0.0,0.0,0.7565540825632726,-0.9731607707546164
-0.0166601184755563,1.2724997997283936,-0.0890527591109275,-0.5382940173149109,-0.0498551167547702,-0.0997630134224891,0.0,0.0,-0.018536047950908,0.6131119919525863
-0.0175401680171489,1.2596853971481323,-0.0815961509943008,-0.569750964641571,-0.0562016442418098,-0.1269421130418777,0.0,0.0,0.790614324807053,-0.8204336967275866
-0.0182588584721088,1.247512698173523,-0.0674497634172439,-0.5411836504936218,-0.0605732016265392,-0.0874392390251159,0.0,0.0,0.8568200788037552,0.5266010242821264
-0.0187774654477834,1.235121488571167,-0.0467950291931629,-0.5509313941001892,-0.0655955970287323,-0.1004571914672851,0.0,0.0,0.1472554117438371,0.944250664060464
-0.0190612785518169,1.2229156494140625,-0.0214609056711196,-0.5427985787391663,-0.0724575072526931,-0.1372504532337188,0.0,0.0,0.2056098468063387,-0.742296893647712
-0.019257640466094,1.2104096412658691,-0.0143646206706762,-0.5560851693153381,-0.0776890888810157,-0.1046408265829086,0.0,0.0,0.4875086235860484,0.8202462594151531
-0.0192261692136526,1.1982771158218384,0.0099034700542688,-0.539596438407898,-0.0843832418322563,-0.1338951885700225,0.0,0.0,-0.2227177071101551,0.5844128630895125
-0.019145106896758,1.1854426860809326,0.0158412419259548,-0.57087242603302,-0.0920583605766296,-0.1535162329673767,0.0,0.0,0.8846386253610687,0.9616974436493796
-0.0187380798161029,1.1731675863265991,0.0500626973807811,-0.5461534857749939,-0.1013426110148429,-0.1857020109891891,0.0,0.0,-0.3890465071165949,0.9519893575203806
-0.0182444564998149,1.1601799726486206,0.0606160089373588,-0.5780300498008728,-0.1125288307666778,-0.2237443178892135,0.0,0.0,0.6213469809029835,0.9012405878628964
-0.0174671169370412,1.1472564935684204,0.09052424877882,-0.5753885507583618,-0.1252696961164474,-0.254840224981308,0.0,0.0,-0.3406293964964566,-0.7748294514026146
-0.016732882708311,1.1336394548416138,0.0847951471805572,-0.6061943769454956,-0.1366064250469207,-0.2267547100782394,0.0,0.0,0.2135798791244236,0.7829247371757884
-0.0159787181764841,1.1200438737869265,0.0884018689393997,-0.605492353439331,-0.1495780944824218,-0.2594562470912933,0.0,0.0,0.7557861700597861,0.5861047061142172
-0.0152213098481297,1.1068720817565918,0.0902857631444931,-0.5869335532188416,-0.1641064435243606,-0.2905671000480652,0.0,0.0,-0.2215112892574802,0.7290216157061439
-0.0143938064575195,1.0929968357086182,0.0986664816737175,-0.618512749671936,-0.1800529658794403,-0.3189306855201721,0.0,0.0,-0.0815973975035271,0.7587854831328558
-0.0135064125061035,1.0784235000610352,0.1057368144392967,-0.6498610973358154,-0.1971346586942672,-0.3416341543197632,0.0,0.0,0.6708697462193258,-0.71692125395734
-0.0126486774533987,1.0643739700317385,0.1015270128846168,-0.6266071796417236,-0.2130165547132492,-0.3176379799842834,0.0,0.0,-0.3898832985205498,-0.9289960910020388
-0.0118522644042968,1.04965078830719,0.0933719500899314,-0.6564014554023743,-0.2269101291894912,-0.2778711318969726,0.0,0.0,0.0375318340039452,-0.7270354797943078
-0.0109642026945948,1.0350327491760254,0.1009857803583145,-0.6516112685203552,-0.2392643690109253,-0.2470852136611938,0.0,0.0,-0.3799493312835693,-0.9937922358512878
-0.0101492879912257,1.0197452306747437,0.0913478210568428,-0.6810802221298218,-0.2492977231740951,-0.2006669044494629,0.0,0.0,-0.8722988963127136,-0.992070972919464
-0.0094051361083984,1.0038036108016968,0.0819497480988502,-0.7098107933998108,-0.2569803893566131,-0.1536531597375869,0.0,0.0,-0.8683123588562012,-0.9918724298477172
-0.008732127957046,0.9871899485588074,0.072594329714775,-0.7393237948417664,-0.2623873651027679,-0.108139768242836,0.0,0.0,-0.8675143718719482,-0.9724183678627014
-0.0081165311858057,0.9699103832244872,0.0649108439683914,-0.7685806751251221,-0.2658104598522186,-0.0684621483087539,0.0,0.0,-0.911734104156494,-0.9938964247703552
-0.0075583457946777,0.9519712328910828,0.0571836717426776,-0.7975519299507141,-0.2672061920166015,-0.0279144458472728,0.0,0.0,-0.8915971517562866,-0.9926359057426452
-0.0070652007125318,0.9333622455596924,0.0485732965171337,-0.8269253373146057,-0.2664381861686706,0.0153600322082638,0.0,0.0,-0.885518491268158,-0.9899311065673828
-0.0066260336898267,0.9140925407409668,0.0412437506020069,-0.8559482097625732,-0.2637132704257965,0.054498516023159,0.0,0.0,-0.9156731367111206,-0.976002871990204
-0.0062489509582519,0.8941685557365417,0.0329034253954887,-0.8846551179885864,-0.2588002383708954,0.098260685801506,0.0,0.0,-0.8462857604026794,-0.9524710774421692
-0.0059253694489598,0.8735765814781189,0.0256693661212921,-0.9140331745147704,-0.2519749402999878,0.1365057528018951,0.0,0.0,-0.8133936524391174,-0.7196592092514038
-0.0056497575715184,0.8523193597793579,0.0190989952534437,-0.943343698978424,-0.2433558851480484,0.1723811477422714,0.0,0.0,-0.6724952459335327,-0.4772700667381286
-0.0053582191467285,0.8303658366203308,0.0205950569361448,-0.9743162989616394,-0.2346597015857696,0.1739232540130615,0.0,0.0,-0.5339154005050659,-0.2040926218032837
-0.0050507546402513,0.807716429233551,0.022107383236289,-1.0052891969680786,-0.2258854061365127,0.1754859983921051,0.0,0.0,0.1192615032196044,-0.8174001574516296
-0.0046339035034179,0.7848886251449585,0.0312725380063056,-1.0130113363265991,-0.2153467983007431,0.2107719630002975,0.0,0.0,0.6956108808517456,-0.7089066505432129
-0.0042363167740404,0.7618326544761658,0.0279274992644786,-1.0230313539505005,-0.2034046053886413,0.2388435900211334,0.0,0.0,0.715850830078125,-0.7472565174102783
-0.0037595748435705,0.7385861277580261,0.0341311320662498,-1.0313720703125,-0.1897791475057602,0.2725093960762024,0.0,0.0,0.8757200241088867,-0.9599469304084778
-0.0031698227394372,0.7153875231742859,0.043273277580738,-1.0291192531585691,-0.1740238815546035,0.3151052594184875,0.0,0.0,0.9981920719146729,-0.6561019420623779
-0.0025820732116699,0.6930433511734009,0.0420190021395683,-0.9911978840827942,-0.1572507917881012,0.3354617953300476,0.0,0.0,0.9979405403137208,-0.2145413756370544
-0.001986312912777,0.6714556217193604,0.043432705104351,-0.9578354358673096,-0.1411374658346176,0.3222664296627044,0.0,0.0,0.9670698642730712,-0.4618178606033325
-0.0013131141895428,0.6500789523124695,0.0511756241321563,-0.9486277103424072,-0.1250577121973037,0.3215949833393097,0.0,0.0,0.9742777347564696,0.0962413549423217
-0.0003673553583212,0.6289923191070557,0.0775101631879806,-0.9358376264572144,-0.1081016138195991,0.3391222655773163,0.0,0.0,0.9741439819335938,0.4883174896240234
0.000622272491455,0.608536422252655,0.082110196352005,-0.9080145955085754,-0.0913799330592155,0.3344340324401855,0.0,0.0,0.8062506914138794,-0.6103038787841797
0.0017531395424157,0.5880994200706482,0.0945594683289527,-0.9072797298431396,-0.0730268508195877,0.3670616447925567,0.0,0.0,0.917557954788208,0.4462325572967529
0.0029727935325354,0.5683547258377075,0.1033057942986488,-0.8767346143722534,-0.0545722059905529,0.3690929710865021,0.0,0.0,0.9309647083282472,0.9059900045394896
0.0045040128752589,0.5487459897994995,0.1358267962932586,-0.8709601759910583,-0.0374771654605865,0.3419007658958435,0.0,0.0,0.865790605545044,0.8106966018676758
0.0060187340714037,0.5292409658432007,0.1359535157680511,-0.8665745258331299,-0.0221535954624414,0.3064716756343841,0.0,0.0,0.902355432510376,0.7210581302642822
0.0077455518767237,0.5104190111160278,0.1582471132278442,-0.8363774418830872,-0.0079014562070369,0.2850430607795715,0.0,0.0,0.9267745018005372,0.1855098009109497
0.0096570970490574,0.4920811653137207,0.1758725345134735,-0.8150079846382141,0.0071806539781391,0.3016421198844909,0.0,0.0,0.8629262447357178,-0.4390093088150024
0.0116637228056788,0.4744430184364319,0.1849048137664795,-0.7840664386749268,0.0227380450814962,0.3111479878425598,0.0,0.0,0.8531062602996826,0.3239696025848388
0.0135824205353856,0.4574301540851593,0.176432803273201,-0.7564353942871094,0.0379858948290348,0.3049569129943847,0.0,0.0,0.8021450042724609,0.5653088092803955
0.015607738867402,0.440329909324646,0.1879895329475402,-0.7604426741600037,0.0523581616580486,0.2874453961849212,0.0,0.0,0.8301112651824951,0.0552127361297607
0.0174990650266408,0.4236906766891479,0.1750272810459137,-0.740069568157196,0.0663023367524147,0.2788832783699035,0.0,0.0,0.81461501121521,0.5886869430541992
0.0195616725832223,0.4072250127792358,0.1928788125514984,-0.7324524521827698,0.0795475915074348,0.2649050951004028,0.0,0.0,0.9587628841400146,0.956845760345459
0.0216902736574411,0.3911654353141784,0.2012723386287689,-0.7144147157669067,0.0910266637802124,0.2295815646648407,0.0,0.0,0.8017933368682861,0.1583372354507446
0.0238051414489746,0.3750650882720947,0.1997852921485901,-0.7163218259811401,0.1026307046413421,0.2320808619260788,0.0,0.0,0.9546171426773072,0.3751648664474487
0.0257202144712209,0.3592907190322876,0.1804127991199493,-0.7018852829933167,0.1136426702141761,0.220239520072937,0.0,0.0,0.9140939712524414,0.6150705814361572
0.0276144985109567,0.3443186283111572,0.1794324070215225,-0.6662163138389587,0.1235807985067367,0.198762834072113,0.0,0.0,0.8331660032272339,0.1855489015579223
0.0295766834169626,0.3291511237621307,0.1857189536094665,-0.6750125288963318,0.1340251415967941,0.208886906504631,0.0,0.0,0.9567294120788574,0.3649539947509765
0.0314528457820415,0.3147979378700256,0.1769033223390579,-0.6389185190200806,0.144702211022377,0.2135414779186248,0.0,0.0,0.8803858757019043,0.7113676071166992
0.0332098975777626,0.3005330860614776,0.1666255891323089,-0.6349004507064819,0.1537696719169616,0.1813491433858871,0.0,0.0,0.8980073928833008,0.1014337539672851
0.0347610488533973,0.2867014706134796,0.146435409784317,-0.6156556010246277,0.1624331176280975,0.1732692420482635,0.0,0.0,0.9606654644012452,0.8099246025085449
0.0363122001290321,0.2732940912246704,0.1479070484638214,-0.5966871380805969,0.1696435213088989,0.144208163022995,0.0,0.0,0.7972826957702637,0.5084584951400757
0.0376177802681922,0.2605271339416504,0.1247280240058898,-0.568098247051239,0.175484612584114,0.1168222278356552,0.0,0.0,0.8314545154571533,0.8145794868469238
0.0389800071716308,0.2480496317148208,0.1317738592624664,-0.5550888776779175,0.1799530088901519,0.0893675833940506,0.0,0.0,0.724315881729126,0.6666655540466309
0.0403013229370117,0.235476866364479,0.1290094256401062,-0.5591695308685303,0.1830819994211197,0.0625799298286438,0.0,0.0,0.9619622230529784,0.3792214393615722
0.0416486747562885,0.2227990925312042,0.1311698108911514,-0.5639005303382874,0.1866661161184311,0.0716825202107429,0.0,0.0,0.936958074569702,0.3291237354278564
0.0429027564823627,0.2100011706352234,0.1219243258237838,-0.5692389011383057,0.1901598572731018,0.0698752552270889,0.0,0.0,0.9731897115707396,0.5016165971755981
0.0440224632620811,0.1979148536920547,0.1094502583146095,-0.5374948382377625,0.1926916688680648,0.0506364218890666,0.0,0.0,0.9921334981918336,0.7960574626922607
0.0451339706778526,0.1866361945867538,0.1099198907613754,-0.5014364123344421,0.1939332336187362,0.0248309411108493,0.0,0.0,0.997349739074707,0.2995117902755737
0.0459385886788368,0.1760761588811874,0.0797612965106964,-0.4694274663925171,0.1946261674165725,0.0138587700203061,0.0,0.0,0.9986401796340942,0.6794874668121338
0.0465705879032611,0.1653691381216049,0.0642189309000969,-0.4757343530654907,0.1936066746711731,-0.0203897729516029,0.0,0.0,0.994176983833313,0.2267094850540161
0.0470830909907817,0.1553840935230255,0.0519564524292945,-0.4436863660812378,0.1928896605968475,-0.0143401371315121,0.0,0.0,0.977134108543396,-0.3080136775970459
0.0473604202270507,0.1456815153360366,0.0289326403290033,-0.4310694932937622,0.1916882246732711,-0.024028692394495,0.0,0.0,0.9910752773284912,0.9204524755477904
0.0474974624812603,0.1364891082048416,0.0168005265295505,-0.408153235912323,0.188574269413948,-0.0622789673507213,0.0,0.0,0.8943250179290771,0.4971861839294433
0.0474863052368164,0.1277777254581451,0.0019688657484948,-0.3867822587490082,0.1854714304208755,-0.0620568208396434,0.0,0.0,0.938817262649536,0.8925409317016602
0.0475442893803119,0.1194273307919502,0.0103962160646915,-0.3705617487430572,0.1808651387691497,-0.0921258479356765,0.0,0.0,0.8267314434051514,-0.3307524919509887
0.0475750938057899,0.1109461188316345,0.0074796937406063,-0.3764128088951111,0.176452562212944,-0.0882514789700508,0.0,0.0,0.9523303508758544,0.2786768674850464
0.047645092010498,0.1025000214576721,0.0108223650604486,-0.3749328851699829,0.1726184487342834,-0.0766821727156639,0.0,0.0,0.8951406478881836,-0.0253340005874633
0.0477833747863769,0.0943688452243805,0.0167991798371076,-0.3610408008098602,0.1696352511644363,-0.059664063155651,0.0,0.0,0.9863462448120116,-0.1680898666381836
0.0480209365487098,0.0862846672534942,0.0258899815380573,-0.3590547740459442,0.167496383190155,-0.0427769757807254,0.0,0.0,0.9790589809417723,0.2569500207901001
0.0481156334280967,0.07883320748806,0.0115684373304247,-0.3309406042098999,0.1653940677642822,-0.0420462153851985,0.0,0.0,0.9220137596130372,0.0364431142807006
0.0481140129268169,0.071999654173851,0.0017089780885726,-0.3035053014755249,0.1635249704122543,-0.0373820550739765,0.0,0.0,0.9832097291946412,0.8167078495025635
0.0482192039489746,0.0657131969928741,0.0136058926582336,-0.2790602147579193,0.16043721139431,-0.0617550909519195,0.0,0.0,0.9170305728912354,-0.3382881879806518
0.0483921058475971,0.0593191012740135,0.0197742879390716,-0.283914566040039,0.1579548567533493,-0.0496472641825675,0.0,0.0,0.8685963153839111,-0.9169412851333618
0.0483504310250282,0.0530464500188827,-0.0034619648940861,-0.2787121832370758,0.1572572886943817,-0.0139514226466417,0.0,0.0,0.976315975189209,0.8784811496734619
0.0483362190425396,0.0476589314639568,0.0007502561784349,-0.2392171025276184,0.1550780832767486,-0.0435841754078865,0.0,0.0,0.9676522016525269,-0.8072299957275391
0.0481356605887413,0.0425572246313095,-0.0194806661456823,-0.2266825735569,0.1545084565877914,-0.0113924648612737,0.0,0.0,0.9382026195526124,0.1761229038238525
0.0476581566035747,0.03810840472579,-0.0465621761977672,-0.1976033896207809,0.1533222198486328,-0.0237245801836252,0.0,0.0,0.6985728740692139,0.7744152545928955
0.0472387298941612,0.0340669266879558,-0.0394532456994056,-0.1793661713600158,0.1508314162492752,-0.0498161986470222,0.0,0.0,0.6251534223556519,0.8192076683044434
0.0467237457633018,0.0304306373000144,-0.0473132245242595,-0.1611923277378082,0.1466563642024994,-0.0835010930895805,0.0,0.0,0.5966464281082153,0.7960306406021118
0.0460862144827842,0.0271719321608543,-0.0578704252839088,-0.1442639976739883,0.1407894492149353,-0.1173384562134742,0.0,0.0,0.4878542423248291,0.9314517974853516
0.0454422943294048,0.0238902661949396,-0.0566637217998504,-0.145140916109085,0.1330881416797638,-0.1540261507034301,0.0,0.0,0.702711820602417,0.9213820695877076
0.0446629524230957,0.0208231061697006,-0.0682006776332855,-0.1354794353246688,0.1233972758054733,-0.193817526102066,0.0,0.0,0.3329865932464599,0.9841949939727784
0.0437763221561908,0.0176759101450443,-0.0769159346818924,-0.1389439404010772,0.1117215305566787,-0.2335149943828582,0.0,0.0,0.3968168497085571,0.8110408782958984
0.0429920181632041,0.0147720435634255,-0.0652215853333473,-0.128121942281723,0.0986035242676734,-0.262360155582428,0.0,0.0,0.4383347034454345,0.8749079704284668
0.0423111915588378,0.0116651868447661,-0.0532043799757957,-0.1371694207191467,0.0838600322604179,-0.2948698401451111,0.0,0.0,-0.1803690195083618,0.1432948112487793
0.0416353233158588,0.0078644966706633,-0.0527418255805969,-0.1681561172008514,0.0691618472337722,-0.2939637899398803,0.0,0.0,0.5625054836273193,0.4262920618057251
0.0408401489257812,0.0048509812913835,-0.0545436963438987,-0.1329645663499832,0.0444697327911853,-0.4938426911830902,0.0,1.0,0.8973101377487183,0.5700409412384033
0.0402204506099224,0.002640841063112,-0.0363199785351753,-0.0976634547114372,0.0191325116902589,-0.5067444443702698,0.0,1.0,0.713767409324646,0.5087865591049194
0.0397136695683002,0.0006479239673353,-0.0242326557636261,-0.0884396657347679,-0.0069776349700987,-0.5222032070159912,0.0,0.0,0.7277129888534546,-0.7668712735176086
0.0391474738717079,-0.0007440710323862,-0.0317477732896804,-0.062164269387722,-0.0315360501408577,-0.4911684095859527,1.0,0.0,0.7497475147247314,-0.2693365812301636
0.0387894622981548,-0.0012394929071888,-0.0219356566667556,-0.0225734524428844,-0.0441702306270599,-0.251335859298706,1.0,0.0,-0.224275529384613,-0.1574673056602478
0.0385339744389057,-0.0019425177015364,-0.027067881077528,-0.0312205348163843,-0.0426165498793125,0.0311466939747333,1.0,0.0,-0.5610055923461914,0.4575421810150146
0.0383598320186138,-0.0028713131323456,-0.0324645042419433,-0.0409245379269123,-0.0277405492961406,0.2975538969039917,1.0,0.0,-0.1628097295761108,0.2199803590774536
0.0382425300776958,-0.0041544460691511,-0.0364364199340343,-0.0567610263824462,-0.0033150603994727,0.4885457456111908,1.0,1.0,0.5273153781890869,0.9921003580093384
0.0381513610482215,-0.0046980404295027,-0.0250104703009128,-0.0244100019335746,0.0115405563265085,0.296049952507019,1.0,1.0,0.4152636528015136,0.9982855319976808
0.0380918495357036,-0.0045355344191193,-0.0085429325699806,0.0071952929720282,0.0140898954123258,0.0509737953543663,1.0,1.0,-0.758875846862793,0.8832864761352539
0.0380756370723247,-0.0043017175048589,0.0033446266315877,0.0104354303330183,0.0092183798551559,-0.0973952561616897,1.0,1.0,-0.8113614320755005,-0.2279627323150634
0.0380645766854286,-0.0039290334098041,0.0033884432632476,0.0165765285491943,0.0047822068445384,-0.0887217447161674,1.0,1.0,-0.96611350774765,-0.3486629724502563
0.0380869880318641,-0.0033758187200874,0.003936524502933,0.0245901402086019,0.0031039114110171,-0.0335687324404716,1.0,1.0,-0.8493590950965881,0.0459944009780883
0.0381351485848426,-0.0026346349623054,0.0043622418306767,0.0329361706972122,0.0035524168051779,0.0089630838483572,1.0,1.0,-0.9601836800575256,0.279833436012268
