x_pos,y_pos,x_vel,y_vel,angle,ang_vel,leg_1,leg_2,main_booster,lat_booster
-0.0015082359313964,1.4030569791793823,-0.1527860909700393,-0.3494755029678345,0.0017558585386723,0.0346353016793727,0.0,0.0,-0.3269891710013697,0.0674947789500332
-0.0030021667480468,1.3946492671966553,-0.1511177122592926,-0.3736728727817535,0.0034646582789719,0.0341799035668373,0.0,0.0,0.3322453380937735,0.5220312966877128
-0.0043257712386548,1.3861594200134275,-0.1333407759666443,-0.3773336410522461,0.0044304248876869,0.0193172413855791,0.0,0.0,-0.9761038856952547,0.2566914179132713
-0.005636787507683,1.3771017789840698,-0.1320800632238388,-0.4025664627552032,0.0054012131877243,0.019417431205511,0.0,0.0,0.3170400831352711,-0.6876596301430843
-0.0068785669282078,1.368259072303772,-0.1267491579055786,-0.3930220603942871,0.0079427603632211,0.0508356764912605,0.0,0.0,-0.8652794327607569,-0.98148715007648
-0.0081693651154637,1.3588465452194214,-0.1331715285778045,-0.4183562695980072,0.0119966892525553,0.0810861140489578,0.0,0.0,-0.5150358019390313,-0.2744013068814358
-0.0094502447172999,1.3488669395446775,-0.1322082132101059,-0.4435792565345764,0.0160662997514009,0.0813994258642196,0.0,0.0,-0.2264246066162123,-0.4623075682687088
-0.0107223512604832,1.3383198976516724,-0.1313370913267135,-0.4688048362731933,0.020156055688858,0.0818026885390281,0.0,0.0,-0.2610364162450154,-0.1761060692014645
-0.0119863506406545,1.3272056579589844,-0.1305566132068634,-0.4940311014652252,0.0242695715278387,0.0822778865694999,0.0,0.0,0.9288273865213496,0.3878344270832852
-0.0132646560668945,1.3167957067489624,-0.1320091933012008,-0.4627395868301391,0.0284063350409269,0.0827426835894584,0.0,0.0,-0.9533209306043536,0.5250465017984501
-0.0144893648102879,1.305820345878601,-0.125474601984024,-0.4878477156162262,0.0313854403793811,0.0595874898135662,0.0,0.0,-0.9392013756310948,-0.9772270192196596
-0.015776252374053,1.2942726612091064,-0.133471205830574,-0.5133369565010071,0.0361112542450428,0.0945249125361442,0.0,0.0,-0.686711429596877,-0.9110617982549624
-0.0171148292720317,1.2821595668792725,-0.1401043087244033,-0.5385274291038513,0.0422913208603858,0.1236124858260154,0.0,0.0,-0.2922766824372542,-0.0269393643065024
-0.0184494014829397,1.2694793939590454,-0.1397483199834823,-0.5637562870979309,0.0485141426324844,0.1244675740599632,0.0,0.0,-0.3000466929651941,0.0603013734473996
-0.0197807308286428,1.2562321424484253,-0.1394679993391037,-0.5889849066734314,0.0547840259969234,0.1254094392061233,0.0,0.0,-0.792553128130461,0.6336790440293653
-0.0210502631962299,1.2424150705337524,-0.1318304985761642,-0.6142736077308655,0.0596190020442009,0.0967083871364593,0.0,0.0,-0.2370347897889948,-0.19360858240641
-0.0223176963627338,1.228031039237976,-0.1316880732774734,-0.6395014524459839,0.0645090118050575,0.0978095009922981,0.0,0.0,-0.2400809586350067,-0.7851929904640005
-0.0236308090388774,1.2130684852600098,-0.1375121027231216,-0.6652806997299194,0.0706498697400093,0.1228280514478683,0.0,0.0,0.8779219105547809,0.526394773678455
-0.0248496048152446,1.1989258527755735,-0.1274317950010299,-0.6288317441940308,0.0761517882347107,0.1100486516952514,0.0,0.0,0.8624240902669642,0.5037768301600675
-0.0261731147766113,1.1851632595062256,-0.1366566866636276,-0.6118905544281006,0.0804261565208435,0.085495188832283,0.0,0.0,-0.1645321951376326,-0.4987949254928466
-0.0274969097226858,1.1708335876464844,-0.1367591172456741,-0.6371209025382996,0.0847696140408515,0.0868772119283676,0.0,0.0,-0.1728090081881337,0.5185373505481513
-0.0287797935307025,1.155938982963562,-0.1316758096218109,-0.662179172039032,0.0881328955292701,0.0672717243432998,0.0,0.0,-0.1062729834887974,-0.7164330128355667
-0.0301081649959087,1.140470266342163,-0.1374278515577316,-0.6877777576446533,0.0926910117268562,0.091170459985733,0.0,0.0,-0.2504960779890761,0.7976129975829148
-0.0313675887882709,1.1244350671768188,-0.1288316547870636,-0.7128536105155945,0.0955556705594062,0.0572982132434845,0.0,0.0,0.4953471143597858,-0.7018485889138445
-0.0328811630606651,1.1086763143539429,-0.1554600447416305,-0.7006646990776062,0.0996341258287429,0.081576369702816,0.0,0.0,0.2847217062362526,-0.7496354037020566
-0.0346364974975585,1.093121886253357,-0.1810715198516845,-0.6916796565055847,0.1051264256238937,0.1098461747169494,0.0,0.0,-0.1185981631583947,0.5842741784143366
-0.0363486297428607,1.0770114660263062,-0.1756492853164672,-0.7163365483283997,0.109531320631504,0.0880978256464004,0.0,0.0,-0.8842298501900661,0.5423650153574476
-0.0380308143794536,1.0603450536727903,-0.1718896329402923,-0.7410061955451965,0.1131759509444236,0.0728925392031669,0.0,0.0,-0.0849191327741525,-0.7474117273189376
-0.0397883430123329,1.0431053638458252,-0.1813286244869232,-0.7666388750076294,0.1187239587306976,0.1109602078795433,0.0,0.0,0.5991685181448316,0.7103642820726535
-0.0415713302791118,1.0260050296783447,-0.1825053989887237,-0.7603574991226196,0.1229044198989868,0.0836091488599777,0.0,0.0,0.8195085682867198,-0.7060058246818514
-0.0435063354671001,1.0097273588180542,-0.1992577910423278,-0.723935067653656,0.1286382228136062,0.114675723016262,0.0,0.0,-0.9854413866996764,0.4782991409301758
-0.045445155352354,0.9928829669952391,-0.1997432857751846,-0.7491622567176819,0.1344699412584304,0.116634227335453,0.0,0.0,-0.9581531286239624,0.8938459157943726
-0.0473284721374511,0.9754919409751892,-0.1927273124456405,-0.7733351588249207,0.1388563215732574,0.0877279043197631,0.0,0.0,-0.978485345840454,0.8830667734146118
-0.0491532310843467,0.9575387835502625,-0.1853995025157928,-0.7981908321380615,0.1417702287435531,0.058277953416109,0.0,0.0,-0.4826939105987549,0.9828928709030152
-0.0509033203125,0.9390373826026917,-0.1760139763355255,-0.8223816156387329,0.1427684128284454,0.0199638046324253,0.0,0.0,0.0193161964416503,0.9916868209838868
-0.0526337623596191,0.9206885099411012,-0.1721449047327041,-0.8154222965240479,0.141877070069313,-0.0178271196782588,0.0,0.0,0.4459583759307861,0.967216968536377
-0.0543745048344135,0.9023697972297668,-0.1713295429944992,-0.8139063715934753,0.1391389816999435,-0.054761879146099,0.0,0.0,0.2178125381469726,0.9940848350524902
-0.0560873970389366,0.8843482136726379,-0.1666588485240936,-0.8005322217941284,0.1345220357179641,-0.0923390612006187,0.0,0.0,-0.7635455131530762,0.9856421947479248
-0.0577332489192485,0.8657853007316589,-0.1582064628601074,-0.8244581818580627,0.1281680166721344,-0.1270802617073059,0.0,0.0,0.8892319202423096,0.951636791229248
-0.0593619346618652,0.8477123975753784,-0.1547386646270752,-0.8025665879249573,0.1200831979513168,-0.1616964638233184,0.0,0.0,-0.8156114816665649,0.3409759998321533
-0.0609945282340049,0.8290729522705078,-0.1552334427833557,-0.8277965188026428,0.1121095493435859,-0.1594730913639068,0.0,0.0,0.2247668504714965,0.9761147499084472
-0.0624906532466411,0.8104743361473083,-0.1397641599178314,-0.8258922100067139,0.1023254841566085,-0.1956812739372253,0.0,0.0,-0.7341544032096863,-0.0583539009094238
-0.0639904960989952,0.7913097739219666,-0.1402246654033661,-0.8511245250701904,0.0926544591784477,-0.1934204995632171,0.0,0.0,0.5110925436019897,-0.2605684399604797
-0.0654478073120117,0.7723137140274048,-0.1365170627832412,-0.8437278270721436,0.0835173204541206,-0.1827429831027984,0.0,0.0,0.7877455949783325,0.7274272441864014
-0.0669246688485145,0.7532204985618591,-0.1370062381029129,-0.8480291366577148,0.0729424655437469,-0.2114969789981842,0.0,0.0,0.8804340362548828,0.5164000988006592
-0.0683357268571853,0.7341358065605164,-0.1296629905700683,-0.8476979732513428,0.0616193003952503,-0.2264633923768997,0.0,0.0,0.9839086532592772,-0.830270528793335
-0.069767951965332,0.7152852416038513,-0.1337295472621917,-0.8374441862106323,0.0522369779646396,-0.1876463890075683,0.0,0.0,0.5448035001754761,-0.245004117488861
-0.0713479071855545,0.6970280408859253,-0.1481241285800933,-0.8111208081245422,0.0424847081303596,-0.1950453072786331,0.0,0.0,-0.4754477739334106,0.7310879230499268
-0.0728847533464431,0.6782139539718628,-0.1427742689847946,-0.8359057307243347,0.0317139960825443,-0.215414360165596,0.0,0.0,0.4165796041488647,-0.3881672620773315
-0.0744547843933105,0.6594869494438171,-0.1461329162120819,-0.8321159482002258,0.0209763329476118,-0.2147532999515533,0.0,0.0,0.3645797967910766,-0.1852496862411499
-0.0759172439575195,0.6409050822257996,-0.1360378861427307,-0.8257543444633484,0.0109040159732103,-0.2014465779066085,0.0,0.0,0.9607663154602052,-0.7787426114082336
-0.0775255188345909,0.6230711340904236,-0.1521397531032562,-0.7925800681114197,0.0023294677957892,-0.1714908331632614,0.0,0.0,0.0242990255355834,0.8285009860992432
-0.078989028930664,0.6050803065299988,-0.1361396163702011,-0.7996144890785217,-0.0077604791149497,-0.2017989158630371,0.0,0.0,0.4965914487838745,0.5234605073928833
-0.0804018974304199,0.5876114368438721,-0.1301418542861938,-0.7764889001846313,-0.0187656115740537,-0.22010238468647,0.0,0.0,-0.0612295269966125,-0.3818178176879883
-0.0818138122558593,0.5695765614509583,-0.1301605403423309,-0.8017222285270691,-0.0296528227627277,-0.2177441120147705,0.0,0.0,0.4731956720352173,0.6196012496948242
-0.0832555741071701,0.5516050457954407,-0.1318283230066299,-0.7990210056304932,-0.0418534204363822,-0.2440120875835418,0.0,0.0,0.8863041400909424,-0.4031435251235962
-0.0845498070120811,0.5344248414039612,-0.1177071556448936,-0.7639314532279968,-0.0534396171569824,-0.2317237555980682,0.0,0.0,0.2520127296447754,-0.5903339385986328
-0.0857455283403396,0.5174410939216614,-0.1093799248337745,-0.7552283406257629,-0.0635182335972786,-0.2015722244977951,0.0,0.0,0.6545381546020508,-0.4175586700439453
-0.0868109688162803,0.5011181235313416,-0.0968223884701728,-0.7259036898612976,-0.0731330439448356,-0.1922963708639145,0.0,0.0,0.7342002391815186,-0.3958703279495239
-0.0878919586539268,0.4854715466499328,-0.0981293395161628,-0.6959219574928284,-0.0830001756548881,-0.1973428577184677,0.0,0.0,0.1326048374176025,-0.6358824372291565
-0.0889586433768272,0.4696337878704071,-0.0981538817286491,-0.7043968439102173,-0.0914302617311477,-0.1686016470193863,0.0,0.0,0.526858925819397,-0.9288349151611328
-0.090138241648674,0.4542266130447387,-0.1113268584012985,-0.6851837635040283,-0.0980111137032508,-0.1316170990467071,0.0,0.0,0.8095506429672241,-0.2985266447067261
-0.0911220535635948,0.4390779733657837,-0.0924987196922302,-0.6736688017845154,-0.1038494482636451,-0.1167666763067245,0.0,0.0,0.9729087352752686,-0.4038216471672058
-0.0919956192374229,0.4244497120380401,-0.0817247256636619,-0.6505454182624817,-0.1094411835074424,-0.1118347197771072,0.0,0.0,0.9858558177947998,-0.1810486912727356
-0.0928001403808593,0.40997114777565,-0.0749879702925682,-0.6439064145088196,-0.114873319864273,-0.1086427792906761,0.0,0.0,0.6636271476745605,-0.4155609011650085
-0.0936526283621788,0.3958334922790527,-0.0793192088603973,-0.6288093328475952,-0.1207663342356681,-0.117860160768032,0.0,0.0,0.5875253677368164,-0.8951013684272766
-0.0944440811872482,0.3823718726634979,-0.0751681998372078,-0.5986204147338867,-0.1247210353612899,-0.0790943428874015,0.0,0.0,0.4931385517120361,-0.711755633354187
-0.0951689705252647,0.3687227964401245,-0.0702075734734535,-0.6068158745765686,-0.1269940733909607,-0.0454603247344493,0.0,0.0,0.948460340499878,-0.3472036123275757
-0.0957250595092773,0.3559980988502502,-0.0535878241062164,-0.5657159686088562,-0.1290051639080047,-0.0402218587696552,0.0,0.0,0.6219998598098755,-0.9283872842788696
-0.0963871926069259,0.3434271812438965,-0.0660278052091598,-0.5587236285209656,-0.1291875541210174,-0.0036481865681707,0.0,0.0,0.3718991279602051,-0.5722899436950684
-0.0970930084586143,0.3311520516872406,-0.0714773535728454,-0.54548180103302,-0.1282908171415329,0.0179350189864635,0.0,0.0,-0.3435947895050049,-0.2704463005065918
-0.0977870002388954,0.3183092772960663,-0.0704227015376091,-0.5707041025161743,-0.1272810846567154,0.0201947726309299,0.0,0.0,0.5397733449935913,0.1913113594055175
-0.098487950861454,0.3060927093029022,-0.0706576853990554,-0.5429096221923828,-0.1267143040895462,0.0113357519730925,0.0,0.0,0.6755251884460449,-0.6049095988273621
-0.0990694984793663,0.2941736876964569,-0.0602514930069446,-0.5295559763908386,-0.1246304810047149,0.0416764579713344,0.0,0.0,0.2572687864303589,-0.1968042850494384
-0.0996258705854415,0.282134860754013,-0.0577221624553203,-0.5348885655403137,-0.1225541159510612,0.0415271446108818,0.0,0.0,0.0753645896911621,-0.2191967964172363
-0.1000981330871582,0.2698351740837097,-0.0496267713606357,-0.5464553236961365,-0.1201624274253845,0.0478338971734046,0.0,0.0,0.8208016157150269,0.3051367998123169
-0.10054512321949,0.2575312852859497,-0.0470510497689247,-0.5466539263725281,-0.1178218945860862,0.0468104742467403,0.0,0.0,0.8827080726623535,0.3633942604064941
-0.1008796691894531,0.2460078597068786,-0.0358759984374046,-0.5119640231132507,-0.1154162436723709,0.0481129363179206,0.0,0.0,0.708495020866394,0.313936710357666
-0.1010187119245529,0.2351595014333725,-0.0168094895780086,-0.481926828622818,-0.1125192046165466,0.0579406321048736,0.0,0.0,-0.1689871549606323,-0.0324739217758178
-0.1011407822370529,0.2237435132265091,-0.0152360890060663,-0.507149875164032,-0.1095143631100654,0.0600964836776256,0.0,0.0,0.8434634208679199,0.0720635652542114
-0.1013485938310623,0.2123347669839859,-0.0232402812689542,-0.5068790912628174,-0.1070703268051147,0.0488804467022419,0.0,0.0,0.8957810401916504,0.4333498477935791
-0.1013954132795333,0.2017037719488144,-0.0074649131856858,-0.4722912609577179,-0.104305975139141,0.0552869439125061,0.0,0.0,0.5976779460906982,0.7390828132629395
-0.1014147773385047,0.1913430839776992,-0.0031375829130411,-0.460391640663147,-0.1031155213713646,0.0238090772181749,0.0,0.0,0.1756694316864013,-0.1997942328453064
-0.1014042869210243,0.1811404526233673,-6.538382876897231e-05,-0.4533740282058716,-0.1020009964704513,0.0222903005778789,0.0,0.0,0.8170346021652222,0.1084069013595581
-0.1013087257742881,0.1715197712182998,0.008378330618143,-0.4275072813034057,-0.1008437871932983,0.0231444109231233,0.0,0.0,-0.0590521097183227,0.2390414476394653
-0.1011931449174881,0.161331370472908,0.0102874990552663,-0.4527298808097839,-0.0995839014649391,0.0251974910497665,0.0,0.0,0.8895699977874756,-0.2349885106086731
-0.1009910553693771,0.1511557251214981,0.0187108684331178,-0.4521533846855163,-0.0980969741940498,0.0297385156154632,0.0,0.0,0.8786026239395142,0.0782005786895752
-0.1006180793046951,0.1410803347826004,0.0352084338665008,-0.447656899690628,-0.0960215255618095,0.0415089651942253,0.0,0.0,0.863140344619751,-0.4276965856552124
-0.0999965667724609,0.131375104188919,0.0591778978705406,-0.431156575679779,-0.0930791348218917,0.0588478930294513,0.0,0.0,0.6413525342941284,-0.4768959283828735
-0.0991788879036903,0.1216682270169258,0.078059047460556,-0.4311898350715637,-0.0893977507948875,0.0736274719238281,0.0,0.0,0.9286234378814696,-0.3080188035964966
-0.0982670783996582,0.1127049997448921,0.0873992592096328,-0.3981437087059021,-0.0856498554348945,0.0749579817056655,0.0,0.0,0.7405896186828613,-0.6516209840774536
-0.0972801223397255,0.1043757796287536,0.0934212058782577,-0.369893729686737,-0.0804222524166107,0.1045520901679992,0.0,0.0,0.3021219968795776,-0.5274933576583862
-0.0961627960205078,0.0962596237659454,0.1050520539283752,-0.3603732287883758,-0.073812149465084,0.1322018355131149,0.0,0.0,0.8217694759368896,-0.4952269196510315
-0.0948845893144607,0.088102638721466,0.1205230951309204,-0.3621892929077148,-0.0665945932269096,0.1443513035774231,0.0,0.0,0.7555258274078369,-0.7879493832588196
-0.0936701744794845,0.0801989138126373,0.1125935316085815,-0.3509093225002289,-0.0578387640416622,0.1751163899898529,0.0,0.0,0.4152842760086059,-0.1331384778022766
-0.0923165306448936,0.0728290677070617,0.1260718256235122,-0.3272145688533783,-0.0486576817929744,0.1836217194795608,0.0,0.0,0.5709402561187744,0.032820701599121
-0.090934470295906,0.0657052621245384,0.1289256364107132,-0.3163412511348724,-0.0394909903407096,0.1833338290452957,0.0,0.0,0.7029280662536621,0.7018623352050781
-0.0895794853568077,0.0592551566660404,0.127845898270607,-0.286488801240921,-0.0319381356239318,0.1510573625564575,0.0,0.0,0.4008702039718628,0.2502917051315307
-0.0881073027849197,0.0531218387186527,0.1391435861587524,-0.2724389433860779,-0.0239594355225563,0.1595740020275116,0.0,0.0,0.4873635768890381,-0.4301586151123047
-0.0866421684622764,0.047436486929655,0.1385649740695953,-0.2525774538516998,-0.016121320426464,0.1567625552415847,0.0,0.0,0.3644967079162597,-0.0078122019767761
-0.0852106064558029,0.0421135537326335,0.1354611963033676,-0.2365127205848693,-0.0085190627723932,0.1520451158285141,0.0,0.0,0.4020159244537353,0.1220793724060058
-0.0837714225053787,0.03685799613595,0.1362322717905044,-0.2335582226514816,-0.0009366005542688,0.1516491919755935,0.0,0.0,0.4916548728942871,0.0741658210754394
-0.0824120491743087,0.0318502038717269,0.1286765486001968,-0.222581148147583,0.0062339836731553,0.1434116214513778,0.0,0.0,0.6284785270690918,0.3879814147949219
-0.0811790451407432,0.0270484779030084,0.1166573166847229,-0.2134514600038528,0.0127911251038312,0.1311427801847458,0.0,0.0,0.7205471992492676,0.9360322952270508
-0.0797331780195236,0.0228114463388919,0.1395818889141082,-0.1883622109889984,0.0177391599863767,0.0989606529474258,0.0,0.0,0.1442111730575561,0.1683450937271118
-0.0782241821289062,0.0183915942907333,0.1456210613250732,-0.1965065598487854,0.0229505375027656,0.1042273864150047,0.0,0.0,0.765979528427124,-0.699560284614563
-0.0765959769487381,0.0146370744332671,0.1556873321533203,-0.1669935435056686,0.0299983229488134,0.1409555673599243,0.0,0.0,0.5644934177398682,-0.7184492945671082
-0.0750454887747764,0.0114200683310627,0.1464434415102005,-0.1431766152381897,0.0384885743260383,0.1698051840066909,0.0,0.0,0.0755963325500488,-0.5628141760826111
-0.073433019220829,0.0084803318604826,0.1513012647628784,-0.1309383958578109,0.0483183972537517,0.1965962052345276,0.0,0.0,-0.173970341682434,-0.0304483771324157
-0.0717959403991699,0.0049743987619876,0.1537162363529205,-0.1561700850725174,0.0582008399069309,0.1976489722728729,0.0,0.0,0.1786317825317382,-0.1272673606872558
-0.0703916549682617,0.0023556684609502,0.1501515805721283,-0.1160577982664108,0.0485180504620075,-0.1937401592731475,0.0,1.0,0.3180707693099975,-0.1127835512161254
-0.0691719055175781,0.0005940294358879,0.1483144760131836,-0.0776776522397995,0.0224165935069322,-0.5221434235572815,0.0,1.0,0.3356683254241943,-0.4894756078720093
-0.0678826346993446,-0.0011898183729499,0.1542515605688095,-0.0790936797857284,-0.002581077395007,-0.4999536871910095,0.0,1.0,0.442195177078247,-0.508560061454773
-0.0666643157601356,-0.0019960904028266,0.128176137804985,-0.035860076546669,-0.0088194292038679,-0.1247426122426986,1.0,1.0,0.086262822151184,-0.9634555578231812
-0.0656577125191688,-0.0018402361311018,0.0994705110788345,0.0069285403005778,-0.0076214242726564,0.0239794701337814,1.0,1.0,-0.6202845573425293,-0.9884177446365356
-0.0648115128278732,-0.0012271190062165,0.0799146145582199,0.0272668991237878,-0.0029707686044275,0.0930228605866432,1.0,1.0,-0.7024472951889038,-0.9425278306007384
-0.0640997886657714,-0.0010679030092433,0.0699261799454689,0.007079204544425,-0.0017399790231138,0.0246155261993408,1.0,1.0,-0.5745370388031006,-0.9416691660881042
-0.063509464263916,-0.0010699057020246,0.0590325519442558,-8.9474611741025e-05,-0.0017410613363608,-2.0660727386712097e-05,1.0,1.0,-0.6413754820823669,-0.8871822953224182
-0.0630443543195724,-0.0010709785856306,0.0465152226388454,-4.7038844058988616e-05,-0.0017416167538613,-1.0858075256692246e-05,1.0,1.0,-0.3170317411422729,-0.8723405003547668
-0.0627129524946212,-0.0010709785856306,0.0331440083682537,1.3091416803945322e-06,-0.0017416067421436,3.041002685222338e-07,1.0,1.0,-0.5315849184989929,-0.521968424320221
