x_pos,y_pos,x_vel,y_vel,angle,ang_vel,leg_1,leg_2,main_booster,lat_booster
-0.0015839576954022,1.403264403343201,-0.1602796614170074,-0.3402604758739471,0.0016876556910574,0.0332851149141788,0.0,0.0,-0.1464938521385193,0.8496899604797363
-0.0031554221641272,1.3952674865722656,-0.156836986541748,-0.3554167449474334,0.0013837614096701,-0.0060781328938901,0.0,0.0,0.0083444118499755,0.1465914249420166
-0.0047046663239598,1.387279987335205,-0.1548821181058883,-0.3550044894218445,0.0013474362203851,-0.0007266246248036,0.0,0.0,-0.1249558925628662,0.4525123834609985
-0.0063118934631347,1.378931999206543,-0.1605603992938995,-0.3710211515426636,0.0011863519903272,-0.0032218410633504,0.0,0.0,0.2693026065826416,0.8427913188934326
-0.0077973366715013,1.3709783554077148,-0.1466812789440155,-0.3534970581531524,-0.0006479128496721,-0.0366890504956245,0.0,0.0,-0.2512651681900024,0.7889213562011719
-0.009262466803193,1.3626631498336792,-0.1426066160202026,-0.3695682883262634,-0.0045217191800475,-0.0774831026792526,0.0,0.0,0.3419764041900635,0.355682373046875
-0.0107989311218261,1.354691743850708,-0.149514764547348,-0.3543001115322113,-0.00860605109483,-0.0816942304372787,0.0,0.0,-0.1012514233589172,0.3470335006713867
-0.0123892780393362,1.346360206604004,-0.1547851264476776,-0.3703170418739319,-0.0128142861649394,-0.0841719433665275,0.0,0.0,-0.3511558771133423,-0.1400912404060363
-0.0140325548127293,1.3376688957214355,-0.1599466800689697,-0.3863263428211212,-0.0171461440622806,-0.08664520829916,0.0,0.0,-0.1403009295463562,0.5953631401062012
-0.0156807899475097,1.328620195388794,-0.1591168344020843,-0.4022402465343475,-0.0227794460952281,-0.1126764267683029,0.0,0.0,-0.1278691291809082,0.5166069269180298
-0.0173329357057809,1.319210648536682,-0.1582111120223999,-0.4183260500431061,-0.0297058746218681,-0.1385413706302642,0.0,0.0,-0.1383599042892456,0.839510440826416
-0.0189605709165334,1.309436559677124,-0.1537515223026275,-0.4346008896827698,-0.0386151559650898,-0.1782018095254898,0.0,0.0,-0.1252743005752563,0.2571699619293213
-0.0206362716853618,1.299303412437439,-0.1584304869174957,-0.4506176710128784,-0.0476471707224845,-0.180657148361206,0.0,0.0,-0.0081613659858703,0.8683314323425293
-0.022282600402832,1.2887979745864868,-0.1534454226493835,-0.4672983288764953,-0.0587246380746364,-0.2215697020292282,0.0,0.0,-0.270240306854248,0.8625349998474121
-0.0238901134580373,1.2779359817504885,-0.1473138630390167,-0.4833353459835052,-0.0720356777310371,-0.2662448287010193,0.0,0.0,0.470862865447998,0.4785940647125244
-0.0254251472651958,1.267101526260376,-0.1404177248477935,-0.482209712266922,-0.0850102603435516,-0.2595154047012329,0.0,0.0,-0.347774863243103,0.0745437145233154
-0.0270027164369821,1.255909442901611,-0.1445670127868652,-0.4982382357120514,-0.0981090292334556,-0.2619991898536682,0.0,0.0,-0.2140572071075439,-0.4295191764831543
-0.0286215785890817,1.2443591356277466,-0.1485784351825714,-0.5142639875411987,-0.1113311797380447,-0.2644669711589813,0.0,0.0,-0.0979736447334289,-0.404377281665802
-0.0302802082151174,1.232451319694519,-0.1524508893489837,-0.5302907824516296,-0.1246770918369293,-0.2669424414634704,0.0,0.0,-0.7021388411521912,-0.3688211441040039
-0.031977079808712,1.2201859951019287,-0.1561818122863769,-0.5463187098503113,-0.1381469517946243,-0.2694215774536133,0.0,0.0,0.3257632255554199,-0.3700512647628784
-0.0335264205932617,1.2084380388259888,-0.1417971551418304,-0.5234032869338989,-0.1512634009122848,-0.2623524069786072,0.0,0.0,0.1594187021255493,-0.0615503787994384
-0.0350562110543251,1.1967906951904297,-0.1397888660430908,-0.5190537571907043,-0.1644664108753204,-0.2640840411186218,0.0,0.0,-0.2507123947143554,-0.7649648785591125
-0.0366668701171875,1.1847960948944092,-0.1489728391170501,-0.5344799757003784,-0.1765934824943542,-0.2425630986690521,0.0,0.0,-0.1810564994812011,-0.8849426507949829
-0.0383720397949218,1.1724495887756348,-0.1598847806453704,-0.55002760887146,-0.1872844994068145,-0.2138394862413406,0.0,0.0,0.5848754644393921,-0.5208663940429688
-0.0401770584285259,1.1607083082199097,-0.1704192459583282,-0.523145318031311,-0.1974404603242874,-0.2031372487545013,0.0,0.0,0.1029859781265258,-0.3467570543289184
-0.0420178398489952,1.1493072509765625,-0.1734355837106704,-0.5081678628921509,-0.2081727683544159,-0.2146460711956024,0.0,0.0,-0.5116263031959534,-0.7421537637710571
-0.0439435020089149,1.1375705003738403,-0.1832806169986724,-0.5229772329330444,-0.2175461500883102,-0.1874676644802093,0.0,0.0,0.4289904832839966,-0.4925255179405212
-0.0458523742854595,1.1265571117401123,-0.1809844672679901,-0.4909787178039551,-0.2275700718164444,-0.2004787176847458,0.0,0.0,0.0654760599136352,-0.2150588631629943
-0.0477560982108116,1.1159436702728271,-0.179973229765892,-0.4733472764492035,-0.2381110936403274,-0.2108207941055297,0.0,0.0,-0.8875582218170166,-0.3636029958724975
-0.0496837608516216,1.104972004890442,-0.1822724789381027,-0.4893673062324524,-0.2487799674272537,-0.2133776396512985,0.0,0.0,-0.8906112313270569,-0.6561114192008972
-0.0516812317073345,1.0936675071716309,-0.1904256492853164,-0.5040321946144104,-0.2582858502864837,-0.1901175081729889,0.0,0.0,-0.6491629481315613,-0.9340339303016664
-0.053781222552061,1.0820308923721311,-0.2026557177305221,-0.5185009241104126,-0.2657907903194427,-0.1500981748104095,0.0,0.0,-0.3157000541687011,-0.6088868975639343
-0.0559526458382606,1.0700620412826538,-0.2110570967197418,-0.533066987991333,-0.2720158994197845,-0.1245023384690284,0.0,0.0,0.4854471683502197,-0.7307262420654297
-0.058173082768917,1.058244705200195,-0.2171792536973953,-0.5261256098747253,-0.2770017385482788,-0.0997169464826583,0.0,0.0,-0.0396845340728759,-0.2776685953140259
-0.0604104995727539,1.0460680723190308,-0.2187636345624923,-0.5421388745307922,-0.2821139097213745,-0.1022432595491409,0.0,0.0,0.9897472858428956,0.0744000673294067
-0.0623888000845909,1.0348351001739502,-0.1928463131189346,-0.5002140998840332,-0.2872503697872162,-0.1027290821075439,0.0,0.0,-0.1528137922286987,-0.8007742166519165
-0.0644454956054687,1.0232669115066528,-0.2022007405757904,-0.5148344039916992,-0.290818452835083,-0.0713615715503692,0.0,0.0,0.5940430164337158,-0.5793675184249878
-0.066309355199337,1.012401103973389,-0.1840519905090332,-0.4833893775939941,-0.2932330369949341,-0.0482909902930259,0.0,0.0,-0.3731516599655151,-0.5208490490913391
-0.0682257637381553,1.0012001991271973,-0.1902769654989242,-0.4980926215648651,-0.2946361005306244,-0.0280620958656072,0.0,0.0,0.6674938201904297,-0.4789162278175354
-0.0699471458792686,0.9905079007148744,-0.1707928627729416,-0.4754919111728668,-0.2960278391838074,-0.0278345849364995,0.0,0.0,-0.35287606716156,-0.6278033256530762
-0.0717324241995811,0.9794862270355223,-0.1785305440425872,-0.4898502230644226,-0.2960301339626312,-4.570297460304573e-05,0.0,0.0,0.7559778690338135,-0.4625025987625122
-0.0732381790876388,0.968845784664154,-0.1510388851165771,-0.4728134870529175,-0.2955422401428222,0.0097576435655355,0.0,0.0,-0.505700409412384,-0.677099883556366
-0.0747951492667198,0.9578580260276794,-0.1571706533432006,-0.4880477488040924,-0.2940216362476349,0.0304117705672979,0.0,0.0,0.5226359367370605,-0.3017950057983398
-0.0761292427778244,0.9471702575683594,-0.1351865828037262,-0.4746589958667755,-0.2921894490718841,0.0366444773972034,0.0,0.0,0.1215744018554687,-0.8811020255088806
-0.0775100737810134,0.9364438652992249,-0.1414752304553985,-0.4760528206825256,-0.2886925935745239,0.0699373334646225,0.0,0.0,0.2677751779556274,-0.5563814043998718
-0.0788278579711914,0.9257233142852784,-0.1362394243478775,-0.4755886793136596,-0.284099817276001,0.0918560773134231,0.0,0.0,0.6188048124313354,-0.7216480374336243
-0.0800182372331619,0.9152665734291076,-0.1249462217092514,-0.4636093378067016,-0.2780197262763977,0.1216016188263893,0.0,0.0,0.0618218183517456,-0.2126781940460205
-0.0811327919363975,0.905252993106842,-0.1169633865356445,-0.444010853767395,-0.2723716199398041,0.1129617244005203,0.0,0.0,-0.8102745413780212,-0.3114866018295288
-0.0822484046220779,0.894879937171936,-0.1169855445623397,-0.4600239396095276,-0.266817033290863,0.1110917776823043,0.0,0.0,-0.6600408554077148,-0.0512300729751586
-0.0833642929792404,0.8841473460197449,-0.1169299855828285,-0.4760367572307586,-0.2613512575626373,0.109315738081932,0.0,0.0,-0.6659714579582214,-0.2175142168998718
-0.0844796150922775,0.8730553388595581,-0.1168018355965614,-0.4920493960380554,-0.2559691965579986,0.1076409816741943,0.0,0.0,-0.975966453552246,-0.390213131904602
-0.0855937004089355,0.8616037964820862,-0.1166062951087951,-0.5080618262290955,-0.2506654560565948,0.1060749292373657,0.0,0.0,-0.8073481321334839,-0.6545771956443787
-0.0867473632097244,0.8498048186302185,-0.1215639933943748,-0.5233510732650757,-0.244354709982872,0.1262148320674896,0.0,0.0,-0.9062676429748536,-0.2686339020729065
-0.0878984481096267,0.8376464247703552,-0.1212499141693115,-0.5393640398979187,-0.2381103187799453,0.1248880177736282,0.0,0.0,-0.9838717579841614,0.4384580850601196
-0.0890463814139366,0.8251286149024963,-0.1208843141794204,-0.5553768873214722,-0.2319257259368896,0.1236914247274398,0.0,0.0,-0.9504027366638184,-0.2918089032173157
-0.0901905074715614,0.8122511506080627,-0.120472565293312,-0.5713894367218018,-0.2257941514253616,0.1226314455270767,0.0,0.0,-0.9746193289756776,-0.151534616947174
-0.0913306251168251,0.7990142107009888,-0.1200199872255325,-0.5874019265174866,-0.2197084575891494,0.1217141970992088,0.0,0.0,-0.8963520526885986,-0.4645811319351196
-0.0924661606550216,0.7854176163673401,-0.1195319667458534,-0.6034141182899475,-0.2136612087488174,0.1209449172019958,0.0,0.0,-0.9514060616493224,0.2563819885253906
-0.0935967415571212,0.771461546421051,-0.1190138012170791,-0.6194260120391846,-0.2076447755098343,0.1203283295035362,0.0,0.0,-0.8859208822250366,0.0106137990951538
-0.0947219878435134,0.7571455836296082,-0.1184708476066589,-0.6354378461837769,-0.2016513496637344,0.119868203997612,0.0,0.0,-0.9421581625938416,-0.594027578830719
-0.0958844199776649,0.7424779534339905,-0.1232657879590988,-0.6509532928466797,-0.1945843696594238,0.1413396298885345,0.0,0.0,-0.8331555128097534,-0.1891971826553344
-0.0970411300659179,0.7274508476257324,-0.1226894855499267,-0.6669660210609436,-0.1875243633985519,0.1412000358104705,0.0,0.0,-0.6975774168968201,0.0163071155548095
-0.0981918349862098,0.712064266204834,-0.1221041828393936,-0.6829785108566284,-0.1804632097482681,0.1412227898836136,0.0,0.0,-0.5071234703063965,0.3935173749923706
-0.09933652728796,0.6963180899620056,-0.1215150952339172,-0.6989908814430237,-0.1733928173780441,0.1414078474044799,0.0,0.0,-0.708884596824646,0.6592357158660889
-0.1004237160086631,0.6801936030387878,-0.1144501343369484,-0.7159796953201294,-0.1676465421915054,0.1149255260825157,0.0,0.0,-0.2667111158370971,0.4791337251663208
-0.1015047058463096,0.6637094020843506,-0.1138684526085853,-0.7319904565811157,-0.1618749648332595,0.1154315322637558,0.0,0.0,0.3652244806289673,0.0454895496368408
-0.1024480834603309,0.6479079723358154,-0.1002295762300491,-0.7016536593437195,-0.1559882014989853,0.1177353709936142,0.0,0.0,-0.414276659488678,0.4440796375274658
-0.1033855453133583,0.6317469477653503,-0.0996758714318275,-0.7176644802093506,-0.1500606387853622,0.1185513511300087,0.0,0.0,0.1169127225875854,0.6058194637298584
-0.1041624993085861,0.6160733699798584,-0.0825060307979583,-0.6961247324943542,-0.1452628523111343,0.0959557816386222,0.0,0.0,-0.5343778729438782,0.3867971897125244
-0.1049338355660438,0.6000397801399231,-0.0819996371865272,-0.7121343612670898,-0.1404096037149429,0.0970649346709251,0.0,0.0,0.6385905742645264,0.6112821102142334
-0.1056549996137619,0.5846567153930664,-0.0756005868315696,-0.6833713054656982,-0.1369495689868927,0.069200649857521,0.0,0.0,-0.09451425075531,0.4055056571960449
-0.106371209025383,0.5689134001731873,-0.0751605406403541,-0.6993799209594727,-0.1334204822778701,0.0705818012356758,0.0,0.0,0.8219923973083496,-0.3928326964378357
-0.1070995330810546,0.5542228817939758,-0.0757886990904808,-0.6526491641998291,-0.1304731220006942,0.0589473135769367,0.0,0.0,-0.5104804039001465,0.379605770111084
-0.1078234687447547,0.5391721725463867,-0.0754334181547164,-0.6686574220657349,-0.1274442821741104,0.0605766959488391,0.0,0.0,0.3177380561828613,0.1496922969818115
-0.1085303276777267,0.5242305397987366,-0.0737039372324943,-0.6638217568397522,-0.1244526654481887,0.0598327741026878,0.0,0.0,0.2983326911926269,0.3258171081542969
-0.1091490760445594,0.5092988610267639,-0.0652249902486801,-0.6633530259132385,-0.1211211904883384,0.066629558801651,0.0,0.0,0.6727895736694336,0.0445762872695922
-0.1097551360726356,0.4945245385169983,-0.0639031380414962,-0.6563721299171448,-0.1178399249911308,0.0656251981854438,0.0,0.0,0.3154608011245727,0.7274024486541748
-0.110234260559082,0.4803283512592315,-0.0498474016785621,-0.630787193775177,-0.1159157529473304,0.0384834855794906,0.0,0.0,0.4109972715377807,0.0656625032424926
-0.1105630844831466,0.4667981564998626,-0.0352466739714145,-0.6011620759963989,-0.1135682091116905,0.0469507724046707,0.0,0.0,-0.4429203271865845,0.2671287059783935
-0.1108908653259277,0.4529075920581817,-0.0352469608187675,-0.617169976234436,-0.1111092194914817,0.0491798482835292,0.0,0.0,0.3808680772781372,0.4319028854370117
-0.1112949401140213,0.4390875101089477,-0.0424934029579162,-0.614073634147644,-0.1090349853038787,0.041484598070383,0.0,0.0,0.5680655241012573,0.4348337650299072
-0.1115795150399208,0.426019549369812,-0.0308478772640228,-0.5806251764297485,-0.1066644191741943,0.0474112033843994,0.0,0.0,0.1787391901016235,-0.2351200580596923
-0.1118933707475662,0.4132152795791626,-0.033555194735527,-0.5689257979393005,-0.1045054793357849,0.0431786924600601,0.0,0.0,0.4807831048965454,0.4424968957901001
-0.112194538116455,0.4009645879268646,-0.0321845635771751,-0.5443277955055237,-0.1024477258324623,0.041155107319355,0.0,0.0,-0.3923852443695068,0.8741343021392822
-0.1124305725097656,0.3883476853370666,-0.0240873359143733,-0.5607183575630188,-0.1019676327705383,0.0096020558848977,0.0,0.0,0.5542871952056885,-0.1918057799339294
-0.1125328093767166,0.3761746883392334,-0.0112205231562256,-0.5409561991691589,-0.1009759455919265,0.0198336374014616,0.0,0.0,0.3300416469573974,-0.2501959800720215
-0.1125926971435546,0.3640496730804443,-0.0072080590762197,-0.5388080477714539,-0.0997611060738563,0.0242967959493398,0.0,0.0,-0.2142865657806396,0.1414394378662109
-0.112657830119133,0.3515642285346985,-0.007877092808485,-0.5548155307769775,-0.0984087884426117,0.027046388015151,0.0,0.0,0.7642334699630737,0.0146697759628295
-0.1125128716230392,0.3396056592464447,0.0122540798038244,-0.5313477516174316,-0.0961898416280746,0.0443790704011917,0.0,0.0,0.5056183338165283,-0.0024124383926391
-0.1122141852974891,0.3278050720691681,0.0268980208784341,-0.5242804884910583,-0.0932410284876823,0.0589760839939117,0.0,0.0,0.6997501850128174,-0.2810804843902588
-0.1118574142456054,0.316799521446228,0.0325824134051799,-0.4889502823352813,-0.0901748239994049,0.0613243170082569,0.0,0.0,0.1532366275787353,0.8557770252227783
-0.1113693267107009,0.3062185049057007,0.0472783036530017,-0.470175176858902,-0.0886532366275787,0.0304313860833644,0.0,0.0,-0.2934702038764953,0.0618255138397216
-0.1108913421630859,0.2952771782875061,0.0461147651076316,-0.4861826300621032,-0.0869832709431648,0.0333991274237632,0.0,0.0,0.0493535995483398,-0.1342096924781799
-0.1103426963090896,0.2842769622802734,0.0527326092123985,-0.4887736737728119,-0.084866777062416,0.0423297733068466,0.0,0.0,0.5423369407653809,-0.488089382648468
-0.109814740717411,0.2736332416534424,0.0507346801459789,-0.4729383289813995,-0.0828252136707305,0.0408313311636447,0.0,0.0,0.2017500400543213,-0.5753688216209412
-0.1092252731323242,0.2635714709758758,0.055446058511734,-0.4469989836215973,-0.0793581083416938,0.0693420395255088,0.0,0.0,0.0919772386550903,0.3993191719055176
-0.1086355224251747,0.2537138760089874,0.0553852207958698,-0.4379307925701141,-0.0758070573210716,0.071021057665348,0.0,0.0,-0.2073496580123901,0.4051233530044555
-0.1080610305070877,0.2434960156679153,0.0537002980709075,-0.4539393186569214,-0.0720992684364318,0.0741558894515037,0.0,0.0,0.1596606969833374,0.3759280443191528
-0.1074067130684852,0.2336443811655044,0.0612487494945526,-0.4376570880413055,-0.0679506659507751,0.0829717367887497,0.0,0.0,0.096597671508789,0.4719774723052978
-0.1067712754011154,0.2241814732551574,0.0593579933047294,-0.4203901588916778,-0.0638069212436676,0.0828749388456344,0.0,0.0,-0.405443787574768,0.4158774614334106
-0.1061540618538856,0.2143584340810775,0.0573592893779277,-0.4363991320133209,-0.0595023110508918,0.0860923156142234,0.0,0.0,-0.0619349479675293,0.4177939891815185
-0.1055562943220138,0.2041754126548767,0.0552572011947631,-0.4524082839488983,-0.0550355724990367,0.0893347263336181,0.0,0.0,0.3981049060821533,0.8874411582946777
-0.104992963373661,0.1943987905979156,0.0535558983683586,-0.434416264295578,-0.0522860623896122,0.0549903735518455,0.0,0.0,0.5070722103118896,0.5549014806747437
-0.1045302376151084,0.1849845200777053,0.044806532561779,-0.4183608293533325,-0.0508356131613254,0.0290089361369609,0.0,0.0,0.1804237365722656,-0.0654151439666748
-0.1039881706237793,0.1759733706712722,0.0522159524261951,-0.4004281461238861,-0.0488695576786994,0.0393210425972938,0.0,0.0,0.0652041435241699,-0.0434475541114807
-0.1034184470772743,0.1669555753469467,0.0546405091881752,-0.4007182717323303,-0.046553935855627,0.0463121905922889,0.0,0.0,0.1242823600769043,0.3985582590103149
-0.1027501076459884,0.1583484709262848,0.0638560652732849,-0.3824445605278015,-0.0436141639947891,0.0587953813374042,0.0,0.0,0.0135928392410278,-0.2734720706939697
-0.1021002754569053,0.1500957161188125,0.0619018077850341,-0.3667048513889313,-0.0405707992613315,0.0608672127127647,0.0,0.0,0.1763288974761963,-0.5813994407653809
-0.1013853102922439,0.1423974186182022,0.0668762624263763,-0.3420291841030121,-0.0360045582056045,0.0913247168064117,0.0,0.0,-0.5409119129180908,0.1060051918029785
-0.100697323679924,0.1343391239643097,0.0639984458684921,-0.3580388724803924,-0.0312680453062057,0.0947304517030716,0.0,0.0,0.1800324916839599,0.7600077390670776
-0.0999646186828613,0.1268001943826675,0.0698360204696655,-0.334997147321701,-0.0278770625591278,0.0678196549415588,0.0,0.0,-0.0763627290725708,0.2982072830200195
-0.0992607101798057,0.1189011186361312,0.0667853131890297,-0.3510061502456665,-0.0243142154067754,0.0712570622563362,0.0,0.0,0.3004907369613647,0.0239443778991699
-0.0985141769051551,0.1111808642745018,0.0705742985010147,-0.343060553073883,-0.0202854089438915,0.0805763453245163,0.0,0.0,0.3672107458114624,0.8616824150085449
-0.0978343933820724,0.1038708090782165,0.0655744895339012,-0.3248615860939026,-0.0179171040654182,0.047366090118885,0.0,0.0,0.1714257001876831,0.3711649179458618
-0.0972702950239181,0.0967503637075424,0.0542666129767894,-0.3164381384849548,-0.0157958790659904,0.0424242466688156,0.0,0.0,0.5571527481079102,0.8642557859420776
-0.096683882176876,0.0900650098919868,0.0580839104950428,-0.297118991613388,-0.0152514176443219,0.0108895022422075,0.0,0.0,0.050155758857727,0.7782262563705444
-0.096044160425663,0.0835247859358787,0.0648006945848465,-0.2906863093376159,-0.0160700418055057,-0.0163723211735487,0.0,0.0,-0.002865731716156,0.6894106864929199
-0.0953713431954383,0.0766164138913154,0.0696232467889785,-0.307063490152359,-0.0183818284422159,-0.0462355837225914,0.0,0.0,0.790945291519165,-0.3643190860748291
-0.0946129783987999,0.0704566314816474,0.0774936005473136,-0.2737888395786285,-0.0200288873165845,-0.0329410545527935,0.0,0.0,-0.3023311495780945,-0.1541758179664611
-0.0938892364501953,0.0639367178082466,0.0738701894879341,-0.2897971868515014,-0.0214994959533214,-0.0294119659811258,0.0,0.0,0.6375579833984375,0.8081948757171631
