x_pos,y_pos,x_vel,y_vel,angle,ang_vel,leg_1,leg_2,main_booster,lat_booster
-0.0015295029152184,1.4035241603851318,-0.1552987694740295,-0.3287104368209839,0.0020973545033484,0.041397139430046,0.0,0.0,0.396484669771088,0.9279788193372552
-0.0029429434798657,1.3966317176818848,-0.141925647854805,-0.3063303232192993,0.0026738431770354,0.0115315709263086,0.0,0.0,0.7115591046770688,0.830144864252515
-0.0041454313322901,1.390260934829712,-0.1197824627161026,-0.2831432223320007,0.0022147695999592,-0.009182121604681,0.0,0.0,0.0587689620146567,-0.4899874730782692
-0.0054309843108057,1.3842697143554688,-0.1280191391706466,-0.2662738859653473,0.0016857857117429,-0.0105807874351739,0.0,0.0,0.212384474229363,0.8557909088985757
-0.0065470696426928,1.3788992166519165,-0.1097413897514343,-0.2386920303106308,-0.0001575152855366,-0.0368692576885223,0.0,0.0,0.4924051752187812,-0.1287370683723643
-0.0075450898148119,1.37416410446167,-0.0988234505057334,-0.2104504704475402,-0.0011296956799924,-0.0194455105811357,0.0,0.0,0.1032423306220582,0.6029190087603096
-0.0085184099152684,1.3699069023132324,-0.0953736528754234,-0.1892082691192627,-0.0030555501580238,-0.0385207496583461,0.0,0.0,0.5931550993874113,-0.8397125268970663
-0.0094015123322606,1.3664872646331787,-0.0885875672101974,-0.1519853770732879,-0.0027854773215949,0.005401805974543,0.0,0.0,0.457216752759545,0.1628873978923057
-0.0102996826171875,1.3640742301940918,-0.09027960896492,-0.1072423905134201,-0.0023215329274535,0.0092797828838229,0.0,0.0,-0.0887488941584775,0.6558609021366616
-0.011152553372085,1.3615646362304688,-0.0846862867474556,-0.1115355268120765,-0.0029203831218183,-0.0119781279936432,0.0,0.0,-0.3921335016432787,0.776443187457182
-0.0119421007111668,1.358955144882202,-0.0767863243818283,-0.1159834414720535,-0.005055128596723,-0.0426991507411003,0.0,0.0,0.8799844284974512,0.9777170468010796
-0.0125683788210153,1.3571438789367676,-0.0588798634707927,-0.0805224627256393,-0.0087644029408693,-0.074192427098751,0.0,0.0,0.5365274845704613,-0.8011231208733307
-0.0131237981840968,1.3562109470367432,-0.0538296811282634,-0.0414722524583339,-0.0104596782475709,-0.0339083299040794,0.0,0.0,-0.6859653088671129,0.5468190838191933
-0.0136379245668649,1.3551719188690186,-0.0486553087830543,-0.0462051220238208,-0.0131836747750639,-0.0544849038124084,0.0,0.0,-0.0846575992531002,0.6239358757502206
-0.0140978815034031,1.354037880897522,-0.0418707355856895,-0.0504417493939399,-0.0172669012099504,-0.081672117114067,0.0,0.0,-0.8140967972157236,0.2826224943062873
-0.0145646091550588,1.3528038263320925,-0.0426995828747749,-0.0549029484391212,-0.021198334172368,-0.0786355882883071,0.0,0.0,0.993191175050617,0.9730753639902776
-0.0147555349394679,1.353020191192627,-0.0136452186852693,0.009535726159811,-0.0265860129147768,-0.1077631711959838,0.0,0.0,-0.9344427210347408,-0.6828528016865466
-0.0149945262819528,1.353132247924805,-0.0196275152266025,0.004894723650068,-0.0308195389807224,-0.084678016602993,0.0,0.0,0.1311324662145798,-0.484237538175794
-0.0151571277529001,1.3539650440216064,-0.0124015239998698,0.0369314886629581,-0.034640721976757,-0.0764304399490356,0.0,0.0,-0.7234510152219367,0.2433912986766661
-0.0153267858549952,1.3546977043151855,-0.0131940050050616,0.032463751733303,-0.0383779183030128,-0.0747502744197845,0.0,0.0,-0.8042921809695376,0.9385232828501952
-0.0154135702177882,1.3553317785263062,-0.0026900155935436,0.0280216820538043,-0.0443080700933933,-0.1186134666204452,0.0,0.0,-0.2809214336708494,-0.2939729346781918
-0.0155075071379542,1.3558659553527832,-0.0034522041678428,0.0235583111643791,-0.050189733505249,-0.1176436766982078,0.0,0.0,0.3172720907947624,-0.6057262572367025
-0.0155210494995117,1.3569447994232178,0.0031168577261269,0.0477901436388492,-0.0546172969043254,-0.088559053838253,0.0,0.0,0.1965137631553839,-0.7378263153208242
-0.0155308721587061,1.3582537174224854,0.0019334468524903,0.0580680780112743,-0.0575060918927192,-0.0577808134257793,0.0,0.0,-0.8013381918300178,-0.9422626547415524
-0.0156400687992572,1.3594729900360107,-0.0103259291499853,0.0541651397943496,-0.0580886453390121,-0.0116523187607526,0.0,0.0,-0.4497025747062504,-0.2427822201117292
-0.0157575607299804,1.3605704307556152,-0.011127732694149,0.0487537309527397,-0.0587030984461307,-0.0122890528291463,0.0,0.0,0.8332911663518023,0.7753763985845811
-0.0157692916691303,1.362773895263672,0.0010573600884526,0.0978390946984291,-0.0609024278819561,-0.0439866781234741,0.0,0.0,-0.7051641596714351,-0.9494003376223537
-0.0158793441951274,1.3648951053619385,-0.0110397674143314,0.0942830294370651,-0.0608728528022766,0.0005913934437558,0.0,0.0,0.8604973200490815,0.1786720211230813
-0.0160906799137592,1.3682355880737305,-0.0203774254769086,0.1484370529651641,-0.061617013067007,-0.0148831559345126,0.0,0.0,-0.9594575885757766,-0.9313939976822534
-0.0163859371095895,1.3714793920516968,-0.0305899232625961,0.1442154943943023,-0.060558196157217,0.021176166832447,0.0,0.0,-0.2742900255360139,0.8249543483147728
-0.0166212078183889,1.3746262788772583,-0.0227454882115125,0.1398286521434784,-0.0613262914121151,-0.0153618957847356,0.0,0.0,-0.432553231716156,-0.869606614112854
-0.016941737383604,1.3776750564575195,-0.0330988392233848,0.1355429142713546,-0.0602977946400642,0.0205701235681772,0.0,0.0,-0.4302781224250793,-0.4612476825714111
-0.0172698982059955,1.380623698234558,-0.0336754582822322,0.1310838311910629,-0.05944699421525,0.0170161090791225,0.0,0.0,-0.679721474647522,-0.4683073759078979
-0.0176055915653705,1.3834720849990845,-0.0342265851795673,0.1266247034072876,-0.0587946586310863,0.0130467163398861,0.0,0.0,-0.5782406330108643,-0.4945387840270996
-0.0179487224668264,1.3862205743789673,-0.0347509495913982,0.1221654862165451,-0.0583613589406013,0.0086657889187335,0.0,0.0,-0.6236598491668701,-0.5762536525726318
-0.018343161791563,1.388877034187317,-0.0407701730728149,0.118113599717617,-0.0570542849600315,0.0261414535343647,0.0,0.0,-0.6422271728515625,-0.4810011386871338
-0.018744945526123,1.3914332389831543,-0.0412372574210166,0.1136541366577148,-0.0560066103935241,0.0209535248577594,0.0,0.0,-0.768161416053772,-0.1833643317222595
-0.0191539768129587,1.393889546394348,-0.0416738502681255,0.1091946512460708,-0.055237989872694,0.0153721524402499,0.0,0.0,-0.7121994495391846,-0.6731647253036499
-0.0196263305842876,1.3962578773498535,-0.0491613447666168,0.1053290516138076,-0.0533390678465366,0.0379784703254699,0.0,0.0,-0.566485583782196,-0.3473872542381286
-0.0201057437807321,1.3985260725021362,-0.0495334789156913,0.1008692532777786,-0.0517573058605194,0.0316351577639579,0.0,0.0,-0.5333762764930725,-0.3026332259178161
-0.0205917358398437,1.4006943702697754,-0.0498717501759529,0.0964094921946525,-0.0505110621452331,0.0249249394983053,0.0,0.0,-0.5335937142372131,-0.5170257687568665
-0.0211170203983783,1.402763843536377,-0.0542554259300231,0.092035211622715,-0.0488004609942436,0.0342123657464981,0.0,0.0,-0.4947118759155273,-0.5529590845108032
-0.0216856002807617,1.404729962348938,-0.0591421499848365,0.0874536782503128,-0.0465387962758541,0.0452329888939857,0.0,0.0,-0.5252393484115601,-0.2300474643707275
-0.0222603790462017,1.406596064567566,-0.059373389929533,0.082993634045124,-0.0446644723415374,0.0374862551689147,0.0,0.0,-0.5475513339042664,-0.5375312566757202
-0.0228867530822753,1.4083586931228638,-0.0652782618999481,0.0784202888607978,-0.0420530252158641,0.0522289387881755,0.0,0.0,-0.6909669637680054,-0.2186607122421264
-0.0235188491642475,1.410021424293518,-0.0654346793889999,0.0739601552486419,-0.0398605577647686,0.043849378824234,0.0,0.0,-0.8155094981193542,-0.4196453094482422
-0.0241566654294729,1.4115841388702393,-0.0655530020594596,0.0695002153515815,-0.0381019711494445,0.0351717881858348,0.0,0.0,-0.6321115493774414,-0.4910963177680969
-0.0247996337711811,1.4130468368530271,-0.0656330063939094,0.0650404393672943,-0.0367915481328964,0.0262086279690265,0.0,0.0,-0.5020437240600586,-0.7300384044647217
-0.0255181305110454,1.4144197702407837,-0.074498564004898,0.0610838681459426,-0.034169964492321,0.0524314157664775,0.0,0.0,-0.4295583963394165,-0.0987381339073181
-0.0262413974851369,1.415692687034607,-0.0745017826557159,0.0566238574683666,-0.0320232398808002,0.0429345145821571,0.0,0.0,-0.4339357614517212,-0.5427160859107971
-0.0270020477473735,1.4168670177459717,-0.0785701125860214,0.0522451810538768,-0.0295414570719003,0.0496355518698692,0.0,0.0,-0.5247962474822998,-0.4972375631332397
-0.0277668945491313,1.417941331863403,-0.0784972831606864,0.0477853454649448,-0.0275587420910596,0.0396542735397815,0.0,0.0,-0.6160192489624023,-0.4909285306930542
-0.0285358428955078,1.418915629386902,-0.0783870667219162,0.0433257594704628,-0.0260863061994314,0.0294489115476608,0.0,0.0,-0.6410050988197327,-0.5463483333587646
-0.0293515212833881,1.419796347618103,-0.0836254507303237,0.0391841381788253,-0.0240534599870443,0.0406568311154842,0.0,0.0,-0.3572688102722168,-0.3197213411331177
-0.0301707275211811,1.4205772876739502,-0.0834424048662185,0.0347246415913105,-0.0225515402853488,0.0300381984561681,0.0,0.0,-0.4872484803199768,-0.4566593170166015
-0.0309932716190814,1.421257734298706,-0.083224132657051,0.030265349894762,-0.0215900503098964,0.0192297287285327,0.0,0.0,-0.6176878809928894,-0.5919278264045715
-0.0318582542240619,1.4218449592590332,-0.0879222676157951,0.0261194687336683,-0.0201841630041599,0.0281179454177618,0.0,0.0,-0.3090635538101196,-0.5665661096572876
-0.0327606201171875,1.422335505485535,-0.0919687002897262,0.02182088047266,-0.0184674300253391,0.0343347862362861,0.0,0.0,-0.5137507319450378,-0.5335326194763184
-0.0337023735046386,1.4227323532104492,-0.0962832421064376,0.017663013190031,-0.0163867529481649,0.0416137687861919,0.0,0.0,-0.3274776339530945,-0.1338099241256714
-0.0346464142203331,1.4230290651321411,-0.0959341004490852,0.0132037829607725,-0.0148792881518602,0.0301493648439645,0.0,0.0,-0.674487829208374,-0.7227280735969543
-0.0356449112296104,1.4232206344604492,-0.102126620709896,0.0085310507565736,-0.0126373507082462,0.0448388047516346,0.0,0.0,-0.6305714845657349,0.0709432363510131
-0.0366454124450683,1.4233118295669556,-0.1017189174890518,0.0040719280950725,-0.0109822079539299,0.0331028923392295,0.0,0.0,-0.7563357353210449,-0.2359846830368042
-0.0376474373042583,1.4233030080795288,-0.101283773779869,-0.0003869265492539,-0.0099200159311294,0.0212439056485891,0.0,0.0,-0.820318877696991,-0.2138876914978027
-0.0386509895324707,1.4231938123703003,-0.1008224487304687,-0.0048455977812409,-0.0094565199688076,0.0092697460204362,0.0,0.0,-0.9427276253700256,0.0396244525909423
-0.0396556854248046,1.4229847192764282,-0.1003361940383911,-0.0093041723594069,-0.009597135707736,-0.0028120151255279,0.0,0.0,-0.7436844110488892,-0.061691403388977
-0.040661621838808,1.4226750135421753,-0.099826231598854,-0.0137627432122826,-0.0103468336164951,-0.0149942860007286,0.0,0.0,-0.7013995051383972,0.0042431354522705
-0.04166841506958,1.4222652912139893,-0.0992938131093978,-0.0182214006781578,-0.011710344813764,-0.0272703431546688,0.0,0.0,-0.9329979419708252,-0.3036438822746277
-0.0426758751273155,1.4217554330825806,-0.0987401157617569,-0.0226802416145801,-0.0136920204386115,-0.0396337285637855,0.0,0.0,-0.9693061709403992,-0.7192789316177368
-0.043738268315792,1.4211547374725342,-0.1049792617559433,-0.0267071966081857,-0.0149294203147292,-0.0247481744736433,0.0,0.0,-0.9398241639137268,-0.5810499787330627
-0.0448541641235351,1.42045259475708,-0.1110592633485794,-0.0312125068157911,-0.0154569447040557,-0.0105502987280488,0.0,0.0,-0.9285115003585817,-0.3333704471588135
-0.0459703430533409,1.4196501970291138,-0.1104486435651779,-0.0356714278459548,-0.0166139937937259,-0.0231407415121793,0.0,0.0,-0.8899544477462769,-0.5800737142562866
-0.0471302047371864,0.0,-0.1152847036719322,-0.0400215424597263,-0.017309146001935,-0.0139028877019882,0.0,0.0,-0.9633826613426208,0.0656290054321289
-0.0482900626957416,1.4177494049072266,-0.1146415919065475,-0.0444805882871151,-0.0186400897800922,-0.0266186445951461,0.0,0.0,-0.9580246210098268,-0.4181736707687378
-0.0494498237967491,1.4166488647460938,-0.1139836907386779,-0.0489398129284381,-0.0206095967441797,-0.0393900163471698,0.0,0.0,-0.9670342803001404,-0.5857831239700317
-0.0506584160029888,1.41544508934021,-0.1194589957594871,-0.053518284112215,-0.0219903979450464,-0.0276159979403018,0.0,0.0,-0.9469054341316224,-0.5523735284805298
-0.0519054420292377,1.4141366481781006,-0.1236470341682434,-0.0581660270690918,-0.0230406764894723,-0.0210056044161319,0.0,0.0,-0.9974706768989564,-0.2008054256439209
-0.0531520843505859,1.412728190422058,-0.1229503527283668,-0.0626254379749298,-0.0247366242110729,-0.0339188240468502,0.0,0.0,-0.996489405632019,0.0040488243103027
-0.0543982498347759,1.4112197160720823,-0.1222424358129501,-0.0670851022005081,-0.0270802099257707,-0.0468716509640216,0.0,0.0,-0.9820627570152284,-0.3892830610275268
-0.0556438453495502,1.4096112251281738,-0.1215240955352783,-0.0715451091527938,-0.0300732273608446,-0.0598605275154113,0.0,0.0,-0.9885753989219666,-0.8124019503593445
-0.0569647774100303,1.407914400100708,-0.1303450912237167,-0.0754510685801506,-0.0317995436489582,-0.0345263071358203,0.0,0.0,-0.993070662021637,-0.6558725833892822
-0.0583481788635253,1.406113862991333,-0.1375299543142318,-0.0800441429018974,-0.0325943529605865,-0.0158962570130825,0.0,0.0,-0.8747652769088745,-0.5212691426277161
-0.0597690567374229,1.4042198657989502,-0.1416009962558746,-0.0841924920678138,-0.0330751575529575,-0.0096160937100648,0.0,0.0,-0.983182430267334,-0.7978619933128357
-0.0612627975642681,1.4022293090820312,-0.1500982344150543,-0.088451363146305,-0.0323570221662521,0.0143628492951393,0.0,0.0,-0.8766739368438721,-0.4966424703598022
-0.0627554878592491,1.4001387357711792,-0.1493381559848785,-0.0929112657904625,-0.0322949662804603,0.001241112826392,0.0,0.0,-0.8485387563705444,-0.3604931235313415
-0.064247228205204,1.397948145866394,-0.1485715806484222,-0.0973711311817169,-0.032889898866415,-0.0118985762819647,0.0,0.0,-0.9891510009765624,-0.6007227897644043
-0.0657785385847091,1.3956598043441772,-0.1528970599174499,-0.101714439690113,-0.0331207290291786,-0.0046165972016751,0.0,0.0,-0.9898443222045898,-0.4618521928787231
-0.067308709025383,1.3932712078094482,-0.1521191745996475,-0.106174349784851,-0.0340099483728408,-0.0177841801196336,0.0,0.0,-0.9305079579353333,-0.1288005709648132
-0.0688377395272255,1.3907828330993652,-0.1513363867998123,-0.110634371638298,-0.0355580300092697,-0.0309617668390274,0.0,0.0,-0.995075523853302,-0.0111087560653686
-0.070365622639656,1.3881943225860596,-0.1505491882562637,-0.1150946170091629,-0.037765372544527,-0.0441468730568885,0.0,0.0,-0.9960741996765136,-0.4796689748764038
-0.0718921646475792,1.3855061531066897,-0.1497580707073211,-0.119555190205574,-0.0406322367489337,-0.0573369637131691,0.0,0.0,-0.9952979683876038,-0.4960825443267822
-0.0734174698591232,1.3827180862426758,-0.1489634811878204,-0.1240161955356597,-0.0441587083041667,-0.0705295428633689,0.0,0.0,-0.985958456993103,-0.4297308921813965
-0.0749415382742881,1.3798303604125977,-0.1481658518314361,-0.1284777522087097,-0.0483448132872581,-0.0837220922112464,0.0,0.0,-0.9995588064193726,-0.5063726305961609
-0.0764958411455154,1.3768470287322998,-0.1513429135084152,-0.1327271312475204,-0.052390944212675,-0.0809224545955658,0.0,0.0,-0.998590886592865,0.0178548097610473
-0.0780488029122352,1.3737642765045166,-0.1505404263734817,-0.1371894776821136,-0.0570963062345981,-0.0941073969006538,0.0,0.0,-0.9836521744728088,-0.3193362355232239
-0.0796004310250282,1.370581865310669,-0.1497361212968826,-0.1416525542736053,-0.0624605379998683,-0.1072846204042434,0.0,0.0,-0.9967545866966248,-0.2592189311981201
-0.0811505317687988,1.367300271987915,-0.1489304006099701,-0.1461164802312851,-0.0684831216931343,-0.1204514354467392,0.0,0.0,-0.9927411675453186,-0.560789167881012
-0.0827452689409256,1.3639239072799685,-0.1538949310779571,-0.150326207280159,-0.0740037113428115,-0.1104116812348365,0.0,0.0,-0.879601001739502,-0.6026694774627686
-0.0843956917524337,1.3604601621627808,-0.1602614521980285,-0.1541909873485565,-0.0787316188216209,-0.0945581644773483,0.0,0.0,-0.9814610481262208,0.0758544206619262
-0.0860445946455001,1.3568971157073977,-0.1594535112380981,-0.1586552411317825,-0.084115482866764,-0.1076772958040237,0.0,0.0,-0.9802935719490052,-0.2206577658653259
-0.0876919776201248,1.3532347679138184,-0.1586456298828125,-0.1631203591823578,-0.0901542082428932,-0.1207744032144546,0.0,0.0,-0.9972732067108154,-0.5955749750137329
-0.0893909484148025,1.3494850397109983,-0.1645116508007049,-0.1669934689998626,-0.0954952836036682,-0.1068214178085327,0.0,0.0,-0.9952635765075684,-0.1247732639312744
-0.0910883918404579,1.3456361293792725,-0.1637047827243805,-0.1714591234922409,-0.1014885157346725,-0.1198648437857627,0.0,0.0,-0.9920276403427124,-0.1054135560989379
-0.0927843078970909,1.3416882753372192,-0.1628990322351455,-0.1759257018566131,-0.108132317662239,-0.1328760832548141,0.0,0.0,-0.9985870718955994,-0.6638869643211365
-0.0945441275835037,1.3376506567001345,-0.1702970564365387,-0.1798665970563888,-0.1137703657150268,-0.1127612963318824,0.0,0.0,-0.9964211583137512,-0.153403639793396
-0.0963023155927658,1.3335143327713013,-0.1694943457841873,-0.1843334883451461,-0.120055191218853,-0.1256966441869735,0.0,0.0,-0.9907799363136292,-0.5303723216056824
-0.0980966538190841,1.3292813301086426,-0.1734266728162765,-0.1886281669139862,-0.1260357946157455,-0.1196117252111435,0.0,0.0,-0.9993079304695128,-0.3726194500923157
-0.0998894721269607,1.3249497413635254,-0.1726285219192505,-0.1930959671735763,-0.1326584666967392,-0.1324538141489029,0.0,0.0,-0.9912190437316896,0.1144635677337646
-0.1016806587576866,1.3205195665359497,-0.1718332469463348,-0.1975647807121276,-0.139920562505722,-0.1452418714761734,0.0,0.0,-0.9955787658691406,-0.7005637288093567
-0.1035113334655761,1.3160077333450315,-0.1762226223945617,-0.2011832147836685,-0.1467466354370117,-0.1365210264921188,0.0,0.0,-0.9947659969329834,-0.4846394062042236
-0.1053403839468956,1.311397671699524,-0.1754340231418609,-0.2056529223918914,-0.1542058587074279,-0.1491848528385162,0.0,0.0,-0.9911863207817078,-0.7798844575881958
-0.1072286590933799,1.3067113161087036,-0.1823145002126693,-0.2089781612157821,-0.1607113033533096,-0.1301092207431793,0.0,0.0,-0.9769161939620972,-0.4853811264038086
-0.109115220606327,1.3019263744354248,-0.181533932685852,-0.2134481072425842,-0.1678425073623657,-0.142624095082283,0.0,0.0,-0.9825295805931092,-0.6938593983650208
-0.1110474616289138,1.2970517873764038,-0.1866813153028488,-0.2174060493707656,-0.1743933111429214,-0.1310164034366607,0.0,0.0,-0.9962403178215028,-0.6544238924980164
-0.1130391135811805,1.2920960187911987,-0.1935981959104538,-0.2209232002496719,-0.1799822151660919,-0.1117778792977333,0.0,0.0,-0.9989890456199646,-0.7110762596130371
-0.1150964722037315,1.2870582342147827,-0.2012834250926971,-0.224452406167984,-0.1844541877508163,-0.0894395411014556,0.0,0.0,-0.9631693959236144,-0.5625876188278198
-0.1171975135803222,1.281934142112732,-0.2062160074710846,-0.2282280474901199,-0.1883636564016342,-0.0781893655657768,0.0,0.0,-0.9879637956619264,-0.6160225868225098
-0.1193429976701736,1.2767231464385986,-0.2112265080213546,-0.2320156693458557,-0.1916911453008651,-0.0665502101182937,0.0,0.0,-0.9339821934700012,-0.7902753353118896
-0.1215356811881065,1.27142071723938,-0.2166038006544113,-0.2360183745622635,-0.1943748295307159,-0.0536734573543071,0.0,0.0,-0.8984890580177307,0.2444667816162109
-0.1237268447875976,1.266019582748413,-0.2158629447221756,-0.2404865622520446,-0.1976451277732849,-0.0654060915112495,0.0,0.0,-0.9911717772483826,-0.7127981781959534
-0.1259683668613433,1.2605422735214231,-0.221693068742752,-0.2437685877084732,-0.2001173049211502,-0.0494439788162708,0.0,0.0,-0.8542273044586182,-0.0288813114166259
