x_pos,y_pos,x_vel,y_vel,angle,ang_vel,leg_1,leg_2,main_booster,lat_booster
-0.0015497207641601,1.4030042886734009,-0.1567047238349914,-0.3518142998218536,0.0015550797106698,0.03065986931324,0.0,0.0,-0.4515014886856079,0.5650602579116821
-0.0030776024796068,1.39448881149292,-0.152852714061737,-0.3784665465354919,0.0016226092120632,0.0013509901473298,0.0,0.0,0.4946260452270508,0.431427001953125
-0.0045114518143236,1.3859010934829712,-0.1437998414039611,-0.3816754221916199,0.0020354632288217,0.008258000947535,0.0,0.0,0.4418579339981079,0.4783904552459717
-0.0060764313675463,1.377346754074097,-0.1561696827411651,-0.3801911473274231,0.0017134526278823,-0.0064409784972667,0.0,0.0,0.5487004518508911,0.6318409442901611
-0.0074874879792332,1.3690916299819946,-0.1395869255065918,-0.3668964803218841,0.0002179618313675,-0.0299127250909805,0.0,0.0,0.1387239694595337,0.1264994144439697
-0.008830165490508,1.3607776165008545,-0.132974699139595,-0.3695082664489746,-0.001061309245415,-0.0255877263844013,0.0,0.0,0.1413452625274658,0.756650447845459
-0.0101569173857569,1.352441906929016,-0.1296103149652481,-0.3704811632633209,-0.0040935715660452,-0.0606510862708091,0.0,0.0,0.1798036098480224,0.3356471061706543
-0.0114012714475393,1.3441781997680664,-0.1216429099440574,-0.3672760426998138,-0.0068526775576174,-0.0551869794726371,0.0,0.0,-0.2430979013442993,0.7796032428741455
-0.012611580081284,1.3353025913238523,-0.1164730638265609,-0.3945017158985138,-0.0113616753369569,-0.0901886448264122,0.0,0.0,-0.0167112350463867,-0.3026599884033203
-0.0138480188325047,1.3258070945739746,-0.118849016726017,-0.4220642745494842,-0.0161057170480489,-0.0948894172906875,0.0,0.0,0.1525219678878784,0.3510363101959228
-0.0150437355041503,1.3163124322891235,-0.1148306280374527,-0.4220485091209411,-0.020800607278943,-0.0939062312245369,0.0,0.0,0.1668851375579834,0.5391623973846436
-0.0161605831235647,1.306753158569336,-0.1057206019759178,-0.4249495267868042,-0.0266887862235307,-0.1177744641900062,0.0,0.0,-0.1597126722335815,0.5806243419647217
-0.0172476768493652,1.2965750694274902,-0.1011052876710891,-0.4525109231472015,-0.034211128950119,-0.1504606753587722,0.0,0.0,-0.1435472965240478,-0.0459704399108886
-0.0183609016239643,1.2857778072357178,-0.1034705862402916,-0.4800777435302734,-0.041967187076807,-0.1551354229450225,0.0,0.0,-0.65872722864151,-0.4650243520736694
-0.0195000655949115,1.2743611335754397,-0.1058345288038253,-0.5076465606689453,-0.0499571003019809,-0.1598129570484161,0.0,0.0,-0.4346662759780884,-0.5630745887756348
-0.0207015983760356,1.2623214721679688,-0.1127732843160629,-0.5353589653968811,-0.0572664588689804,-0.1462005376815796,0.0,0.0,0.4660550355911255,0.45653235912323
-0.0217636115849018,1.250788927078247,-0.0991595759987831,-0.5128496885299683,-0.0642341971397399,-0.1393677294254303,0.0,0.0,-0.4395955801010132,-0.8083325624465942
-0.022900391370058,1.23863422870636,-0.1076531782746315,-0.540472149848938,-0.0702084973454475,-0.1194969043135643,0.0,0.0,0.2420631647109985,-0.9818829298019408
-0.0240122787654399,1.2267717123031616,-0.1069374531507492,-0.5274356007575989,-0.0744321197271347,-0.084479883313179,0.0,0.0,0.2674906253814697,-0.599307656288147
-0.0252331737428903,1.2149511575698853,-0.1186696887016296,-0.525529682636261,-0.0778239145874977,-0.067841850221157,0.0,0.0,0.5057187080383301,-0.4721450805664062
-0.0263107307255268,1.203521966934204,-0.1046574264764785,-0.5081272721290588,-0.0809015482664108,-0.0615580156445503,0.0,0.0,-0.7824141979217529,-0.6459939479827881
-0.0274642948061227,1.1914751529693604,-0.1132999807596206,-0.5355233550071716,-0.0829470157623291,-0.0409127436578273,0.0,0.0,-0.5320783257484436,-0.5379177927970886
-0.0286771766841411,1.178812026977539,-0.1198356300592422,-0.5628876090049744,-0.0843785628676414,-0.0286337342113256,0.0,0.0,-0.2096144556999206,-0.3908643722534179
-0.0299158096313476,1.1655290126800537,-0.1221929043531417,-0.5904538035392761,-0.08603435754776,-0.0331188514828681,0.0,0.0,-0.7264635562896729,-0.9053571224212646
-0.0312682166695594,1.151639699935913,-0.1355960518121719,-0.6172727942466736,-0.0856825560331344,0.0070367790758609,0.0,0.0,-0.5902099609375,0.4454541206359863
-0.0326476097106933,1.1371092796325684,-0.1380707770586013,-0.6457889080047607,-0.0855517610907554,0.0026158497203141,0.0,0.0,0.5148828029632568,-0.4423104524612427
-0.0339922904968261,1.1229541301727295,-0.1343904733657837,-0.6291272640228271,-0.085623413324356,-0.0014331529382616,0.0,0.0,0.552971601486206,0.1175299882888794
-0.0354185104370117,1.109354019165039,-0.1417592167854309,-0.6044958829879761,-0.0864798203110694,-0.017128262668848,0.0,0.0,-0.726245641708374,-0.0264959931373596
-0.0368701927363872,1.0951342582702637,-0.1440929472446441,-0.6320595145225525,-0.087550438940525,-0.0214122962206602,0.0,0.0,-0.5680073499679565,-0.3829972147941589
-0.038347341120243,1.0802943706512451,-0.1464197337627411,-0.6596232652664185,-0.0888327658176422,-0.0256464835256338,0.0,0.0,-0.4764662981033325,-0.7875099182128906
-0.0399093627929687,1.0648514032363892,-0.156233474612236,-0.6863457560539246,-0.0888008400797844,0.0006385091692209,0.0,0.0,-0.3409950137138366,-0.5561767816543579
-0.0415462478995323,1.0487921237945557,-0.1647749245166778,-0.7136843204498291,-0.0877246260643005,0.021524267271161,0.0,0.0,0.9762814044952391,0.4489612579345703
-0.0432225242257118,1.0335586071014404,-0.1680502295494079,-0.6770174503326416,-0.0873082652688026,0.0083271712064743,0.0,0.0,0.6296789646148682,-0.7880842685699463
-0.0450244918465614,1.01824688911438,-0.1818713545799255,-0.6804190278053284,-0.0856481418013572,0.0332025811076164,0.0,0.0,-0.4433118104934692,-0.4459066987037658
-0.0468512549996376,1.0023155212402344,-0.1841522306203842,-0.7079827785491943,-0.0841839164495468,0.0292844139039516,0.0,0.0,0.8099849224090576,-0.4402060508728027
-0.0486130714416503,0.9870001673698424,-0.1775592714548111,-0.6806081533432007,-0.0828195214271545,0.027287870645523,0.0,0.0,-0.9311105012893676,-0.6556159853935242
-0.0504534728825092,0.971068263053894,-0.1866042912006378,-0.7079457640647888,-0.080280989408493,0.0507706925272941,0.0,0.0,-0.7645029425621033,-0.1831671595573425
-0.0523181930184364,0.954516351222992,-0.1888464838266372,-0.7355096340179443,-0.0779257789254188,0.0471041686832904,0.0,0.0,-0.3634246587753296,-0.5002065300941467
-0.0542486198246479,0.9373552203178406,-0.1963200271129608,-0.7625524401664734,-0.0746862292289733,0.064791202545166,0.0,0.0,-0.5146835446357727,0.5882450342178345
-0.056154441088438,0.9195694327354432,-0.1924282163381576,-0.7903873920440674,-0.0728463530540466,0.0367972180247306,0.0,0.0,0.014601707458496,-0.2224119305610656
-0.0581143386662006,0.9018862843513488,-0.1973721235990524,-0.7858545780181885,-0.0714778006076812,0.0273710433393716,0.0,0.0,0.2986537218093872,0.0478231906890869
-0.0599713325500488,0.8841884136199951,-0.1873812675476074,-0.7864951491355896,-0.069822646677494,0.0331028886139392,0.0,0.0,-0.1801888346672058,0.286719799041748
-0.0618515014648437,0.8658705949783325,-0.1895325481891632,-0.8140583634376526,-0.0683235228061676,0.0299824029207229,0.0,0.0,-0.269507884979248,0.463093638420105
-0.0637544617056846,0.846932590007782,-0.1916606873273849,-0.8416215181350708,-0.0669739097356796,0.026992455124855,0.0,0.0,0.9700802564620972,0.5282607078552246
-0.0656661987304687,0.827894926071167,-0.191168874502182,-0.8461158871650696,-0.0669733211398124,1.1463292139524128e-05,0.0,0.0,0.8167259693145752,0.8181780576705933
-0.0674558654427528,0.8087668418884277,-0.1772925108671188,-0.8502123951911926,-0.068629577755928,-0.0331251434981823,0.0,0.0,0.9591119289398192,-0.3160350322723388
-0.0691587477922439,0.7898042798042297,-0.1688245981931686,-0.8428456783294678,-0.0700788050889968,-0.0289846155792474,0.0,0.0,0.9198474884033204,-0.051212728023529
-0.070945456624031,0.7716853022575378,-0.1764700263738632,-0.8053939342498779,-0.0722517222166061,-0.0434580072760582,0.0,0.0,0.8763914108276367,-0.2130177021026611
-0.0728385895490646,0.7543017268180847,-0.1863103061914444,-0.7727468013763428,-0.0752326846122741,-0.0596194677054882,0.0,0.0,0.4692847728729248,-0.2222129702568054
-0.0747370719909668,0.7369770407676697,-0.186640977859497,-0.7701496481895447,-0.0784028396010398,-0.0634029284119606,0.0,0.0,-0.7606828808784485,-0.2405970096588134
-0.0766554847359657,0.7190325856208801,-0.1885443031787872,-0.7977132201194763,-0.0816658213734626,-0.065259575843811,0.0,0.0,0.7886356115341187,-0.3704657554626465
-0.0785902962088584,0.7016680240631104,-0.1898176372051239,-0.7719600796699524,-0.0853003412485122,-0.0726902857422828,0.0,0.0,0.3918077945709228,0.0526753664016723
-0.080420397222042,0.6842315196990967,-0.1796937733888626,-0.7751451730728149,-0.0885819420218467,-0.0656318590044975,0.0,0.0,0.4909363985061645,-0.5126544833183289
-0.0822420120239257,0.6672603487968445,-0.179829865694046,-0.754414439201355,-0.0908953249454498,-0.0462679676711559,0.0,0.0,0.680166482925415,0.1822239160537719
-0.0838853865861892,0.6503891944885254,-0.1626557111740112,-0.7499316334724426,-0.0925597250461578,-0.0332881584763526,0.0,0.0,0.5419507026672363,0.6257057189941406
-0.0855524986982345,0.6335588097572327,-0.1635204851627349,-0.7482232451438904,-0.0957277417182922,-0.0633603781461715,0.0,0.0,0.687300443649292,-0.2114882469177246
-0.0870625525712966,0.6173097491264343,-0.14822319149971,-0.722354531288147,-0.098481185734272,-0.0550689399242401,0.0,0.0,0.7866613864898682,-0.1574147939682006
-0.0883677452802658,0.6015075445175171,-0.1284249573945999,-0.7024615406990051,-0.1005623564124107,-0.0416231043636798,0.0,0.0,-0.205170452594757,-0.0436800122261047
-0.089687630534172,0.5850852131843567,-0.1298888325691223,-0.7300240993499756,-0.1026498526334762,-0.0417500808835029,0.0,0.0,0.8195841312408447,0.5012445449829102
-0.0909813866019249,0.5693460702896118,-0.1260085105895996,-0.6997522115707397,-0.1059913411736488,-0.0668299049139022,0.0,0.0,0.1137137413024902,-0.4577908515930176
-0.0922273620963096,0.5533537268638611,-0.1214135289192199,-0.7109985947608948,-0.1091556623578071,-0.063286192715168,0.0,0.0,0.8959062099456787,-0.6798631548881531
-0.0935742408037185,0.5379741191864014,-0.1325863301753997,-0.6836948394775391,-0.1112393140792846,-0.0416730307042598,0.0,0.0,0.5452243089675903,-0.5690779685974121
-0.0947994217276573,0.5226806402206421,-0.121903657913208,-0.6797552108764648,-0.1118450686335563,-0.0121149998158216,0.0,0.0,0.8365441560745239,0.2964612245559692
-0.0959326773881912,0.5077782273292542,-0.112885870039463,-0.6623624563217163,-0.1122759282588958,-0.0086172726005315,0.0,0.0,0.6308486461639404,-0.051251471042633
-0.0970230102539062,0.4928440451622009,-0.1087015867233276,-0.6637659072875977,-0.112605482339859,-0.0065910657867789,0.0,0.0,0.9282567501068116,0.53350830078125
-0.0981541648507118,0.4783367216587066,-0.1113372594118118,-0.6449022889137268,-0.1143715679645538,-0.0353218987584114,0.0,0.0,0.8884385824203491,0.0314691066741943
-0.0991562828421592,0.4646628201007843,-0.0986419171094894,-0.6078540086746216,-0.1159351840615272,-0.0312721654772758,0.0,0.0,-0.2672345638275146,0.5487654209136963
-0.1001159697771072,0.4503535032272339,-0.0932393223047256,-0.6361822485923767,-0.1186456158757209,-0.0542086437344551,0.0,0.0,0.5763299465179443,-0.4970737099647522
-0.1009584441781044,0.4366326034069061,-0.0817535370588302,-0.6100189685821533,-0.1211254000663757,-0.0495956949889659,0.0,0.0,0.570453405380249,-0.6972909569740295
-0.1019025817513465,0.422986090183258,-0.0932495296001434,-0.6066057682037354,-0.1222888156771659,-0.0232682935893535,0.0,0.0,0.4222182035446167,0.3345237970352173
-0.102856732904911,0.4096015095710754,-0.0940117686986923,-0.5949849486351013,-0.1236854419112205,-0.0279323365539312,0.0,0.0,0.5365160703659058,0.5099194049835205
-0.1036704033613205,0.396446019411087,-0.0791669860482215,-0.5848738551139832,-0.1258769184350967,-0.0438294634222984,0.0,0.0,0.3938357830047607,0.2586965560913086
-0.1045028716325759,0.3837509453296661,-0.0806872621178627,-0.5644440054893494,-0.1284190267324447,-0.0508424639701843,0.0,0.0,-0.1340857744216919,-0.8004169464111328
-0.105389691889286,0.3704462051391601,-0.0876961722970008,-0.5914091467857361,-0.1293964236974716,-0.019547950476408,0.0,0.0,0.9174964427947998,-0.176750898361206
-0.1062548607587814,0.3572036623954773,-0.08552186191082,-0.5886412858963013,-0.1303848028182983,-0.0197676345705986,0.0,0.0,0.5189809799194336,-0.1034882068634033
-0.1070161834359169,0.3437730073928833,-0.0756106972694397,-0.5969628095626831,-0.1309055984020233,-0.0104162953794002,0.0,0.0,0.8206689357757568,-0.6156995892524719
-0.1078104972839355,0.3302889466285705,-0.080234870314598,-0.5992211699485779,-0.1301098018884658,0.0159158501774072,0.0,0.0,0.8907347917556763,0.0247293710708618
-0.1084915176033973,0.3175363540649414,-0.0690456181764602,-0.5666977763175964,-0.1291646659374237,0.0189031548798084,0.0,0.0,0.7504386901855469,0.6258761882781982
-0.1089147552847862,0.3054280281066894,-0.0424480363726615,-0.5381404161453247,-0.1290399134159088,0.0024950506631284,0.0,0.0,0.5851640701293945,-0.8117228746414185
-0.1094114333391189,0.2939091920852661,-0.0514412224292755,-0.5117947459220886,-0.1272790133953094,0.035218421369791,0.0,0.0,-0.4087986946105957,0.6905831098556519
-0.1098582297563552,0.2817546129226684,-0.0455656088888645,-0.5401247143745422,-0.1263907700777053,0.0177647545933723,0.0,0.0,0.1406323909759521,-0.1818573474884033
-0.1101994514465332,0.2697864770889282,-0.0353682041168212,-0.5318140983581543,-0.1251545697450637,0.0247237142175436,0.0,0.0,0.7471872568130493,-0.6938872933387756
-0.1106246933341026,0.258135586977005,-0.0451225824654102,-0.5175995230674744,-0.1225709840655326,0.0516714230179786,0.0,0.0,0.7608425617218018,0.2283811569213867
-0.1110088378190994,0.2469505667686462,-0.0409656353294849,-0.4969063699245453,-0.1200281679630279,0.0508562996983528,0.0,0.0,0.3338019847869873,0.6491513252258301
-0.1112730056047439,0.2359816879034042,-0.0278911404311656,-0.4873867034912109,-0.1185645461082458,0.0292726512998342,0.0,0.0,0.919546127319336,0.5024086236953735
-0.1112991347908973,0.225373163819313,-0.003629757091403,-0.4714063107967376,-0.1175417080521583,0.0204563103616237,0.0,0.0,0.746186375617981,-0.5577408075332642
-0.1112871170043945,0.2146808058023452,-0.0012673421297222,-0.4750266075134277,-0.1150935962796211,0.0489620193839073,0.0,0.0,0.6384122371673584,-0.041641891002655
-0.111124038696289,0.2039470970630645,0.013171468861401,-0.4768142700195312,-0.1119737848639488,0.0623961202800273,0.0,0.0,0.8707678318023682,0.5959963798522949
-0.1106502562761306,0.1935189515352249,0.0447015836834907,-0.4632758200168609,-0.1093134358525276,0.053206630051136,0.0,0.0,0.7152003049850464,-0.2881288528442383
-0.1099727600812912,0.1830572038888931,0.0641485154628753,-0.4647060036659241,-0.1057309359312057,0.071649819612503,0.0,0.0,0.9139065742492676,-0.681902289390564
-0.1092477813363075,0.1732880175113678,0.0672759041190147,-0.4338268935680389,-0.1005486398935318,0.1036460250616073,0.0,0.0,0.3106197118759155,-0.2783410549163818
-0.1084215193986892,0.163792997598648,0.0770244598388671,-0.421631783246994,-0.0949945524334907,0.1110818833112716,0.0,0.0,0.1257851123809814,-0.5547661185264587
-0.1074851974844932,0.1543518453836441,0.0864826962351799,-0.4191709160804748,-0.0879093930125236,0.1417031586170196,0.0,0.0,0.6350095272064209,-0.3214986324310303
-0.1064036339521408,0.1447605490684509,0.1002741008996963,-0.425838440656662,-0.0800995677709579,0.1561966240406036,0.0,0.0,0.7923305034637451,-0.5711349844932556
-0.1053656563162803,0.1353867650032043,0.0946480333805084,-0.4161456525325775,-0.071051999926567,0.1809512674808502,0.0,0.0,0.7871417999267578,0.1109694242477417
-0.1041518226265907,0.1267805248498916,0.1115458607673645,-0.3820639848709106,-0.0613139793276786,0.1947605907917022,0.0,0.0,0.0250014066696167,0.715632438659668
-0.1028576865792274,0.1180797219276428,0.1207560896873474,-0.3863710165023803,-0.0527436062693595,0.171407550573349,0.0,0.0,0.4084541797637939,-0.6354864239692688
-0.1016747504472732,0.1097945570945739,0.1082949414849281,-0.3679087460041046,-0.0428666472434997,0.1975390315055847,0.0,0.0,0.6218562126159668,0.8597562313079834
-0.1002797111868858,0.101910650730133,0.1308203786611557,-0.3501687049865722,-0.0342797711491584,0.1717377752065658,0.0,0.0,0.2350697517395019,0.8769451379776001
-0.0988220199942588,0.0942533314228057,0.1385843604803085,-0.3401786983013153,-0.0271934457123279,0.1417264193296432,0.0,0.0,0.0472838878631591,-0.1502445936203003
-0.0973837822675705,0.0866902917623519,0.1366185247898101,-0.3360215723514557,-0.0200752560049295,0.1423636376857757,0.0,0.0,0.452335000038147,0.0952239036560058
-0.0959381088614463,0.079164870083332,0.1371815800666809,-0.3343820869922638,-0.0127826360985636,0.1458526849746704,0.0,0.0,0.7276175022125244,-0.1489300727844238
-0.0945856124162674,0.0719655379652977,0.1281531751155853,-0.3199273943901062,-0.0057777077890932,0.1400987803936004,0.0,0.0,0.7889435291290283,0.9336147308349608
-0.0933162719011306,0.0649959444999694,0.1217222213745117,-0.3097462952136993,-0.0006416522082872,0.1027213558554649,0.0,0.0,0.7259917259216309,0.3897500038146972
-0.0919146537780761,0.058532677590847,0.1341591924428939,-0.2872657775878906,0.0052847806364297,0.1185287460684776,0.0,0.0,0.4880250692367553,0.7701212167739868
-0.0903708487749099,0.0519423820078372,0.1495386660099029,-0.2929270565509796,0.0100587727501988,0.0954797193408012,0.0,0.0,0.6960997581481934,0.6946917772293091
-0.0885963439941406,0.0459157079458236,0.1733802109956741,-0.2678864896297455,0.0140871740877628,0.0805680304765701,0.0,0.0,0.7639164924621582,-0.2327837944030761
-0.0868359580636024,0.0405112355947494,0.171783447265625,-0.2402423322200775,0.018283249810338,0.0839215368032455,0.0,0.0,0.585831880569458,-0.922127366065979
-0.0849875435233116,0.0357302539050579,0.1782523542642593,-0.2125851362943649,0.024792717769742,0.1301894038915634,0.0,0.0,0.4082261323928833,-0.9895600080490112
-0.0831325501203537,0.0310707185417413,0.1765736639499664,-0.2072608172893524,0.0336035303771495,0.1762160956859588,0.0,0.0,0.5953351259231567,-0.9584107398986816
-0.0813657790422439,0.0269798133522272,0.1655578911304474,-0.1821037679910659,0.0445924401283264,0.2197780609130859,0.0,0.0,0.2182605266571045,-0.4468436241149902
-0.0795577988028526,0.0231437534093856,0.1691826581954956,-0.1708725094795227,0.0560709871351718,0.2295711040496826,0.0,0.0,0.2899690866470337,-0.6784089207649231
-0.0777309387922287,0.0192240104079246,0.169314831495285,-0.1747633516788482,0.0692938566207885,0.2644573450088501,0.0,0.0,0.0158959627151489,0.3221113681793213
-0.0759829506278038,0.015247831121087,0.161505788564682,-0.1773869097232818,0.0824522748589515,0.2631683945655823,0.0,0.0,0.6200101375579834,0.4447439908981323
-0.0743793472647667,0.0113931037485599,0.1473767161369323,-0.1720881909132003,0.0953122377395629,0.2571994662284851,0.0,0.0,0.6456915140151978,0.6617352962493896
-0.072863295674324,0.0085167028009891,0.1587646156549453,-0.1274150311946869,0.0881936177611351,-0.1424000710248947,0.0,1.0,0.3202189207077026,0.0550606250762939
-0.0715463608503341,0.0062908269464969,0.158228725194931,-0.0975702553987503,0.0619350858032703,-0.52516770362854,0.0,1.0,-0.2393161654472351,-0.649666965007782
-0.0703407302498817,0.0039040900301188,0.1584499329328537,-0.104942113161087,0.0244669839739799,-0.749405562877655,0.0,1.0,0.4676015377044678,-0.8536433577537537
-0.0690996199846267,0.0017992353532463,0.1589958667755127,-0.0933397263288497,-0.009968277066946,-0.6887060403823853,0.0,0.0,0.0619484186172485,-0.9956888556480408
-0.0678896903991699,-0.0001229429180966,0.1535763889551162,-0.0859609395265579,-0.0421451479196548,-0.6435376405715942,1.0,0.0,-0.0990803837776184,-0.8296493291854858
