x_pos,y_pos,x_vel,y_vel,angle,ang_vel,leg_1,leg_2,main_booster,lat_booster
-0.0014237404102459,1.403310775756836,-0.1447354853153228,-0.338200032711029,0.0021206610836088,0.0418583340942859,0.0,0.0,-0.189294695854187,0.9260821342468262
-0.0026705742347985,1.3954062461853027,-0.1251910179853439,-0.3513083457946777,0.0026170955970883,0.0099306795746088,0.0,0.0,-0.0685195922851562,0.6573747396469116
-0.0037591934669762,1.3871829509735107,-0.1081860065460205,-0.3654796481132507,0.0019464802462607,-0.0134134395048022,0.0,0.0,-0.3248137831687927,0.4865801334381103
-0.0047556878998875,1.378645658493042,-0.0994009897112846,-0.379432737827301,0.0016999453073367,-0.0049314047209918,0.0,0.0,-0.1963405013084411,0.4415014982223511
-0.0056632994674146,1.3697946071624756,-0.0909429267048835,-0.3933828175067901,0.0018800502875819,0.0036024856381118,0.0,0.0,-0.3463231325149536,-0.0864627361297607
-0.0064853667281568,1.3606295585632324,-0.0828299298882484,-0.4073321521282196,0.0024903796147555,0.0122078089043498,0.0,0.0,-0.7102623581886292,0.0194038152694702
-0.0072257043793797,1.3511507511138916,-0.0750805214047432,-0.4212816953659057,0.0035341267939656,0.0208768136799335,0.0,0.0,-0.8454776406288147,0.5479474067687988
-0.0078339576721191,1.3413599729537964,-0.0609621107578277,-0.4351445138454437,0.0036608558148145,0.0025347024202346,0.0,0.0,-0.8742682933807373,-0.6091904640197754
-0.0084170345216989,1.3312618732452393,-0.0601305775344371,-0.4488148987293243,0.0054585668258368,0.0359578467905521,0.0,0.0,-0.6689048409461975,-0.6801397800445557
-0.0089838979765772,1.3208537101745603,-0.0603123307228088,-0.462600827217102,0.0090473350137472,0.0717817991971969,0.0,0.0,-0.7704405188560486,-0.3758251070976257
-0.0094850538298487,1.3101320266723633,-0.0542015507817268,-0.4765514731407165,0.0130815338343381,0.0806914120912551,0.0,0.0,-0.464810848236084,-0.8212693929672241
-0.009982299990952,1.2990940809249878,-0.055708359926939,-0.4906406998634338,0.0190019886940717,0.1184200271964073,0.0,0.0,-0.8739325404167175,-0.1990020871162414
-0.0104229925200343,1.2877428531646729,-0.0505195632576942,-0.5045934915542603,0.0253736972808837,0.1274458616971969,0.0,0.0,-0.8533608317375183,0.3768854141235351
-0.010812091641128,1.2760785818099976,-0.0458108410239219,-0.5185471773147583,0.0322007909417152,0.1365542113780975,0.0,0.0,-0.6780468821525574,0.6297392845153809
-0.0110932346433401,1.2641105651855469,-0.033922366797924,-0.5320472717285156,0.0379437208175659,0.1148690581321716,0.0,0.0,-0.9280430674552916,0.5900911092758179
-0.0112773897126317,1.2518254518508911,-0.0232894495129585,-0.5461347103118896,0.0427659936249256,0.0964542776346206,0.0,0.0,-0.9251095056533812,-0.2356216311454773
-0.011424827389419,1.239227056503296,-0.0200825594365596,-0.5600878596305847,0.0480538681149482,0.105766974389553,0.0,0.0,-0.8179072737693787,0.3268438577651977
-0.0115406988188624,1.2263154983520508,-0.0173966214060783,-0.574042022228241,0.0538100749254226,0.1151345372200012,0.0,0.0,-0.6354801654815674,-0.1701713800430297
-0.0116301532834768,1.2130910158157349,-0.0152366012334823,-0.5879969000816345,0.0600382536649704,0.1245747208595275,0.0,0.0,-0.8869141936302185,0.4091434478759765
-0.0116985319182276,1.1995534896850586,-0.013605972751975,-0.6019527912139893,0.0667417123913765,0.1340811997652053,0.0,0.0,-0.7586787343025208,0.8858096599578857
-0.0116668697446584,1.1857179403305054,-0.0019156445050612,-0.615149199962616,0.0717875435948371,0.1009256616234779,0.0,0.0,-0.4752215147018432,0.5183299779891968
-0.0115826604887843,1.1715707778930664,0.0039021752309054,-0.6289837956428528,0.0762659013271331,0.0895750373601913,0.0,0.0,-0.6425648331642151,0.6939133405685425
-0.011426543816924,1.157117247581482,0.0123025011271238,-0.6425564885139465,0.0795513167977333,0.0657139718532562,0.0,0.0,-0.7775552272796631,0.1560151576995849
-0.0112702371552586,1.142350435256958,0.0118372216820716,-0.656511127948761,0.0833262503147125,0.0755052343010902,0.0,0.0,-0.8524529933929443,0.566352128982544
-0.0110846515744924,1.1272761821746826,0.015128768980503,-0.6701585054397583,0.0867304429411888,0.068089872598648,0.0,0.0,-0.7226982712745667,0.0770002603530883
-0.0109076499938964,1.1118676662445068,0.0137679604813456,-0.6850637197494507,0.0906305685639381,0.0780023410916328,0.0,0.0,-0.8629871010780334,0.7730875015258789
-0.0106842992827296,1.0961588621139526,0.0194622315466403,-0.6983367204666138,0.0934774875640869,0.0569385401904583,0.0,0.0,-0.8100469708442688,0.6302081346511841
-0.0104419710114598,1.0801491737365725,0.0218466892838478,-0.711694598197937,0.0958402752876281,0.0472559407353401,0.0,0.0,-0.4321798086166382,0.708784818649292
-0.0101804733276367,1.0638384819030762,0.0243735983967781,-0.7250359654426575,0.0975984930992126,0.0351647064089775,0.0,0.0,-0.1696141362190246,0.7834147214889526
-0.0098879812285304,1.0472203493118286,0.0284850243479013,-0.7386309504508972,0.098357044160366,0.0151711609214544,0.0,0.0,-0.1672428846359253,0.7308921813964844
-0.0095698358491063,1.030306100845337,0.0320577286183834,-0.7517282962799072,0.0981190353631973,-0.004760283511132,0.0,0.0,-0.1295509934425354,0.6910513639450073
-0.0092412950471043,1.013081669807434,0.0337845757603645,-0.765468418598175,0.0971934720873832,-0.0185110494494438,0.0,0.0,0.3233175277709961,0.4991647005081177
-0.0090823173522949,0.99649316072464,0.0166266895830631,-0.7372248768806458,0.0964744389057159,-0.0143810138106346,0.0,0.0,0.2423051595687866,0.4240837097167969
-0.0090424539521336,0.9799893498420716,0.0044202748686075,-0.7334739565849304,0.0960476323962211,-0.0085361069068312,0.0,0.0,0.3361096382141113,0.4282432794570923
-0.0090870857238769,0.9639317393302916,-0.0046170824207365,-0.7136850357055664,0.0961969047784805,0.0029855084139853,0.0,0.0,-0.1460416316986084,0.7148487567901611
-0.0091267582029104,0.9475746750831604,-0.0031522859353572,-0.7269315719604492,0.0953925922513008,-0.0160863734781742,0.0,0.0,0.0709990262985229,0.6878138780593872
-0.0092153549194335,0.9313465356826782,-0.0071728723123669,-0.7211399674415588,0.0937165319919586,-0.0335210226476192,0.0,0.0,0.4708924293518066,0.4692351818084717
-0.0093928333371877,0.915822207927704,-0.0167415738105773,-0.689909040927887,0.0927148088812828,-0.020034272223711,0.0,0.0,-0.1460875868797302,0.7896213531494141
-0.0095750810578465,0.9000014662742615,-0.0162500329315662,-0.7030203938484192,0.0907570719718933,-0.0391547344624996,0.0,0.0,-0.4707009792327881,0.0095337629318237
-0.0098225595429539,0.8838675618171692,-0.0232927910983562,-0.7169724702835083,0.0893172174692154,-0.0287968758493661,0.0,0.0,-0.2383466958999633,-0.0312263369560241
-0.010137939825654,0.8674205541610718,-0.0306101292371749,-0.7309243083000183,0.0883949846029281,-0.0184445567429065,0.0,0.0,0.2957037687301636,0.7972438335418701
-0.010387897491455,0.8512949347496033,-0.0231069140136241,-0.716587483882904,0.0865238755941391,-0.0374223515391349,0.0,0.0,-0.2020620703697204,-0.1633673906326294
-0.0107109071686863,0.8348560929298401,-0.0309269670397043,-0.7305393815040588,0.0851689875125885,-0.027097875252366,0.0,0.0,-0.0328479409217834,0.6287992000579834
-0.0110512729734182,0.8181101083755493,-0.0317217521369457,-0.7441354393959045,0.082870215177536,-0.0459753535687923,0.0,0.0,0.8215101957321167,0.7882583141326904
-0.0114822387695312,0.8015287518501282,-0.0396037958562374,-0.7367626428604126,0.079416237771511,-0.06907968968153,0.0,0.0,-0.2590475678443908,-0.632964015007019
-0.0120384218171238,0.7846222519874573,-0.0538230910897254,-0.7513077855110168,0.0776406154036521,-0.0355126224458217,0.0,0.0,0.438116192817688,0.7931070327758789
-0.0125840185210108,0.7679939866065979,-0.0517778992652893,-0.7388860583305359,0.0748819932341575,-0.0551721863448619,0.0,0.0,-0.117063820362091,-0.395171582698822
-0.013212775811553,0.751052737236023,-0.0606086440384388,-0.7528375387191772,0.0726309120655059,-0.0450217016041278,0.0,0.0,0.2510573863983154,-0.0007329583168029
-0.0140700340270996,0.7346799373626709,-0.0834832489490509,-0.7275694012641907,0.0704198628664016,-0.0442209914326667,0.0,0.0,-0.4234345555305481,0.9085023403167723
-0.0149442674592137,0.717998743057251,-0.0839363560080528,-0.7412283420562744,0.0669658109545707,-0.0690807476639747,0.0,0.0,-0.4820262193679809,0.594482421875
-0.0158482547849416,0.70100998878479,-0.0859331116080284,-0.7548609375953674,0.0625447109341621,-0.0884223654866218,0.0,0.0,-0.604630172252655,0.033302903175354
-0.0168416015803813,0.683708131313324,-0.0953555256128311,-0.768812894821167,0.0586182177066803,-0.0785297229886055,0.0,0.0,0.6003228425979614,0.9165692329406738
-0.0177591331303119,0.6667496562004089,-0.0865908414125442,-0.753517210483551,0.0535176210105419,-0.1020120531320571,0.0,0.0,-0.3493591547012329,0.7891814708709717
-0.0187058448791503,0.6494905352592468,-0.0884071663022041,-0.7668651342391968,0.0473226942121982,-0.1238983497023582,0.0,0.0,-0.2984249591827392,0.4572947025299072
-0.0197453498840332,0.6319183111190796,-0.0981686189770698,-0.780817985534668,0.0416088737547397,-0.1142764315009117,0.0,0.0,-0.226574957370758,0.8607289791107178
-0.0208212845027446,0.6140327453613281,-0.1008305549621582,-0.7947409749031067,0.0349307172000408,-0.1335634440183639,0.0,0.0,0.0246417522430419,0.0880802869796752
-0.0219509117305278,0.5965781807899475,-0.1069453805685043,-0.7756320238113403,0.0289922729134559,-0.1187688559293747,0.0,0.0,0.6857807636260986,0.752913236618042
-0.0229820255190134,0.5798546075820923,-0.0963662266731262,-0.7431516647338867,0.0223279204219579,-0.1332870572805404,0.0,0.0,-0.4658640027046203,0.3851121664047241
-0.0241095535457134,0.5628179907798767,-0.1064629331231117,-0.7571040391921997,0.0161208342760801,-0.1241415739059448,0.0,0.0,0.683112382888794,0.8266052007675171
-0.0253674499690532,0.5466756224632263,-0.1181458383798599,-0.7173761129379272,0.0085684908553957,-0.1510466039180755,0.0,0.0,-0.5308592319488525,0.6494718790054321
-0.0266673080623149,0.5302154421806335,-0.121366262435913,-0.7315396070480347,5.770115240011364e-05,-0.1702158600091934,0.0,0.0,-0.6917333602905273,0.6390280723571777
-0.028023337945342,0.5134458541870117,-0.1263501495122909,-0.7453456521034241,-0.009077550843358,-0.1827051341533661,0.0,0.0,-0.6300072073936462,0.7543532848358154
-0.0294062606990337,0.4963605999946594,-0.1276435405015945,-0.7594394087791443,-0.019594419747591,-0.2103371620178222,0.0,0.0,-0.3116606473922729,0.5874537229537964
-0.0308403018862009,0.4789625108242035,-0.1319405883550644,-0.7734360098838806,-0.0309079308062791,-0.2262702286243438,0.0,0.0,-0.1362084150314331,0.4909543991088867
-0.0323740020394325,0.4612519741058349,-0.142333373427391,-0.7873933911323547,-0.0418135188519954,-0.2181119918823242,0.0,0.0,0.5230115652084351,0.4647505283355713
-0.0340991020202636,0.4440527260303497,-0.1613429188728332,-0.7647563219070435,-0.0528490729629993,-0.220711201429367,0.0,0.0,0.1299856901168823,0.6429135799407959
-0.0358262062072753,0.4274201095104217,-0.1606668978929519,-0.7396942973136902,-0.064752846956253,-0.2380754947662353,0.0,0.0,-0.0588313937187194,0.5779770612716675
-0.037602424621582,0.4104634523391723,-0.1646506488323211,-0.7542393803596497,-0.0775889977812767,-0.2567232251167297,0.0,0.0,0.5068082809448242,-0.4901508092880249
-0.0393946655094623,0.3943561315536499,-0.1667452305555343,-0.716570258140564,-0.0899458602070808,-0.2471373081207275,0.0,0.0,-0.6522135138511658,0.3224625587463379
-0.0412879958748817,0.3779366314411163,-0.1772273778915405,-0.7305281758308411,-0.1019492447376251,-0.2400678694248199,0.0,0.0,0.0910389423370361,-0.2949774265289306
-0.0432973876595497,0.3618811368942261,-0.1889094859361648,-0.7144373059272766,-0.1138920187950134,-0.2388556003570556,0.0,0.0,0.1834837198257446,-0.1878610253334045
-0.045335579663515,0.3461739122867584,-0.1922366768121719,-0.6990247368812561,-0.1254044473171234,-0.2302486896514892,0.0,0.0,-0.0113138556480407,-0.639917254447937
-0.0475354194641113,0.3301723599433899,-0.2103050202131271,-0.7120212912559509,-0.1350473463535308,-0.1928575932979583,0.0,0.0,0.92427659034729,-0.3012007474899292
-0.0496615394949913,0.3148399889469147,-0.2036258727312088,-0.6822744607925415,-0.1439926326274871,-0.1789058446884155,0.0,0.0,0.9440925121307372,-0.40777587890625
-0.0518622398376464,0.2998859882354736,-0.2112074345350265,-0.6655011773109436,-0.1528335809707641,-0.1768195331096649,0.0,0.0,0.6990498304367065,0.2693407535552978
-0.0540442466735839,0.2850983142852783,-0.2099516093730926,-0.6581019163131714,-0.1610774099826812,-0.1648763120174408,0.0,0.0,0.7974600791931152,-0.0696966052055358
-0.0563021674752235,0.2705520093441009,-0.2176579535007476,-0.6474012136459351,-0.1692210733890533,-0.1628733724355697,0.0,0.0,0.8647212982177734,-0.2954751253128052
-0.0585198402404785,0.2570183575153351,-0.2138293236494064,-0.6024190783500671,-0.1771639883518219,-0.1588586866855621,0.0,0.0,0.6222596168518066,-0.2417720556259155
-0.0606197342276573,0.2443330883979797,-0.2026642113924026,-0.5646836161613464,-0.1845140010118484,-0.1470003724098205,0.0,0.0,0.1372036933898925,-0.6955371499061584
-0.0628561004996299,0.232209637761116,-0.2178360968828201,-0.5395551919937134,-0.1903470605611801,-0.1166613474488258,0.0,0.0,-0.2620933055877685,-0.4699225425720215
-0.0651929825544357,0.2197722047567367,-0.2280773669481277,-0.55350261926651,-0.1959810554981231,-0.1126799434423446,0.0,0.0,0.7810037136077881,0.7752833366394043
-0.0673561096191406,0.2082498669624328,-0.209457442164421,-0.5130302906036377,-0.2028869986534118,-0.1381188333034515,0.0,0.0,0.4680818319320678,0.5586656332015991
-0.0695680603384971,0.1971812844276428,-0.2131731510162353,-0.4930547475814819,-0.2109751850366592,-0.1617636084556579,0.0,0.0,0.2606127262115478,0.3559644222259521
-0.0718115791678428,0.1865711063146591,-0.2163154333829879,-0.4727340638637543,-0.2191040813922882,-0.162577599287033,0.0,0.0,0.1371678113937378,0.2983248233795166
-0.0740571990609169,0.1763548254966735,-0.2166293859481811,-0.4552511572837829,-0.2271337360143661,-0.1605928242206573,0.0,0.0,-0.10760098695755,0.8873035907745361
-0.0763227492570877,0.1657986491918563,-0.2167370021343231,-0.4707095921039581,-0.2370883375406265,-0.1990926265716552,0.0,0.0,-0.2740987539291382,0.1444765329360962
-0.0786856636404991,0.1549294739961624,-0.2266036570072174,-0.4846633076667785,-0.2469363063573837,-0.1969594061374664,0.0,0.0,0.8938722610473633,0.4267897605895996
-0.0809293761849403,0.1443797498941421,-0.2152780294418335,-0.47043177485466,-0.2562009394168854,-0.1852931529283523,0.0,0.0,0.9168045520782472,0.1393578052520752
-0.082936093211174,0.1344133764505386,-0.1924484223127365,-0.4444069862365722,-0.2645996510982513,-0.1679744869470596,0.0,0.0,0.9738693237304688,-0.1563326120376587
-0.0847540870308876,0.1247506961226463,-0.1744109392166137,-0.4308073818683624,-0.2721664309501648,-0.1513355374336242,0.0,0.0,0.914616584777832,-0.5565371513366699
-0.0864808112382888,0.1160569041967392,-0.1664226204156875,-0.3875683844089508,-0.2785743772983551,-0.1281596720218658,0.0,0.0,0.928056001663208,-0.6774442195892334
-0.0880706757307052,0.1083371490240097,-0.1542223840951919,-0.3440195918083191,-0.283474326133728,-0.0979990810155868,0.0,0.0,0.9723796844482422,-0.6397218704223633
-0.0894258469343185,0.1014072522521019,-0.1324375867843628,-0.3085968196392059,-0.2866356670856476,-0.0632267445325851,0.0,0.0,0.8983316421508789,-0.9204598665237428
-0.0907153114676475,0.0946704000234603,-0.1279100179672241,-0.2996203303337097,-0.2877093851566314,-0.0214740224182605,0.0,0.0,0.9555420875549316,-0.5977550148963928
-0.0920335799455642,0.0885333642363548,-0.1317829489707946,-0.2727667093276977,-0.2877607643604278,-0.001027624355629,0.0,0.0,0.9004950523376465,-0.6947800517082214
-0.0931099876761436,0.0834966003894805,-0.1091930270195007,-0.2235499918460846,-0.2861620485782623,0.0319742634892463,0.0,0.0,0.315442681312561,-0.5427986979484558
-0.0942074805498123,0.0788247659802436,-0.1122923269867897,-0.2071387022733688,-0.2835381627082824,0.0524778179824352,0.0,0.0,0.3240115642547607,-0.6380232572555542
-0.0953665748238563,0.0748304203152656,-0.1194982975721359,-0.1768365353345871,-0.2798530161380768,0.0737030133605003,0.0,0.0,0.3951127529144287,0.352285623550415
-0.0963781327009201,0.0713416934013366,-0.1050284057855606,-0.1543198972940445,-0.2758852541446686,0.07935531437397,0.0,0.0,0.1793060302734375,0.4990904331207275
-0.0973652824759483,0.0683281049132347,-0.1023386716842651,-0.1332562416791916,-0.272162914276123,0.0744469612836837,0.0,0.0,0.1599781513214111,-0.5791123509407043
-0.0983993560075759,0.0658091157674789,-0.1080089658498764,-0.1111055240035057,-0.2674501836299896,0.0942545682191848,0.0,0.0,0.0313422679901123,-0.0106206536293029
-0.0994480103254318,0.06343275308609,-0.1093065738677978,-0.1048093661665916,-0.2628993690013885,0.0910162329673767,0.0,0.0,0.2333439588546753,-0.0661227703094482
-0.1005440726876258,0.0614274591207504,-0.1135767921805381,-0.0884210094809532,-0.2588516473770141,0.0809543058276176,0.0,0.0,-0.0254042148590087,0.0955476760864257
-0.1017189025878906,0.0591088160872459,-0.1213317364454269,-0.1023724377155304,-0.254913866519928,0.0787559151649475,0.0,0.0,-0.0905489921569824,0.5418630838394165
-0.1029213890433311,0.0564610101282596,-0.1227343529462814,-0.1172501370310783,-0.252380907535553,0.050659142434597,0.0,0.0,0.3206589221954345,0.0077153444290161
-0.1040780991315841,0.0539099089801311,-0.1182446926832199,-0.112939216196537,-0.2497493624687194,0.0526307448744773,0.0,0.0,0.0649093389511108,0.3533464670181274
-0.1050960570573806,0.0517256595194339,-0.1046727076172828,-0.0965926200151443,-0.2468222230672836,0.0585428401827812,0.0,0.0,-0.3438113927841186,0.3028428554534912
-0.1061857193708419,0.0492282025516033,-0.1117032915353775,-0.1105440333485603,-0.2440400719642639,0.0556429401040077,0.0,0.0,0.1565899848937988,0.6556559801101685
-0.1070405021309852,0.0472360700368881,-0.086906686425209,-0.088300384581089,-0.2425799369812011,0.0292022936046123,0.0,0.0,-0.195340096950531,0.7206587791442871
-0.1079009994864463,0.0449076257646083,-0.0857164859771728,-0.1035403460264206,-0.2429193407297134,-0.0067879683338105,0.0,0.0,0.257972240447998,0.4456760883331299
-0.1086833029985427,0.0431729890406131,-0.0777078494429588,-0.0771792754530906,-0.2434515506029129,-0.0106441937386989,0.0,0.0,-0.1393593549728393,0.4392290115356445
-0.1095296889543533,0.0411252118647098,-0.0839422196149826,-0.0911305695772171,-0.2441578507423401,-0.0141260158270597,0.0,0.0,0.1939302682876587,0.716660737991333
-0.1102398857474327,0.0391985289752483,-0.0687974989414215,-0.0859982669353485,-0.2464191764593124,-0.0452262796461582,0.0,0.0,0.3447415828704834,-0.0589165687561035
-0.1109837517142295,0.0377273187041282,-0.0715371519327163,-0.0658697262406349,-0.2493275701999664,-0.058167852461338,0.0,0.0,-0.0341331958770751,-0.2829078435897827
-0.1117856055498123,0.0359429679811,-0.0771382749080658,-0.0798221156001091,-0.2524281740188598,-0.062011856585741,0.0,0.0,0.4993120431900024,-0.7269216179847717
-0.112591840326786,0.0346178151667118,-0.078797236084938,-0.0592131875455379,-0.254295289516449,-0.037341870367527,0.0,0.0,0.0808087587356567,0.0075534582138061
-0.1133475303649902,0.0334797725081443,-0.0736166089773178,-0.0509203672409057,-0.2562864422798157,-0.0398221872746944,0.0,0.0,-0.1513227820396423,-0.1905003786087036
-0.1141547188162803,0.0320286601781845,-0.0785634666681289,-0.0648728311061859,-0.2584847807884216,-0.0439665801823139,0.0,0.0,0.041293978691101,0.1301524639129638
-0.1148416548967361,0.0308657977730035,-0.0666113719344139,-0.0520470887422561,-0.2606105506420135,-0.0425156690180301,0.0,0.0,0.0486084222793579,-0.0854581594467163
-0.1154284477233886,0.0301258657127618,-0.0564577206969261,-0.033281672745943,-0.26287841796875,-0.0453570708632469,0.0,0.0,-0.2314533591270446,0.0600302219390869
