x_pos,y_pos,x_vel,y_vel,angle,ang_vel,leg_1,leg_2,main_booster,lat_booster
-0.0014861107338219,1.4029066562652588,-0.1507750898599624,-0.3561508059501648,0.0019356063567101,0.0381943024694919,0.0,0.0,0.0359470844268798,0.6197291612625122
-0.0028491020202636,1.394629716873169,-0.1372099667787552,-0.3678627908229828,0.002847027266398,0.0182305835187435,0.0,0.0,-0.1272556781768798,0.804140567779541
-0.0040955543518066,1.3856290578842163,-0.1238110214471817,-0.4000313878059387,0.0020246393978595,-0.0164492409676313,0.0,0.0,-0.2543150782585144,0.5698709487915039
-0.0052659986540675,1.3759088516235352,-0.1155230179429054,-0.4320098459720611,0.0005160474684089,-0.0301742907613515,0.0,0.0,-0.3143088817596435,-0.2509484887123108
-0.0063959122635424,1.3654708862304688,-0.1116959899663925,-0.4639102220535278,-0.0007653863285668,-0.0256312489509582,0.0,0.0,0.350858211517334,0.0035688877105712
-0.0073721883818507,1.3549810647964478,-0.0971094965934753,-0.4662116169929504,-0.0012750149471685,-0.010193564929068,0.0,0.0,-0.131929874420166,0.051501989364624
-0.0083069801330566,1.343773365020752,-0.0931984558701515,-0.4981171786785126,-0.0015416223322972,-0.0053325560875236,0.0,0.0,0.4615199565887451,-0.0880082249641418
-0.0090665817260742,1.3327062129974363,-0.0765776932239532,-0.4918726980686188,-0.0009274153853766,0.0122852232307195,0.0,0.0,-0.4997346997261047,0.0520209074020385
-0.0097836498171091,1.3209213018417358,-0.0725970864295959,-0.5237799286842346,-5.616261842078529e-05,0.0174267012625932,0.0,0.0,-0.3333175182342529,-0.8238029479980469
-0.0105230333283543,1.3084237575531006,-0.0767365843057632,-0.5554482340812683,0.0027132323011755,0.0553933978080749,0.0,0.0,-0.3000068664550781,0.0749740600585937
-0.0112193105742335,1.2952085733413696,-0.0727016627788543,-0.5873492360115051,0.0057513494975864,0.0607677027583122,0.0,0.0,-0.3474661111831665,-0.7218690514564514
-0.0119224544614553,1.2812739610671997,-0.0749410688877105,-0.6193409562110901,0.0103275245055556,0.0915319100022316,0.0,0.0,-0.5373387932777405,-0.4974197149276733
-0.0125819202512502,1.2666219472885132,-0.0708609670400619,-0.6512432098388672,0.0151824662461876,0.0971074998378753,0.0,0.0,-0.7892991900444031,-0.4968990087509155
-0.0131975170224905,1.25125253200531,-0.06675935536623,-0.6831456422805786,0.0203212443739175,0.1027851104736328,0.0,0.0,-0.0076280832290649,0.6692957878112793
-0.0137040140107274,1.235174536705017,-0.0544758215546608,-0.7146303057670593,0.0241086762398481,0.0757557600736618,0.0,0.0,-0.5224044322967529,-0.4527319669723511
-0.0141661642119288,1.218379259109497,-0.0503326654434204,-0.7465326189994812,0.0281879138201475,0.0815918743610382,0.0,0.0,-0.4286085963249206,0.6793837547302246
-0.0145179750397801,1.2008769512176514,-0.0379263833165168,-0.7779284715652466,0.0309032518416643,0.0543117746710777,0.0,0.0,-0.2119450569152832,-0.2154878973960876
-0.0148250581696629,1.1826573610305786,-0.0337483957409858,-0.8098306059837341,0.0339160375297069,0.0602611228823661,0.0,0.0,0.5148525238037109,0.5294170379638672
-0.0149746891111135,1.1648354530334473,-0.0174952205270528,-0.7921401858329773,0.0364225506782531,0.0501344874501228,0.0,0.0,-0.305928885936737,0.3987146615982055
-0.0150792123749852,1.1462959051132202,-0.0132901994511485,-0.8240512609481812,0.0392297320067882,0.0561488643288612,0.0,0.0,0.1201739311218261,0.6605334281921387
-0.0150089263916015,1.127816677093506,0.005079903639853,-0.8213521242141724,0.0411508120596408,0.0384253934025764,0.0,0.0,0.6694084405899048,0.4432840347290039
-0.0148999216035008,1.109290599822998,0.0085973469540476,-0.8234491944313049,0.0434299930930137,0.0455875173211097,0.0,0.0,0.5651404857635498,0.0992050170898437
-0.0146450046449899,1.0908278226852417,0.0223038755357265,-0.8206596970558167,0.0465838313102722,0.0630824342370033,0.0,0.0,-0.258055031299591,0.5426506996154785
-0.014296531677246,1.0716447830200195,0.0325678139925003,-0.8526475429534912,0.0488366223871707,0.0450600311160087,0.0,0.0,0.7996177673339844,0.734393835067749
-0.014046954922378,1.0527886152267456,0.0242283400148153,-0.838074803352356,0.0495586991310119,0.0144429579377174,0.0,0.0,0.4144535064697265,-0.2173013687133789
-0.0139053342863917,1.0340871810913086,0.0137000679969787,-0.8311894536018372,0.0500060617923736,0.0089474432170391,0.0,0.0,0.2301480770111084,0.5185015201568604
-0.0137011529877781,1.015485167503357,0.0207049772143363,-0.8267489075660706,0.0497291646897792,-0.0055379262194037,0.0,0.0,0.2261824607849121,-0.5540259480476379
-0.0136318206787109,0.9970778226852416,0.0060017826035618,-0.8181377649307251,0.0506445057690143,0.0183066502213478,0.0,0.0,0.4569141864776611,0.074259877204895
-0.0136662479490041,0.978967547416687,-0.0041248835623264,-0.8049284219741821,0.0513263791799545,0.0136372242122888,0.0,0.0,0.517012357711792,0.5126057863235474
-0.0136577608063817,0.960809886455536,0.0009447977063246,-0.8070013523101807,0.0512318909168243,-0.0018898488488048,0.0,0.0,0.5368716716766357,0.6215488910675049
-0.0135759357362985,0.943126916885376,0.0091951135545969,-0.785880446434021,0.0502360649406909,-0.0199164189398288,0.0,0.0,0.3241159915924072,0.2566375732421875
-0.0135280610993504,0.9252476692199708,0.0057933712378144,-0.7945936918258667,0.0492440275847911,-0.0198408830910921,0.0,0.0,0.5571949481964111,0.231251835823059
-0.013549136929214,0.9077774286270142,-0.0010325363837182,-0.7764275074005127,0.0481812395155429,-0.0212556011974811,0.0,0.0,0.181381344795227,-0.0320572853088378
-0.0135822296142578,0.8899725675582886,-0.0023111139889806,-0.791293203830719,0.0471936427056789,-0.0197519082576036,0.0,0.0,0.5716798305511475,0.3459905385971069
-0.01358203869313,0.8723453879356384,0.0006538775051012,-0.7834122180938721,0.0465600304305553,-0.012671997770667,0.0,0.0,0.1306025981903076,0.29326331615448
-0.0135476114228367,0.8547769784927368,0.0037380438297986,-0.7808067202568054,0.0462625212967395,-0.0059502138756215,0.0,0.0,0.4107751846313476,0.6018140316009521
-0.0134621616452932,0.8370722532272339,0.0098348371684551,-0.7868412733078003,0.0449909195303916,-0.0254321303218603,0.0,0.0,0.6304370164871216,0.2569097280502319
-0.0133271217346191,0.8197780847549438,0.0143450479954481,-0.7686041593551636,0.0441628135740757,-0.0165621303021907,0.0,0.0,-0.0143697261810302,0.4227306842803955
-0.0131463054567575,0.8017665147781372,0.0186552200466394,-0.8005039095878601,0.0435996241867542,-0.0112639609724283,0.0,0.0,-0.2033493518829345,0.6817984580993652
-0.0128633501008152,0.7830418348312378,0.0300444010645151,-0.8321590423583984,0.0418758802115917,-0.0344748422503471,0.0,0.0,-0.1119105815887451,-0.028859257698059
-0.0125347133725881,0.7635994553565979,0.0343548581004142,-0.864058792591095,0.0404064431786537,-0.0293889436870813,0.0,0.0,0.7468640804290771,0.4899182319641113
-0.0120523450896143,0.7442772388458252,0.048858918249607,-0.8587525486946106,0.0397891774773597,-0.0123452264815568,0.0,0.0,0.349688172340393,0.5541691780090332
-0.0114043233916163,0.724622905254364,0.0661104992032051,-0.8734873533248901,0.0385021567344665,-0.0257404204457998,0.0,0.0,0.9293015003204346,0.5293319225311279
-0.0105698583647608,0.705184817314148,0.0852079391479492,-0.8638708591461182,0.0367611795663833,-0.034819483757019,0.0,0.0,0.405827522277832,-0.2088381052017212
-0.009733771905303,0.6854029893875122,0.0852994471788406,-0.8791567087173462,0.0350899137556552,-0.0334253683686256,0.0,0.0,0.8013694286346436,-0.429616630077362
-0.0088150976225733,0.6654523611068726,0.0930975601077079,-0.8866704702377319,0.0338732749223709,-0.0243328381329774,0.0,0.0,0.7851753234863281,-0.4060328006744385
-0.0078017236664891,0.6455111503601074,0.1020438522100448,-0.8862547278404236,0.033177450299263,-0.0139165921136736,0.0,0.0,0.8158013820648193,-0.695942759513855
-0.0069625852629542,0.6262242794036865,0.0833253934979438,-0.8572055697441101,0.0337605103850364,0.0116612333804368,0.0,0.0,0.6876736879348755,-0.5680257678031921
-0.0062959669157862,0.6074222326278687,0.0651040226221084,-0.8356850743293762,0.0352959670126438,0.0307091772556304,0.0,0.0,0.3213889598846435,-0.2064735293388366
-0.0056158066727221,0.5885114073753357,0.0663467943668365,-0.8405186533927917,0.0369466766715049,0.0330145619809627,0.0,0.0,0.0588353872299194,0.1585756540298462
-0.0048125265166163,0.5694368481636047,0.0780368149280548,-0.8478202819824219,0.0392083823680877,0.0452341362833976,0.0,0.0,0.8188595771789551,-0.2033115625381469
-0.0040597915649414,0.5508565306663513,0.0731015279889106,-0.8258499503135681,0.0413545705378055,0.0429236777126789,0.0,0.0,0.8850231170654297,-0.0629187226295471
-0.0031589507125318,0.5323265790939331,0.0871565714478492,-0.8236348628997803,0.0442473478615284,0.0578551404178142,0.0,0.0,0.6908625364303589,0.0245337486267089
-0.0022467612288892,0.5143027901649475,0.0881242603063583,-0.8011529445648193,0.0473165288567543,0.0613835230469703,0.0,0.0,0.7415518760681152,0.0237361192703247
-0.0011577606201171,0.4963427782058716,0.1049055829644203,-0.7983552813529968,0.0512651614844799,0.0789724960923194,0.0,0.0,0.8955104351043701,0.3095700740814209
-0.0001619339018361,0.4784666895866394,0.0959490984678268,,0.0548510253429412,0.0717171505093574,0.0,0.0,0.9144563674926758,-0.3933694362640381
0.0009357452508993,0.4612654447555542,0.1054946184158325,-0.7646637558937073,0.0590766035020351,0.0845116153359413,0.0,0.0,0.7985590696334839,0.456656813621521
0.0021836280357092,0.4444595575332641,0.1196828037500381,-0.7471385598182678,0.0641242861747741,0.1009536534547805,0.0,0.0,0.8181777000427246,0.4005757570266723
0.0034988403785973,0.4283006489276886,0.1259146630764007,-0.7184237241744995,0.0696707665920257,0.1109295338392257,0.0,0.0,0.4383485317230224,0.5921249389648438
0.004784011747688,0.4124506711959839,0.124149702489376,-0.7046546936035156,0.0739890038967132,0.0863649100065231,0.0,0.0,0.4486556053161621,0.3326238393783569
0.0061327936127781,0.396373987197876,0.1302016675472259,-0.714756965637207,0.0786159262061119,0.0925386101007461,0.0,0.0,0.6243177652359009,0.7355315685272217
0.007419872097671,0.3806089758872986,0.1256369948387146,-0.7008293271064758,0.0816568881273269,0.0608193799853324,0.0,0.0,0.7672445774078369,-0.1420320868492126
0.0088357925415039,0.3649698495864868,0.1378259509801864,-0.6952868700027466,0.0853926464915275,0.0747149214148521,0.0,0.0,0.8310836553573608,-0.6978586316108704
0.0102089885622262,0.3496260941028595,0.1320030242204666,-0.6822540760040283,0.0906597971916198,0.1053431034088134,0.0,0.0,0.6877627372741699,0.5316393375396729
0.0116374967619776,0.3341797888278961,0.1385107934474945,-0.6867731809616089,0.0949584245681762,0.0859723985195159,0.0,0.0,0.8599033355712891,0.4134567975997925
0.0129055976867675,0.3189896941184997,0.1230620890855789,-0.6753566265106201,0.0986704006791114,0.0742395743727684,0.0,0.0,0.9723401069641112,0.6967082023620605
0.0141957281157374,0.3046274185180664,0.1265628039836883,-0.6384860277175903,0.1011091843247413,0.0487755835056304,0.0,0.0,0.7722592353820801,0.0192415714263916
0.0155825614929199,0.2900291383266449,0.1357705444097519,-0.6490135788917542,0.1039967909455299,0.0577523335814476,0.0,0.0,0.8144681453704834,0.1429277658462524
0.0169419292360544,0.2761166989803314,0.1328454166650772,-0.6185508966445923,0.1070551723241806,0.0611677691340446,0.0,0.0,0.8903239965438843,-0.1565132141113281
0.0181760787963867,0.2622770667076111,0.1208098381757736,-0.615281343460083,0.1096411198377609,0.0517189130187034,0.0,0.0,0.9425971508026124,-0.0985490679740905
0.0192550662904977,0.2488892674446106,0.1057854667305946,-0.5951722264289856,0.1117455884814262,0.0420890897512435,0.0,0.0,0.9342807531356812,-0.2042338848114013
0.0203274730592966,0.2358759045600891,0.1049446463584899,-0.5785432457923889,0.1140271723270416,0.0456315651535987,0.0,0.0,0.9061329364776612,0.1629811525344848
0.0211795810610055,0.2235716432332992,0.0836100205779075,-0.5469804406166077,0.1156245470046997,0.0319474972784519,0.0,0.0,0.9354289770126344,-0.4977367520332336
0.0220768935978412,0.2115725129842758,0.0877278819680213,-0.5334497690200806,0.1176164671778678,0.0398385450243949,0.0,0.0,0.9694020748138428,-0.4292889833450317
0.0229166988283395,0.1995431333780288,0.0821677967905998,-0.5347833037376404,0.1194122359156608,0.0359153524041175,0.0,0.0,0.9328527450561525,-0.1503991484642028
0.0238264091312885,0.1873766332864761,0.0888184085488319,-0.5409070253372192,0.1215593889355659,0.0429430641233921,0.0,0.0,0.9383094310760498,-0.828386127948761
0.0246190074831247,0.1750579923391342,0.0755387246608734,-0.5478036403656006,0.1252563893795013,0.0739398673176765,0.0,0.0,0.9594966173171996,-0.1533800363540649
0.0253190044313669,0.1634199172258377,0.0663594603538513,-0.5175557732582092,0.12887904047966,0.072453074157238,0.0,0.0,0.9685846567153932,-0.384710431098938
0.0260225292295217,0.1525286585092544,0.0663132444024086,-0.4844117760658264,0.1329090595245361,0.0805997774004936,0.0,0.0,0.981947898864746,-0.1401109099388122
0.0264958385378122,0.1423507779836654,0.0439462214708328,-0.4526547491550445,0.1362774521112442,0.0673679485917091,0.0,0.0,0.9948171377182008,-0.8392326235771179
0.0267128944396972,0.1319928765296936,0.0170554853975772,-0.4607861936092376,0.1409212350845337,0.0928752273321151,0.0,0.0,0.9932928085327148,0.8929694890975952
0.026949118822813,0.1223676800727844,0.0206948909908533,-0.42806276679039,0.143833726644516,0.0582498684525489,0.0,0.0,0.9942920207977296,0.4137792587280273
0.0269944183528423,0.1130298674106597,0.0022356680128723,-0.4152404069900512,0.146128848195076,0.0459025539457798,0.0,0.0,0.9746931791305542,0.983472466468811
0.0269550327211618,0.1041816547513008,-0.004077898338437,-0.3932665288448334,0.146275982260704,0.0029425104148685,0.0,0.0,0.9557645320892334,0.8515825271606445
0.0268732067197561,0.0958597958087921,-0.0065286085009574,-0.3697026968002319,0.1446280777454376,-0.0329581573605537,0.0,0.0,0.9325710535049438,0.9436483383178712
0.0269046779721975,0.0878709629178047,0.0065530305728316,-0.3547312319278717,0.1412311941385269,-0.0679377987980842,0.0,0.0,0.9380664825439452,0.6498249769210815
0.0269850734621286,0.0797716230154037,0.0127341989427804,-0.3595304787158966,0.1365532428026199,-0.0935594290494918,0.0,0.0,0.9810166358947754,0.4032752513885498
0.0271328929811716,0.0716949552297592,0.0190215818583965,-0.3585810363292694,0.1323252916336059,-0.0845587775111198,0.0,0.0,0.945380449295044,-0.0383680462837219
0.0273849479854106,0.0639346465468406,0.0287124421447515,-0.3445927500724792,0.1288329511880874,-0.0698464438319206,0.0,0.0,0.972315549850464,-0.483106791973114
0.0277610775083303,0.0561891421675682,0.0404168106615543,-0.3440048098564148,0.1260439157485962,-0.0557808056473732,0.0,0.0,0.9905147552490234,-0.7439672350883484
0.0279749874025583,0.0490656942129135,0.0227943174540996,-0.316480278968811,0.1246534660458564,-0.027808928862214,0.0,0.0,0.9890172481536864,0.0360999107360839
0.0281283371150493,0.0425905548036098,0.0166209377348423,-0.287674605846405,0.1233686208724975,-0.0256969537585973,0.0,0.0,0.96294903755188,-0.6574886441230774
0.0283037181943655,0.0365996472537517,0.0171681642532348,-0.2662954926490783,0.1237422749400138,0.0074730403721332,0.0,0.0,0.9849469661712646,0.0153168439865112
0.0285630226135253,0.030497083440423,0.0250494387000799,-0.2712966203689575,0.1246115416288375,0.0173855423927307,0.0,0.0,0.9946012496948242,-0.2839049100875854
0.0286928173154592,0.0245799161493778,0.0124637279659509,-0.2630269229412079,0.1251240670680999,0.010250368155539,0.0,0.0,0.9957599639892578,0.0721305608749389
0.0288018230348825,0.019515261054039,0.0099711874499917,-0.2251749485731125,0.1260482668876648,0.0184839982539415,0.0,0.0,0.9839363098144532,0.3435864448547363
0.0288028717041015,0.0147445062175393,-0.0006387719186022,-0.212095633149147,0.1267842352390289,0.0147192804142832,0.0,0.0,0.9535238742828368,0.5061779022216797
0.0284892078489065,0.0114316558465361,-0.0112922666594386,-0.1456447541713714,0.1068503856658935,-0.3986462652683258,0.0,1.0,0.9359085559844972,0.1972005367279052
0.0280938148498535,0.00921690184623,-0.0047704349271953,-0.0963161885738372,0.0723597407341003,-0.6898462772369385,0.0,1.0,0.8080213069915771,0.029953122138977
0.0275988578796386,0.0074960328638553,-0.0154131725430488,-0.0751776024699211,0.0386544875800609,-0.6741055250167847,0.0,1.0,0.5968477725982666,0.2131050825119018
0.0269956588745117,0.0061528896912932,-0.0258144922554492,-0.0591550283133983,0.004580941516906,-0.681471586227417,0.0,0.0,-0.0133344531059265,-0.922908365726471
0.0263176914304494,0.0041031097061932,-0.0351628102362155,-0.0913178473711013,-0.0276307947933673,-0.6442350149154663,0.0,0.0,0.6210620403289795,-0.9380861520767212
0.0254526138305664,0.0022428368683904,-0.0555806532502174,-0.0835326686501503,-0.0581910498440265,-0.6112053394317627,1.0,0.0,0.8121222257614136,-0.1178134083747863
0.0246201511472463,0.0010128116700798,-0.0664306730031967,-0.0556420683860778,-0.0736375376582145,-0.3073956966400146,1.0,0.0,0.2431322336196899,0.3910243511199951
0.024152373895049,0.0004032349679619,-0.0511230155825614,-0.0268929563462734,-0.0692949891090393,0.0868979096412658,1.0,0.0,-0.5203267335891724,0.3099383115768432
0.0237944610416889,-0.0004431629204191,-0.0545649901032447,-0.0368722304701805,-0.0506712570786476,0.3725455403327942,1.0,0.0,-0.197565495967865,0.3988955020904541
0.0234872810542583,-0.0016891026170924,-0.0583287365734577,-0.0546733811497688,-0.0233557224273681,0.5463531017303467,1.0,0.0,0.2084600925445556,0.0797148942947387
0.0231905933469533,-0.0027128481306135,-0.0594431869685649,-0.045301754027605,0.0060713281854987,0.5885800123214722,1.0,1.0,0.5784863233566284,0.945603847503662
0.0230535510927438,-0.0028368020430207,-0.0306338127702474,-0.0059183523990213,0.0217153318226337,0.311518520116806,1.0,1.0,0.1500020027160644,0.9958406686782836
0.0229470245540142,-0.0026330614928156,-0.0110059725120663,0.0090396823361516,0.0220271777361631,0.0061954027041792,0.0,1.0,-0.7699467539787292,-0.0794428586959838
0.0227751731872558,-0.0027636312879621,-0.0065532959997653,-0.0056850286200642,0.0115094929933547,-0.2103800326585769,0.0,1.0,-0.7790408730506897,-0.0113621354103088
0.0226934440433979,-0.0029469514265656,-0.0007141735986806,-0.0081193763762712,0.0041620847769081,-0.1469343900680542,1.0,1.0,-0.855396568775177,-0.0617477297782897
0.0226985923945903,-0.003000917378813,0.0027444383595138,-0.0024049347266554,0.0019661996047943,-0.0439113304018974,1.0,1.0,-0.8515904545783997,-0.0281026363372802
0.0227120406925678,-0.0028553628362715,0.0008067955495789,0.006484642624855,0.0025026018265634,0.010734524577856,1.0,1.0,-0.7171173691749573,-0.1323570013046264
0.0227394104003906,-0.0024626518134027,0.001029287581332,0.0174417924135923,0.0041917418129742,0.0337769910693168,1.0,1.0,-0.611176073551178,0.49913489818573
0.0227608680725097,-0.0018016839167103,0.0009261657251045,0.029371416196227,0.0053889020346105,0.0239381473511457,1.0,1.0,-0.7151483297348022,0.0411162376403808
0.0227049831300973,-0.0011231207754462,-0.0003768312162719,0.0301682315766811,0.0002451507898513,-0.1028753966093063,1.0,1.0,-0.9146379828453064,-0.430209219455719
0.0227066986262798,-0.0010654712095856,0.0006163521320559,0.0025612583849579,-0.0002020414103753,-0.0089384596794843,1.0,1.0,-0.8129710555076599,-0.2851953506469726
0.022707462310791,-0.0010693335207179,9.18026635190472e-05,-0.0001722750166663,-0.0002027190930675,-8.05633590061916e-06,1.0,1.0,-0.6008567810058594,-0.2044503688812255
0.0227057449519634,-0.001069834223017,-0.0001820160396164,-2.0771618437720463e-05,-0.0002000761887757,5.51354096387513e-05,1.0,1.0,-0.7119359374046326,-0.0645006895065307
0.0227042194455862,-0.001069834223017,-0.0001480066421208,7.953306067065569e-07,-0.0001980186643777,4.2925668822135776e-05,1.0,1.0,-0.8786103129386902,-0.1597732305526733
