x_pos,y_pos,x_vel,y_vel,angle,ang_vel,leg_1,leg_2,main_booster,lat_booster
-0.0016286850441247,1.402952790260315,-0.1649654805660247,-0.3541085124015808,0.0018765811109915,0.0370259769260883,0.0,0.0,0.3785151243209839,0.5147075653076172
-0.0032756805885583,1.394911766052246,-0.1656799465417862,-0.3573792576789856,0.0028429592493921,0.0193301178514957,0.0,0.0,-0.149576723575592,0.9032986164093018
-0.0049397470429539,1.3861922025680542,-0.1652006804943084,-0.3875366151332855,0.0016606978606432,-0.0236473269760608,0.0,0.0,0.3910005092620849,0.8472598791122437
-0.0067536355927586,1.3774290084838867,-0.1783886849880218,-0.3894772231578827,-0.0013146112905815,-0.0595118291676044,0.0,0.0,-0.2562019824981689,0.8066229820251465
-0.0085918428376317,1.3679965734481812,-0.1788889914751052,-0.4192372262477875,-0.0061939223669469,-0.0975951701402664,0.0,0.0,0.359355092048645,0.7268966436386108
-0.010344123467803,1.3585602045059204,-0.1690891087055206,-0.4194312393665313,-0.0122666824609041,-0.1214663535356521,0.0,0.0,0.2269022464752197,0.3210575580596924
-0.0122065544128417,1.3490959405899048,-0.1800523549318313,-0.4206963181495666,-0.0183879397809505,-0.1224365457892417,0.0,0.0,-0.0897230505943298,0.7105181217193604
-0.0140964509919285,1.3389606475830078,-0.1810510009527206,-0.4505748748779297,-0.0262334533035755,-0.1569249182939529,0.0,0.0,-0.3947435617446899,0.9262458086013794
-0.0160102844238281,1.3281618356704712,-0.1816690862178802,-0.4801443219184875,-0.0358448550105094,-0.1922457218170166,0.0,0.0,-0.2379926443099975,0.8911185264587402
-0.0179479606449604,1.3166943788528442,-0.1823047250509262,-0.5099724531173706,-0.0471885725855827,-0.226895123720169,0.0,0.0,0.6050353050231934,0.8802521228790283
-0.0197877883911132,1.305411696434021,-0.1709457337856292,-0.5019176602363586,-0.0600996240973472,-0.2582448422908783,0.0,0.0,0.3744713068008423,0.4075669050216675
-0.0216330531984567,1.2941116094589231,-0.171802282333374,-0.5027749538421631,-0.0727027729153633,-0.2520860731601715,0.0,0.0,-0.4096823334693908,0.796318769454956
-0.0234906189143657,1.282138109207153,-0.1711359918117523,-0.5329309105873108,-0.0871994346380233,-0.2899600863456726,0.0,0.0,0.0976337194442749,-0.336946964263916
-0.0253685005009174,1.2698421478271484,-0.1734345406293869,-0.5473868250846863,-0.1014509946107864,-0.28505739569664,0.0,0.0,0.4187545776367187,0.4291048049926758
-0.0271388050168752,1.2579150199890137,-0.1632899343967437,-0.5310907959938049,-0.1151058003306388,-0.2731207907199859,0.0,0.0,0.5236339569091797,0.1954114437103271
-0.0288596153259277,1.24570894241333,-0.1588698625564575,-0.5435545444488525,-0.1282599717378616,-0.2631076574325561,0.0,0.0,0.4342129230499267,0.4892865419387817
-0.0304470062255859,1.2339153289794922,-0.1461404263973236,-0.5252986550331116,-0.1408284306526184,-0.2513920664787292,0.0,0.0,0.2166000604629516,-0.8212353587150574
-0.0320194251835346,1.221842646598816,-0.1464334428310394,-0.5376275181770325,-0.1516346186399459,-0.2161435335874557,0.0,0.0,-0.3936435580253601,-0.3653267621994018
-0.0336675643920898,1.209099531173706,-0.1540376096963882,-0.5674963593482971,-0.1624201983213424,-0.2157312333583831,0.0,0.0,-0.08729088306427,-0.5034979581832886
-0.0354333892464637,1.195696473121643,-0.166976198554039,-0.5967655777931213,-0.1720439493656158,-0.1924922317266464,0.0,0.0,0.6279616355895996,-0.7336962819099426
-0.0370634086430072,1.1827020645141602,-0.1551710814237594,-0.5784483551979065,-0.1799023896455764,-0.1571833342313766,0.0,0.0,-0.0410196185111999,-0.6898449063301086
-0.0388144478201866,1.1690468788146973,-0.1686475425958633,-0.6076929569244385,-0.1863921731710434,-0.1298072189092636,0.0,0.0,0.6580917835235596,-0.6007578372955322
-0.0404380783438682,1.1554991006851196,-0.1574731469154358,-0.6027472019195557,-0.1913169175386428,-0.0985034927725792,0.0,0.0,0.911105751991272,-0.6704515814781189
-0.0420230850577354,1.141794204711914,-0.1551797240972519,-0.6095379590988159,-0.1946698576211929,-0.0670646280050277,0.0,0.0,-0.1046419739723205,-0.6549933552742004
-0.0437302589416503,1.1274380683898926,-0.1690128445625305,-0.6382834911346436,-0.1963855624198913,-0.0343171432614326,0.0,0.0,0.9359345436096193,-0.7270607352256775
-0.0455727577209472,1.1136772632598877,-0.1835726052522659,-0.6116790771484375,-0.1970660239458084,-0.0136095285415649,0.0,0.0,-0.533639669418335,-0.2913495302200317
-0.0474687591195106,1.0992445945739746,-0.1889339983463287,-0.6415353417396545,-0.1977400034666061,-0.0134797347709536,0.0,0.0,0.6949604749679565,-0.5240257382392883
-0.0494288429617881,1.0854451656341553,-0.1960094422101974,-0.613305926322937,-0.1977450996637344,-0.0001020282070385,0.0,0.0,0.6358757019042969,0.0999358892440795
-0.0514122024178504,1.0721402168273926,-0.1977322399616241,-0.5914143919944763,-0.1983460187911987,-0.0120181422680616,0.0,0.0,0.2542991638183594,-0.213814377784729
-0.0533820167183876,1.0587124824523926,-0.1963142305612564,-0.5968770980834961,-0.1990210711956024,-0.0135010182857513,0.0,0.0,0.2500852346420288,0.4586113691329956
-0.0552518852055072,1.0455507040023804,-0.1863768994808197,-0.5850476622581482,-0.1996333450078964,-0.0122454864904284,0.0,0.0,0.901891589164734,0.0373841524124145
-0.0571467392146587,1.0324854850769043,-0.1884523183107376,-0.5808113813400269,-0.2006649523973465,-0.0206320993602275,0.0,0.0,0.0810619592666626,0.1714646816253662
-0.059023667126894,1.019536018371582,-0.1864162385463714,-0.5757163763046265,-0.2019538730382919,-0.0257784333080053,0.0,0.0,0.1544933319091797,-0.6855430603027344
-0.0609835609793663,1.006310224533081,-0.1960109323263168,-0.5878089666366577,-0.2019394487142563,0.0002885491412598,0.0,0.0,0.0552937984466552,0.1025941371917724
-0.0628800392150878,0.9929983019828796,-0.1896929591894149,-0.5916317701339722,-0.2018889784812927,0.0010091200238093,0.0,0.0,-0.820978581905365,-0.427945077419281
-0.0648000687360763,0.9790145754814148,-0.1920390427112579,-0.6214883923530579,-0.2018528431653976,0.0007226048619486,0.0,0.0,-0.3402589559555053,-0.4069150686264038
-0.0667403191328048,0.9643592834472656,-0.1940431296825409,-0.6513449549674988,-0.2018333226442337,0.0003902899916283,0.0,0.0,-0.9656133651733398,-0.0627837181091308
-0.0686973556876182,0.9490322470664978,-0.1957071721553802,-0.6812015175819397,-0.2018327116966247,1.2629470802494325e-05,0.0,0.0,-0.9681137204170228,-0.5792821049690247
-0.0707147568464279,0.9330543875694276,-0.2029532492160797,-0.7099587917327881,-0.2006084471940994,0.0244855899363756,0.0,0.0,-0.5264185070991516,-0.793980598449707
-0.0728006362915039,0.9164238572120668,-0.2112978249788284,-0.7387732267379761,-0.1978862434625625,0.0544439554214477,0.0,0.0,0.7210192680358887,-0.1885533928871154
-0.0748430266976356,0.9003471732139587,-0.2064080238342285,-0.7142241597175598,-0.1957040578126907,0.0436435341835022,0.0,0.0,0.6609901189804077,-0.0213841795921325
-0.076664924621582,0.8843373656272888,-0.1849105209112167,-0.711197555065155,-0.1929755210876464,0.0545707643032074,0.0,0.0,-0.6284810900688171,0.0552591085433959
-0.0784874930977821,0.8676556944847107,-0.1849320083856582,-0.741054892539978,-0.1902766227722168,0.0539778880774974,0.0,0.0,-0.318761944770813,-0.709560751914978
-0.0803535431623458,0.8503144979476929,-0.1904388517141342,-0.7702337503433228,-0.1864209026098251,0.0771144852042198,0.0,0.0,0.3411242961883545,-0.2198309898376464
-0.0822019577026367,0.8326634168624878,-0.1885028779506683,-0.7840423583984375,-0.1827514171600341,0.0733896121382713,0.0,0.0,0.0392870903015136,0.1994308233261108
-0.0839753150939941,0.8146428465843201,-0.181081622838974,-0.8004541397094727,-0.1789837777614593,0.07535320520401,0.0,0.0,0.4724423885345459,0.3597249984741211
-0.0856126770377159,0.7965241074562073,-0.1677097380161285,-0.8047991991043091,-0.1750019490718841,0.0796364545822143,0.0,0.0,0.874060869216919,0.7147383689880371
-0.0871505737304687,0.7791598439216614,-0.155970811843872,-0.7714926600456238,-0.1728095710277557,0.0438472144305706,0.0,0.0,0.061017632484436,0.1768085956573486
-0.0886683464050293,0.7618936896324158,-0.1535334885120391,-0.7671782374382019,-0.1710521280765533,0.0351487249135971,0.0,0.0,-0.1491802334785461,-0.2270362973213195
-0.0901666656136512,0.7439559698104858,-0.1515386998653412,-0.7970354557037354,-0.1693370640277862,0.0343012250959873,0.0,0.0,0.8680387735366821,-0.0501050949096679
-0.0913741141557693,0.726260244846344,-0.123169720172882,-0.7862004637718201,-0.1669156998395919,0.0484273470938205,0.0,0.0,0.8281140327453613,0.0871223211288452
-0.0924845710396766,0.7091147303581238,-0.1131214722990989,-0.7617962956428528,-0.1648344546556472,0.0416248440742492,0.0,0.0,0.3876680135726928,0.4569907188415527
-0.0934163108468055,0.6918272376060486,-0.0956359654664993,-0.768054723739624,-0.1623752564191818,0.0491842776536941,0.0,0.0,0.6188716888427734,-0.070729911327362
-0.0941896438598632,0.6750246286392212,-0.0797556415200233,-0.7465214133262634,-0.1599496454000473,0.0485122799873352,0.0,0.0,0.608501672744751,0.4633517265319824
-0.0947129279375076,0.6582186818122864,-0.055382490158081,-0.7466049194335938,-0.1569022983312606,0.0609471872448921,0.0,0.0,0.006314992904663,-0.3500510454177856
-0.0952157974243164,0.6411799788475037,-0.0530120804905891,-0.7569860816001892,-0.1541745662689209,0.0545542761683464,0.0,0.0,0.7977733612060547,-0.8106555342674255
-0.0955018997192382,0.6247515678405762,-0.0331354811787605,-0.7296885848045349,-0.1496522575616836,0.0904460400342941,0.0,0.0,0.2663785219192505,-0.2299973964691162
-0.0955693274736404,0.608394980430603,-0.0117153925821185,-0.7264702916145325,-0.1446931213140487,0.0991826876997947,0.0,0.0,0.2651456594467163,0.1997215747833252
-0.0954505950212478,0.5922904014587402,0.0066885454580187,-0.715260922908783,-0.1395227313041687,0.1034077182412147,0.0,0.0,0.1441547870635986,-0.4540467858314514
-0.0952681526541709,0.5763339996337891,0.0133581655099987,-0.7087277770042419,-0.1346505582332611,0.0974434837698936,0.0,0.0,-0.2356687188148498,-0.5810859203338623
-0.0950860008597374,0.5597096681594849,0.0123138343915343,-0.7383363842964172,-0.1287734657526016,0.1175418272614479,0.0,0.0,0.6010677814483643,0.3507306575775146
-0.0948695167899131,0.5434439778327942,0.0162369068711996,-0.7224622368812561,-0.1234015524387359,0.1074385195970535,0.0,0.0,0.7796878814697266,-0.2257016897201538
-0.0944079384207725,0.5273118019104004,0.0401935763657093,-0.7165046334266663,-0.1174704134464263,0.1186226978898048,0.0,0.0,0.5879372358322144,-0.4562142491340637
-0.0938089340925216,0.511381983757019,0.0538829192519187,-0.7075287103652954,-0.1114912554621696,0.1195832714438438,0.0,0.0,0.5833244323730469,-0.6652626395225525
-0.0931647270917892,0.4953563213348388,0.0571080669760704,-0.711724042892456,-0.1042265966534614,0.145293042063713,0.0,0.0,0.7902498245239258,0.21645188331604
-0.0925391167402267,0.4796359241008758,0.0559206381440162,-0.6982349753379822,-0.0976400226354599,0.1317315399646759,0.0,0.0,0.5681029558181763,-0.5201457142829895
-0.0918039306998252,0.4644660651683807,0.0658201277256012,-0.6737359166145325,-0.0900150015950203,0.1525003910064697,0.0,0.0,0.3356239795684814,0.4165287017822265
-0.090931512415409,0.4489694833755493,0.0792995691299438,-0.6882792711257935,-0.082141064107418,0.1574788838624954,0.0,0.0,0.8208661079406738,0.1385723352432251
-0.0899013504385948,0.4342048764228821,0.0949887186288833,-0.6557836532592773,-0.07418754696846,0.1590704023838043,0.0,0.0,0.564335823059082,0.1314644813537597
-0.0888751968741417,0.4194497168064117,0.0950529500842094,-0.6554281115531921,-0.0667044594883918,0.1496617645025253,0.0,0.0,0.7428803443908691,0.2672291994094848
-0.0878458023071289,0.4051022529602051,0.0958806127309799,-0.637364387512207,-0.0597277320921421,0.1395344734191894,0.0,0.0,0.7641793489456177,-0.0916098356246948
-0.0866911858320236,0.3910759687423706,0.1083100289106369,-0.6231248378753662,-0.0526571907103061,0.1414107382297516,0.0,0.0,0.2380650043487548,-0.2678025960922241
-0.0855462998151779,0.3773341178894043,0.107839897274971,-0.6105298399925232,-0.0460911840200424,0.1313201040029525,0.0,0.0,0.2892875671386719,0.0112394094467163
-0.0842698067426681,0.3635924756526947,0.1208052858710289,-0.6105467677116394,-0.039317674934864,0.1354701519012451,0.0,0.0,0.4026318788528442,-0.0184161067008972
-0.0829546898603439,0.3496789634227752,0.1248484104871749,-0.6182175278663635,-0.0327340215444564,0.1316727697849273,0.0,0.0,0.4904041290283203,-0.0399648547172546
-0.08151426166296,0.3355309963226318,0.1371440887451172,-0.6286659836769104,-0.0259237177670002,0.1362062841653823,0.0,0.0,0.8597054481506348,-0.2440339922904968
-0.0800449401140213,0.3212860822677612,0.1402582079172134,-0.6330046057701111,-0.0193346142768859,0.1317818760871887,0.0,0.0,0.8571693897247314,0.2766581773757934
-0.0785129517316818,0.3077075481414795,0.1466138213872909,-0.603422224521637,-0.0128452777862548,0.1297869384288787,0.0,0.0,0.6403199434280396,0.262902021408081
-0.0768364891409874,0.2946709990501404,0.1607624590396881,-0.5793555974960327,-0.006043947301805,0.1360262930393219,0.0,0.0,0.6619080305099487,0.5302536487579346
-0.0751789063215255,0.2822025120258331,0.1603208780288696,-0.5541426539421082,-0.0006777149974368,0.1073246449232101,0.0,0.0,0.3759233951568603,0.0066257715225219
-0.0735742598772049,0.2694765329360962,0.1555943638086319,-0.5656067132949829,0.0041357134468853,0.0962686985731124,0.0,0.0,0.8330183029174805,-0.1606358289718628
-0.0718737617135047,0.2573948800563812,0.1650115102529525,-0.5369840264320374,0.0091024907305836,0.0993356555700302,0.0,0.0,0.6943610906600952,-0.1370162963867187
-0.0702281966805458,0.2455256283283233,0.1600625663995742,-0.5275562405586243,0.013535707257688,0.0886641591787338,0.0,0.0,0.6767430305480957,-0.2950176000595093
-0.0685935020446777,0.2340155243873596,0.1592955440282821,-0.5116052627563477,0.0176595076918602,0.0824759379029274,0.0,0.0,0.8213210105895996,-0.7342578768730164
-0.0669910460710525,0.2229918539524078,0.1546728760004043,-0.4900150001049042,0.0231600347906351,0.1100107803940773,0.0,0.0,0.0033397674560546,-0.6565601825714111
-0.0653348937630653,0.2118272930383682,0.158720314502716,-0.4963278174400329,0.0299719348549842,0.1362378895282745,0.0,0.0,0.7650563716888428,-0.3851454257965088
-0.0636113137006759,0.2005409747362136,0.1653852313756942,-0.5017706751823425,0.036851666867733,0.1375946104526519,0.0,0.0,0.5325356721878052,-0.9268959760665894
-0.0618249885737896,0.1891380846500396,0.1697388291358947,-0.5070393085479736,0.0456418432295322,0.1758033782243728,0.0,0.0,0.7831408977508545,-0.0847225785255432
-0.0598562248051166,0.1779988408088684,0.1872874498367309,-0.4953957498073578,0.0551192797720432,0.18954898416996,0.0,0.0,0.8577266931533813,-0.7321349382400513
-0.0577483177185058,0.1668570786714553,0.1993820369243621,-0.4956454038619995,0.066396489739418,0.2255441397428512,0.0,0.0,0.8520710468292236,-0.5979200601577759
-0.0557000152766704,0.1563048511743545,0.1923022270202636,-0.4695891737937927,0.0787997469305992,0.2480649203062057,0.0,0.0,0.7261207103729248,-0.4586588144302368
-0.0536320693790912,0.1462717354297638,0.1941724717617035,-0.4466255009174347,0.0913086235523223,0.2501773238182068,0.0,0.0,0.6179016828536987,0.5917506217956543
-0.0513970367610454,0.1365712285041809,0.2117981165647506,-0.4318900406360626,0.1029149517416954,0.2321267127990722,0.0,0.0,0.8572592735290527,-0.7705684900283813
-0.0490886680781841,0.1267500519752502,0.2173673659563064,-0.4374768435955047,0.1162865236401557,0.2674317955970764,0.0,0.0,0.8681352138519287,0.0341683626174926
-0.0468588843941688,0.1171069741249084,0.2098444253206253,-0.4296571314334869,0.1293430924415588,0.2611312866210937,0.0,0.0,0.953614354133606,-0.45586758852005
-0.0446152687072753,0.1083312854170799,0.2108342349529266,-0.3912599980831146,0.1428237110376358,0.2696124315261841,0.0,0.0,0.6857366561889648,-0.493043303489685
-0.0424324981868267,0.0997432097792625,0.2049123346805572,-0.383026123046875,0.1561567336320877,0.26666060090065,0.0,0.0,0.7762134075164795,-0.3975228071212768
-0.040470790117979,0.0917215421795845,0.1834995001554489,-0.35789555311203,0.1688347905874252,0.2535608112812042,0.0,0.0,0.8439416885375977,-0.245977520942688
-0.0385010726749897,0.0842064917087555,0.1839146316051483,-0.3355410993099212,0.1819273978471756,0.261852502822876,0.0,0.0,0.5965807437896729,-0.1739851236343383
-0.0366713516414165,0.0770773962140083,0.1702084839344024,-0.3184670805931091,0.1947473287582397,0.2563982307910919,0.0,0.0,0.1119260787963867,0.4733120203018188
-0.0349531173706054,0.0700039491057396,0.1593921482563018,-0.3160589337348938,0.2072777599096298,0.2506085634231567,0.0,0.0,0.858426570892334,0.4551140069961548
-0.0333377830684185,0.0630743354558944,0.1492757350206375,-0.3097491264343261,0.2196482419967651,0.2474096715450287,0.0,0.0,0.8764917850494385,0.7430402040481567
-0.0319163314998149,0.0564474202692508,0.1317591816186905,-0.2961109280586242,0.2301698327064514,0.2104319334030151,0.0,0.0,0.8036792278289795,0.7340530157089233
-0.030705451965332,0.0499419532716274,0.1125840917229652,-0.2904823720455169,0.2387951910495758,0.1725071966648101,0.0,0.0,0.9443583488464355,0.391118049621582
-0.0295375827699899,0.0440425239503383,0.1077571660280227,-0.2636886239051819,0.2479709684848785,0.1835159063339233,0.0,0.0,0.7530449628829956,0.4199941158294678
-0.0283681862056255,0.0380656346678733,0.1076579540967941,-0.2672334015369415,0.2574231326580047,0.1890431344509124,0.0,0.0,0.9210760593414308,0.5512586832046509
-0.0271770469844341,0.0327939130365848,0.1104771941900253,-0.2358377277851104,0.2662446796894073,0.1764309704303741,0.0,0.0,0.3291250467300415,0.4469051361083984
-0.0261361114680767,0.0277475696057081,0.0955746918916702,-0.2258534878492355,0.2749591767787933,0.1742900013923645,0.0,1.0,0.9850685596466064,0.9913203716278076
-0.0251654628664255,0.0246073100715875,0.1072476506233215,-0.1380942314863205,0.2635827660560608,-0.2289184778928756,0.0,1.0,0.9340630769729614,0.282281756401062
-0.0243966095149517,0.0225633233785629,0.1047471612691879,-0.0861170515418052,0.2351036667823791,-0.5697060227394104,0.0,1.0,0.5295789241790771,-0.4756283760070801
-0.0238702781498432,0.0213786456733942,0.0904823690652847,-0.0470871552824974,0.1967607289552688,-0.7669657468795776,0.0,1.0,0.0089200735092163,-0.4060327410697937
-0.0234074592590332,0.0202929601073265,0.0850141420960426,-0.0435851998627185,0.1578375250101089,-0.7785531282424927,0.0,1.0,0.1587667465209961,-0.6473971009254456
-0.0229482650756835,0.0189879760146141,0.0816533267498016,-0.0545982047915458,0.1221982017159462,-0.7127872705459595,0.0,1.0,0.4960569143295288,-0.7949433326721191
-0.022743796929717,0.017828045412898,0.0549351572990417,-0.0490851998329162,0.0879574343562126,-0.684816300868988,0.0,0.0,-0.9215063452720642,-0.9011703133583068
-0.0225957874208688,0.015996990725398,0.0472141280770301,-0.0797840654850006,0.0558779910206794,-0.641589879989624,0.0,0.0,-0.6036686301231384,-0.9689668416976928
-0.0224985126405954,0.0134996743872761,0.0401938259601593,-0.1101259961724281,0.0257789604365825,-0.6019812226295471,0.0,0.0,0.4625090360641479,-0.9110475182533264
-0.0224320404231548,0.0110465623438358,0.0352942496538162,-0.1087763831019401,-0.0024995878338813,-0.5655715465545654,0.0,0.0,0.3765113353729248,-0.8927075266838074
-0.022285271435976,0.0083725787699222,0.041421640664339,-0.1190972179174423,-0.0289038233458995,-0.5280857086181641,0.0,0.0,0.7811288833618164,-0.958276629447937
-0.0220508575439453,0.0061430907808244,0.0480729453265666,-0.099741131067276,-0.0532450340688228,-0.4868245720863342,0.0,0.0,0.7204675674438477,-0.9679086208343506
-0.0217037200927734,0.0052570318803191,0.0378644987940788,-0.0394963026046752,-0.056353535503149,-0.0621723718941211,1.0,0.0,-0.1169755458831787,-0.0804104208946228
-0.0212486274540424,0.0043619964271783,0.030468663200736,-0.0392831228673458,-0.0414877645671367,0.2973228693008423,1.0,0.0,-0.5585737228393555,-0.2955098152160644
