x_pos,y_pos,x_vel,y_vel,angle,ang_vel,leg_1,leg_2,main_booster,lat_booster
-0.0015100479358807,1.4034106731414795,-0.1530144214630127,-0.3337452113628387,0.0018093336839228,0.0356937535107135,0.0,0.0,-0.6022233963012695,0.7329020500183105
-0.0029421807266771,1.395707607269287,-0.1434499025344848,-0.3423618376255035,0.0020462237298488,0.0047387285158038,0.0,0.0,-0.5111904144287109,0.5314434766769409
-0.0043061254546046,1.3877865076065063,-0.1353820860385894,-0.352042943239212,0.0010475375456735,-0.0199757050722837,0.0,0.0,0.1079053878784179,-0.2866628170013428
-0.0057313917204737,1.380154371261597,-0.1411850750446319,-0.3392098844051361,-0.0002854955091606,-0.026663202792406,0.0,0.0,-0.2434766292572021,0.3013546466827392
-0.0071363449096679,1.372308373451233,-0.1391873359680175,-0.3487087488174438,-0.0015691560693085,-0.0256757047027349,0.0,0.0,-0.0095338225364685,0.7728782892227173
-0.0084444042295217,1.3642475605010986,-0.1276672184467315,-0.358260840177536,-0.004680308047682,-0.0622291639447212,0.0,0.0,0.1246412992477417,-0.3123093843460083
-0.009742259979248,1.3565632104873655,-0.1266238987445831,-0.3415452539920807,-0.0078133540228009,-0.0626664608716964,0.0,0.0,-0.0187803506851196,-0.1755810379981994
-0.0110148433595895,1.3486649990081787,-0.1241466850042343,-0.3510456681251526,-0.0108955902978777,-0.0616503469645977,0.0,0.0,-0.5243406891822815,-0.3395657539367676
-0.0122606279328465,1.3405535221099854,-0.1215165480971336,-0.360539436340332,-0.0139264008030295,-0.0606217272579669,0.0,0.0,-0.085880160331726,0.8028581142425537
-0.0134148597717285,1.3322322368621826,-0.110809288918972,-0.3698858618736267,-0.0184937492012977,-0.0913552045822143,0.0,0.0,-0.1861720085144043,-0.2029055953025818
-0.014539336785674,1.3236974477767944,-0.1078782230615615,-0.379382312297821,-0.0230082347989082,-0.0902979373931884,0.0,0.0,-0.5351943969726562,0.1770483255386352
-0.0156325343996286,1.3149495124816897,-0.1048048883676529,-0.3888787031173706,-0.0274707619100809,-0.0892587378621101,0.0,0.0,-0.6633214950561523,-0.430564820766449
-0.0166930202394723,1.305988073348999,-0.101592794060707,-0.398375004529953,-0.0318809226155281,-0.0882113948464393,0.0,0.0,-0.540518581867218,-0.6990553140640259
-0.017768383026123,1.296808838844299,-0.1043814420700073,-0.4080308079719543,-0.0350116789340972,-0.0626206770539283,0.0,0.0,-0.8279581069946289,0.2068574428558349
-0.0188085548579692,1.2874162197113037,-0.1009088531136512,-0.4175266027450561,-0.0380908250808715,-0.0615882948040962,0.0,0.0,-0.8816223740577698,0.8463996648788452
-0.0197336189448833,1.277795672416687,-0.0874393358826637,-0.4277154803276062,-0.043104313313961,-0.1002788990736007,0.0,0.0,-0.9419450759887696,0.4938019514083862
-0.0206209179013967,1.2679617404937744,-0.0837133303284645,-0.4372124969959259,-0.0480647608637809,-0.0992179438471794,0.0,0.0,-0.9298973679542542,-0.6511768102645874
-0.0215085987001657,1.2579118013381958,-0.0848095268011093,-0.4467976689338684,-0.0519868806004524,-0.0784493684768676,0.0,0.0,-0.352851927280426,0.2929834127426147
-0.0223563201725482,1.2476483583450315,-0.0808586031198501,-0.4562940299510956,-0.0558577552437782,-0.0774245262145996,0.0,0.0,-0.8886883854866028,-0.4643456935882568
-0.023162841796875,1.2371715307235718,-0.076800137758255,-0.4657903611660003,-0.0596770346164703,-0.0763923898339271,0.0,0.0,-0.9096215963363647,-0.8344261646270752
-0.0239789001643657,1.2264918088912964,-0.0791249349713325,-0.4747571647167206,-0.0621361956000328,-0.0491873659193515,0.0,0.0,-0.5963115096092224,-0.73224937915802
-0.0248087886720895,1.2155994176864624,-0.0819944888353347,-0.4841423332691192,-0.0631182342767715,-0.0196423903107643,0.0,0.0,-0.7036733031272888,-0.5356445908546448
-0.0256279949098825,1.204495906829834,-0.0818142145872116,-0.4934951961040497,-0.0632147341966629,-0.0019304854795336,0.0,0.0,-0.8244794607162476,-0.1302618980407714
-0.0264022834599018,1.193178653717041,-0.0773838683962822,-0.5029904246330261,-0.06326175481081,-0.0009405187447555,0.0,0.0,-0.8922077417373657,0.1352843046188354
-0.0271308906376361,1.1816476583480835,-0.0728690177202224,-0.5124854445457458,-0.0632594972848892,4.5390457671601325e-05,0.0,0.0,-0.7933598160743713,-0.3774754405021667
-0.0278141014277935,1.1698817014694214,-0.0683643221855163,-0.5229322910308838,-0.0632084459066391,0.0010207690065726,0.0,0.0,-0.9525654315948486,-0.4171359539031982
-0.0284500122070312,1.1579020023345947,-0.0636936500668525,-0.5324251651763916,-0.0631087124347686,0.001994848717004,0.0,0.0,-0.8363227844238281,-0.6476095914840698
-0.0290999412536621,1.145721435546875,-0.0667332932353019,-0.5412906408309937,-0.0613899603486061,0.0343750044703483,0.0,0.0,-0.9563337564468384,0.3149580955505371
-0.0297013279050588,1.1333270072937012,-0.0619230978190898,-0.5507836937904358,-0.059622623026371,0.0353467240929603,0.0,0.0,-0.9432629942893982,-0.5387577414512634
-0.0302975662052631,1.1207212209701538,-0.0625832453370094,-0.5601469874382019,-0.0566975101828575,0.0585024841129779,0.0,0.0,-0.6789170503616333,0.0823469161987304
-0.0308439247310161,1.1079018115997314,-0.0576488450169563,-0.5696404576301575,-0.0537239499390125,0.0594711974263191,0.0,0.0,-0.8060133457183838,0.0646504163742065
-0.0313400253653526,1.0948688983917236,-0.0526577234268188,-0.5791340470314026,-0.0507020279765129,0.0604384467005729,0.0,0.0,-0.910473108291626,0.5075845718383789
-0.031750202178955,1.0816246271133425,-0.0432535670697689,-0.5885629653930664,-0.048502542078495,0.0439898334443569,0.0,0.0,-0.9698736667633056,-0.0715935826301574
-0.0321090705692768,1.0681666135787964,-0.0381590202450752,-0.5980562567710876,-0.046254850924015,0.0449539795517921,0.0,0.0,-0.9321271181106568,-0.6206860542297363
-0.0324637405574321,1.0544999837875366,-0.0390036180615425,-0.6073073148727417,-0.0427572652697563,0.0699517577886581,0.0,0.0,-0.943947970867157,0.6051852703094482
-0.0327165611088275,1.040621042251587,-0.0276200231164693,-0.6167762279510498,-0.0404513590037822,0.0461181886494159,0.0,0.0,-0.9752495884895324,-0.1832166910171508
-0.0329166427254676,1.0265284776687622,-0.0223933476954698,-0.6262695789337158,-0.0380975008010864,0.0470771789550781,0.0,0.0,-0.9627060294151306,0.2464962005615234
-0.0330636017024517,1.0122222900390625,-0.0171281956136226,-0.6357630491256714,-0.0356957726180553,0.0480343699455261,0.0,0.0,-0.9443217515945436,-0.1721867322921753
-0.0331570617854595,0.9977027773857116,-0.0118271354585886,-0.6452564001083374,-0.0332462936639785,0.0489896573126316,0.0,0.0,-0.950111985206604,0.4694317579269409
-0.0331967361271381,0.9829698204994202,-0.0064926072955131,-0.6547498106956482,-0.0307491496205329,0.0499429702758789,0.0,0.0,-0.8751176595687866,-0.3428635001182556
-0.0331822410225868,0.9680232405662536,-0.001126934075728,-0.6642432808876038,-0.0282044392079114,0.0508942902088165,0.0,0.0,-0.8349858522415161,0.3556160926818847
-0.0331132896244525,0.9528631567955016,0.004267678130418,-0.6737367510795593,-0.0256122518330812,0.0518435649573802,0.0,0.0,-0.9324870109558104,0.4346480369567871
-0.0329896919429302,0.9374894499778748,0.0096891280263662,-0.6832302808761597,-0.0229727290570735,0.0527905523777008,0.0,0.0,-0.6055605411529541,0.7885464429855347
-0.0327384956181049,0.9218981266021729,0.0242515858262777,-0.6929351687431335,-0.0221129693090915,0.0171951074153184,0.0,0.0,-0.914724349975586,-0.2022695541381836
-0.0324321761727333,0.9060932993888856,0.0297208223491907,-0.7024282217025757,-0.0212060939520597,0.0181374438107013,0.0,0.0,-0.588180661201477,-0.2014811635017395
-0.0320703499019146,0.8900746703147888,0.0352111719548702,-0.7119212746620178,-0.0202522240579128,0.0190772656351327,0.0,0.0,-0.8165999054908752,-0.4696260690689087
-0.0316530242562294,0.8738424181938171,0.0407209061086177,-0.7214143872261047,-0.019251512363553,0.0200144350528717,0.0,0.0,-0.8206895589828491,-0.4604846239089966
-0.0311799999326467,0.85739666223526,0.0462483651936054,-0.7309074997901917,-0.0182040613144636,0.020948838442564,0.0,0.0,-0.692648708820343,0.4750121831893921
-0.0306509025394916,0.8407373428344727,0.0517919585108757,-0.7404005527496338,-0.0171100720763206,0.0218802485615015,0.0,0.0,-0.7621429562568665,0.19757080078125
-0.0300658233463764,0.8238644599914551,0.0573501512408256,-0.7498936057090759,-0.0159696470946073,0.0228086002171039,0.0,0.0,-0.7187268137931824,0.4526649713516235
-0.0294245723634958,0.8067780137062073,0.0629215091466903,-0.7593867778778076,-0.014782965183258,0.0237336233258247,0.0,0.0,-0.6988913416862488,0.5411430597305298
-0.0286883357912302,0.7894806861877441,0.0733673200011253,-0.7687673568725586,-0.0145232966169714,0.0051931524649262,0.0,0.0,-0.7260974049568176,0.5031120777130127
-0.0278486255556345,0.7719659209251404,0.0848601013422012,-0.7784420847892761,-0.0154000669717788,-0.0175352729856967,0.0,0.0,-0.7225893139839172,-0.8740606904029846
-0.0270211212337017,0.7542473673820496,0.081839308142662,-0.7874881625175476,-0.0145017923787236,0.01796530559659,0.0,0.0,-0.7214471101760864,-0.4837355613708496
-0.0261370651423931,0.7363150119781494,0.0874495282769203,-0.796981155872345,-0.0135580673813819,0.0188746526837348,0.0,0.0,-0.7261860370635986,0.030142068862915
-0.0251963622868061,0.7181692719459534,0.0930662229657173,-0.8064743280410767,-0.01256909314543,0.0197793785482645,0.0,0.0,-0.617015540599823,-0.4758148193359375
-0.0241990089416503,0.6998097896575928,0.0986881405115127,-0.8159674406051636,-0.01153514534235,0.0206792168319225,0.0,0.0,-0.8219406008720398,0.0661520957946777
-0.0231450088322162,0.681236743927002,0.1043140739202499,-0.8254605531692505,-0.0104564558714628,0.0215737279504537,0.0,0.0,-0.6852036714553833,-0.4420413970947265
-0.0220341682434082,0.6624500155448914,0.1099428087472915,-0.8349536061286926,-0.0093333227559924,0.0224625188857316,0.0,0.0,-0.7994043827056885,-0.3810890913009643
-0.0208665840327739,0.6434497833251953,0.1155730932950973,-0.8444467782974243,-0.008166067302227,0.0233451314270496,0.0,0.0,-0.1316621303558349,-0.8131839632987976
-0.0197012908756732,0.6242297291755676,0.1138122826814651,-0.8542134165763855,-0.0054756463505327,0.0538082830607891,0.0,0.0,0.0947260856628418,-0.0756181478500366
-0.0185430534183979,0.6054939031600952,0.1133651286363601,-0.8326993584632874,-0.0030491773504763,0.0485292263329029,0.0,0.0,0.233031153678894,-0.4229035377502441
-0.0172347072511911,0.5871230363845825,0.1278977692127227,-0.8164789080619812,-0.0001532777241664,0.0579182095825672,0.0,0.0,-0.2046483159065246,-0.8361669778823853
-0.0159333236515522,0.5685400366783142,0.1255446225404739,-0.8259167075157166,0.0043829041533172,0.0907235145568847,0.0,0.0,0.3258223533630371,-0.3249099254608154
-0.0145704271271824,0.5502263903617859,0.13162262737751,-0.8139646649360657,0.0089902859181165,0.0921479612588882,0.0,0.0,0.6084016561508179,-0.6986340880393982
-0.0133432392030954,0.5325603485107422,0.1168717890977859,-0.7852039337158203,0.0147567121312022,0.1153284460306167,0.0,0.0,-0.0464075207710266,0.1985189914703369
-0.0120596885681152,0.5146811008453369,0.1224782243371009,-0.7946998476982117,0.0205643270164728,0.1161524280905723,0.0,0.0,0.3362307548522949,0.1163091659545898
-0.0106581691652536,0.4969455301761627,0.1339169293642044,-0.7883439660072327,0.0267196837812662,0.1231071129441261,0.0,0.0,0.8663027286529541,0.2923994064331054
-0.0091956136748194,0.4804441630840301,0.1398406028747558,-0.733521580696106,0.0330563224852085,0.1267324984073639,0.0,0.0,-0.3977217078208923,0.3767780065536499
-0.0076768873259425,0.4637298583984375,0.1454164087772369,-0.7430182099342346,0.039432343095541,0.1275203078985214,0.0,0.0,0.0500481128692626,0.0895122289657592
-0.0061774253845214,0.4474439620971679,0.1437252461910247,-0.7239927649497986,0.0455770418047905,0.1228941828012466,0.0,0.0,0.331609845161438,-0.0031522512435913
-0.0046202661469578,0.4316984117031097,0.1493497639894485,-0.7000112533569336,0.0518743693828582,0.1259464025497436,0.0,0.0,-0.1923278570175171,-0.0395268201828002
-0.0030074119567871,0.4157397747039795,0.1548803299665451,-0.7095077633857727,0.0582088194787502,0.1266888529062271,0.0,0.0,0.0013233423233032,-0.1380380392074585
-0.0013150215381756,0.4000961184501648,0.1625946611166,-0.6955462694168091,0.0647854954004287,0.131533682346344,0.0,0.0,-0.0753774046897888,-0.1358739137649536
0.000432682048995,0.3842395544052124,0.1680856645107269,-0.7050431966781616,0.0713974758982658,0.1322394460439682,0.0,0.0,0.7931091785430908,-0.0512199401855468
0.0022837638389319,0.368705689907074,0.1780548095703125,-0.6907452344894409,0.0783851146697998,0.1397525370121002,0.0,0.0,0.6915721893310547,0.3021817207336426
0.0041302680037915,0.3534748256206512,0.1777030974626541,-0.6773059368133545,0.0852562114596366,0.1374220550060272,0.0,0.0,0.813148021697998,0.1182237863540649
0.0059478757902979,0.3393308520317077,0.1748363077640533,-0.6290303468704224,0.0921167507767677,0.1372109353542328,0.0,0.0,0.3138809204101562,0.0186110734939575
0.0078231813386082,0.3259517848491668,0.1802966743707656,-0.5950886607170105,0.0993024036288261,0.1437130272388458,0.0,0.0,0.195365309715271,0.0449477434158325
0.009613037109375,0.3132303953170776,0.1720865070819854,-0.5658676028251648,0.1061417087912559,0.1367863118648529,0.0,0.0,0.2807706594467163,0.3592417240142822
0.0113292690366506,0.3006631135940552,0.1651753336191177,-0.5590181350708008,0.1125448569655418,0.1280626356601715,0.0,0.0,-0.292971134185791,-0.2678929567337036
0.013098525814712,0.2878828048706054,0.1704504489898681,-0.5685149431228638,0.1189742088317871,0.1285872161388397,0.0,0.0,0.2452259063720703,-0.0303064584732055
0.0147929191589355,0.2755218744277954,0.1633073836565017,-0.5498743057250977,0.1250747740268707,0.1220114231109619,0.0,0.0,-0.0719249844551086,0.0665518045425415
0.0165393836796283,0.2629479169845581,0.1684920638799667,-0.559370756149292,0.1311980187892913,0.1224649995565414,0.0,0.0,0.6103692054748535,-0.052136480808258
0.0182366371154785,0.2511722147464752,0.1636093258857727,-0.5239149928092957,0.1372880339622497,0.1218003258109092,0.0,0.0,0.1664686203002929,0.6320816278457642
0.0200463291257619,0.2398182451725006,0.1759970635175705,-0.5050878524780273,0.1422352939844131,0.0989454537630081,0.0,0.0,0.6116727590560913,-0.4092929363250732
0.0218817703425884,0.2287517338991165,0.1784632802009582,-0.4923382401466369,0.1473059654235839,0.1014130711555481,0.0,0.0,0.0005717277526855,-0.594097912311554
0.023747731000185,0.2178332954645156,0.1802387088537216,-0.4859086573123932,0.1536579430103302,0.1270393282175064,0.0,0.0,0.0989291667938232,-0.371042251586914
0.0257011409848928,0.2072872668504715,0.1885246485471725,-0.4694293439388275,0.1604741811752319,0.1363247632980346,0.0,0.0,0.3805859088897705,-0.2916570901870727
0.0277649872004985,0.1970443874597549,0.1990235298871994,-0.4560545980930328,0.1678382456302642,0.1472812891006469,0.0,0.0,-0.0692181587219238,-0.6183061003684998
0.0298269279301166,0.1865806877613067,0.1975826323032379,-0.4660452604293823,0.1764560788869857,0.1723566651344299,0.0,0.0,0.5953028202056885,-0.5591439604759216
0.0317940711975097,0.1769872456789016,0.1869257390499115,-0.427569568157196,0.1862761229276657,0.1964011043310165,0.0,0.0,-0.2298933863639831,0.1961981058120727
0.0338063240051269,0.1671813875436782,0.1914585381746292,-0.4370706379413605,0.1960966289043426,0.1964101493358612,0.0,0.0,0.2611336708068847,-0.0527842044830322
0.0358896255493164,0.1575523912906646,0.1982288360595703,-0.4293246567249298,0.2062706798315048,0.2034807950258255,0.0,0.0,0.5724716186523438,-0.5504622459411621
0.0378214828670024,0.1483915448188781,0.1821546852588653,-0.4087297022342682,0.2174120843410492,0.2228283137083053,0.0,0.0,-0.006360113620758,-0.3272513151168823
0.039794921875,0.1390186101198196,0.1863466650247573,-0.418232798576355,0.228544607758522,0.2226502895355224,0.0,0.0,0.3119107484817505,-0.3702689409255981
0.0416881553828716,0.1300876438617706,0.1784506142139434,-0.3986566662788391,0.2395793199539184,0.2206942737102508,0.0,0.0,0.4063819646835327,-0.3355914354324341
0.0433566085994243,0.1218936070799827,0.1564946621656417,-0.3659006059169769,0.2501086294651031,0.2105860412120819,0.0,0.0,0.2599729299545288,0.5915260314941406
0.0450462326407432,0.1143079623579979,0.1596885919570922,-0.3387435674667358,0.2595555484294891,0.188938558101654,0.0,0.0,0.0650572776794433,-0.7034284472465515
0.0465545654296875,0.107179582118988,0.1402617394924163,-0.3187246024608612,0.2703659832477569,0.2162085026502609,0.0,0.0,0.212217092514038,0.2497916221618652
0.0478914268314838,0.1006088852882385,0.1234468445181846,-0.2939596176147461,0.2808704674243927,0.2100892961025238,0.0,0.0,-0.0460625886917114,-0.2027624249458313
0.049260139465332,0.0938258245587349,0.1266955733299255,-0.303460955619812,0.2913466691970825,0.2095232307910919,0.0,0.0,-0.0253552794456481,0.5083074569702148
0.050689697265625,0.0868447870016098,0.1336397528648376,-0.3121606707572937,0.3009581863880157,0.1922295093536377,0.0,0.0,0.1576737165451049,0.6737010478973389
0.051975917071104,0.0801460593938827,0.1208349838852882,-0.2993513941764831,0.3090207874774933,0.1612524092197418,0.0,0.0,0.2727963924407959,0.2548385858535766
0.0531973838806152,0.0740628093481063,0.1140371710062027,-0.2721117436885834,0.3174237012863159,0.1680582165718078,0.0,0.0,0.1441744565963745,0.6062164306640625
0.0544538497924804,0.0681702494621276,0.1187235862016677,-0.2634249627590179,0.3246263861656189,0.1440536379814148,0.0,0.0,0.142984390258789,0.662045955657959
0.0557183250784873,0.0628985986113548,0.1207424402236938,-0.2355848848819732,0.3305675387382507,0.1188233494758606,0.0,0.0,0.1281849145889282,0.1375849246978759
0.0568144805729389,0.0581578835844993,0.1040433272719383,-0.211986169219017,0.3363916575908661,0.1164825931191444,0.0,0.0,-0.1751980781555175,-0.0038061738014221
0.0579266548156738,0.0532038062810897,0.1056913360953331,-0.2214806377887725,0.3421688377857208,0.1155436635017395,0.0,0.0,-0.208869457244873,-0.126561164855957
0.0590519905090332,0.0480362996459007,0.1070706993341445,-0.2309749871492386,0.3478971123695373,0.1145652085542678,0.0,0.0,0.0362288951873779,0.5223195552825928
0.0600458160042762,0.0434007979929447,0.0950144752860069,-0.2070877999067306,0.3524898290634155,0.0918545797467231,0.0,0.0,0.1977111101150512,0.5503885746002197
0.0609350204467773,0.0394073836505413,0.0855979993939399,-0.1783049404621124,0.3559852540493011,0.0699084475636482,0.0,0.0,0.1502418518066406,-0.0080088973045349
0.061770249158144,0.0356783233582973,0.0800160020589828,-0.1666088998317718,0.3596865236759186,0.0740251392126083,0.0,1.0,0.9294590950012208,0.9956867694854736
0.0622824653983116,0.0332548953592777,0.0561256408691406,-0.1072061955928802,0.3525873720645904,-0.1448794454336166,0.0,1.0,0.926445245742798,0.9802277088165284
0.0624303817749023,0.0318528525531291,0.0329092666506767,-0.0580147169530391,0.333533763885498,-0.3811642229557037,0.0,0.0,-0.9567515254020692,0.2705785036087036
0.0625489205121994,0.0305821280926466,0.0366856567561626,-0.05097072198987,0.3076394200325012,-0.517960250377655,0.0,0.0,-0.9978104829788208,-0.5988072752952576
0.0626076683402061,0.0292689893394708,0.033393956720829,-0.0528008490800857,0.2791956961154938,-0.568936288356781,0.0,0.0,-0.9978142380714417,-0.4381530284881592
0.0626587867736816,0.0277924872934818,0.0336698628962039,-0.0604430809617042,0.249940276145935,-0.5851622819900513,0.0,0.0,-0.9935115575790404,-0.0008242726325988
0.0627200156450271,0.0260940417647361,0.0340530090034008,-0.070980429649353,0.2215747535228729,-0.5673106908798218,0.0,0.0,-0.984216570854187,-0.3930312395095825
0.0627696961164474,0.0241924617439508,0.0331322364509105,-0.0805381312966346,0.1931533366441726,-0.5684285163879395,0.0,0.0,-0.9312725067138672,-0.6696241497993469
0.0627596825361251,0.0220662932842969,0.0261762682348489,-0.0911829099059104,0.1658833026885986,-0.5454006195068359,0.0,0.0,-0.9084130525588988,-0.5846701860427856
