x_pos,y_pos,x_vel,y_vel,angle,ang_vel,leg_1,leg_2,main_booster,lat_booster
-0.0015561103355139,1.4035371541976929,-0.1570432037115097,-0.32813560962677,0.0012787014711648,0.0251876953989267,0.0,0.0,-0.3732255101203918,0.5532739162445068
-0.0030994415283203,1.3960871696472168,-0.1538754552602768,-0.3311076760292053,0.0008330376003868,-0.0089131593704223,0.0,0.0,0.0993402004241943,0.1958804130554199
-0.004589557647705,1.3889527320861816,-0.1484944373369217,-0.3170897364616394,0.0003231515001971,-0.0101989172399044,0.0,0.0,-0.2963532209396362,0.4154167175292969
-0.0061163902282714,1.381730556488037,-0.1516841500997543,-0.320981502532959,-0.0006662070518359,-0.019788721576333,0.0,0.0,-0.1972781419754028,0.6965076923370361
-0.0076145171187818,1.374423265457153,-0.1466605812311172,-0.3247714638710022,-0.0037936042062938,-0.0625539273023605,0.0,0.0,-0.1881837844848632,-0.0894762277603149
-0.0091515537351369,1.3670289516448977,-0.1500909030437469,-0.3286570906639099,-0.0073717585764825,-0.0715694278478622,0.0,0.0,-0.4752411842346191,-0.1001688241958618
-0.0107285501435399,1.3595472574234009,-0.1536322087049484,-0.3325430750846863,-0.0113866217434406,-0.0803047120571136,0.0,0.0,-0.1788846254348755,-0.0849801301956176
-0.0123461727052927,1.351978421211243,-0.1572761982679367,-0.3364294469356537,-0.0158216636627912,-0.088709071278572,0.0,0.0,-0.1995856165885925,0.2065476179122924
-0.0140051841735839,1.3443225622177124,-0.1610156595706939,-0.3403162658214569,-0.0206595808267593,-0.0967673137784004,0.0,0.0,0.3245670795440674,0.3578423261642456
-0.0156950000673532,1.3374532461166382,-0.1637002825736999,-0.3053863942623138,-0.0258849151432514,-0.1045159846544265,0.0,0.0,-0.6727151274681091,-0.1346969604492187
-0.017427634447813,1.3304967880249023,-0.1676108986139297,-0.3092813491821289,-0.0314749106764793,-0.1118102446198463,0.0,0.0,-0.8138548731803894,0.0296158790588378
-0.0192035678774118,1.323453664779663,-0.1715973764657974,-0.3131667971611023,-0.0374087356030941,-0.1186874359846115,0.0,0.0,-0.5960627794265747,0.5212104320526123
-0.0209733005613088,1.3163237571716309,-0.1693833619356155,-0.3170936703681946,-0.0449208654463291,-0.1502561271190643,0.0,0.0,-0.7551457285881042,0.0709080696105957
-0.0227872841060161,1.3091073036193848,-0.1735020279884338,-0.3209846317768097,-0.0527305528521537,-0.1562079042196273,0.0,0.0,-0.6158888339996338,-0.0502890944480896
-0.0246457103639841,1.3018043041229248,-0.1776815205812454,-0.3248760402202606,-0.0608140081167221,-0.1616837978363037,0.0,0.0,-0.8897049427032471,0.4844167232513428
-0.026548957452178,1.2944152355194092,-0.1819171607494354,-0.3287680745124817,-0.0691452175378799,-0.1666391938924789,0.0,0.0,-0.7940587401390076,0.0873266458511352
-0.0284973140805959,1.2869396209716797,-0.1862049698829651,-0.3326606750488281,-0.0776972770690918,-0.1710567772388458,0.0,0.0,-0.9147340059280396,0.3055257797241211
-0.0304909702390432,1.2793779373168943,-0.1905411779880523,-0.3365539014339447,-0.0864422768354415,-0.1749157607555389,0.0,0.0,-0.7094019651412964,0.6133478879928589
-0.0324734672904014,1.2717288732528689,-0.1878584921360016,-0.3405975699424743,-0.0967663675546646,-0.2065003812313079,0.0,0.0,-0.9333709478378296,0.4397704601287842
-0.0345014557242393,1.263993740081787,-0.192277580499649,-0.3444940745830536,-0.1072239354252815,-0.2091702669858932,0.0,0.0,-0.8545177578926086,-0.5768918395042419
-0.0366103164851665,1.2561826705932615,-0.2011886090040207,-0.3478829562664032,-0.1168778464198112,-0.1930952221155166,0.0,0.0,-0.8752093315124512,0.1737431287765503
-0.0387648567557334,1.2482855319976809,-0.2056861221790313,-0.3517786860466003,-0.1266049146652221,-0.1945586055517196,0.0,0.0,-0.8565618991851807,0.4898293018341064
-0.0409649834036827,1.2403020858764648,-0.2102160900831222,-0.3556743860244751,-0.1363731175661087,-0.1953817456960678,0.0,0.0,-0.9548517465591432,0.4570144414901733
-0.0432106964290142,1.2322325706481934,-0.2147774398326873,-0.3595701456069946,-0.1461510211229324,-0.1955749541521072,0.0,0.0,-0.9065527319908142,0.5113765001296997
-0.0454712882637977,1.2240715026855469,-0.2155168801546096,-0.3637801706790924,-0.1566874086856842,-0.2107471525669098,0.0,0.0,-0.9089289903640748,0.1828296184539795
-0.047779656946659,1.2158032655715942,-0.2203557938337326,-0.3686191737651825,-0.1671707183122635,-0.2096658945083618,0.0,0.0,-0.9446883797645568,0.4579468965530395
-0.0501337051391601,1.2074488401412964,-0.2250257283449173,-0.3725104331970215,-0.1775705814361572,-0.2079972028732299,0.0,0.0,-0.9031994342803956,0.049830675125122
-0.0525333397090435,1.199008226394653,-0.229718416929245,-0.3764009177684784,-0.1878563612699508,-0.2057153284549713,0.0,0.0,-0.7998608946800232,-0.4302963018417358
-0.0549785606563091,1.1904810667037964,-0.2344320118427276,-0.3802906274795532,-0.1979979425668716,-0.2028315514326095,0.0,0.0,-0.9250903129577636,-0.3022134900093078
-0.057469081133604,1.1818677186965942,-0.2391647100448608,-0.3841795325279236,-0.2079659700393676,-0.1993604749441146,0.0,0.0,-0.7939996123313904,-0.7151938676834106
-0.0600574500858783,1.173192024230957,-0.2505387663841247,-0.3867692947387695,-0.2163325399160385,-0.1673311442136764,0.0,0.0,-0.660888135433197,-0.4238364100456238
-0.0626909285783767,1.1644293069839478,-0.2553040683269501,-0.3906541764736175,-0.2244694083929062,-0.1627377271652221,0.0,0.0,-0.805716335773468,-0.505408525466919
-0.0654130950570106,0.0,-0.2655786573886871,-0.3934853374958038,-0.23118856549263,-0.1343830674886703,0.0,0.0,-0.7953596115112305,-0.7877662181854248
-0.0682482719421386,1.1466974020004272,-0.2789020836353302,-0.3963548541069031,-0.2358754724264145,-0.093738280236721,0.0,0.0,-0.007698118686676,0.5253074169158936
-0.0710867866873741,1.1376941204071045,-0.2784773707389831,-0.4010215401649475,-0.2413438409566879,-0.1093675047159195,0.0,0.0,-0.1774959564208984,0.7654364109039307
-0.0739089027047157,1.1285861730575562,-0.2755937874317169,-0.4059011042118072,-0.2480701208114624,-0.1345255076885223,0.0,0.0,-0.6364033818244934,-0.0671948790550232
-0.0767756476998329,1.1193901300430298,-0.2804166376590729,-0.4097808599472046,-0.2544454038143158,-0.1275058537721634,0.0,0.0,-0.4727572202682495,-0.0699741244316101
-0.0796868354082107,1.1101059913635254,-0.2852471470832824,-0.4136595726013183,-0.2604490518569946,-0.1200731620192527,0.0,0.0,-0.4800829291343689,0.3146413564682007
-0.0826426520943641,1.100733518600464,-0.2900840640068054,-0.4175373315811157,-0.2660616040229797,-0.1122518926858902,0.0,0.0,-0.3635070919990539,0.2620275020599365
-0.0856427177786827,1.0912727117538452,-0.2949263155460357,-0.421414166688919,-0.2712649405002594,-0.1040659174323082,0.0,0.0,-0.1996313333511352,0.0609128475189209
-0.0886869430541992,1.0817233324050903,-0.2997727692127228,-0.4252900779247284,-0.2760418653488159,-0.0955386310815811,0.0,0.0,-0.6157686114311218,0.1440448760986328
-0.0917754173278808,1.0720852613449097,-0.3046223521232605,-0.4291651546955108,-0.2803764939308166,-0.0866927281022071,0.0,0.0,-0.4999763965606689,-0.4314862489700317
-0.0949079543352127,1.0623583793640137,-0.3094739913940429,-0.4330393373966217,-0.2842539846897125,-0.0775498822331428,0.0,0.0,0.2547320127487182,-0.1638954281806945
-0.097899243235588,1.053088665008545,-0.2961678504943847,-0.4125661849975586,-0.2873117327690124,-0.0611548423767089,0.0,0.0,-0.0824207067489624,0.7259045839309692
-0.1008850112557411,1.043699026107788,-0.2947325706481933,-0.4180763661861419,-0.2912688851356506,-0.0791428387165069,0.0,0.0,-0.2372304201126098,-0.5028326511383057
-0.1039505004882812,1.034231185913086,-0.3041020035743713,-0.4212839305400848,-0.2937917709350586,-0.0504574663937091,0.0,0.0,0.1252682209014892,0.4768941402435303
-0.1069315895438194,1.0250930786132812,-0.2963457703590393,-0.4064979553222656,-0.2956158220767975,-0.0364807955920696,0.0,0.0,-0.3352535367012024,0.1218197345733642
-0.1099561676383018,1.0158655643463137,-0.3011922240257263,-0.4103689193725586,-0.2969231009483337,-0.0261454097926616,0.0,0.0,0.1973350048065185,0.8410308361053467
-0.1128979697823524,1.0073946714401243,-0.2917106747627258,-0.3769947588443756,-0.2994750142097473,-0.0510383248329162,0.0,0.0,0.6792411804199219,0.2674999237060547
-0.1157509833574295,0.9995846152305604,-0.28325355052948,-0.3475312292575836,-0.3015916049480438,-0.0423320867121219,0.0,0.0,-0.0259993076324462,0.0466526746749877
-0.1186470985412597,0.9916852116584778,-0.2880847454071045,-0.3514013886451721,-0.303165465593338,-0.0314774811267852,0.0,0.0,0.5635063648223877,0.3949726819992065
-0.1214299201965332,0.9847187399864196,-0.2770495414733886,-0.3098790347576141,-0.3044413328170776,-0.0255172997713089,0.0,0.0,-0.0431200265884399,0.3239955902099609
-0.1242555603384971,0.9776627421379088,-0.2818649709224701,-0.3137485086917877,-0.3051604330539703,-0.0143817858770489,0.0,0.0,-0.2130258679389953,0.4703078269958496
-0.1271238327026367,0.970517098903656,-0.2866707742214203,-0.3176177144050598,-0.3053165674209595,-0.0031227865256369,0.0,0.0,0.1091730594635009,0.6723122596740723
-0.129778191447258,0.9636726379394532,-0.2646345496177673,-0.3043618500232696,-0.3061515986919403,-0.0167004354298114,0.0,0.0,0.0095996856689453,0.0562101602554321
-0.1324438154697418,0.9571768641471864,-0.2660450339317322,-0.2888089716434479,-0.3066828846931457,-0.0106255281716585,0.0,0.0,0.597130298614502,0.0401732921600341
-0.1348322927951812,0.951651930809021,-0.2392937391996383,-0.2454545795917511,-0.3062151372432709,0.0093552051112055,0.0,0.0,0.8107035160064697,0.0968124866485595
-0.1368954628705978,0.9470260739326476,-0.2080180943012237,-0.2052350044250488,-0.3044647574424743,0.0350074544548988,0.0,0.0,0.9388651847839355,-0.0772609710693359
-0.138627141714096,0.94365394115448,-0.1758148968219757,-0.1493224650621414,-0.3017217516899109,0.0548598989844322,0.0,0.0,0.847724437713623,-0.0033107995986938
-0.1402204483747482,0.9414888620376588,-0.1621704548597335,-0.0956427529454231,-0.2987821102142334,0.0587926730513572,0.0,0.0,0.9360700845718384,0.7583147287368774
-0.1416093856096267,0.9397948384284972,-0.1409491002559662,-0.0748698785901069,-0.2966513931751251,0.0426137410104274,0.0,0.0,0.9513336420059204,0.6633073091506958
-0.1428679525852203,0.9392356276512146,-0.1268863976001739,-0.0246455464512109,-0.2955923974514007,0.021179711446166,0.0,0.0,0.839857816696167,0.6843302249908447
-0.1438061743974685,0.9393230676651,-0.094419814646244,0.004005114082247,-0.2949760258197784,0.0123271886259317,0.0,0.0,0.5850424766540527,0.8724822998046875
-0.1445237100124359,0.9401249885559082,-0.0712511390447616,0.0355382375419139,-0.2954948842525482,-0.0103773418813943,0.0,0.0,-0.1184125542640686,0.4123173952102661
-0.1452814042568206,0.9408370852470398,-0.0758591890335083,0.031669657677412,-0.2954095005989074,0.0017078984528779,0.0,0.0,-0.0357847213745117,0.6722443103790283
-0.1460388153791427,0.9414414763450624,-0.0753551721572876,0.0267875287681818,-0.2958033382892608,-0.007876893505454,0.0,0.0,0.2360924482345581,0.3866750001907348
-0.1466338187456131,0.942867875099182,-0.0597725994884967,0.0634535253047943,-0.2955148816108703,0.0057690916582942,0.0,0.0,-0.7402987480163574,-0.0478304624557495
-0.1472680121660232,0.9442046880722046,-0.0642887353897094,0.0595850944519043,-0.2946169376373291,0.0179590098559856,0.0,0.0,-0.6369544863700867,0.0134650468826293
-0.1479410231113433,0.9454514980316162,-0.0687696188688278,0.0557165965437889,-0.2931081354618072,0.0301758106797933,0.0,0.0,-0.4089744687080383,0.2741341590881347
-0.1486526429653167,0.9466087818145752,-0.0732127428054809,0.0518479347229003,-0.2909873425960541,0.0424159318208694,0.0,0.0,-0.8014534115791321,0.1490862369537353
-0.149402230978012,0.9476763606071472,-0.0776154994964599,0.0479790121316909,-0.2882535457611084,0.0546758696436882,0.0,0.0,-0.2008655071258545,0.8031787872314453
-0.150125503540039,0.9486275315284728,-0.0739053338766098,0.0425845608115196,-0.2866190969944,0.0326883420348167,0.0,0.0,-0.5479791164398193,0.4114949703216553
-0.1508858650922775,0.9494889974594116,-0.0782185271382331,0.0387156084179878,-0.2843702137470245,0.0449778512120246,0.0,0.0,-0.6682533621788025,0.613101601600647
-0.1516307890415191,0.9502379894256592,-0.0759225636720657,0.03356808796525,-0.2829027771949768,0.0293481200933456,0.0,0.0,-0.0949222445487976,0.703838586807251
-0.1523627340793609,0.9508702754974364,-0.0738968104124069,0.0282358471304178,-0.2821739017963409,0.0145773468539118,0.0,0.0,0.012701392173767,0.486393928527832
-0.1530345976352691,0.9516823887825012,-0.0686874091625213,0.0363874956965446,-0.280636727809906,0.0307436194270849,0.0,0.0,-0.4269560575485229,0.4581294059753418
-0.1537414491176605,0.9524050951004028,-0.0727831423282623,0.0325182862579822,-0.2784840166568756,0.0430544391274452,0.0,0.0,-0.5390950441360474,0.7370409965515137
-0.1544262915849685,0.9530209302902222,-0.0697519034147262,0.027610333636403,-0.2771837413311004,0.0260062962770462,0.0,0.0,-0.5275450348854065,0.7541329860687256
-0.1550786048173904,0.953526735305786,-0.0654168725013732,0.0225146021693944,-0.2769937217235565,0.0038005176465958,0.0,0.0,0.0952920913696289,0.6791896820068359
-0.155644029378891,0.9547439813613892,-0.0559076741337776,0.0539755970239639,-0.2776472270488739,-0.0130702946335077,0.0,0.0,-0.5554909110069275,-0.012050986289978
-0.156241700053215,0.9558715224266052,-0.0597270503640174,0.0501063726842403,-0.2776864767074585,-0.0007851783884689,0.0,0.0,-0.4661794304847717,0.0619658231735229
-0.1568707525730133,0.9569093585014344,-0.0634671598672866,0.0462371669709682,-0.2771121561527252,0.0114863449707627,0.0,0.0,-0.5581264495849609,0.0384134054183959
-0.1575303971767425,0.9578577876091005,-0.0671237483620643,0.0423678867518901,-0.2759250700473785,0.0237414892762899,0.0,0.0,-0.4416838884353637,0.6467056274414062
-0.1581746041774749,0.9587001800537108,-0.0650242865085601,0.0375540889799594,-0.2753155529499054,0.0121903624385595,0.0,0.0,-0.5422913432121277,0.6511733531951904
-0.1587986946105957,0.959435760974884,-0.0623388774693012,0.0326777212321758,-0.2753862142562866,-0.0014134056400507,0.0,0.0,-0.5732371807098389,0.183260440826416
-0.1594506204128265,0.9600817561149596,-0.0657185018062591,0.028808306902647,-0.2748474478721618,0.0107752606272697,0.0,0.0,-0.1061491966247558,0.2194489240646362
-0.1601294577121734,0.9606382250785828,-0.0689968988299369,0.0249388124793767,-0.2737006545066833,0.0229358244687318,0.0,0.0,-0.0098119378089904,0.691069483757019
-0.1607745140790939,0.961074709892273,-0.0646321475505828,0.0194246880710124,-0.2735687494277954,0.0026379004120826,0.0,0.0,-0.2459789514541626,0.6474610567092896
-0.1613831520080566,0.9613958597183228,-0.0599916689097881,0.0141060398891568,-0.2744652926921844,-0.0179309416562318,0.0,0.0,0.0829330682754516,0.6246938705444336
-0.1617999076843261,0.9619341492652892,-0.0402783788740634,0.0236656572669744,-0.2759003639221191,-0.0287012495100498,0.0,0.0,-0.3594036102294922,-0.0623787641525268
-0.1622390747070312,0.9623830318450928,-0.0431075952947139,0.0197959057986736,-0.2767345905303955,-0.0166846849024295,0.0,0.0,-0.4340940713882446,0.2040698528289795
-0.1626995056867599,0.9627423882484436,-0.0458138287067413,0.015926256775856,-0.2769702076911926,-0.0047124372795224,0.0,0.0,-0.1743247509002685,0.5916683673858643
-0.1631254255771637,0.9629912972450256,-0.0415295362472534,0.0108584826812148,-0.2780554890632629,-0.0217056367546319,0.0,0.0,-0.074227750301361,0.3558505773544311
-0.1635699272155761,0.9631505012512208,-0.0439782105386257,0.00698874425143,-0.2785471081733703,-0.0098323887214064,0.0,0.0,-0.1581928730010986,0.3210554122924804
-0.1640318930149078,0.9632202982902528,-0.0462926626205444,0.0031190409790724,-0.2784478068351745,0.0019859203603118,0.0,0.0,-0.552834689617157,0.6406443119049072
-0.1644531190395355,0.963184118270874,-0.0413505062460899,-0.0017534551443532,-0.279235303401947,-0.0157498326152563,0.0,0.0,0.0582671165466308,0.3316013813018799
-0.1648027449846267,0.9635902643203736,-0.0347064137458801,0.018000466749072,-0.279507040977478,-0.0054345494136214,0.0,0.0,-0.0357671380043029,0.0036348104476928
-0.1651658117771148,0.9639069437980652,-0.0365999564528465,0.01413060631603,-0.2791972756385803,0.0061953077092766,0.0,0.0,-0.416286826133728,0.4214073419570923
-0.1655406057834625,0.964134156703949,-0.0383481793105602,0.0102606462314724,-0.2783095836639404,0.0177540220320224,0.0,0.0,-0.6044933795928955,0.4297312498092651
-0.1659258902072906,0.9642719030380248,-0.0399492233991622,0.006390503142029,-0.2768477201461792,0.0292371865361928,0.0,0.0,-0.1941115260124206,0.3759341239929199
-0.1663200408220291,0.9643201231956482,-0.0414015911519527,0.0025200904347002,-0.2748157083988189,0.0406401976943016,0.0,0.0,-0.2822650671005249,0.7571456432342529
-0.166667178273201,0.964253306388855,-0.035808864980936,-0.0027632429264485,-0.2736917734146118,0.022478649392724,0.0,0.0,-0.1350333094596862,0.7993378639221191
-0.1669712960720062,0.964077353477478,-0.0307820439338684,-0.0077533493749797,-0.2733120918273926,0.007593497633934,0.0,0.0,-0.7102157473564148,0.6783654689788818
-0.1672416627407074,0.9637941122055054,-0.026942828670144,-0.0125991562381386,-0.2734086513519287,-0.0019313094671815,0.0,0.0,-0.6150684952735901,0.3033595085144043
-0.1675151884555816,0.9634215831756592,-0.0277933441102504,-0.0164699759334325,-0.2729536294937134,0.0091002266854047,0.0,0.0,-0.2177132964134216,0.2504397630691528
-0.1677903234958648,0.9629599452018738,-0.0284937880933284,-0.0203409511595964,-0.271952360868454,0.0200250800698995,0.0,0.0,-0.0101107358932495,0.7476155757904053
-0.1679942160844802,0.9623848795890808,-0.0200642142444849,-0.0256137195974588,-0.2722851037979126,-0.0066545777954161,0.0,0.0,-0.125728964805603,0.1713590621948242
-0.1681969612836837,0.9617207050323486,-0.0204678364098072,-0.0294849798083305,-0.2720831930637359,0.0040384661406278,0.0,0.0,-0.4119540452957153,0.7984628677368164
-0.1683203727006912,0.960944652557373,-0.0111094014719128,-0.0347172878682613,-0.273345798254013,-0.0252520386129617,0.0,0.0,0.2683104276657104,0.359740138053894
-0.1682633459568023,0.9606983065605164,0.0061651999130845,-0.0110314339399337,-0.2738157212734222,-0.0093985609710216,0.0,0.0,-0.5192102789878845,0.2997466325759887
-0.1682009696960449,0.9603628516197203,0.0061928881332278,-0.0149030853062868,-0.2737708985805511,0.000896543264389,0.0,0.0,-0.5037671327590942,0.2599382400512695
-0.168132022023201,0.9599381685256958,0.0063592665828764,-0.018774889409542,-0.2732186913490295,0.0110443551093339,0.0,0.0,-0.3896397352218628,0.6171069145202637
-0.1680026054382324,0.959399163722992,0.0132994186133146,-0.0240290556102991,-0.2735879123210907,-0.0073842024430632,0.0,0.0,-0.322705864906311,-0.1374639272689819
-0.1678640395402908,0.9587708711624146,0.0137338219210505,-0.0279012359678745,-0.2734656631946563,0.0024452020879834,0.0,0.0,-0.6854667067527771,0.624603271484375
-0.1676781624555587,0.9580361247062684,0.0189688466489315,-0.0327229686081409,-0.2738582491874695,-0.0078518409281969,0.0,0.0,-0.5762304067611694,-0.0475496053695678
-0.167480856180191,0.9572124481201172,0.0196573082357645,-0.0365955382585525,-0.2737769782543182,0.0016252880450338,0.0,0.0,-0.7157048583030701,-0.4974661469459533
-0.1672708541154861,0.9562996625900269,0.0204670913517475,-0.0404683165252208,-0.2732313275337219,0.0109128216281533,0.0,0.0,-0.5873414874076843,0.106544017791748
-0.1670472174882888,0.9552980065345764,0.021394183859229,-0.0443413592875003,-0.272231251001358,0.0200013723224401,0.0,0.0,-0.6552519798278809,0.3449800014495849
-0.1668087989091873,0.9542072415351868,0.0224344581365585,-0.0482147373259067,-0.2707871794700622,0.0288812778890132,0.0,0.0,-0.7669921517372131,0.6488773822784424
-0.1665020883083343,0.9530121684074402,0.0301640927791595,-0.0530189275741577,-0.270273745059967,0.010268772020936,0.0,0.0,-0.7221373915672302,0.54732346534729
