x_pos,y_pos,x_vel,y_vel,angle,ang_vel,leg_1,leg_2,main_booster,lat_booster
-0.0015009880298748,1.403530836105347,-0.1521263420581817,-0.3284061253070831,0.0018204969819635,0.0359152406454086,0.0,0.0,0.0300538990150855,0.8235517274671709
-0.0028783797752112,1.3964990377426147,-0.1379767954349517,-0.31252521276474,0.0020509492605924,0.0046100979670882,0.0,0.0,0.3012004327470192,0.9084068319171652
-0.0040438650175929,1.3898444175720217,-0.1151488870382309,-0.2957606315612793,0.0006666153203696,-0.0276891775429248,0.0,0.0,-0.8769673037353325,0.6211081567701546
-0.0051513672806322,1.3830941915512085,-0.1084199994802475,-0.3000100553035736,-0.0016245992155745,-0.0458286143839359,0.0,0.0,0.0633124925730754,-0.5911407464433394
-0.0061940192244946,1.376881718635559,-0.1033649444580078,-0.2761057317256927,-0.0025139639619737,-0.0177892558276653,0.0,0.0,0.4183589589447436,-0.9354447188130764
-0.0071582794189453,1.3712735176086426,-0.0976377874612808,-0.2492495626211166,-0.0013210652396082,0.0238602440804243,0.0,0.0,-0.7432312257692626,-0.6832046572386128
-0.0081636430695652,1.3655719757080078,-0.1032482981681823,-0.253402441740036,0.0013685402227565,0.0537971146404743,0.0,0.0,0.7053422299267944,-0.7482973337644532
-0.009046459570527,1.3607813119888306,-0.0929700881242752,-0.2129304409027099,0.0060071758925914,0.092781089246273,0.0,0.0,-0.424214301124449,-0.6002231775189819
-0.0099653247743844,1.355903387069702,-0.0979125350713729,-0.2168302088975906,0.0119616072624921,0.119099736213684,0.0,0.0,-0.4175140546901918,0.6869750786757327
-0.0108194351196289,1.350937843322754,-0.0901626870036125,-0.2207401394844055,0.0166656896471977,0.0940903350710868,0.0,0.0,0.541359232393793,0.7390492819129014
-0.0115261077880859,1.346714973449707,-0.0742316916584968,-0.1877277046442031,0.0201923251152038,0.070539191365242,0.0,0.0,0.2660973952609231,-0.9525710768551692
-0.0122445104643702,1.3430036306381226,-0.0774715989828109,-0.1650388240814209,0.0257619116455316,0.1114020943641662,0.0,0.0,0.8086032095946358,-0.5242757021883759
-0.0128651615232229,1.340354323387146,-0.0693333446979522,-0.1178847402334213,0.0329430252313613,0.143635481595993,0.0,0.0,-0.5435028986909998,-0.5433799532961978
-0.0135176656767725,1.337605357170105,-0.0736043602228164,-0.1223813518881797,0.0412069335579872,0.1652933806180954,0.0,0.0,0.5982446500040022,0.8816360496803755
-0.0139762880280613,1.3359819650650024,-0.0528098717331886,-0.0723590552806854,0.048086293041706,0.1375993192195892,0.0,0.0,-0.2314798547382812,-0.6189203958879199
-0.0144706722348928,1.334255337715149,-0.0575422421097755,-0.0770124644041061,0.0561100766062736,0.1604902446269989,0.0,0.0,0.5345382646656147,0.886874107730334
-0.0147934909909963,1.3336546421051023,-0.0389470569789409,-0.0269649997353553,0.0627095177769661,0.1320009976625442,0.0,0.0,0.1825372251268744,-0.5980446759863169
-0.0150651931762695,1.33336341381073,-0.035383328795433,-0.0132999438792467,0.0708420574665069,0.1626656055450439,0.0,0.0,-0.4427295889187452,0.825356946555271
-0.0152609823271632,1.3329955339431765,-0.0260060243308544,-0.0166679620742797,0.0772159472107887,0.1274894177913665,0.0,0.0,-0.7013392217224692,-0.7735181558974212
-0.0155257228761911,1.3325265645980835,-0.0348171181976795,-0.0212911777198314,0.0854893401265144,0.1654827892780304,0.0,0.0,0.2248798369041376,-0.5946679263779231
-0.0157818794250488,1.3328101634979248,-0.0354899764060974,0.0120130339637398,0.0952916145324707,0.1960630416870117,0.0,0.0,-0.7801626019558512,-0.960258578693507
-0.0161134712398052,1.332985758781433,-0.0450764149427413,0.0070069013163447,0.1071310713887214,0.2368101775646209,0.0,0.0,-0.3068234185582643,-0.9591594100797152
-0.0165067669004201,1.333059549331665,-0.052897036075592,0.0022480450570583,0.1206340119242668,0.2700828015804291,0.0,0.0,0.0273180126500149,0.616149759816345
-0.0168291088193655,1.3333420753479004,-0.0447749160230159,0.0114963920786976,0.1331356167793274,0.250054657459259,0.0,0.0,0.1323881449600312,-0.6139584553622052
-0.0173700340092182,1.3341598510742188,-0.0678506642580032,0.0350555703043937,0.1468709111213684,0.2747307121753692,0.0,0.0,0.5571441906129353,-0.7743940604332479
-0.0182217601686716,1.3358078002929688,-0.10039784014225,0.0716685131192207,0.1620649844408035,0.3038814663887024,0.0,0.0,0.3917760567532451,-0.6793369889230556
-0.019227122887969,1.338263988494873,-0.1172488704323768,0.1072544977068901,0.1787994801998138,0.3346903026103973,0.0,0.0,-0.932309112012071,0.9650971834072288
-0.020180320367217,1.3406561613082886,-0.1106464117765426,0.104402981698513,0.1941910684108734,0.3078320324420929,0.0,0.0,0.9545169416512844,-0.7566772992784014
-0.0215397831052541,1.3442480564117432,-0.1525228023529052,0.1573729068040847,0.2108938097953796,0.3340550363063812,0.0,0.0,0.115802323856738,0.892174206845494
-0.022921085357666,1.348246932029724,-0.1530662924051284,0.1755184233188629,0.2259840071201324,0.30180424451828,0.0,0.0,0.382952200993951,-0.8468620338692043
-0.0245170593261718,1.353184938430786,-0.1763403713703155,0.2168068140745163,0.2429768443107605,0.3398566544055938,0.0,0.0,-0.7781542539596558,0.9305604696273804
-0.0260566715151071,1.3580511808395386,-0.1692266017198562,0.2136823385953903,0.258523941040039,0.3109421730041504,0.0,0.0,-0.922029972076416,0.908043384552002
-0.0275449752807617,1.3628594875335691,-0.1626467704772949,0.2111979573965072,0.2726653516292572,0.2828280329704284,0.0,0.0,-0.9009547233581544,0.8314685821533203
-0.0289821624755859,1.367593765258789,-0.1562083810567855,0.2080260664224624,0.2854951322078705,0.2565957903861999,0.0,0.0,-0.969969630241394,0.6992852687835693
-0.0303719528019428,1.3722622394561768,-0.150200068950653,0.2052561640739441,0.2970541715621948,0.2311809808015823,0.0,0.0,-0.9776196479797364,0.4278061389923095
-0.0317684188485145,1.3768396377563477,-0.1510053277015686,0.2010867446660995,0.3088025748729706,0.23496775329113,0.0,0.0,-0.9396901726722716,0.7945075035095215
-0.0331134796142578,1.3813496828079224,-0.1445218920707702,0.1982742846012115,0.3191967308521271,0.2078836411237716,0.0,0.0,-0.9650558233261108,0.2207809686660766
-0.0344648361206054,1.3857680559158323,-0.1452939212322235,0.1941066682338714,0.3297805190086365,0.2116749733686447,0.0,0.0,-0.9790558218955994,0.5696697235107422
-0.0357837677001953,1.3901216983795166,-0.1411681026220321,0.1913471817970276,0.3394583165645599,0.1935557425022125,0.0,0.0,-0.9254425168037416,0.51729416847229
-0.0370683670043945,1.394405484199524,-0.1368182152509689,0.1884027570486068,0.3482155501842499,0.1751450598239898,0.0,0.0,-0.9684240818023682,-0.5566493272781372
-0.0384078025817871,1.3985759019851685,-0.1437145620584488,0.1829520761966705,0.3584986329078674,0.2056618481874466,0.0,0.0,-0.953581929206848,0.5777132511138916
-0.0397003181278705,1.4026824235916138,-0.1378247290849685,0.1803480088710785,0.3675408363342285,0.1808441281318664,0.0,0.0,-0.96521258354187,0.7169890403747559
-0.0409339889883995,1.4067251682281494,-0.1304769217967987,0.1778352260589599,0.3750659525394439,0.1505022943019867,0.0,0.0,-0.9483317136764526,0.1912996768951416
-0.0421711914241313,1.410676121711731,-0.1309783160686493,0.1736711412668228,0.3827751576900482,0.1541841477155685,0.0,0.0,-0.9797585010528564,0.3683451414108276
-0.0434112548828125,1.4145352840423584,-0.1314091086387634,0.1695067733526229,0.3906666040420532,0.1578289270401001,0.0,0.0,-0.9610852599143982,0.4122023582458496
-0.0446533188223838,1.4183026552200315,-0.131762221455574,0.1653421521186828,0.398738145828247,0.1614311188459396,0.0,0.0,-0.9497782588005066,0.2439366579055786
-0.0458967201411724,1.4219783544540403,-0.1320305466651916,0.1611773073673248,0.4069873988628387,0.1649850904941558,0.0,0.0,-0.9575154781341552,0.6916491985321045
-0.0471020713448524,1.4255950450897217,-0.1272666305303573,0.1587915122509002,0.4142367541790008,0.1449868977069854,0.0,0.0,-0.9662848711013794,0.0084861516952514
-0.0483068451285362,1.4291200637817385,-0.1273452937602996,0.1546276211738586,0.4216581284999847,0.1484274566173553,0.0,0.0,-0.9787609577178956,0.1248323917388916
-0.0495099052786827,1.4325530529022217,-0.1273183822631836,0.150463581085205,0.4292482435703277,0.1518024057149887,0.0,0.0,-0.975716769695282,0.105060338973999
-0.0507103912532329,1.4358943700790403,-0.1271790564060211,0.1462993919849395,0.4370035231113434,0.155105784535408,0.0,0.0,-0.9770146012306212,0.059497594833374
-0.0519071593880653,1.4391437768936155,-0.1269206702709198,0.1421350687742233,0.4449201226234436,0.1583314836025238,0.0,0.0,-0.980209469795227,0.5196622610092163
-0.0530545227229595,1.4423296451568604,-0.120944008231163,0.1396058648824691,0.4517170190811157,0.1359381675720214,0.0,0.0,-0.9427459836006165,0.2354838848114013
-0.0541955940425396,1.4454233646392822,-0.120429053902626,0.1354427635669708,0.4586665332317352,0.1389902532100677,0.0,0.0,-0.977704644203186,-0.2949942350387573
-0.0553289428353309,1.4484251737594604,-0.1197758913040161,0.1312796175479889,0.4657638370990753,0.141945943236351,0.0,0.0,-0.9324896335601808,-0.1030333638191223
-0.0564533248543739,1.4513351917266846,-0.1189784854650497,0.1271164268255233,0.4730037748813629,0.1447988003492355,0.0,0.0,-0.956975281238556,0.0902875661849975
-0.0575672164559364,1.454153060913086,-0.1180310100317001,0.1229532435536384,0.4803808927536011,0.1475424468517303,0.0,0.0,-0.9758198857307434,0.2008423805236816
-0.0586691871285438,1.456878900527954,-0.1169278472661972,0.1187900602817535,0.4878894388675689,0.1501702219247818,0.0,0.0,-0.8613958954811096,-0.0365195274353027
-0.059757612645626,1.4595128297805786,-0.1156636103987693,0.1146269142627716,0.4955232143402099,0.1526756286621093,0.0,0.0,-0.9728803634643556,-0.1526143550872802
-0.0608309730887413,1.4620544910430908,-0.1142332106828689,0.1104638427495956,0.5032758116722107,0.1550519615411758,0.0,0.0,-0.8978601694107056,0.0209734439849853
-0.0618876442313194,1.4645044803619385,-0.1126318201422691,0.1063008531928062,0.5111404657363892,0.1572926193475723,0.0,0.0,-0.9767998456954956,0.5143400430679321
-0.0628975853323936,1.4668889045715332,-0.1072228103876113,0.1036321967840194,0.5181993842124939,0.1411783844232559,0.0,0.0,-0.9836776852607728,0.285124659538269
-0.0638874024152755,1.4691811800003052,-0.1052670627832412,0.0994704812765121,0.5253557562828064,0.1431277990341186,0.0,0.0,-0.9576197266578674,0.3413927555084228
-0.0648553818464279,1.4713813066482544,-0.1031278371810913,0.0953089520335197,0.5326018333435059,0.1449214667081833,0.0,0.0,-0.7789421081542969,-0.3954054117202759
-0.0657996162772178,1.4734889268875122,-0.1008016020059585,0.0911476537585258,0.5399294495582581,0.1465527713298797,0.0,0.0,-0.9157806038856506,0.1689372062683105
-0.0667182952165603,1.4755043983459473,-0.0982852727174758,0.0869866088032722,0.5473302006721497,0.1480152010917663,0.0,0.0,-0.9805707931518556,-0.269031286239624
-0.0676095932722091,1.4774272441864014,-0.0955761224031448,0.0828258320689201,0.5547953248023987,0.1493023186922073,0.0,0.0,-0.924566388130188,-0.0418805480003356
-0.0684717148542404,1.4792577028274536,-0.0926718041300773,0.0786653906106948,0.5623157024383545,0.1504078209400177,0.0,0.0,-0.941056489944458,0.2617439031600952
-0.0693026557564735,1.4809958934783936,-0.0895704180002212,0.0745052918791771,0.5698819756507874,0.1513256132602691,0.0,0.0,-0.9044544100761414,-0.2115610837936401
-0.07010068744421,1.482641339302063,-0.0862704589962959,0.0703455656766891,0.5774844884872437,0.1520497351884842,0.0,0.0,-0.9129120111465454,0.1018677949905395
-0.0708638206124305,1.4841941595077517,-0.0827708542346954,0.0661862641572952,0.5851132273674011,0.1525745540857315,0.0,0.0,-0.9692746996879578,0.4423530101776123
-0.0715900436043739,1.4856542348861694,-0.0790709555149078,0.0620274133980274,0.5927579402923584,0.1528945416212082,0.0,0.0,-0.9422670006752014,0.1206732988357544
-0.0722776427865028,1.4870216846466064,-0.0751705318689346,0.057869054377079,0.6004081964492798,0.1530046463012695,0.0,0.0,-0.8850303292274475,0.407466173171997
-0.0729246139526367,1.4882961511611938,-0.0710697621107101,0.0537112094461917,0.6080532073974609,0.1529000699520111,0.0,0.0,-0.8949288129806519,0.5603907108306885
-0.0734935775399208,0.0,-0.062282521277666,0.0513988696038723,0.6145466566085815,0.1298684626817703,0.0,0.0,-0.914036989212036,0.1054352521896362
-0.0740180015563964,1.4906291961669922,-0.0577845051884651,0.047243271023035,0.6210127472877502,0.1293216794729232,0.0,0.0,-0.9584604501724244,0.3301529884338379
-0.0744960755109787,1.491655707359314,-0.0530892238020896,0.0430882684886455,0.6274401545524597,0.1285479515790939,0.0,0.0,-0.8363998532295227,0.2514270544052124
-0.0749258995056152,1.492588758468628,-0.0481984801590442,0.0389339067041873,0.6338173747062683,0.1275441944599151,0.0,0.0,-0.4662027359008789,0.5657249689102173
-0.0752677917480468,1.4934768676757812,-0.0381963402032852,0.0375016070902347,0.6387301683425903,0.0982560366392135,0.0,0.0,-0.9613872170448304,0.1535778045654297
-0.0755577087402343,1.4942712783813477,-0.0329227074980735,0.0333496257662773,0.6435694098472595,0.0967848226428031,0.0,0.0,-0.9605282545089722,0.5056021213531494
-0.0757670402526855,1.4949952363967896,-0.0240924768149852,0.0305930487811565,0.6474677324295044,0.0779661163687706,0.0,0.0,-0.8386598229408264,-0.1329038739204406
-0.0759208649396896,1.4956250190734863,-0.0184467174112796,0.0264429226517677,0.6512687802314758,0.0760205909609794,0.0,0.0,-0.8001669645309448,-0.3911972045898437
-0.0760172829031944,1.496160626411438,-0.0126196425408124,0.0222934801131486,0.6549606323242188,0.07383693754673,0.0,0.0,-0.896849513053894,0.3108006715774536
-0.0760548561811447,1.4966020584106443,-0.0066149770282208,0.01814472861588,0.6585314273834229,0.0714154690504074,0.0,0.0,-0.9244400858879088,0.2830408811569214
-0.076031781733036,1.4969489574432373,-0.0004366852226667,0.0139966728165745,0.6619693040847778,0.0687571316957473,0.0,0.0,-0.9173067808151244,0.4973304271697998
-0.0759463310241699,1.4972013235092163,0.0059110480360686,0.0098493164405226,0.6652624607086182,0.065863512456417,0.0,0.0,-0.8879227638244629,0.0376529693603515
-0.0757970809936523,1.4973591566085815,0.0124238384887576,0.0057026627473533,0.6683992743492126,0.0627367049455642,0.0,0.0,-0.6839469075202942,-0.3182728886604309
-0.0755826011300087,1.497422218322754,0.0190971381962299,0.0015567089430987,0.6713682413101196,0.0593794882297515,0.0,0.0,-0.6317315697669983,-0.077320396900177
-0.0753011703491211,1.4973905086517334,0.0259262435138225,-0.0025885517243295,0.6741580367088318,0.0557950846850872,0.0,0.0,-0.8896552920341492,-0.0627526640892028
-0.0749516487121582,1.4972636699676514,0.0329063385725021,-0.0067331260070204,0.6767573952674866,0.05198734998703,0.0,0.0,-0.8624991774559021,-0.064033031463623
-0.0745323151350021,1.4970417022705078,0.0400324985384941,-0.0108770243823528,0.6791554093360901,0.0479605682194232,0.0,0.0,-0.9562594890594482,-0.1604058742523193
-0.0740421265363693,1.4967247247695925,0.0472997240722179,-0.0150202615186572,0.6813414096832275,0.0437195114791393,0.0,0.0,-0.6772422790527344,-0.0274657607078552
-0.0734796524047851,1.496312379837036,0.0547029562294483,-0.0191628504544496,0.6833048462867737,0.0392693020403385,0.0,0.0,-0.7802954316139221,0.165263295173645
-0.0728436484932899,1.4958045482635498,0.0622371062636375,-0.0233048107475042,0.6850356459617615,0.0346154794096946,0.0,0.0,-0.7983866333961487,-0.0139357447624206
-0.0721330642700195,1.4952013492584229,0.0698970481753349,-0.0274461675435304,0.6865238547325134,0.0297639183700084,0.0,0.0,-0.5365192890167236,0.1301271915435791
-0.071346566081047,1.4945026636123655,0.0776776820421218,-0.0315869338810443,0.6877598762512207,0.0247207023203372,0.0,0.0,-0.7922772765159607,0.2654869556427002
-0.0704832077026367,1.4937081336975098,0.0855738818645477,-0.0357271432876586,0.6887344717979431,0.0194921381771564,0.0,0.0,-0.6896815299987793,-0.2093493938446045
-0.0695419311523437,0.0,0.0935805812478065,-0.0398668237030506,0.6894387006759644,0.0140847992151975,0.0,0.0,-0.8062223196029663,-0.6376934051513672
-0.068555548787117,1.4917943477630615,0.0973662137985229,-0.0461986251175403,0.6910591125488281,0.032408557832241,0.0,0.0,-0.6454858183860779,-0.2975614070892334
-0.0674893409013748,1.490674614906311,0.1055789962410926,-0.050337478518486,0.6923923492431641,0.0266643855720758,0.0,0.0,-0.5986616015434265,0.4286248683929443
-0.0663423538208007,1.4894590377807615,0.1138872057199478,-0.0544758290052413,0.693430483341217,0.0207623653113842,0.0,0.0,-0.8975078463554382,0.1047964096069336
-0.0651137381792068,1.4881473779678345,0.1222859770059585,-0.0586137063801288,0.6941659450531006,0.0147092547267675,0.0,0.0,-0.8194630742073059,0.2387726306915283
-0.0638027191162109,1.4867396354675293,0.1307705044746399,-0.0627511441707611,0.6945915222167969,0.0085117882117629,0.0,0.0,-0.719639003276825,0.2670574188232422
-0.0624085441231727,1.4852356910705566,0.1393360346555709,-0.066888190805912,0.6947003602981567,0.0021766279824078,0.0,0.0,-0.5585473775863647,-0.0048973560333251
-0.0609304420650005,1.4836355447769165,0.1479779332876205,-0.071024864912033,0.6944858431816101,-0.0042897714301943,0.0,0.0,-0.7203075885772705,-0.1387706995010376
-0.0593677535653114,1.4819390773773191,0.1566916108131408,-0.0751612111926078,0.6939417719841003,-0.0108809852972626,0.0,0.0,-0.7917067408561707,0.0806877613067627
-0.0577198974788188,1.480146408081055,0.1654725968837738,-0.07929727435112,0.6930622458457947,-0.0175906792283058,0.0,0.0,-0.6866490840911865,0.4346377849578857
-0.0559863075613975,1.478257417678833,0.1743164360523224,-0.0834330841898918,0.6918416023254395,-0.0244127791374921,0.0,0.0,-0.9495076537132264,0.0181876420974731
-0.0541663169860839,1.4762718677520752,0.1832188218832016,-0.0875686779618263,0.6902745366096497,-0.031341403722763,0.0,0.0,-0.8881264925003052,0.1090497970581054
-0.0522596351802349,1.4741899967193604,0.1921754777431488,-0.0917041078209877,0.6883559823036194,-0.0383708700537681,0.0,0.0,-0.5643881559371948,0.2570363283157348
-0.0502655990421772,1.4720115661621094,0.2011822164058685,-0.0958394035696983,0.6860811710357666,-0.04549565538764,0.0,0.0,-0.831753671169281,0.3687851428985595
-0.0481839179992675,1.4697368144989014,0.2102349251508712,-0.0999746099114418,0.6834456324577332,-0.052710436284542,0.0,0.0,-0.8966302871704102,0.729590892791748
-0.0459630973637104,1.467423677444458,0.2258681356906891,-0.1007683202624321,0.6786330342292786,-0.0962519198656082,0.0,0.0,-0.848598837852478,0.1870555877685547
-0.0436540618538856,0.0,0.235001727938652,-0.1049044281244278,0.6734513640403748,-0.1036330610513687,0.0,0.0,-0.9130859971046448,0.6921815872192383
-0.0412227623164653,1.4625462293624878,0.2484831511974334,-0.1068495437502861,0.6667054891586304,-0.134917750954628,0.0,0.0,-0.9114621877670288,0.538689136505127
-0.0386712066829204,1.4600194692611694,0.2617586255073547,-0.1088660508394241,0.658446192741394,-0.1651868969202041,0.0,0.0,-0.9258300065994264,0.4835433959960937
-0.0360306724905967,1.4573971033096311,0.2709853649139404,-0.1130050793290138,0.649806797504425,-0.1727874726057052,0.0,0.0,-0.8698950409889221,0.4717702865600586
-0.033301256597042,1.4546787738800049,0.2802346646785736,-0.1171446219086647,0.6407840251922607,-0.1804538071155548,0.0,0.0,-0.9156563878059388,0.0348037481307983
-0.0304827690124511,0.0,0.2895026206970215,-0.1212847381830215,0.6313749551773071,-0.1881819665431976,0.0,0.0,-0.8309918642044067,0.7647086381912231
-0.0275285728275775,1.4490160942077637,0.3048973083496094,-0.1220416873693466,0.6198338270187378,-0.2308225333690643,0.0,0.0,-0.8659470081329346,-0.163663625717163
-0.0244853980839252,1.4460724592208862,0.3141937851905823,-0.126185655593872,0.6079006791114807,-0.238663762807846,0.0,0.0,-0.7711851000785828,-0.4745933413505554
-0.0213534347712993,1.4430336952209473,0.3234974443912506,-0.1303305327892303,0.595572829246521,-0.2465572655200958,0.0,0.0,-0.940959930419922,-0.2458313107490539
