x_pos,y_pos,x_vel,y_vel,angle,ang_vel,leg_1,leg_2,main_booster,lat_booster
-0.0014886856079101,1.4033552408218384,-0.1508901566267013,-0.3362153172492981,0.0018151743570342,0.0358095504343509,0.0,0.0,0.6084450782348794,0.5245936536415827
-0.0028511048294603,1.3962156772613523,-0.1372008025646209,-0.3173148036003113,0.0027649209368973,0.0189971886575222,0.0,0.0,-0.1726362782002124,-0.7810890711991498
-0.004232978913933,1.3888005018234253,-0.1404240578413009,-0.3295725286006927,0.0049784849397838,0.0442753657698631,0.0,0.0,0.2887373170722804,-0.795729774215035
-0.0057600019499659,1.3816969394683838,-0.1564482897520065,-0.3157320618629455,0.0086886351928114,0.0742099210619926,0.0,0.0,-0.0853625250210441,0.5714765480308381
-0.0072114942595362,1.3743267059326172,-0.1475732326507568,-0.3275834619998932,0.0110824117437005,0.0478796064853668,0.0,0.0,-0.1661075895923633,-0.5070622622937195
-0.0086767198517918,1.366686224937439,-0.1497861444950103,-0.3396073579788208,0.0143067929893732,0.0644937604665756,0.0,0.0,0.4314106891150218,-0.8566402307698725
-0.0102255819365382,1.3595250844955444,-0.1598792076110839,-0.3183227777481079,0.0192487500607967,0.0988480448722839,0.0,0.0,0.3927991720656034,-0.5189738879973238
-0.0116806980222463,1.3529175519943235,-0.1519468426704406,-0.2937696576118469,0.025613946840167,0.1273155212402343,0.0,0.0,-0.7779898238369145,-0.7332351872641536
-0.0131899835541844,1.3460469245910645,-0.1589097082614898,-0.3055132329463959,0.0335079543292522,0.1578951030969619,0.0,0.0,-0.3476269433512875,-0.6763340028383982
-0.0147521020844578,1.3389098644256592,-0.1655906587839126,-0.3174419999122619,0.0427900813519954,0.1856597959995269,0.0,0.0,0.8616017625887242,0.5566371225180387
-0.0161993019282817,1.3325181007385254,-0.1533382982015609,-0.2843380868434906,0.0513166300952434,0.1705465316772461,0.0,0.0,0.6131544109684248,0.6854069351432234
-0.0175515171140432,1.3266392946243286,-0.142674520611763,-0.2615557014942169,0.0586963295936584,0.1476074755191803,0.0,0.0,0.5226436118211271,-0.6100896990915871
-0.018871497362852,1.3214677572250366,-0.141019269824028,-0.2302239537239074,0.0676358416676521,0.1788068562746048,0.0,0.0,0.5623152170630226,0.9580933287239276
-0.0200808532536029,1.3165366649627686,-0.1281754076480865,-0.2195024192333221,0.0748070627450943,0.1434374749660492,0.0,0.0,-0.752340761475776,-0.6327939889598906
-0.0213491432368755,1.311339259147644,-0.1350798606872558,-0.2314215302467346,0.0829824805259704,0.163523182272911,0.0,0.0,0.9917623191195432,-0.9854098612663716
-0.0226030349731445,1.3064067363739014,-0.1359034776687622,-0.2198399901390075,0.0934259369969368,0.2088875472545623,0.0,0.0,0.7488631310207883,0.9857210044102982
-0.0237304680049419,1.3026037216186523,-0.1215684562921524,-0.169595718383789,0.102180890738964,0.1751151382923126,0.0,0.0,-0.6341531134614509,0.8713299945120815
-0.0248057357966899,1.2985377311706543,-0.1142243966460228,-0.1811792552471161,0.1088357344269752,0.133108839392662,0.0,0.0,-0.9055332236856324,0.8023071733567486
-0.0258453376591205,1.2942228317260742,-0.1088150888681411,-0.1921411305665969,0.1136731579899787,0.0967571288347244,0.0,0.0,-0.8771210046009623,0.5939741221292811
-0.0268850326538085,1.289645433425903,-0.1078393831849098,-0.2037366926670074,0.1175262257456779,0.0770681947469711,0.0,0.0,0.5836115837531703,-0.7611468951456195
-0.0279795639216899,1.2858916521072388,-0.1151325106620788,-0.1672976911067962,0.1231840550899505,0.1131662279367446,0.0,0.0,0.8266880932159186,-0.6407882697567382
-0.029218291863799,0.0,-0.1309044063091278,-0.1474776417016983,0.130196139216423,0.1402545720338821,0.0,0.0,0.0926338475855244,-0.9285917711466138
-0.0305270198732614,1.2795531749725342,-0.1398069709539413,-0.1356221586465835,0.1391022205352783,0.1781376004219055,0.0,0.0,-0.0096224744326902,0.6094395953329717
-0.0318368896842002,1.2762558460235596,-0.1385860741138458,-0.1472723484039306,0.1466921418905258,0.151811420917511,0.0,0.0,0.9010563401470316,0.7742287244486499
-0.03342866897583,1.2737654447555542,-0.1648736447095871,-0.1112536638975143,0.1523816436529159,0.113800048828125,0.0,0.0,-0.1413735317190985,-0.869503811070343
-0.0351641662418842,1.270970344543457,-0.1814479976892471,-0.1250534355640411,0.1602710932493209,0.1577885448932647,0.0,0.0,0.3844095806943999,-0.8980634181291034
-0.0371278747916221,1.2687981128692627,-0.2060895413160324,-0.097624622285366,0.1700001955032348,0.1945819556713104,0.0,0.0,-0.7466112013048996,0.5271043359904656
-0.0391266830265522,1.2663716077804563,-0.2088097780942917,-0.1088941469788551,0.1789405643939972,0.1788074672222137,0.0,0.0,0.8675311955414586,-0.6482761696312195
-0.0415578857064247,1.2649188041687012,-0.2529594600200653,-0.0657877624034881,0.1888181865215301,0.1975525617599487,0.0,0.0,-0.8187726857778981,0.874447895085199
-0.0439950004220008,1.2632133960723877,-0.25189408659935,-0.0768546685576438,0.1970455050468444,0.1645464599132537,0.0,0.0,-0.9802514511636664,-0.5299892061631539
-0.0465469360351562,1.2612340450286863,-0.2644156813621521,-0.0892292559146881,0.2063415348529815,0.1859207451343536,0.0,0.0,-0.8713909983634949,0.985743761062622
-0.0491080284118652,1.2590017318725586,-0.2636538445949554,-0.1002860441803932,0.2139571756124496,0.1523131430149078,0.0,0.0,-0.9241610765457152,0.9630692005157472
-0.0516847595572471,1.2565306425094604,-0.2635822892189026,-0.1106933429837226,0.219935193657875,0.1195602193474769,0.0,0.0,-0.914202868938446,0.9867961406707764
-0.0542722716927528,1.2538049221038818,-0.2629602253437042,-0.1217745468020439,0.2241850197315216,0.0849965140223503,0.0,0.0,-0.9809003472328186,0.9934062957763672
-0.056863784790039,1.2508392333984375,-0.2613508999347687,-0.1321483254432678,0.2264196276664734,0.0446921959519386,0.0,0.0,-0.9853312969207764,0.9951328039169312
-0.0594612136483192,1.2476390600204468,-0.2599470317363739,-0.1422655582427978,0.2266244888305664,0.0040974123403429,0.0,0.0,-0.9881033301353456,0.9896657466888428
-0.0620702728629112,1.2441900968551636,-0.2592749893665313,-0.1530407220125198,0.2249683439731598,-0.0331226512789726,0.0,0.0,-0.9670858383178712,0.9129610061645508
-0.0646924972534179,1.240504503250122,-0.2586900591850281,-0.1632664650678634,0.221393808722496,-0.0714910477399826,0.0,0.0,-0.9967518448829652,0.9734594821929932
-0.0673343688249588,1.2365843057632446,-0.2588749527931213,-0.1734393686056137,0.2160217463970184,-0.1074408739805221,0.0,0.0,-0.998806893825531,0.9604532718658448
-0.0699882507324218,1.2324223518371582,-0.2581061720848083,-0.1839254200458526,0.208668828010559,-0.1470579355955124,0.0,0.0,-0.9455376267433168,0.9716721773147584
-0.0726719871163368,1.228019952774048,-0.2595353722572326,-0.1944410651922226,0.1997468769550323,-0.1784391105175018,0.0,0.0,-0.99712336063385,0.8911988735198975
-0.0753641128540039,1.2233731746673584,-0.2582467198371887,-0.2050885111093521,0.1887141764163971,-0.2206537723541259,0.0,0.0,-0.9970566630363464,0.8820699453353882
-0.0780682563781738,1.218472242355347,-0.2574221789836883,-0.2162159234285354,0.175678476691246,-0.2607141435146332,0.0,0.0,-0.997427225112915,0.5527236461639404
-0.0808157920837402,1.2133169174194336,-0.2604940235614776,-0.2274983078241348,0.1614003032445907,-0.2855633795261383,0.0,0.0,-0.984492301940918,0.3811382055282593
-0.0836578384041786,1.207895278930664,-0.2699595987796783,-0.2394790649414062,0.1471707969903946,-0.2845898270606994,0.0,0.0,-0.9453160762786864,0.3029055595397949
-0.0865950584411621,1.202207326889038,-0.2795040011405945,-0.2514597177505493,0.1329911351203918,-0.2835931777954101,0.0,0.0,-0.9437888860702516,0.2892837524414062
-0.0896283164620399,1.1962525844573977,-0.2891210615634918,-0.2634402513504028,0.1188625544309616,-0.2825718522071838,0.0,0.0,-0.9121431112289428,0.4201880693435669
-0.0927580818533897,1.19003164768219,-0.298805296421051,-0.2754205763339996,0.1047863513231277,-0.2815244197845459,0.0,0.0,-0.9399248361587524,-0.1140913963317871
-0.0959850326180458,1.1835442781448364,-0.3085514008998871,-0.2874008119106293,0.0907638743519783,-0.2804495096206665,0.0,0.0,-0.9402620792388916,0.8509162664413452
-0.0992446914315223,1.1767969131469729,-0.3102204203605652,-0.2989968955516815,0.075161188840866,-0.3120538294315338,0.0,0.0,-0.9706069231033324,0.5576543807983398
-0.1025481224060058,1.1697900295257568,-0.3132375478744507,-0.3106442093849182,0.0582401975989341,-0.3384199142456054,0.0,0.0,-0.8927881121635437,0.7004439830780029
-0.1059002876281738,1.162527084350586,-0.316879004240036,-0.3221802115440368,0.0401158146560192,-0.3624874949455261,0.0,0.0,-0.9426003098487854,0.6994651556015015
-0.1092859283089637,1.1549999713897705,-0.3186165988445282,-0.3341247141361236,0.0204080995172262,-0.3941544592380523,0.0,0.0,-0.9563032388687134,0.7539339065551758
-0.1127111464738845,1.147218108177185,-0.3210901916027069,-0.3457091152667999,-0.000745449506212,-0.4230713844299316,0.0,0.0,-0.9395555853843688,0.5431674718856812
-0.1161823272705078,1.1391712427139282,-0.3243893086910248,-0.3578041195869446,-0.0231823902577161,-0.448739230632782,0.0,0.0,-0.9472924470901488,0.446089506149292
-0.119753360748291,1.130861759185791,-0.3344518542289734,-0.3698094487190246,-0.0455533601343631,-0.4474195837974548,0.0,0.0,-0.9573982954025269,0.0991895198822021
-0.1234244331717491,1.122289776802063,-0.3445470929145813,-0.3818143904209137,-0.0678564831614494,-0.4460622668266296,0.0,0.0,-0.9699873328208924,-0.276216983795166
-0.1271956413984298,1.113455057144165,-0.3546722829341888,-0.3938188850879669,-0.0900898054242134,-0.4446666240692138,0.0,0.0,-0.9400957822799684,-0.8386034965515137
-0.1311245858669281,1.1043739318847656,-0.3720377087593078,-0.4050030410289764,-0.1107848435640335,-0.4139008522033691,0.0,0.0,-0.9471285939216614,-0.8661961555480957
-0.1352303475141525,1.0950486660003662,-0.3917890191078186,-0.4159532487392425,-0.1294567584991455,-0.373438149690628,0.0,0.0,-0.8822638392448425,0.3791133165359497
-0.1394367218017578,1.0854586362838743,-0.4019874632358551,-0.4279447495937347,-0.1480531692504882,-0.3719278872013092,0.0,0.0,-0.4546715021133423,-0.4733003377914428
-0.1437440812587738,1.0756038427352903,-0.4122061133384704,-0.4399358034133911,-0.1665719449520111,-0.3703755438327789,0.0,0.0,-0.6383697390556335,-0.4704761505126953
-0.1481523513793945,1.0654844045639038,-0.422443151473999,-0.4519263803958893,-0.1850109547376632,-0.3687804937362671,0.0,0.0,-0.8076656460762024,0.3659453392028808
-0.1526618897914886,1.0550999641418457,-0.4326967298984527,-0.4639164805412292,-0.2033680379390716,-0.3671420812606811,0.0,0.0,-0.7195520401000977,0.4035983085632324
-0.1572724282741546,1.044450283050537,-0.4429650902748108,-0.4759060442447662,-0.2216410338878631,-0.3654597401618957,0.0,0.0,-0.6383333802223206,-0.445442259311676
-0.1619842499494552,1.0335358381271362,-0.453246533870697,-0.4878951013088226,-0.2398277074098587,-0.3637330234050751,0.0,0.0,-0.9380404949188232,0.3977375030517578
-0.1667973548173904,1.022356033325195,-0.4635396003723144,-0.499883621931076,-0.2579257786273956,-0.3619616031646728,0.0,0.0,-0.7029101848602295,0.3354978561401367
-0.171711727976799,1.010910987854004,-0.4738427102565765,-0.5118715763092041,-0.275933027267456,-0.3601450324058532,0.0,0.0,-0.5948835611343384,0.4603463411331177
-0.1767274886369705,0.9992005228996276,-0.4841544032096863,-0.523858904838562,-0.2938471734523773,-0.3582831621170044,0.0,0.0,-0.2903021574020386,-0.4302615523338318
-0.1818444281816482,0.987224578857422,-0.4944733083248138,-0.5358457565307617,-0.3116659820079803,-0.3563759326934814,0.0,0.0,-0.5597885847091675,0.6854492425918579
-0.1870187819004058,0.97496497631073,-0.4992457032203674,-0.5488908290863037,-0.3305681049823761,-0.378042995929718,0.0,0.0,0.4132834672927856,0.6882234811782837
-0.1920422613620758,0.9631566405296326,-0.4830955564975738,-0.529353678226471,-0.3507258296012878,-0.4031547605991363,0.0,0.0,0.3496636152267456,0.3005471229553222
-0.1970284432172775,0.9521098136901855,-0.4791454672813415,-0.4958547055721283,-0.3712681233882904,-0.4108456969261169,0.0,0.0,-0.2186142206192016,-0.4657688736915588
-0.2021155804395675,0.9407986402511596,-0.4894847869873047,-0.5078479051589966,-0.3917059302330017,-0.4087568819522857,0.0,0.0,0.4113495349884033,0.2158659696578979
-0.207202523946762,0.9297024607658386,-0.4896067082881927,-0.498555988073349,-0.41217041015625,-0.4092903137207031,0.0,0.0,0.0848129987716674,-0.1772130131721496
-0.2122637778520584,0.9186081290245056,-0.4874960482120514,-0.4986469149589538,-0.4323197603225708,-0.4029869139194488,0.0,0.0,0.579159140586853,-0.6809043288230896
-0.2173702269792556,0.9077385067939758,-0.493510901927948,-0.4884790182113647,-0.451016217470169,-0.3739294409751892,0.0,0.0,0.5447344779968262,-0.7185596227645874
-0.2223105877637863,0.897652268409729,-0.4785162806510925,-0.4533858597278595,-0.4681055247783661,-0.341786116361618,0.0,0.0,0.5102238655090332,-0.1800609827041626
-0.2269501239061355,0.8882482051849365,-0.4489685595035553,-0.4230996966361999,-0.4847418665885925,-0.3327268958091736,0.0,0.0,-0.6225245594978333,0.2460932731628418
-0.2316904515028,0.8785774111747742,-0.4592851996421814,-0.4350790381431579,-0.5012615323066711,-0.3303938806056976,0.0,0.0,0.0069681406021118,0.161260724067688
-0.2365036904811859,0.8689623475074768,-0.4664841294288635,-0.4328470230102539,-0.5180273652076721,-0.3353161513805389,0.0,0.0,0.1437447071075439,-0.2915322780609131
-0.2411222010850906,0.8597728610038757,-0.4473719000816345,-0.4140087366104126,-0.534543514251709,-0.3303229510784149,0.0,0.0,0.6448550224304199,0.4497463703155517
-0.245635986328125,0.8511334657669067,-0.4367428421974182,-0.3898519873619079,-0.5514038801193237,-0.337207168340683,0.0,0.0,0.4936078786849975,-0.4359171986579895
-0.2499711066484451,0.8430489301681519,-0.4189390242099762,-0.3653839230537414,-0.5683692693710327,-0.339308351278305,0.0,0.0,0.9658210277557372,-0.8263972401618958
-0.2540241181850433,0.8358169794082642,-0.3924735486507416,-0.3269609212875366,-0.5834633111953735,-0.3018814325332641,0.0,0.0,0.7234840393066406,-0.7768754959106445
-0.2578101754188537,0.82904452085495,-0.3675533533096313,-0.3059186637401581,-0.5965816974639893,-0.2623690068721771,0.0,0.0,0.8897910118103027,-0.918188452720642
-0.2615142464637756,0.822516918182373,-0.3612351715564728,-0.2943084836006164,-0.6075604557991028,-0.2195746451616287,0.0,0.0,0.981914520263672,-0.0246530175209045
-0.2649513185024261,0.8162199854850769,-0.3351471722126007,-0.2838726937770843,-0.6178938150405884,-0.2066668570041656,0.0,0.0,0.9206960201263428,-0.1574388742446899
-0.2679644525051117,0.8103169798851013,-0.2935692369937897,-0.2660592198371887,-0.6273037791252136,-0.1881992518901825,0.0,0.0,0.9615087509155272,-0.915294587612152
-0.2707157731056213,0.8046099543571472,-0.2693983018398285,-0.2564362585544586,-0.6343002319335938,-0.1399285793304443,0.0,0.0,0.934766411781311,-0.3907068967819214
-0.2730506956577301,0.7997018694877625,-0.2278819531202316,-0.2209037244319915,-0.6411919593811035,-0.1378344446420669,0.0,0.0,0.9771499633789062,-0.8549033403396606
-0.2749601006507873,0.7956435084342957,-0.1870457381010055,-0.1823232024908065,-0.6459988951683044,-0.0961391702294349,0.0,0.0,0.7697248458862305,-0.5054830312728882
-0.2764560580253601,0.7920798063278198,-0.1470319628715515,-0.1596782654523849,-0.6491734385490417,-0.0634905248880386,0.0,0.0,0.5398473739624023,-0.8371773362159729
-0.2778387665748596,0.7885662913322449,-0.13738813996315,-0.1566056460142135,-0.6502686738967896,-0.0219046361744403,0.0,0.0,0.8497202396392822,-0.8174165487289429
-0.2790773808956146,0.785577118396759,-0.1244330778717994,-0.1325595825910568,-0.6495600342750549,0.0141727980226278,0.0,0.0,-0.2987896203994751,-0.9192057251930236
-0.2804581522941589,0.7823819518089294,-0.140172854065895,-0.1409550309181213,-0.6469663977622986,0.0518728606402874,0.0,0.0,0.3025870323181152,-0.8778600096702576
-0.2817370295524597,0.7795338034629822,-0.1316457986831665,-0.1247022598981857,-0.6423265337944031,0.0927959978580474,0.0,0.0,0.3715178966522217,-0.0977835655212402
-0.2827998697757721,0.7773013114929199,-0.109781876206398,-0.0974764972925186,-0.6380190253257751,0.086150623857975,0.0,0.0,-0.4144302606582641,-0.5911144614219666
-0.2839891910552978,0.7748364210128784,-0.1234615594148635,-0.1073286011815071,-0.6324596405029297,0.1111872941255569,0.0,0.0,0.554387092590332,-0.2826764583587646
-0.2848973274230957,0.7729999423027039,-0.0952944904565811,-0.0794391483068466,-0.6269854307174683,0.1094838976860046,0.0,0.0,-0.2131345272064209,-0.3927618265151977
-0.2859001755714416,0.7708935141563416,-0.1049113050103187,-0.0913971364498138,-0.6213623881340027,0.1124606356024742,0.0,0.0,0.4008609056472778,-0.1837068796157837
-0.2867683470249176,0.7690505385398865,-0.0915019512176513,-0.0796880275011062,-0.6156872510910034,0.1135026812553405,0.0,0.0,0.1055699586868286,-0.635093092918396
-0.2876086235046386,0.7675495147705078,-0.0899189561605453,-0.0639508888125419,-0.6085811853408813,0.1421218067407608,0.0,0.0,-0.1037614941596984,-0.2422699928283691
-0.2885409891605377,0.7657787203788757,-0.0992754846811294,-0.0759104043245315,-0.6013240814208984,0.1451406627893448,0.0,0.0,0.0061743259429931,0.3315625190734863
-0.2892634272575378,0.7642248868942261,-0.0786972939968109,-0.0661311522126197,-0.5936173796653748,0.1541341692209243,0.0,0.0,-0.2153360843658447,-0.5909565687179565
-0.290111780166626,0.7624318599700928,-0.0924054533243179,-0.0763126909732818,-0.5846248269081116,0.1798495352268219,0.0,0.0,-0.0232482552528381,0.0938156843185424
-0.291048526763916,0.7603696584701538,-0.1014210358262062,-0.0882745757699012,-0.575480580329895,0.1828848123550415,0.0,0.0,0.172762393951416,0.2236958742141723
-0.2917861342430115,0.7587442994117737,-0.0816178321838378,-0.0688670650124549,-0.5662598013877869,0.1844158917665481,0.0,0.0,0.0123438835144042,0.4383523464202881
-0.2922545075416565,0.7574421167373657,-0.0552246272563934,-0.0543526820838451,-0.556483268737793,0.1955311447381973,0.0,0.0,-0.5346439480781555,0.023644208908081
-0.2928068041801452,0.7558706998825073,-0.0637938827276229,-0.0663160607218742,-0.546555757522583,0.1985519826412201,0.0,0.0,-0.148618996143341,0.0467836856842041
-0.2934412062168121,0.7540303468704224,-0.0721865370869636,-0.0782798156142234,-0.5364777445793152,0.2015600204467773,0.0,0.0,0.1755615472793579,0.5411996841430664
-0.2937906682491302,0.7525787949562073,-0.0429519601166248,-0.0613725818693637,-0.5273096561431885,0.1833626329898834,0.0,0.0,-0.1500201821327209,-0.4483129978179931
-0.2942183017730713,0.7508580088615417,-0.0509422197937965,-0.0733356773853302,-0.5179930925369263,0.1863313019275665,0.0,0.0,-0.4524859189987182,-0.3389257788658142
-0.2947219014167785,0.7488681674003601,-0.0587058439850807,-0.0852991417050361,-0.5085294842720032,0.1892727315425872,0.0,0.0,0.0286415815353393,0.0142889022827148
-0.2952126562595367,0.7470874786376953,-0.0572720170021057,-0.0761278793215751,-0.4992900490760803,0.1847887933254242,0.0,0.0,-0.3336398601531982,-0.2298132181167602
-0.2957742214202881,0.7450377345085144,-0.0645245313644409,-0.0880916491150856,-0.4899070262908935,0.1876604259014129,0.0,0.0,-0.477202296257019,0.1057089567184448
-0.2964037954807281,0.7427188754081726,-0.0714910700917244,-0.1000558361411094,-0.4803825914859772,0.1904889643192291,0.0,0.0,0.6640915870666504,0.5104665756225586
-0.2967726588249206,0.7404839396476746,-0.0449573621153831,-0.0965567305684089,-0.4714228510856628,0.1791950613260269,0.0,0.0,-0.0378935933113098,-0.0137867331504821
-0.2972032129764557,0.7379800081253052,-0.0512858033180236,-0.1085207909345626,-0.4623268246650696,0.1819204837083816,0.0,0.0,0.2002663612365722,0.0453767776489257
-0.2974142432212829,0.7359817028045654,-0.0295686535537242,-0.0860355272889137,-0.4530134201049804,0.1862682402133941,0.0,0.0,-0.0819371938705444,-0.7321287393569946
