x_pos,y_pos,x_vel,y_vel,angle,ang_vel,leg_1,leg_2,main_booster,lat_booster
-0.001604652381502,1.403486251831055,-0.1629510223865509,-0.3303942382335663,0.0022298502735793,0.0440203137695789,0.0,0.0,0.845563522317633,-0.8883969620726879
-0.0032943724654614,1.3967061042785645,-0.1734856814146042,-0.3013544976711273,0.0066905780695378,0.0892239362001419,0.0,0.0,0.7950532699034316,0.7521394316756558
-0.0048442841507494,1.3904422521591189,-0.1587661057710647,-0.2784078419208526,0.0104303238913416,0.0748016983270645,0.0,0.0,-0.5143665729488365,0.7409513871214233
-0.0064179422333836,1.3840386867523191,-0.1603574454784393,-0.284625381231308,0.0133933434262871,0.0592655353248119,0.0,0.0,-0.6489256276272051,-0.4761439586518996
-0.0080579761415719,1.377497315406799,-0.1674019396305084,-0.2907672226428985,0.016754612326622,0.0672317221760749,0.0,0.0,-0.1898245979279289,0.8879000101993421
-0.0096742631867527,1.3708186149597168,-0.1632541716098785,-0.2968490421772003,0.0183552894741296,0.0320166274905204,0.0,0.0,-0.1618216651549286,-0.3370268904381513
-0.0113479616120457,1.3640018701553345,-0.1693931221961975,-0.3029934167861938,0.0203518588095903,0.0399349592626094,0.0,0.0,0.3430930403562409,0.1477382353814202
-0.0129635808989405,1.3578394651412964,-0.1645553261041641,-0.2739252746105194,0.02331961132586,0.0593608692288398,0.0,0.0,-0.7744619253589857,-0.6252554871006025
-0.0146769527345895,1.3515441417694092,-0.1760104149580001,-0.2798729240894317,0.0279401764273643,0.0924195125699043,0.0,0.0,-0.4544662357758551,0.0771499173433237
-0.0164326671510934,1.3451111316680908,-0.1806294322013855,-0.2860160171985626,0.0329482145607471,0.1001700162887573,0.0,0.0,0.3252201735965412,0.4895237577922392
-0.0181715972721576,1.3392586708068848,-0.1796861439943313,-0.2602461576461792,0.0386693850159645,0.114434078335762,0.0,0.0,0.6640103651765228,0.2841926341987205
-0.0198911670595407,1.3340702056884766,-0.178463414311409,-0.2307813912630081,0.0451094061136245,0.1288122981786728,0.0,0.0,-0.9106436531336988,0.3394237360436696
-0.0216360092163085,1.3287442922592163,-0.1813787221908569,-0.2369337230920791,0.0519279688596725,0.1363836824893951,0.0,0.0,0.2133237652221016,0.2943064831663423
-0.0233632083982229,1.3236757516860962,-0.1802264600992202,-0.2255482822656631,0.0593611672520637,0.1486775875091552,0.0,0.0,0.6561662350951816,0.446030803186854
-0.0250116344541311,1.3197197914123535,-0.173392504453659,-0.1761725097894668,0.0678318217396736,0.1694286167621612,0.0,0.0,-0.5468600949883917,0.4580809853272303
-0.0266673080623149,1.315626859664917,-0.1744904220104217,-0.1823330968618393,0.0766696259379386,0.1767720878124237,0.0,0.0,0.9630901901202128,-0.1019905549725016
-0.0282389633357524,1.312936305999756,-0.1672030389308929,-0.1201202422380447,0.0866400673985481,0.1994269788265228,0.0,0.0,0.1754383486315884,-0.5410136712336778
-0.0297598838806152,1.3105120658874512,-0.1638064086437225,-0.1084654554724693,0.0982674658298492,0.232569009065628,0.0,0.0,-0.7458604008027037,-0.4749206036457341
-0.0312699303030967,1.3079519271850586,-0.1630618274211883,-0.114621989428997,0.1102493181824684,0.2396587431430816,0.0,0.0,0.2728146926837786,0.5000724410109909
-0.0328389182686805,1.305901050567627,-0.1681212335824966,-0.0920184552669525,0.1214287728071212,0.2236094772815704,0.0,0.0,-0.9784866678131424,0.1764001098848308
-0.0343849174678325,1.3037139177322388,-0.1661673784255981,-0.0981833562254905,0.1329552233219146,0.230549618601799,0.0,0.0,0.7065580608438295,-0.9890133634935592
-0.0360263809561729,1.3020527362823486,-0.1780298054218292,-0.075136087834835,0.1468179523944854,0.2772794365882873,0.0,0.0,0.438968688536083,0.7086543818958175
-0.0375238433480262,1.3009984493255615,-0.1627407670021057,-0.0481924749910831,0.1598215401172638,0.2600953280925751,0.0,0.0,0.2365693296922248,0.3105311055834615
-0.0389671325683593,1.3001673221588137,-0.1578807830810547,-0.0384547263383865,0.1734013259410858,0.2716197371482849,0.0,0.0,0.4031983385972395,0.591354696976446
-0.0405438430607318,1.299988031387329,-0.1700478047132492,-0.0094629321247339,0.1858431696891784,0.2488588541746139,0.0,0.0,0.6611778488684652,0.3149722091275706
-0.042342472821474,1.3006551265716553,-0.1918868720531463,0.0280946604907512,0.1979327648878097,0.2417917251586914,0.0,0.0,0.3491831898751587,0.8997391916734766
-0.0441301353275775,1.3020864725112915,-0.1892891079187393,0.0621755309402942,0.2085357159376144,0.2120589911937713,0.0,0.0,0.9454252890265552,-0.114845273532502
-0.0462097153067588,1.3047603368759155,-0.2180632650852203,0.1173777431249618,0.2187448590993881,0.2041828334331512,0.0,0.0,-0.6470365758544492,-0.9612552361045682
-0.048316478729248,1.3072762489318848,-0.2233840674161911,0.1098852679133415,0.2316168546676635,0.2574400603771209,0.0,0.0,0.682818489620376,0.1774093844258196
-0.0504899024963378,1.3103748559951782,-0.2302148789167404,0.1356366574764251,0.2447004616260528,0.2616721987724304,0.0,0.0,-0.7084525152754921,0.7808699692408478
-0.0525309555232524,1.3133697509765625,-0.2156494557857513,0.1311460584402084,0.2564576864242553,0.2351439893245697,0.0,0.0,-0.9202159643173218,0.9351446628570556
-0.0544331558048725,1.3162484169006348,-0.2004161775112152,0.1261195838451385,0.2668764293193817,0.2083743065595626,0.0,0.0,-0.8810738921165466,0.7234997749328613
-0.0562098510563373,1.3190172910690308,-0.1868894398212433,0.1213439330458641,0.2763247191905975,0.1889657229185104,0.0,0.0,-0.8611204028129578,0.7347708940505981
-0.0578528419137001,1.321664571762085,-0.1725025773048401,0.1160893663764,0.2847439050674438,0.1683845520019531,0.0,0.0,-0.874973475933075,0.7566525936126709
-0.0593519210815429,1.3242030143737793,-0.1568332761526107,0.1114477887749672,0.291877418756485,0.1426704227924347,0.0,0.0,-0.9695224165916444,0.3837876319885254
-0.0607625022530555,1.3266048431396484,-0.1482629030942917,0.1052945479750633,0.2993009686470032,0.1484709829092025,0.0,0.0,-0.967619776725769,0.6964108943939209
-0.0620314590632915,1.3288902044296265,-0.133037120103836,0.100290261209011,0.3056598007678985,0.1271763443946838,0.0,0.0,-0.9603258967399596,0.3579473495483398
-0.0632068663835525,1.3310389518737793,-0.1239617317914962,0.0941377207636833,0.3123017847537994,0.1328398734331131,0.0,0.0,-0.975138545036316,0.4181748628616333
-0.0642868056893348,1.333051323890686,-0.1146607846021652,0.0879848375916481,0.3192234933376312,0.1384334713220596,0.0,0.0,-0.8157159686088562,0.6621172428131104
-0.0652175918221473,1.334953546524048,-0.0986287742853164,0.0833083018660545,0.3250059485435486,0.1156498417258262,0.0,0.0,-0.9114710092544556,0.0439013242721557
-0.0660488158464431,1.336719274520874,-0.0889266580343246,0.0771561935544014,0.331060916185379,0.1210993081331253,0.0,0.0,-0.909193754196167,0.7534451484680176
-0.0667107552289962,1.3383814096450806,-0.0704782083630561,0.072887048125267,0.3355306088924408,0.089394599199295,0.0,0.0,-0.9352673292160034,-0.0865735411643982
-0.0672698989510536,1.339906930923462,-0.0604340359568595,0.0667360052466392,0.3402650952339172,0.0946899801492691,0.0,0.0,-0.8981900215148926,0.0690469741821289
-0.0677246078848838,1.341295599937439,-0.0502381399273872,0.060584794729948,0.3452602624893188,0.0999035388231277,0.0,0.0,-0.9386409521102904,0.1970603466033935
-0.0680735558271408,1.3425476551055908,-0.0399023965001106,0.0544334053993225,0.3505118489265442,0.1050317287445068,0.0,0.0,-0.8693614602088928,0.2129560708999633
-0.0683156996965408,1.3436628580093384,-0.029437843710184,0.048281829804182,0.3560153841972351,0.1100705042481422,0.0,0.0,-0.9638402462005616,0.6276528835296631
-0.0683979988098144,1.3446664810180664,-0.0123368063941597,0.0435830876231193,0.3603514730930328,0.0867214649915695,0.0,0.0,-0.9639729261398317,0.1489853858947754
-0.0683711022138595,1.3455334901809692,-0.0016452095005661,0.0374322980642318,0.3649298250675201,0.0915668755769729,0.0,0.0,-0.9572966694831848,0.9030040502548218
-0.0681843757629394,1.3463006019592283,0.0154946725815534,0.0332775115966796,0.3682882487773895,0.0671681612730026,0.0,0.0,-0.865243136882782,0.5979812145233154
-0.0678440108895301,1.3469533920288086,0.0317689403891563,0.0284321960061788,0.3706934452056885,0.0481044873595237,0.0,0.0,-0.9266398549079896,0.273190975189209
-0.0673917755484581,1.347469449043274,0.0427367016673088,0.0222827456891536,0.3733241260051727,0.0526138134300708,0.0,0.0,-0.9770445823669434,0.4642152786254883
-0.0668271034955978,1.347848415374756,0.0537820942699909,0.0161333549767732,0.3761739730834961,0.0569969192147254,0.0,0.0,-0.9640818238258362,0.4929242134094238
-0.0661493316292762,1.3480899333953855,0.0648986622691154,0.0099840285256505,0.3792362809181213,0.0612462945282459,0.0,0.0,-0.9278578758239746,0.9624985456466676
-0.0652894973754882,1.3482450246810913,0.0847962945699691,0.0065754288807511,0.3804989159107208,0.0252527650445699,0.0,0.0,-0.9574739933013916,0.7612762451171875
-0.0642453208565712,1.348301887512207,0.1048712506890297,0.0026454154867678,0.3800055980682373,-0.0098661538213491,0.0,0.0,-0.8822197914123535,0.9626007080078124
-0.0630263313651084,1.3482526540756226,0.1237471252679824,-0.0016892860876396,0.3780383169651031,-0.0393464490771293,0.0,0.0,-0.926680862903595,0.9717576503753662
-0.0616126060485839,1.348123550415039,0.1452514976263046,-0.0047201286070048,0.3739263713359833,-0.0822385475039482,0.0,0.0,-0.91830974817276,0.9999891519546508
-0.059994600713253,1.347914218902588,0.167916402220726,-0.0077257142402231,0.3674509525299072,-0.129508763551712,0.0,0.0,-0.9448875784873962,0.9419705867767334
-0.0581855773925781,1.3476217985153198,0.1889397203922271,,0.3589485883712768,-0.1700469553470611,0.0,0.0,-0.8864911198616028,0.9330337047576904
-0.0562028884887695,1.3472343683242798,0.2078059464693069,-0.014868950471282,0.3489150404930115,-0.20067098736763,0.0,0.0,-0.8452746868133545,0.9994977712631226
-0.0540220253169536,1.3467464447021484,0.2296368330717086,-0.0189294479787349,0.3368098735809326,-0.2421034574508667,0.0,0.0,-0.4902845621109009,0.9999988079071044
-0.0516643524169921,1.3461605310440063,0.2488792240619659,-0.0230438876897096,0.3231236934661865,-0.2737235426902771,0.0,0.0,-0.3573580384254455,0.999996542930603
-0.049100112169981,1.345482587814331,0.2718544602394104,-0.0267757214605808,0.307098388671875,-0.3205059170722961,0.0,0.0,-0.1536481380462646,0.9971427917480468
-0.0463423728942871,1.344708800315857,0.2932321727275848,-0.0308033339679241,0.2890674471855163,-0.3606187403202057,0.0,0.0,-0.2573791742324829,0.7811391353607178
-0.0434076301753521,1.343822956085205,0.3124936521053314,-0.0357261300086975,0.2695283889770508,-0.3907808661460876,0.0,0.0,-0.4908500909805298,0.0383461713790893
-0.040356732904911,1.342803955078125,0.3241302669048309,-0.0419008061289787,0.2500697076320648,-0.3891736268997192,0.0,0.0,-0.466379702091217,-0.5884238481521606
-0.037234116345644,1.3416416645050049,0.3302079737186432,-0.0487093068659305,0.2318183779716491,-0.3650265038013458,0.0,0.0,-0.3538925647735595,0.7026364803314209
-0.033932588994503,1.340359449386597,0.3497166633605957,-0.0540279373526573,0.212016612291336,-0.396035373210907,0.0,0.0,-0.2030526995658874,-0.9899140000343324
-0.0305893905460834,1.3389315605163574,0.3520507514476776,-0.0610222965478897,0.1941467970609665,-0.3573963046073913,0.0,0.0,-0.1533105373382568,-0.8411931395530701
-0.0272046085447073,1.337343454360962,0.3542986214160919,-0.0685936957597732,0.1782564222812652,-0.3178075850009918,0.0,0.0,-0.0477104187011718,-0.7838642597198486
-0.0237739570438861,1.3356040716171265,0.3571138978004455,-0.0756742134690284,0.1641842424869537,-0.2814439833164215,0.0,0.0,0.3423118591308594,-0.8331228494644165
-0.0203466415405273,1.3344695568084717,0.3551242053508758,-0.0491035059094429,0.1518038064241409,-0.2476090490818023,0.0,0.0,0.0611889362335205,-0.0065096020698547
-0.0169667247682809,1.333984375,0.350812703371048,-0.0203051995486021,0.139019563794136,-0.2556852698326111,0.0,0.0,0.0267044305801391,-0.7581290602684021
-0.0135270114988088,1.3338946104049685,0.3552898466587066,-0.0029754841234534,0.1277407556772232,-0.2255761176347732,0.0,0.0,0.2503197193145752,-0.914868712425232
-0.0101093295961618,1.3340816497802734,0.3513334393501282,0.0091067859902977,0.1182254925370216,-0.1903056204319,0.0,0.0,-0.0118727684020996,0.0432730913162231
-0.0065757753327488,1.3341317176818848,0.3630079329013824,0.0029577647801488,0.1086442619562149,-0.1916245967149734,0.0,0.0,-0.0607414841651916,0.2484339475631714
-0.0029263496398925,1.3340448141098022,0.3746744692325592,-0.0031912880949676,0.0989823192358017,-0.1932389885187149,0.0,0.0,-0.1335427165031433,-0.9420069456100464
0.0007627487066201,1.3338176012039185,0.3768374621868133,-0.0095886932685971,0.0911260992288589,-0.1571244448423385,0.0,0.0,-0.4519894123077392,-0.4785856604576111
0.0045671463012695,1.3334531784057615,0.388480544090271,-0.0157351475208997,0.0831601917743682,-0.1593184769153595,0.0,0.0,-0.1669526696205139,-0.3947716951370239
0.0084864618256688,1.3329510688781738,0.4001084268093109,-0.0218817256391048,0.0750704929232597,-0.1617940813302993,0.0,0.0,-0.4633721113204956,-0.4437698125839233
0.0125205041840672,1.3323116302490234,0.4117184579372406,-0.028028467670083,0.0668432563543319,-0.1645447462797165,0.0,0.0,-0.6219961047172546,-0.9498768448829652
0.0165985114872455,1.331535816192627,0.4144903123378753,-0.0341913476586341,0.0602273903787136,-0.1323173940181732,0.0,0.0,-0.4726345539093017,0.0311590433120727
0.0207904819399118,1.3306224346160889,0.4260563850402832,-0.0403363220393657,0.0534475930035114,-0.1355958878993988,0.0,0.0,-0.3764358758926391,-0.3594133853912353
0.025096034631133,1.32957124710083,0.4375964105129242,-0.0464815124869346,0.0464913360774517,-0.1391254812479019,0.0,0.0,-0.3165895938873291,-0.972907543182373
0.0294362064450979,1.3283817768096924,0.4392504096031189,-0.0527118667960166,0.0413198061287403,-0.103430688381195,0.0,0.0,-0.2388467788696289,-0.8067048788070679
0.0338346473872661,1.3270511627197266,0.4438842236995697,-0.0590377710759639,0.0373204946517944,-0.0799861103296279,0.0,0.0,-0.4827637672424316,-0.9533448219299316
0.0382730476558208,1.325568914413452,0.4462630748748779,-0.0658241361379623,0.0349329262971878,-0.0477514043450355,0.0,0.0,-0.2258484959602356,-0.9816333055496216
0.0427578911185264,1.3239375352859497,0.4494431018829345,-0.0724776163697242,0.0339761413633823,-0.0191356986761093,0.0,0.0,-0.0612161755561828,-0.8852202892303467
0.0473010055720806,1.3221651315689087,0.4541666507720947,-0.078780248761177,0.0341179110109806,0.0028352926019579,0.0,0.0,-0.023358404636383,-0.9649153351783752
0.0518962852656841,1.3202439546585083,0.458139419555664,-0.0854180306196212,0.0354939736425876,0.0275212079286575,0.0,0.0,-0.5893102884292603,-0.8985874056816101
0.0565298087894916,1.3181871175765991,0.4603880047798157,-0.0914820730686187,0.0384227037429809,0.0585746094584465,0.0,0.0,-0.6327045559883118,-0.9907811880111694
0.0611982345581054,1.3159955739974976,0.4622534215450287,-0.097529299557209,0.0429607331752777,0.090760625898838,0.0,0.0,-0.6405616402626038,-0.8122074007987976
0.0659244507551193,1.313665747642517,0.4670048356056213,-0.1037200167775154,0.0485126115381717,0.111037477850914,0.0,0.0,-0.1969003677368164,-0.9741846323013306
0.0706951171159744,1.3111830949783323,0.4700812697410583,-0.1105789840221405,0.0554051138460636,0.1378502696752548,0.0,0.0,-0.4706370830535888,-0.985991895198822
0.0754884704947471,1.3085529804229736,0.470481812953949,-0.1172419860959053,0.0641496479511261,0.174890786409378,0.0,0.0,-0.6079627871513367,-0.8812273144721985
0.0803278908133506,1.3057904243469238,0.473877340555191,-0.1232431381940841,0.0741107538342475,0.1992224305868148,0.0,0.0,-0.5792155265808105,-0.9215489625930786
0.0851974487304687,1.302882194519043,0.4752658009529114,-0.1298753023147583,0.0856834277510643,0.231453463435173,0.0,0.0,-0.545494794845581,-0.9124152064323424
0.090084359049797,1.2998347282409668,0.4751073718070984,-0.1362811177968979,0.0991465523838996,0.2692626118659973,0.0,0.0,-0.5507309436798096,-0.5124251842498779
0.0950402244925499,1.2966485023498535,0.4814493060111999,-0.1426088362932205,0.113176979124546,0.2806086838245392,0.0,0.0,-0.5172705054283142,-0.8764690160751343
0.1000230759382247,1.2933201789855957,0.4825783371925354,-0.1491977721452713,0.1287985444068908,0.3124310076236725,0.0,0.0,-0.3698249459266662,-0.7933812737464905
0.1050360649824142,1.2898480892181396,0.484132707118988,-0.1558731198310852,0.1459047794342041,0.3421244323253631,0.0,0.0,-0.5327557325363159,-0.6350628137588501
0.1100976914167404,1.286228060722351,0.4880348742008209,-0.1627652943134308,0.1640155464410781,0.3622154593467712,0.0,0.0,-0.8113079071044922,-0.7746723294258118
0.1151860207319259,1.282456874847412,0.4892272055149078,-0.1698958873748779,0.1836552321910858,0.3927938044071197,0.0,0.0,-0.8614708185195923,-0.4779529571533203
0.1203717216849327,1.2785513401031494,0.4993634819984436,-0.1760648936033249,0.2029692232608795,0.3862800598144531,0.0,0.0,-0.7730943560600281,-0.3772780299186706
0.1256535500288009,1.2745119333267212,0.5093653202056885,-0.1822321563959121,0.221954807639122,0.3797119259834289,0.0,0.0,-0.744184136390686,-0.6634169816970825
0.1309847831726074,1.2703166007995603,0.5135356187820435,-0.1895176917314529,0.2418141663074493,0.3971870243549347,0.0,0.0,-0.8011350035667419,-0.0625526905059814
0.1364088952541351,1.2659873962402344,0.5232439041137695,-0.19568532705307,0.2613406181335449,0.3905293643474579,0.0,0.0,-0.8227669596672058,-0.9006577730178833
0.1418515145778656,1.261502742767334,0.523691713809967,-0.2031290233135223,0.2824175655841827,0.4215387403964996,0.0,0.0,-0.8537975549697876,0.3173813819885254
0.1473834961652755,1.2568840980529783,0.5330711603164673,-0.2092991769313812,0.3031584322452545,0.4148172736167907,0.0,0.0,-0.7817853689193726,-0.4546034336090088
0.1530029326677322,1.252131462097168,0.5422706604003906,-0.2154674232006073,0.3235621750354767,0.4080752432346344,0.0,0.0,-0.8906129002571106,0.1661326885223388
0.1587079018354416,1.2472442388534546,0.55128014087677,-0.2216337621212005,0.3436280488967895,0.401318222284317,0.0,0.0,-0.7196106910705566,0.580839991569519
0.164542481303215,1.2422521114349363,0.5659573674201965,-0.226157009601593,0.3620401322841644,0.368241399526596,0.0,0.0,-0.529056966304779,0.1230221986770629
0.1704585999250412,1.2371243238449097,0.5745536088943481,-0.2323157787322998,0.3801137804985046,0.3614721000194549,0.0,0.0,-0.5762112140655518,-0.3330754041671753
0.1764541566371917,1.231860637664795,0.5829285979270935,-0.2384729236364364,0.3978489339351654,0.3547030091285705,0.0,0.0,-0.5624455809593201,-0.3515939712524414
0.1825266778469085,1.226460576057434,0.5910715460777283,-0.2446284741163253,0.4152458906173706,0.3479388952255249,0.0,0.0,0.3681989908218384,-0.1404707431793213
0.1884694099426269,1.221554398536682,0.578584611415863,-0.222761258482933,0.4322225749492645,0.3395332396030426,0.0,0.0,0.06441330909729,-0.7672125101089478
0.1943035125732422,1.2169530391693115,0.566696286201477,-0.2097582668066024,0.4504691064357757,0.3649305701255798,0.0,0.0,0.587324857711792,-0.3743610382080078
0.2001694738864898,1.2127639055252075,0.5698074102401733,-0.1917067319154739,0.4689597189426422,0.36981201171875,0.0,0.0,0.6000256538391113,-0.4489176273345947
0.2058868408203125,1.2093888521194458,0.5550190210342407,-0.15576933324337,0.4875517189502716,0.3718402683734894,0.0,0.0,0.7645909786224365,-0.0992016196250915
0.2112880647182464,1.207038164138794,0.5237449407577515,-0.1103826686739921,0.5059337019920349,0.3676387071609497,0.0,0.0,0.9304187297821044,-0.7395071387290955
0.2165960371494293,1.2050390243530271,0.5133302211761475,-0.0954335480928421,0.5257368683815002,0.3960630893707275,0.0,0.0,0.9658721685409546,-0.6330535411834717
0.2216575592756271,1.2039151191711426,0.4877356886863708,-0.057230170816183,0.546871542930603,0.4226941466331482,0.0,0.0,0.9642248153686525,0.5475828647613525
