x_pos,y_pos,x_vel,y_vel,angle,ang_vel,leg_1,leg_2,main_booster,lat_booster
-0.0016189574962481,1.4029749631881714,-0.1640172600746154,-0.3531211912631988,0.001893405104056,0.0373593159019947,0.0,0.0,0.1658836603164672,0.6851561069488525
-0.0032410621643066,1.3948886394500732,-0.1628257185220718,-0.3593976199626922,0.0025035275612026,0.0122040919959545,0.0,0.0,0.2458270788192749,0.8355576992034912
-0.0047817230224609,1.386603593826294,-0.1531909704208374,-0.3682230412960052,0.0016400130698457,-0.0172719284892082,0.0,0.0,0.3554829359054565,0.6185739040374756
-0.006481647491455,1.378281593322754,-0.1677168756723404,-0.3698650598526001,-0.0006122385384514,-0.0450491830706596,0.0,0.0,-0.3788653612136841,0.4225023984909057
-0.0082826614379882,1.3693100214004517,-0.1778850555419922,-0.3987391889095306,-0.0028003470506519,-0.0437663346529006,0.0,0.0,0.2125928401947021,0.7388746738433838
-0.0100126266479492,1.3602852821350098,-0.1695125997066497,-0.4011149406433105,-0.0062372568063437,-0.06874480843544,0.0,0.0,0.2179039716720581,0.4982448816299438
-0.0118595119565725,1.3512495756149292,-0.1812035292387008,-0.4016049206256866,-0.0096872448921203,-0.0690059810876846,0.0,0.0,-0.2269635200500488,0.8912241458892822
-0.0137228015810251,1.341565728187561,-0.1806865334510803,-0.4304346442222595,-0.015271863900125,-0.1117023825645446,0.0,0.0,-0.0111295580863952,0.917436957359314
-0.0156200407072901,1.3312413692474363,-0.1823380291461944,-0.458952397108078,-0.0225676670670509,-0.1459297090768814,0.0,0.0,0.4518719911575317,0.8503440618515015
-0.0175419803708791,1.3212287425994873,-0.1831811070442199,-0.4451712369918823,-0.0314795933663845,-0.1782547682523727,0.0,0.0,-0.4180920124053955,0.8347020149230957
-0.0194949153810739,1.3105645179748535,-0.1844386458396911,-0.474227100610733,-0.0422118604183197,-0.2146651446819305,0.0,0.0,-0.1174985170364379,0.8308014869689941
-0.0214813239872455,1.299246311187744,-0.1860183775424957,-0.5034376382827759,-0.0547137707471847,-0.2500610947608948,0.0,0.0,0.1687424182891845,0.823509693145752
-0.0233768466860055,1.288011908531189,-0.1754422485828399,-0.4998758137226105,-0.0686942934989929,-0.2796359658241272,0.0,0.0,-0.2035550475120544,0.4192612171173095
-0.0253800395876169,1.2761305570602417,-0.1862964332103729,-0.5287677645683289,-0.0826027914881706,-0.2781950831413269,0.0,0.0,-0.3839783668518066,0.3077106475830078
-0.0274915695190429,1.2636020183563232,-0.1972021162509918,-0.5576526522636414,-0.0964395701885223,-0.2767605185508728,0.0,0.0,-0.1247349977493286,0.404471755027771
-0.0297116283327341,1.2504264116287231,-0.2081557214260101,-0.5865381956100464,-0.1102043986320495,-0.2753218114376068,0.0,0.0,-0.2061852216720581,0.7306082248687744
-0.0319697372615337,1.2366007566452026,-0.2102555930614471,-0.6157013177871704,-0.1256811022758484,-0.3095627129077911,0.0,0.0,0.337029218673706,0.8837332725524902
-0.0340997688472271,1.2225345373153689,-0.1959155648946762,-0.6266912817955017,-0.1427259892225265,-0.3409287333488464,0.0,0.0,0.0509835481643676,0.4437570571899414
-0.0362055785953998,1.2085673809051514,-0.1938908845186233,-0.6224520802497864,-0.1594099700450897,-0.3337101340293884,0.0,0.0,0.4621329307556152,-0.4806840419769287
-0.0384121909737587,1.194712519645691,-0.2037566155195236,-0.6176636815071106,-0.1763569861650467,-0.3389711380004883,0.0,0.0,0.3043985366821289,-0.8294782042503357
-0.0405756942927837,1.1810810565948486,-0.2013359367847442,-0.6077021360397339,-0.1914501339197158,-0.3018903434276581,0.0,0.0,0.7458915710449219,-0.2952191829681396
-0.0427486412227153,1.167487382888794,-0.2024444639682769,-0.6061471700668335,-0.206417515873909,-0.2993744313716888,0.0,0.0,0.581336498260498,-0.8873818516731262
-0.044857881963253,1.15398907661438,-0.1981413066387176,-0.6017646789550781,-0.2193404883146286,-0.2584826350212097,0.0,0.0,0.8087706565856934,-0.8589652180671692
-0.0469891540706157,1.140328049659729,-0.2023028582334518,-0.6087971925735474,-0.2303215712308883,-0.2196413725614547,0.0,0.0,0.4814164638519287,-0.7724533081054688
-0.0492973327636718,1.1269328594207764,-0.2213857471942901,-0.5968431234359741,-0.23990198969841,-0.1916255205869674,0.0,0.0,0.6459369659423828,-0.7277436852455139
-0.0517638213932514,1.1139709949493408,-0.2384258508682251,-0.5774477124214172,-0.2482630014419555,-0.167220190167427,0.0,0.0,0.925668478012085,-0.7055482864379883
-0.0541831031441688,1.101614236831665,-0.2351910769939422,-0.5503426790237427,-0.255122572183609,-0.1371912062168121,0.0,0.0,0.7604238986968994,-0.0173720121383667
-0.0566276535391807,1.0899375677108765,-0.2371582239866256,-0.520253598690033,-0.2625676691532135,-0.1489018052816391,0.0,0.0,0.5053755044937134,-0.8676115870475769
-0.0591955184936523,1.0787194967269895,-0.2511177659034729,-0.4996029138565063,-0.2683633863925934,-0.1159141287207603,0.0,0.0,-0.6092847585678101,0.1385382413864135
-0.061876107007265,1.06685209274292,-0.262460857629776,-0.5284733176231384,-0.27410489320755,-0.1148300170898437,0.0,0.0,0.9306414127349854,0.0424603223800659
-0.0643808394670486,1.055755376815796,-0.2450238466262817,-0.4942257702350616,-0.2796933352947235,-0.1117690801620483,0.0,0.0,0.2626588344573974,-0.1767104864120483
-0.066963292658329,1.044516682624817,-0.2525840699672699,-0.5005925893783569,-0.2855072617530823,-0.1162785068154335,0.0,0.0,-0.4753406643867492,-0.8918562531471252
-0.0697338134050369,1.032670259475708,-0.2734616994857788,-0.5272141098976135,-0.2892069518566131,-0.0739936083555221,0.0,0.0,0.7636785507202148,-0.5947061777114868
-0.0726238265633583,1.0207738876342771,-0.2864323258399963,-0.5292358994483948,-0.2918461561203003,-0.0527841635048389,0.0,0.0,0.7672383785247803,-0.02066570520401
-0.0754173249006271,1.0091842412948608,-0.2769127488136291,-0.5155860781669617,-0.2943626940250397,-0.0503304973244667,0.0,0.0,0.7815377712249756,-0.2947471737861633
-0.078068733215332,0.9981071949005128,-0.2628358900547027,-0.4927830398082733,-0.2967488467693329,-0.047722827643156,0.0,0.0,0.9133784770965576,-0.1986857652664184
-0.0807085037231445,0.9871501922607422,-0.2615631222724914,-0.4874702990055084,-0.2992383539676666,-0.0497906543314456,0.0,0.0,-0.1454778313636779,-0.2020304203033447
-0.0834616646170616,0.975543737411499,-0.2729402780532837,-0.5163388252258301,-0.3016932308673858,-0.0490976348519325,0.0,0.0,-0.8098127841949463,0.2705918550491333
-0.086328312754631,0.9632874131202698,-0.2843155264854431,-0.5452073812484741,-0.3041160404682159,-0.048456460237503,0.0,0.0,0.0610607862472534,0.7117738723754883
-0.089117906987667,0.9509069323539734,-0.2752631604671478,-0.5510291457176208,-0.3079415559768677,-0.0765104368329048,0.0,0.0,-0.2043190002441406,0.3539373874664306
-0.0920207947492599,0.93787682056427,-0.2866308689117431,-0.5798985362052917,-0.3117402791976928,-0.0759747475385665,0.0,0.0,-0.103717029094696,0.5289044380187988
-0.0949895828962326,0.9241729378700256,-0.2919897139072418,-0.6101133823394775,-0.3168150782585144,-0.1014956980943679,0.0,0.0,0.8175990581512451,0.4908889532089233
-0.0978625267744064,0.9102616310119628,-0.282913327217102,-0.6192430853843689,-0.3213740587234497,-0.0911794230341911,0.0,0.0,0.1080703735351562,0.6767070293426514
-0.1006150245666503,0.8961434960365295,-0.2696337103843689,-0.6287317872047424,-0.3272167444229126,-0.1168543249368667,0.0,0.0,-0.3824242353439331,0.223475694656372
-0.1034805327653884,0.8813762068748474,-0.2809687554836273,-0.6576030254364014,-0.333043485879898,-0.1165349036455154,0.0,0.0,0.1582456827163696,0.8808350563049316
-0.1062836647033691,0.8662310838699341,-0.2730228006839752,-0.6748149394989014,-0.340656578540802,-0.1522627174854278,0.0,0.0,0.7957077026367188,0.4022681713104248
-0.1089746505022049,0.8510905504226685,-0.2621457576751709,-0.6745753884315491,-0.3479525446891784,-0.1459192633628845,0.0,0.0,0.822481632232666,0.5997620820999146
-0.1115437522530555,0.8366479277610779,-0.2484815418720245,-0.643953263759613,-0.3568067848682403,-0.177084594964981,0.0,0.0,0.8287968635559082,0.2350924015045166
-0.1140581145882606,0.8228601217269897,-0.2423991858959198,-0.6150712370872498,-0.366335391998291,-0.1905721873044967,0.0,0.0,0.8757978677749634,-0.3784487247467041
-0.1165002807974815,0.8092455267906189,-0.2351068556308746,-0.607455849647522,-0.3759728968143463,-0.1927507221698761,0.0,0.0,0.964362621307373,-0.6673299074172974
-0.1186835318803787,0.7958573698997498,-0.2109921872615814,-0.5969797968864441,-0.3837753236293793,-0.1560487896203994,0.0,0.0,0.9299604892730712,-0.8070842027664185
-0.1207818984985351,0.7830990552902222,-0.2039354741573333,-0.5686395764350891,-0.3900617957115173,-0.125729352235794,0.0,0.0,0.9878255128860474,-0.9120837450027466
-0.1227224320173263,0.7703872323036194,-0.1901690065860748,-0.5660370588302612,-0.3942109048366546,-0.082982912659645,0.0,0.0,0.7212941646575928,-0.8949836492538452
-0.1245144829154014,0.7582229971885681,-0.1770606637001037,-0.5412291884422302,-0.3965031504631042,-0.0458451993763446,0.0,0.0,0.8928391933441162,-0.8993044495582581
-0.1260944306850433,0.7461110353469849,-0.1578826159238815,-0.5383446216583252,-0.3966220319271087,-0.0023777845781296,0.0,0.0,0.7699944972991943,-0.8517434597015381
-0.1277569830417633,0.7341486811637878,-0.167601391673088,-0.5312895178794861,-0.3951925039291382,0.0285902880132198,0.0,0.0,0.4046168327331543,-0.9588773250579834
-0.1292516738176345,0.7224733829498291,-0.152715727686882,-0.5179980993270874,-0.3917251527309418,0.0693469196557998,0.0,0.0,0.7203147411346436,-0.9940495491027832
-0.1305099427700042,0.7110786437988281,-0.1311717182397842,-0.5049789547920227,-0.386023074388504,0.1140423789620399,0.0,0.0,0.6848845481872559,-0.898820161819458
-0.1315457373857498,0.7002020478248596,-0.1107894033193588,-0.4814714193344116,-0.3783521652221679,0.1534184068441391,0.0,0.0,0.6129418611526489,-0.834721565246582
-0.1325428932905197,0.6898351311683655,-0.1084331274032592,-0.4584723711013794,-0.369100421667099,0.1850343644618988,0.0,0.0,0.8306446075439453,-0.6537158489227295
-0.1334924697875976,0.679383397102356,-0.1051002740859985,-0.4619425535202026,-0.3583862781524658,0.2142820358276367,0.0,0.0,0.3494505882263183,0.3383324146270752
-0.1344252526760101,0.669131338596344,-0.1030847057700157,-0.4532281160354614,-0.3480763435363769,0.2061984241008758,0.0,0.0,0.2942544221878052,-0.3418818712234497
-0.1352358758449554,0.6587530970573425,-0.0912955552339553,-0.4588136076927185,-0.3373460173606872,0.2146067172288894,0.0,0.0,-0.0739006400108337,-0.133976399898529
-0.1361525505781173,0.6477270126342773,-0.101918838918209,-0.4876923859119415,-0.326644629240036,0.2140275537967682,0.0,0.0,0.0744495391845703,-0.6245560646057129
-0.1371330320835113,0.636439859867096,-0.1095319837331771,-0.4990992844104767,-0.3146964013576507,0.2389643490314483,0.0,0.0,-0.0399717092514038,0.1879732608795166
-0.1382178366184234,0.6245051026344299,-0.1199784278869628,-0.527980387210846,-0.3027807772159576,0.2383126318454742,0.0,0.0,0.3867682218551636,-0.027096152305603
-0.1391744613647461,0.6129431128501892,-0.1072619929909706,-0.5114921927452087,-0.2908162176609039,0.2392910718917846,0.0,0.0,0.2001444101333618,-0.4903134703636169
-0.1401154547929763,0.6010133624076843,-0.1059583202004432,-0.5278921723365784,-0.2786120474338531,0.2440835535526275,0.0,0.0,0.1302660703659057,0.219520092010498
-0.1409790962934494,0.589270830154419,-0.0983112901449203,-0.51966392993927,-0.2663604021072387,0.2450332194566726,0.0,0.0,0.2844963073730469,0.6116732358932495
-0.1418774574995041,0.5774232745170593,-0.1004291772842407,-0.5246666669845581,-0.2555346488952636,0.2165152728557586,0.0,0.0,-0.751685619354248,0.7479779720306396
-0.1428252160549163,0.5649117231369019,-0.1041150540113449,-0.554472804069519,-0.246029794216156,0.1900969445705413,0.0,0.0,0.2001500129699707,0.7278486490249634
-0.143679529428482,0.5523805618286133,-0.0933152288198471,-0.5556391477584839,-0.2380093336105346,0.1604093611240387,0.0,0.0,-0.4002323150634765,0.711383581161499
-0.1445849388837814,0.5391928553581238,-0.0972893983125686,-0.5850433707237244,-0.2311563789844513,0.1370590180158615,0.0,0.0,0.7444126605987549,-0.5594786405563354
-0.1454062461853027,0.5262333154678345,-0.0901770517230033,-0.5747343897819519,-0.2230020612478256,0.1630864441394806,0.0,0.0,0.3092362880706787,-0.006893515586853
-0.1462764739990234,0.5130875110626221,-0.0949075296521186,-0.5830845236778259,-0.2150212973356247,0.1596152335405349,0.0,0.0,0.9465503692626952,0.4309450387954712
-0.147075742483139,0.4998287260532379,-0.088151678442955,-0.5881012082099915,-0.2067221403121948,0.165983110666275,0.0,0.0,0.6842594146728516,0.0917743444442749
-0.1479222327470779,0.4864393472671509,-0.0926882997155189,-0.5939792394638062,-0.1986265033483505,0.1619128733873367,0.0,0.0,0.898978590965271,0.850446343421936
-0.1486165076494217,0.4737327098846435,-0.075698971748352,-0.5639098286628723,-0.1923118233680725,0.1262931674718856,0.0,0.0,0.2196100950241089,0.7227795124053955
-0.1491545736789703,0.4612353146076202,-0.0586705133318901,-0.5548152923583984,-0.1874224841594696,0.0977866351604461,0.0,0.0,0.9238691329956056,0.6229240894317627
-0.1496818512678146,0.449522852897644,-0.0559251606464386,-0.5201524496078491,-0.18421271443367,0.0641952976584434,0.0,0.0,0.7579381465911865,0.0782579183578491
-0.1503550559282302,0.4377186298370361,-0.0698151662945747,-0.5243225693702698,-0.1817045509815216,0.0501635447144508,0.0,0.0,0.3237810134887695,0.9351356029510498
-0.1508750021457672,0.4261775612831116,-0.0525815561413764,-0.5128624439239502,-0.1811105012893676,0.0118806790560483,0.0,0.0,0.5824743509292603,0.395975112915039
-0.1514588296413421,0.4148266613483429,-0.0584610886871814,-0.5044733285903931,-0.1810360997915268,0.0014881868846714,0.0,0.0,0.8068218231201172,0.4687734842300415
-0.1520319879055023,0.4039363861083984,-0.0570383258163929,-0.4840466380119324,-0.1813128292560577,-0.0055345790460705,0.0,0.0,0.6978776454925537,-0.2640177011489868
-0.1525471657514572,0.3934603333473205,-0.0511046051979064,-0.4656528532505035,-0.1817235052585601,-0.008213922381401,0.0,0.0,0.2421591281890869,-0.6203195452690125
-0.1530150473117828,0.3829739093780517,-0.0476507991552352,-0.4659546613693237,-0.1808473914861679,0.0175222549587488,0.0,0.0,0.7788033485412598,0.7457014322280884
-0.1533822119235992,0.3723513484001159,-0.0360812023282051,-0.4721919000148773,-0.1814963817596435,-0.0129799470305442,0.0,0.0,0.8809695243835449,-0.139527678489685
-0.153608039021492,0.361727237701416,-0.022337406873703,-0.4722147285938263,-0.1817444562911987,-0.0049614985473454,0.0,0.0,0.5704751014709473,-0.2263907790184021
-0.1536381691694259,0.3512166142463684,-0.0033205519430339,-0.4670993387699127,-0.1814369559288025,0.0061499457806348,0.0,0.0,0.6640818119049072,-0.7505926489830017
-0.153538703918457,0.3406115174293518,0.0079487953335046,-0.4710942506790161,-0.1794218868017196,0.040301289409399,0.0,0.0,0.802527904510498,-0.2919999361038208
-0.1533277481794357,0.3305685520172119,0.0192046556621789,-0.4461288750171661,-0.1775344759225845,0.037748247385025,0.0,0.0,0.3939704895019531,-0.0030493140220642
-0.1530013084411621,0.320814311504364,0.0307456701993942,-0.4332955777645111,-0.1756292283535003,0.0381048358976841,0.0,0.0,-0.2637635469436645,0.0004045963287353
-0.1526921242475509,0.3104107677936554,0.0291262622922658,-0.4621663093566894,-0.1738308519124984,0.03596743196249,0.0,0.0,0.660228967666626,-0.1088628768920898
-0.1522376090288162,0.2998163998126983,0.0432992540299892,-0.4706115424633026,-0.1716745495796203,0.0431259125471115,0.0,0.0,0.6034778356552124,-0.6589131951332092
-0.1518100798130035,0.2893289625644684,0.0395163372159004,-0.4657363593578338,-0.1684345602989196,0.0647997111082077,0.0,0.0,0.8620250225067139,-0.4863344430923462
-0.1511245667934417,0.2796063423156738,0.0649888217449188,-0.4317154884338379,-0.1648721843957901,0.0712478384375572,0.0,0.0,0.1374943256378173,-0.4567209482192993
-0.1503836661577224,0.2698184251785278,0.0707272514700889,-0.4346508085727691,-0.161506712436676,0.0673092827200889,0.0,0.0,0.4181339740753174,-0.7244665026664734
-0.1496928185224533,0.2604413628578186,0.0645843893289566,-0.4162802100181579,-0.1570078283548355,0.0899774879217147,0.0,0.0,0.1583377122879028,-0.3412395715713501
-0.1488462388515472,0.2511257231235504,0.0799990594387054,-0.413542091846466,-0.1523568630218505,0.0930196642875671,0.0,0.0,-0.4252864122390747,-0.4804965853691101
-0.1479750573635101,0.2411611378192901,0.0826017931103706,-0.4424144625663757,-0.1478395760059356,0.0903454795479774,0.0,0.0,0.7870758771896362,0.2332813739776611
-0.1470425575971603,0.2317689806222915,0.0892719402909278,-0.4170415699481964,-0.143873393535614,0.0793234482407569,0.0,0.0,-0.1136221289634704,0.0102430582046508
-0.1460741013288498,0.2217277139425277,0.0929979234933853,-0.4459134638309479,-0.140047550201416,0.076516717672348,0.0,0.0,0.6334333419799805,-0.1040340662002563
-0.1450958251953125,0.2119445949792862,0.0946725830435752,-0.4345107674598694,-0.1368986070156097,0.0629788562655448,0.0,0.0,0.7878572940826416,-0.4152683615684509
-0.1441552191972732,0.2023878395557403,0.0918037369847297,-0.4245385229587555,-0.1346490830183029,0.0449905022978782,0.0,0.0,0.5080094337463379,-0.650022566318512
-0.1430211961269378,0.1931498199701309,0.1097642332315445,-0.4102564752101898,-0.1310290098190307,0.0724018961191177,0.0,0.0,0.541968584060669,-0.5887709856033325
-0.1417717039585113,0.1837666630744934,0.1201462894678115,-0.4166115522384643,-0.1262413561344146,0.0957529544830322,0.0,0.0,0.5455409288406372,-0.217192530632019
-0.1402375251054763,0.1747710257768631,0.1481252312660217,-0.3993684947490692,-0.1209793463349342,0.1052403599023819,0.0,0.0,0.3478038311004638,-0.870408833026886
-0.1386515647172927,0.1660927683115005,0.1517265290021896,-0.3851604461669922,-0.1141521707177162,0.1365433931350708,0.0,0.0,0.0010123252868652,-0.6175703406333923
-0.1368890702724456,0.1575361639261245,0.1681780517101287,-0.37969771027565,-0.1061386838555336,0.1602700650691986,0.0,0.0,-0.2649013996124267,-0.8252825736999512
-0.1351115256547927,0.1483403295278549,0.1683855503797531,-0.4080646634101867,-0.0968458279967308,0.1858569383621215,0.0,0.0,0.1508529186248779,-0.8586268424987793
-0.1332766562700271,0.139364868402481,0.1725395768880844,-0.3982361257076263,-0.086000420153141,0.216908261179924,0.0,0.0,0.4084788560867309,-0.6989800333976746
-0.1313035935163498,0.1307510435581207,0.1850131154060363,-0.3821726143360138,-0.0738216787576675,0.2435747683048248,0.0,0.0,-0.0185245871543884,-0.3454370498657226
-0.1292492896318435,0.1214897707104682,0.1932811439037323,-0.4110549092292785,-0.0618036650121212,0.2403602600097656,0.0,0.0,0.8401329517364502,-0.1069865822792053
-0.1272045075893402,0.1126245334744453,0.1931151002645492,-0.3935786783695221,-0.0505768917500972,0.2245355546474456,0.0,0.0,0.7296186685562134,-0.8331020474433899
-0.125260442495346,0.1039331778883934,0.1818068921566009,-0.3859052062034607,-0.0381220914423465,0.2490959167480468,0.0,0.0,0.7467547655105591,0.4035024642944336
-0.1232277899980545,0.0954890102148056,0.1909298449754715,-0.3750273585319519,-0.0259335879236459,0.2437703162431717,0.0,0.0,0.9157075881958008,-0.3037644028663635
-0.1210580840706825,0.0873236507177352,0.2046346962451934,-0.3627358675003052,-0.0137662952765822,0.2433458864688873,0.0,0.0,0.8377631902694702,-0.124454379081726
-0.1186450943350792,0.079107791185379,0.2284561395645141,-0.3650803864002228,-0.0010867803357541,0.2535902857780456,0.0,0.0,0.922327756881714,-0.3364007472991943
-0.1160234436392784,0.0714378207921981,0.2489577829837799,-0.3409305512905121,0.0119585376232862,0.2609063386917114,0.0,0.0,0.9399032592773438,-0.2682645320892334
-0.1132874488830566,0.064541608095169,0.2603996396064758,-0.3066532909870147,0.0249824002385139,0.2604773640632629,0.0,0.0,0.87408447265625,-0.7092218399047852
