x_pos,y_pos,x_vel,y_vel,angle,ang_vel,leg_1,leg_2,main_booster,lat_booster
-0.0015959739685058,1.4031524658203125,-0.1609193384647369,-0.3452281653881073,0.0011814162135124,0.0232616625726223,0.0,0.0,-0.0713724493980407,0.6596007347106934
-0.0032086372375488,1.394932985305786,-0.1603495627641677,-0.3653153479099273,0.0002759044873528,-0.0181114356964826,0.0,0.0,-0.2117577195167541,0.7512139081954956
-0.0048218728043138,1.3862354755401611,-0.1579277366399765,-0.3865572810173034,-0.0030845652800053,-0.0672157853841781,0.0,0.0,0.3145070075988769,0.683128833770752
-0.0065581323578953,1.377660632133484,-0.1680279821157455,-0.3811287879943847,-0.0086266417056322,-0.110851801931858,0.0,0.0,0.095936894416809,0.3824290037155151
-0.0082777021452784,1.3692618608474731,-0.1661109179258346,-0.3733234107494354,-0.0144026363268494,-0.1155306473374366,0.0,0.0,-0.0416442155838012,0.1593234539031982
-0.0100696561858057,1.360391616821289,-0.1727024763822555,-0.3943067491054535,-0.020824771374464,-0.1284544169902801,0.0,0.0,-0.2097111940383911,0.2317227125167846
-0.0119339944794774,1.3510502576828003,-0.1792841255664825,-0.4152860939502716,-0.0278931520879268,-0.1413804292678833,0.0,0.0,0.2193093299865722,0.4575899839401245
-0.0137469293549656,1.341949224472046,-0.1740295588970184,-0.4046443998813629,-0.0350831411778926,-0.1438130885362625,0.0,0.0,-0.4463896751403808,0.4741060733795166
-0.0156320575624704,1.3323771953582764,-0.1805916577577591,-0.4256333410739898,-0.0429211147129535,-0.1567739695310592,0.0,0.0,-0.1425920128822326,0.6577494144439697
-0.0175373069941997,1.3223352432250977,-0.180643692612648,-0.4466180801391601,-0.0527079813182354,-0.1957552134990692,0.0,0.0,-0.446347713470459,0.6893484592437744
-0.0194524768739938,1.3118189573287964,-0.1793971210718155,-0.4678576290607452,-0.0647039115428924,-0.2399404793977737,0.0,0.0,-0.180904746055603,0.2316086292266845
-0.0214390754699707,1.3008333444595337,-0.1859106868505478,-0.4888496994972229,-0.0773461908102035,-0.2528684735298157,0.0,0.0,0.2735440731048584,0.3018414974212646
-0.0233553890138864,1.2901732921600342,-0.1787054687738418,-0.4744979441165924,-0.0901601687073707,-0.2563033699989319,0.0,0.0,-0.3308086395263672,0.7056591510772705
-0.0252814292907714,1.2790296077728271,-0.1774788200855255,-0.496258407831192,-0.1051848828792572,-0.3005220890045166,0.0,0.0,-0.2100447416305542,0.4843431711196899
-0.0272783283144235,1.2674180269241333,-0.1839390993118286,-0.5172573924064636,-0.1208527013659477,-0.3133850395679474,0.0,0.0,0.1719788312911987,-0.8905832767486572
-0.0293010715395212,1.2556383609771729,-0.1877304911613464,-0.5247840881347656,-0.1353510022163391,-0.2899926304817199,0.0,0.0,-0.3551410436630249,0.0882599353790283
-0.0313942916691303,1.243390679359436,-0.1941570341587066,-0.5457902550697327,-0.1504915654659271,-0.3028388619422912,0.0,0.0,-0.4616268277168274,-0.4122819304466247
-0.0335575118660926,0.0,-0.2005593329668045,-0.5667973160743713,-0.166271224617958,-0.3156219124794006,0.0,0.0,-0.2368878126144409,-0.831680178642273
-0.0358439460396766,1.2175137996673584,-0.2136696130037307,-0.5867001414299011,-0.1812885999679565,-0.3003744482994079,0.0,0.0,0.4075521230697632,-0.730965256690979
-0.0382448211312294,1.2046316862106323,-0.2258554250001907,-0.5743312835693359,-0.1956033259630203,-0.2863207161426544,0.0,0.0,-0.3858262300491333,-0.9029443860054016
-0.0407690033316612,1.1913046836853027,-0.2390241175889969,-0.5941435098648071,-0.2091189175844192,-0.2703360915184021,0.0,0.0,-0.1162595748901367,-0.0753255486488342
-0.0433621406555175,1.1775095462799072,-0.2453234195709228,-0.6151489019393921,-0.2232656478881836,-0.2829606831073761,0.0,0.0,0.4205129146575928,-0.8335725665092468
-0.0458615310490131,1.1639105081558228,-0.2371942549943924,-0.6063872575759888,-0.2362053245306015,-0.2588168978691101,0.0,0.0,0.4762073755264282,-0.7905897498130798
-0.0483581535518169,1.1502387523651123,-0.2379961460828781,-0.609549343585968,-0.2480788975954055,-0.2374928295612335,0.0,0.0,0.9485790729522704,-0.7968491911888123
-0.0509733185172081,1.1372947692871094,-0.2504710853099823,-0.5771923065185547,-0.2593598961830139,-0.2256398946046829,0.0,0.0,0.8256874084472656,-0.7685400247573853
-0.0536876693367958,1.125084400177002,-0.2609664797782898,-0.5445679426193237,-0.27006995677948,-0.214200735092163,0.0,0.0,-0.5912192463874817,-0.614162802696228
-0.0565147399902343,1.1124286651611328,-0.2728731036186218,-0.5643244385719299,-0.2801566123962402,-0.2017330229282379,0.0,0.0,0.0047308206558227,-0.8999629020690918
-0.0594271644949913,1.1001056432724,-0.2826374769210815,-0.5493667125701904,-0.2889928519725799,-0.1767246723175048,0.0,0.0,0.0203317403793334,-0.7021888494491577
-0.0624095909297466,1.088070511817932,-0.2904127538204193,-0.5364752411842346,-0.2970698177814483,-0.1615394502878189,0.0,0.0,0.7009363174438477,-0.6592167615890503
-0.0653829574584961,1.0763169527053833,-0.2901743650436401,-0.5238527059555054,-0.3044668734073639,-0.1479409039020538,0.0,0.0,0.1753679513931274,-0.4319003820419311
-0.0682274848222732,1.064950704574585,-0.2767938077449798,-0.5067945122718811,-0.3124026954174042,-0.1587171554565429,0.0,0.0,-0.0810050368309021,-0.7837955951690674
-0.0712030380964279,1.0531433820724487,-0.2910680472850799,-0.5261825919151306,-0.3191351592540741,-0.1346493065357208,0.0,0.0,-0.1094422340393066,-0.866143524646759
-0.0743131637573242,1.0409111976623535,-0.3059208393096924,-0.5447874069213867,-0.3244400322437286,-0.1060972437262535,0.0,0.0,0.2619349956512451,-0.6069557666778564
-0.0774949043989181,1.0286449193954468,-0.3136144280433655,-0.546202540397644,-0.3291908502578735,-0.0950163081288337,0.0,0.0,0.6316653490066528,0.1502809524536132
-0.0805220603942871,1.0167808532714844,-0.2976799607276916,-0.5284470319747925,-0.3344469368457794,-0.1051215976476669,0.0,0.0,0.2679668664932251,0.0576696395874023
-0.0834052115678787,1.0052632093429563,-0.2828034162521362,-0.5131785273551941,-0.3402120769023895,-0.115303061902523,0.0,0.0,0.2003214359283447,-0.7746179103851318
-0.0863152518868446,0.9937820434570312,-0.2864571809768677,-0.5113595724105835,-0.3449825048446655,-0.0954087227582931,0.0,0.0,-0.1057541370391845,-0.4474380016326904
-0.0892826095223426,0.9818315505981444,-0.2916508018970489,-0.5323532223701477,-0.3503137528896332,-0.1066251248121261,0.0,0.0,0.7399007081985474,0.4463602304458618
-0.0920399650931358,0.9706838726997375,-0.2699620723724365,-0.4968796968460083,-0.3563905954360962,-0.1215367093682289,0.0,0.0,-0.0969146490097045,-0.7968930602073669
-0.0949072837829589,0.9590991735458374,-0.2819219529628753,-0.5160768032073975,-0.3614540994167328,-0.1012702137231826,0.0,0.0,0.2339171171188354,-0.4470989108085632
-0.0976960211992263,0.9479036927223206,-0.2732157409191131,-0.4990160167217254,-0.3674257099628448,-0.1194324865937233,0.0,0.0,0.0453039407730102,-0.59653639793396
-0.1003786101937294,0.936679482460022,-0.2633808553218841,-0.5001133680343628,-0.3725939691066742,-0.1033644452691078,0.0,0.0,0.7241725921630859,-0.3707005381584167
-0.1028964072465896,0.9253881573677064,-0.2468589097261428,-0.5031308531761169,-0.3778165280818939,-0.1044510006904602,0.0,0.0,0.5005557537078857,-0.7309961915016174
-0.1052449196577072,0.9142722487449646,-0.2310298979282379,-0.4950580894947052,-0.3818810880184173,-0.0812912732362747,0.0,0.0,0.7524327039718628,-0.3071587681770324
-0.1075615882873535,0.903145968914032,-0.2271867543458938,-0.4957058727741241,-0.3866512477397918,-0.0954032093286514,0.0,0.0,0.9559543132781982,-0.8757041096687317
-0.1097820252180099,0.892096996307373,-0.2188969403505325,-0.4919233024120331,-0.3900092840194702,-0.0671598985791206,0.0,0.0,0.7547998428344727,-0.9350880980491638
-0.111864186823368,0.8812329769134521,-0.2065136879682541,-0.4833073914051056,-0.3918268978595733,-0.0363522320985794,0.0,0.0,0.7737178802490234,-0.6843283772468567
-0.113810159265995,0.8712530136108398,-0.1935009956359863,-0.4438615143299103,-0.3929942548274994,-0.0233478490263223,0.0,0.0,0.961191177368164,-0.9171176552772522
-0.1156566590070724,0.8622481226921082,-0.1846120804548263,-0.4002313315868377,-0.3930360972881317,-0.0008367836708202,0.0,0.0,0.9452908039093018,-0.8080309629440308
-0.1173895820975303,0.8536531329154968,-0.1743339002132415,-0.3817078173160553,-0.3919262588024139,0.0221967175602912,0.0,0.0,0.9172120094299316,-0.7376455068588257
-0.1187849044799804,0.8454371690750122,-0.1419625431299209,-0.3644966781139374,-0.3893334567546844,0.0518559217453002,0.0,0.0,0.8745698928833008,-0.670539915561676
-0.1200010329484939,0.8379853367805481,-0.1247747689485549,-0.3303251266479492,-0.3859570920467376,0.0675274804234504,0.0,0.0,0.8485612869262695,-0.5788736939430237
-0.120974063873291,0.8307041525840759,-0.1015187352895736,-0.3224704563617706,-0.3814669549465179,0.0898029506206512,0.0,0.0,0.7392017841339111,-0.8917621970176697
-0.1217127814888954,0.8241671919822693,-0.079446904361248,-0.2890557646751404,-0.3755364716053009,0.1186093315482139,0.0,0.0,0.7300183773040771,-0.3680043220520019
-0.1221344918012619,0.8177871108055115,-0.0480705685913562,-0.2820185720920563,-0.3692867457866668,0.1249942928552627,0.0,0.0,0.3893238306045532,-0.7682152390480042
-0.122566320002079,0.8115701079368591,-0.0500963442027568,-0.2745447754859924,-0.3619725406169891,0.1462841480970382,0.0,0.0,-0.5991750955581665,-0.7229325175285339
-0.1230498328804969,0.8049153685569763,-0.0561317428946495,-0.2938283383846283,-0.353775680065155,0.1639372408390045,0.0,0.0,-0.6330810785293579,-0.1579009294509887
-0.1235384941101074,0.7977911233901978,-0.0563180334866046,-0.3148201704025268,-0.3459452390670776,0.156608909368515,0.0,0.0,-0.4426150321960449,0.0550954341888427
-0.124028779566288,0.7901973724365234,-0.0561680123209953,-0.3358109891414642,-0.3384687304496765,0.1495293825864792,0.0,0.0,-0.9250269532203674,-0.3715705871582031
-0.1245174407958984,0.7821337580680847,-0.0556836947798728,-0.3568008244037628,-0.3313336372375488,0.1427021473646164,0.0,0.0,-0.4442574381828308,-0.6750403046607971
-0.1250480711460113,0.7736183404922485,-0.0607986338436603,-0.3767051994800567,-0.3232710659503937,0.1612517088651657,0.0,0.0,-0.6132421493530273,-0.3380352258682251
-0.1255701035261154,0.764633297920227,-0.0596595592796802,-0.3976946771144867,-0.315524160861969,0.1549380123615265,0.0,0.0,-0.489622414112091,0.4410238265991211
-0.1260804235935211,0.7551781535148621,-0.0582024678587913,-0.4186832308769226,-0.3080798983573913,0.1488851457834243,0.0,0.0,-0.1357868909835815,-0.3398628234863281
-0.1265755593776703,0.7452530264854431,-0.0564358718693256,-0.4396709203720093,-0.3009251356124878,0.1430950909852981,0.0,0.0,-0.9059054255485536,-0.2156673073768615
-0.1270526945590973,0.7348576188087463,-0.05436946824193,-0.4606578052043915,-0.2940466701984405,0.1375694572925567,0.0,0.0,-0.7638770937919617,-0.569956362247467
-0.1275602281093597,0.7240158915519714,-0.0585412606596946,-0.4803112149238586,-0.2860342264175415,0.1602496951818466,0.0,0.0,-0.6561992764472961,-0.2333228588104248
-0.1280437409877777,0.7127038836479187,-0.0559091344475746,-0.501298189163208,-0.2782714664936065,0.1552551537752151,0.0,0.0,-0.4796094894409179,-0.2786184549331665
-0.1285005509853363,0.7009214758872986,-0.0530117973685264,-0.5222843885421753,-0.2707451581954956,0.1505265533924102,0.0,0.0,-0.439975380897522,-0.0560896396636962
-0.1289277076721191,0.6886686682701111,-0.0498619899153709,-0.5432698726654053,-0.2634419798851013,0.1460633128881454,0.0,0.0,-0.3783348798751831,0.478583812713623
-0.1293230056762695,0.6759451627731323,-0.0464727357029914,-0.5642547011375427,-0.2563486993312835,0.1418654024600982,0.0,0.0,0.0412815809249877,-0.0463443398475647
-0.1296317130327224,0.6633922457695007,-0.0373712368309497,-0.5567854046821594,-0.2497199326753616,0.1325752735137939,0.0,0.0,-0.7534537315368652,-0.2971137762069702
-0.1299038827419281,0.6503686308860779,-0.033542301505804,-0.5777687430381775,-0.243274986743927,0.1288990378379821,0.0,0.0,-0.6120676398277283,-0.1828612089157104
-0.1301372498273849,0.6368740200996399,-0.02951305732131,-0.5987514853477478,-0.237000972032547,0.1254800260066986,0.0,0.0,-0.2691459059715271,0.4124099016189575
-0.130329892039299,0.6229085326194763,-0.0252961609512567,-0.6197338104248047,-0.230885237455368,0.1223147734999656,0.0,0.0,-0.2467324137687683,-0.2871865034103393
-0.1304800063371658,0.6084718704223633,-0.0209038853645324,-0.6407155990600586,-0.2249152958393097,0.1193992272019386,0.0,0.0,0.1968317031860351,-0.3387004137039184
-0.1304853409528732,0.5938920378684998,-0.0065184189006686,-0.6470917463302612,-0.2188509702682495,0.1212861761450767,0.0,0.0,-0.0186911225318908,-0.5715150833129883
-0.1304918229579925,0.5788511037826538,-0.0077244332060217,-0.6674556136131287,-0.2117015868425369,0.1429879516363144,0.0,0.0,0.4454027414321899,-0.0303471684455871
-0.1303121596574783,0.5643591284751892,0.0110258348286151,-0.6431102752685547,-0.204695850610733,0.1401148736476898,0.0,0.0,-0.0031330585479736,-0.02189701795578
-0.1300835609436035,0.5493960976600647,0.0160058587789535,-0.664091944694519,-0.1977885961532592,0.1381451934576034,0.0,0.0,0.6559934616088867,-0.330126941204071
-0.129753977060318,0.5351999402046204,0.0266962796449661,-0.6301177740097046,-0.1914889812469482,0.1259922534227371,0.0,0.0,0.140824556350708,-0.3914414048194885
-0.129417136311531,0.5208947062492371,0.0279038436710834,-0.6350488066673279,-0.1856793463230133,0.1161927953362464,0.0,0.0,0.0430034399032592,-0.6263201832771301
-0.1289551705121994,0.5068652629852295,0.0391866862773895,-0.6226710677146912,-0.178642138838768,0.1407441794872284,0.0,0.0,-0.0324490666389465,0.2122801542282104
-0.1284395158290863,0.4923646748065948,0.0445998832583427,-0.6436520218849182,-0.1716614514589309,0.1396141201257705,0.0,0.0,0.8396140336990356,-0.0789399743080139
-0.1278003752231598,0.478523850440979,0.0572637617588043,-0.6143943071365356,-0.1650100499391555,0.1330283433198928,0.0,0.0,0.6225318908691406,0.0459568500518798
-0.1270046234130859,0.4652307331562042,0.0730250477790832,-0.5900914072990417,-0.1584508270025253,0.1311843991279602,0.0,0.0,-0.0931289196014404,-0.4882176518440246
-0.1261523216962814,0.451466292142868,0.0786829218268394,-0.6110713481903076,-0.151920884847641,0.130599245429039,0.0,0.0,0.5707650184631348,-0.7898359894752502
-0.1252315491437912,0.4377140700817108,0.0839328467845916,-0.6104032397270203,-0.1437940299510955,0.1625371873378753,0.0,0.0,0.0819201469421386,-0.5172743797302246
-0.1241895705461502,0.4238728582859039,0.0948957130312919,-0.614292562007904,-0.1345265805721283,0.1853489875793457,0.0,0.0,0.6979814767837524,-0.065760850906372
-0.1228605285286903,0.4104029536247253,0.1228990107774734,-0.597791850566864,-0.1245657950639724,0.1992159187793731,0.0,0.0,-0.2591343522071838,-0.3559502363204956
-0.1214723587036132,0.3964623212814331,0.1287999600172042,-0.6187760233879089,-0.1146043688058853,0.1992286741733551,0.0,0.0,0.2492214441299438,-0.2654091119766235
-0.1199637427926063,0.3828983008861542,0.1408419907093048,-0.602107584476471,-0.1046558022499084,0.1989714205265045,0.0,0.0,0.6936120986938477,-0.265067458152771
-0.1182822212576866,0.3700186014175415,0.1579696238040924,-0.571746289730072,-0.0945477560162544,0.2021611481904983,0.0,0.0,-0.2698911428451538,0.1654466390609741
-0.1165399551391601,0.3566683530807495,0.1640062034130096,-0.5927305817604065,-0.0844216421246528,0.2025219649076461,0.0,0.0,0.3887819051742553,-0.1950657367706298
-0.1146290749311447,0.3432469367980957,0.1804471462965011,-0.5959408283233643,-0.0738805308938026,0.2108222246170044,0.0,0.0,0.3269757032394409,-0.4324007630348205
-0.1126686111092567,0.3299715220928192,0.1855649054050445,-0.5895348191261292,-0.0635074451565742,0.2074619233608245,0.0,0.0,0.6315076351165771,-0.1096341609954834
-0.1105087250471115,0.3174930214881897,0.2050662040710449,-0.554170548915863,-0.0527167469263076,0.2158142030239105,0.0,0.0,-0.0811406373977661,-0.2222636938095092
-0.1082868576049804,0.3045440912246704,0.211235910654068,-0.5751561522483826,-0.041891723871231,0.2165005952119827,0.0,0.0,0.2790799140930176,-0.0445232391357421
-0.1060729995369911,0.2920537292957306,0.2108387649059295,-0.5548628568649292,-0.031475119292736,0.2083321064710617,0.0,0.0,0.3037856817245483,-0.2156711816787719
-0.1037105545401573,0.2799152731895447,0.2253375500440597,-0.5392894148826599,-0.020701253786683,0.2154771387577057,0.0,0.0,0.198398470878601,-0.7078195810317993
-0.1013735756278038,0.2681310176849365,0.22136290371418,-0.523617148399353,-0.0085325026884675,0.2433750629425048,0.0,0.0,0.3628071546554565,0.2607201337814331
-0.0990365967154502,0.2568040788173675,0.2216492444276809,-0.5033924579620361,0.003363300813362,0.2379159480333328,0.0,0.0,0.1661689281463623,-0.3856185674667358
-0.0966550856828689,0.245534136891365,0.226138025522232,-0.5009510517120361,0.0152214271947741,0.237162709236145,0.0,0.0,0.5529145002365112,-0.2643226981163025
-0.0943284034729003,0.234639436006546,0.2211240530014038,-0.4843635559082031,0.0266163162887096,0.2278976738452911,0.0,0.0,0.528698205947876,-0.2909318208694458
-0.0920903235673904,0.2239955067634582,0.2128789871931076,-0.4732893407344818,0.03741105645895,0.2158949673175811,0.0,0.0,0.3025391101837158,0.0155662298202514
-0.0897263512015342,0.2137352377176284,0.2250381261110305,-0.4563327431678772,0.048635397106409,0.2244867980480194,0.0,0.0,0.0749486684799194,-0.0071514844894409
-0.0872704535722732,0.2033673077821731,0.2340048551559448,-0.4612102508544922,0.0600866340100765,0.2290246784687042,0.0,0.0,0.3353544473648071,-0.2675230503082275
-0.0846707373857498,0.1934631615877151,0.2478011399507522,-0.4407148957252502,0.0721209347248077,0.2406862080097198,0.0,0.0,0.0039285421371459,-0.6646012663841248
-0.0821098312735557,0.1837929040193557,0.2425755709409713,-0.4304955303668976,0.0855019763112068,0.2676209807395935,0.0,0.0,-0.21440190076828,0.2809022665023803
-0.0794851332902908,0.1736530810594558,0.2489337176084518,-0.4514867067337036,0.0989193767309188,0.2683483362197876,0.0,0.0,0.1913164854049682,0.2753317356109619
-0.0767831802368164,0.163675770163536,0.2563892006874084,-0.4444058835506439,0.1126248389482498,0.2741090059280395,0.0,0.0,0.6959741115570068,0.6632202863693237
-0.07406797260046,0.1544920951128006,0.2590564489364624,-0.409147560596466,0.1250162273645401,0.2478275299072265,0.0,0.0,0.1316108703613281,-0.4334672093391418
-0.0713150054216384,0.145649254322052,0.2626323103904724,-0.394125372171402,0.1376264691352844,0.2522047460079193,0.0,0.0,-0.0951818227767944,0.1432335376739502
-0.0684983283281326,0.136336550116539,0.2690049111843109,-0.4151147902011871,0.1502592414617538,0.2526552975177765,0.0,0.0,0.536516547203064,0.2547512054443359
-0.0658164992928505,0.1273813396692276,0.256051629781723,-0.3992820680141449,0.1623839437961578,0.2424939572811126,0.0,0.0,0.4818179607391357,0.0665940046310424
-0.0632593184709549,0.1186115145683288,0.2441318035125732,-0.3910781443119049,0.1739893108606338,0.2321072369813919,0.0,0.0,0.3449426889419555,0.366107702255249
-0.0607351288199424,0.1100449636578559,0.2409133911132812,-0.3821260631084442,0.1855214685201645,0.2306433916091919,0.0,0.0,0.6201932430267334,-0.4315580129623413
-0.0582190528512001,0.1017864793539047,0.2400178909301757,-0.3685372173786163,0.1971736848354339,0.233044296503067,0.0,0.0,0.3795158863067627,-0.4584260582923889
-0.0555915832519531,0.0935315713286399,0.2506918013095855,-0.3685372769832611,0.2093265056610107,0.2430565655231475,0.0,0.0,0.644794225692749,0.2737995386123657
-0.052947424352169,0.0858357772231102,0.2519524693489074,-0.3438517153263092,0.2219180315732956,0.2518303990364074,0.0,0.0,0.4296189546585083,-0.653076708316803
-0.0504220016300678,0.0786885097622871,0.2388031184673309,-0.3197850286960602,0.2358487248420715,0.2786135077476501,0.0,0.0,-0.2330121994018554,-0.4357868432998657
