x_pos,y_pos,x_vel,y_vel,angle,ang_vel,leg_1,leg_2,main_booster,lat_booster
-0.0015701294178143,1.4032424688339231,-0.1586029678583145,-0.3412316739559173,0.0014239366864785,0.0280633904039859,0.0,0.0,-0.1726446399641141,-0.9858517309448934
-0.0032589912880212,1.3952009677886963,-0.1717003881931305,-0.3574071526527405,0.0042060744017362,0.055648673325777,0.0,0.0,0.677856992850598,-0.7275892864574804
-0.0049072266556322,1.387387752532959,-0.169033795595169,-0.3472741246223449,0.0083644120022654,0.083174429833889,0.0,0.0,-0.2958997918264427,0.6892061629036134
-0.0065617561340332,1.3791905641555786,-0.1681388765573501,-0.3643344640731811,0.0110248951241374,0.0532147660851478,0.0,0.0,-0.567331500065376,-0.5745486444027161
-0.0083023067563772,1.370612621307373,-0.1772335469722747,-0.3812659978866577,0.0141698997467756,0.0629060715436935,0.0,0.0,0.6907075961792175,-0.9204766950386574
-0.0100174900144338,1.3624870777130127,-0.1763815283775329,-0.3611977696418762,0.0189755354076623,0.0961214452981948,0.0,0.0,-0.0757634995563751,-0.6831557138902251
-0.0118406293913722,1.3539776802062988,-0.1881570667028427,-0.378275603055954,0.0247579999268054,0.1156598478555679,0.0,0.0,0.0852632289230042,0.5714302953628647
-0.0135728837922215,1.3457313776016235,-0.1776750385761261,-0.3665870428085327,0.0291639454662799,0.0881266146898269,0.0,0.0,-0.0378163565185203,0.993611555196952
-0.0152820590883493,1.337116837501526,-0.1729735732078552,-0.3829073309898376,0.0312016867101192,0.0407585836946964,0.0,0.0,-0.2632368938847105,0.0505569368162036
-0.0170450210571289,1.328120231628418,-0.177909567952156,-0.3998855650424957,0.0327956564724445,0.0318824127316474,0.0,0.0,0.5721111975280242,-0.338038091563666
-0.018798828125,1.31959331035614,-0.1769355237483978,-0.3790039718151092,0.0343277901411056,0.0306456293910741,0.0,0.0,0.2110516254500103,0.8186284152941938
-0.0204968452453613,1.3112692832946775,-0.1693039238452911,-0.369947224855423,0.033835832029581,-0.0098399063572287,0.0,0.0,-0.954333250778185,0.4627727227007215
-0.0222498886287212,1.3025628328323364,-0.1743454486131668,-0.3869285583496094,0.0328833870589733,-0.0190504714846611,0.0,0.0,0.5314423819226779,0.3304977820895912
-0.0240052230656147,1.293970823287964,-0.1744006127119064,-0.3818374276161194,0.0317663997411727,-0.022341901436448,0.0,0.0,-0.9015962822455664,0.6345212541411632
-0.0257545467466115,1.2850061655044556,-0.1717542111873626,-0.3983660042285919,0.0286238063126802,-0.0628578960895538,0.0,0.0,0.108792749708416,0.8655490582457491
-0.027410889044404,1.2759552001953125,-0.1602698415517807,-0.4021753072738647,0.0233236663043499,-0.1060122996568679,0.0,0.0,0.8938500399264484,-0.5891371739310814
-0.0290238372981548,1.2680037021636963,-0.1571136265993118,-0.3533352315425873,0.0191872827708721,-0.0827354714274406,0.0,0.0,-0.7703670212444116,-0.679992591704542
-0.030733585357666,1.259663224220276,-0.1673463881015777,-0.3706503808498382,0.0155969550833106,-0.071813054382801,0.0,0.0,-0.7687057844046208,-0.6020182198072754
-0.032539177685976,1.2509453296661377,-0.1774477660655975,-0.3874259293079376,0.0125210396945476,-0.0615237429738044,0.0,0.0,0.9237967328479272,0.7191459067082172
-0.0344534888863563,1.242833137512207,-0.1861257851123809,-0.3605133891105652,0.0072772433049976,-0.1048853993415832,0.0,0.0,0.5600614454819051,0.574259317531971
-0.0362530723214149,1.23540997505188,-0.1733178347349167,-0.329897940158844,0.0007193786441348,-0.1311690956354141,0.0,0.0,0.0250909817383309,0.2865959109089654
-0.038100816309452,1.2280170917510986,-0.177668035030365,-0.3285847008228302,-0.0063029150478541,-0.1404585689306259,0.0,0.0,0.826043847636883,-0.3345383873731682
-0.0398561470210552,1.221144199371338,-0.1686030775308609,-0.3055086731910705,-0.0131589788943529,-0.1371337324380874,0.0,0.0,0.5273418443553777,0.2836041623679597
-0.0415977463126182,1.214321255683899,-0.1670159697532653,-0.3033170700073242,-0.0202195066958665,-0.1412228643894195,0.0,0.0,0.6531426135741489,-0.8941055802353215
-0.0436099059879779,1.208092212677002,-0.1951176673173904,-0.2769396901130676,-0.0262477975338697,-0.1205769181251525,0.0,0.0,-0.600534165783823,0.0697511992929703
-0.0456761345267295,1.201460361480713,-0.200000911951065,-0.294881135225296,-0.0327856205403804,-0.1307565420866012,0.0,0.0,0.4774307924662906,0.0755969461421371
-0.0477707870304584,1.1954210996627808,-0.2023443281650543,-0.2685870826244354,-0.0398202650249004,-0.1406926214694976,0.0,0.0,-0.6795454309603708,-0.7558778920123405
-0.049990464001894,1.18901264667511,-0.2161798924207687,-0.2849814295768738,-0.0455388948321342,-0.1143727526068687,0.0,0.0,0.6643315755599513,0.800367951154088
-0.0523077957332134,1.1834046840667725,-0.2235540151596069,-0.2495138496160507,-0.0536294467747211,-0.1618107259273529,0.0,0.0,-0.4798526746568214,-0.3396971371634663
-0.0546760559082031,1.17741596698761,-0.2281183451414108,-0.2665010988712311,-0.0622395426034927,-0.1722022891044616,0.0,0.0,0.4735085009350954,-0.9440910469283276
-0.0571023933589458,1.1721928119659424,-0.2353227436542511,-0.2324642539024353,-0.0694708302617073,-0.14462511241436,0.0,0.0,-0.7860313057899475,0.6867938041687012
-0.0595306381583213,1.166580080986023,-0.2337826043367386,-0.2499036192893982,-0.0784172341227531,-0.1789284199476242,0.0,0.0,-0.9882306456565856,0.8901662826538086
-0.0619455352425575,1.1605883836746216,-0.2303893566131591,-0.2669210433959961,-0.0894161760807037,-0.2199787348508834,0.0,0.0,-0.93939208984375,0.2391074895858764
-0.0644070655107498,1.1542168855667114,-0.2345237284898758,-0.283914566040039,-0.1009413972496986,-0.2305045872926712,0.0,0.0,-0.977645993232727,-0.5408256649971008
-0.0669550895690918,1.1474733352661133,-0.2437201738357544,-0.3005087077617645,-0.1119445711374282,-0.2200634181499481,0.0,0.0,-0.99082350730896,-0.1244330406188964
-0.0695468932390213,1.1403499841690063,-0.2475871741771698,-0.3175031542778015,-0.1234763413667678,-0.2306353747844696,0.0,0.0,-0.9924300909042358,0.7008639574050903
-0.0721288695931434,1.1328341960906982,-0.2447302043437957,-0.335204005241394,-0.1368775069713592,-0.268023282289505,0.0,0.0,-0.9762420654296876,0.7514188289642334
-0.07468843460083,1.1249330043792725,-0.2403822839260101,-0.3526714444160461,-0.1524024754762649,-0.3104997277259826,0.0,0.0,-0.9171717166900636,-0.9018411040306092
-0.077360913157463,1.1166808605194092,-0.2531118988990783,-0.3682718276977539,-0.166530430316925,-0.2825593054294586,0.0,0.0,-0.9862365126609802,0.2599974870681762
-0.0800705924630165,1.1080505847930908,-0.2563361525535583,-0.3852751851081848,-0.1811892688274383,-0.29317706823349,0.0,0.0,-0.927606999874115,0.4385812282562256
-0.0828156471252441,1.0990424156188965,-0.2593764662742615,-0.4022803604602813,-0.1963790655136108,-0.3037963509559631,0.0,0.0,-0.9216646552085876,0.3851678371429443
-0.085593894124031,1.0896568298339844,-0.2622234523296356,-0.4192874729633331,-0.2120997011661529,-0.3144129514694214,0.0,0.0,-0.8058974742889404,-0.7694736123085022
-0.0884544402360916,1.0799014568328855,-0.2712523341178894,-0.4357668161392212,-0.227058857679367,-0.2991836667060852,0.0,0.0,-0.8990259766578674,-0.4668526649475097
-0.0913440734148025,1.0697686672210691,-0.2736835479736328,-0.4527745842933655,-0.2425479739904403,-0.309782475233078,0.0,0.0,-0.9448098540306092,-0.6126662492752075
-0.0943116173148155,1.0592700242996216,-0.2823152244091034,-0.4690575897693634,-0.2572519481182098,-0.294079840183258,0.0,0.0,-0.89649897813797,-0.2487204074859619
-0.0973035842180252,1.048393964767456,-0.2842931747436523,-0.4860658347606659,-0.2724840044975281,-0.3046410083770752,0.0,0.0,-0.599621593952179,-0.9387267231941224
-0.100382424890995,1.03716242313385,-0.2941944599151611,-0.501792311668396,-0.2865378260612488,-0.2810771465301513,0.0,0.0,-0.8674926161766052,-0.8849940299987793
-0.1035581603646278,1.0255972146987915,-0.3055118024349212,-0.5164290070533752,-0.2989750802516937,-0.2487448751926422,0.0,0.0,-0.4913287758827209,-0.6136434078216553
-0.106805995106697,1.013684868812561,-0.3137440681457519,-0.5317427515983582,-0.3104067742824554,-0.2286333590745926,0.0,0.0,-0.1976628303527832,-0.1195859909057617
-0.1100681275129318,1.001394510269165,-0.3147050738334656,-0.5487459897994995,-0.3223593235015869,-0.2390512526035308,0.0,0.0,0.5334560871124268,-0.5370710492134094
-0.1130780205130577,0.989431858062744,-0.2904211282730102,-0.5340635180473328,-0.3333792686462402,-0.2203986346721649,0.0,0.0,-0.5753953456878662,-0.2792407274246216
-0.1160964965820312,0.9770911335945128,-0.2908251583576202,-0.5510667562484741,-0.344914436340332,-0.230703204870224,0.0,0.0,-0.1650791764259338,-0.5620478987693787
-0.1191553100943565,0.964387595653534,-0.2953124046325683,-0.5671719312667847,-0.3560225665569305,-0.2221631109714508,0.0,0.0,0.6094057559967041,-0.8948783874511719
-0.1220066100358963,0.952441155910492,-0.2758664786815643,-0.5332906246185303,-0.3657876551151275,-0.1953016370534896,0.0,0.0,0.5646750926971436,-0.6043469905853271
-0.1245944947004318,0.9407039284706116,-0.2505785822868347,-0.523769736289978,-0.3744714260101318,-0.1736755520105362,0.0,0.0,0.4665474891662597,-0.4900896549224853
-0.1271048486232757,0.9292187690734864,-0.2420093119144439,-0.5128471851348877,-0.3840464353561401,-0.191500186920166,0.0,0.0,0.3894002437591553,-0.6704527139663696
-0.1293235719203949,0.918273389339447,-0.2138635218143463,-0.4886451065540313,-0.3925747275352478,-0.1705665290355682,0.0,0.0,-0.2281110882759094,-0.8895606994628906
-0.1315810233354568,0.9069833159446716,-0.2186469137668609,-0.5037591457366943,-0.4001699388027191,-0.1519040018320083,0.0,0.0,0.6434326171875,-0.739961564540863
-0.1334825456142425,0.8964390158653259,-0.1842079907655716,-0.4703278839588165,-0.4065521955490112,-0.1276459246873855,0.0,0.0,0.692859411239624,-0.9440109729766846
-0.1351953446865081,0.8867281675338745,-0.1666250526905059,-0.432940810918808,-0.411556988954544,-0.1000949963927269,0.0,0.0,0.9428610801696776,-0.8971347212791443
-0.1367202699184417,0.8772318363189697,-0.1492389142513275,-0.4230024516582489,-0.4150589406490326,-0.0700393989682197,0.0,0.0,0.9130414724349976,-0.6554810404777527
-0.138054758310318,0.86858069896698,-0.1307611465454101,-0.3852930068969726,-0.4179660379886627,-0.0581419356167316,0.0,0.0,0.9206497669219972,-0.8950939774513245
-0.1390394270420074,0.8603186011314392,-0.0973319411277771,-0.3675389885902405,-0.419184923171997,-0.0243780016899108,0.0,0.0,0.8073294162750244,-0.5673760771751404
-0.1397367417812347,0.8526065945625305,-0.0693565085530281,-0.342864841222763,-0.4195915758609772,-0.0081333015114068,0.0,0.0,0.6599835157394409,-0.706211268901825
-0.1402812898159027,0.8450905680656433,-0.0550452098250389,-0.3338720500469208,-0.4189512133598327,0.0128072751685976,0.0,0.0,0.3109511137008667,-0.8090726137161255
-0.1407582312822342,0.8379442691802979,-0.0493566952645778,-0.3171182572841644,-0.4171580374240875,0.0358639284968376,0.0,0.0,-0.3181162476539612,-0.5089378952980042
-0.1412291526794433,0.8304471373558044,-0.0493342839181423,-0.3325525522232055,-0.4147443473339081,0.0482740178704261,0.0,0.0,-0.1439763903617859,-0.8745399713516235
-0.1417145729064941,0.8225963115692139,-0.0518496707081794,-0.3479541838169098,-0.4111708700656891,0.071469523012638,0.0,0.0,0.2426404953002929,-0.6943537592887878
-0.1419239938259124,0.8152749538421631,-0.0252956058830022,-0.3241418600082397,-0.4064971506595611,0.0934742465615272,0.0,0.0,-0.1490136384963989,-0.657618522644043
-0.1421399116516113,0.80760657787323,-0.027069617062807,-0.339260071516037,-0.4006168246269226,0.1176072359085083,0.0,0.0,-0.1181493997573852,-0.536003589630127
-0.1423475295305252,0.7995888590812683,-0.0271274298429489,-0.3545655906200409,-0.3938042223453522,0.1362519115209579,0.0,0.0,-0.1238635778427124,-0.6547456979751587
-0.1425444632768631,0.791220486164093,-0.0269725415855646,-0.3699291348457336,-0.3860383331775665,0.1553178131580352,0.0,0.0,-0.8977274894714355,-0.6599098443984985
-0.1427394896745681,0.7825149893760681,-0.028057511895895,-0.3846203982830047,-0.3769247531890869,0.1822717636823654,0.0,0.0,-0.2553516626358032,-0.3657107353210449
-0.1428730934858322,0.773429811000824,-0.0216789804399013,-0.4016154706478119,-0.3681069910526275,0.1763553768396377,0.0,0.0,-0.9124723076820374,-0.4927264451980591
-0.1429427117109298,0.763964831829071,-0.0150353256613016,-0.4186093211174011,-0.3595655858516693,0.1708281487226486,0.0,0.0,-0.6794421076774597,-0.5309956669807434
-0.1429814398288726,0.754134476184845,-0.0126478346064686,-0.4347378611564636,-0.350319504737854,0.1849215626716613,0.0,0.0,-0.8116937875747681,-0.4083989858627319
-0.1429507285356521,0.743924081325531,-0.0055010812357068,-0.4517307579517364,-0.3413081169128418,0.1802278310060501,0.0,0.0,-0.6965434551239014,0.0247329473495483
-0.1428478211164474,0.7333335280418396,0.0018839493859559,-0.4687225222587585,-0.3325092494487762,0.1759776175022125,0.0,0.0,-0.8509243726730347,-0.3488885164260864
-0.1426703482866287,0.7223628163337708,0.0094979163259267,-0.4857132732868194,-0.3238998651504516,0.1721875369548797,0.0,0.0,-0.8441433310508728,-0.3568470478057861
-0.1424158066511154,0.7110118269920349,0.0173313878476619,-0.5027030110359192,-0.3154561817646026,0.1688733100891113,0.0,0.0,-0.9253913760185242,-0.2233322262763977
-0.1420821249485016,0.6992800831794739,0.0253749191761016,-0.5196917653083801,-0.3071537613868713,0.1660491973161697,0.0,0.0,-0.9902510046958924,-0.4317985773086548
-0.1416667997837066,0.6871678233146667,0.0336190946400165,-0.5366796255111694,-0.2989673316478729,0.1637279242277145,0.0,0.0,-0.9731014370918274,-0.3491779565811157
-0.1411677300930023,0.6746745705604553,0.0420545525848865,-0.5536667108535767,-0.2908712923526764,0.1619209200143814,0.0,0.0,-0.9528104066848756,-0.0877889990806579
-0.1405830383300781,0.6618002653121948,0.0506720840930938,-0.570652961730957,-0.2828394472599029,0.1606369316577911,0.0,0.0,-0.8269256353378296,-0.2760862112045288
-0.1399105042219162,0.64854496717453,0.0594626143574714,-0.5876384377479553,-0.2748452723026275,0.1598833501338958,0.0,0.0,-0.9675036072731018,-0.3406349420547485
-999.0,0.6349084973335266,0.0684172511100769,-0.6046232581138611,-0.2668620347976684,0.1596653163433075,0.0,0.0,-0.8475697040557861,-0.0205247998237609
-0.1382948905229568,0.6208907961845398,0.0775273516774177,-0.6216075420379639,-0.2588627338409424,0.1599856615066528,0.0,0.0,-0.7499619126319885,-0.435868501663208
-0.1373482644557953,0.6064916253089905,0.0867844969034195,-0.6385912299156189,-0.2508204877376556,0.160844936966896,0.0,0.0,-0.8079176545143127,-0.441770851612091
-0.1363067626953125,0.5917109847068787,0.0961805433034896,-0.6555745601654053,-0.2427084147930145,0.1622414290904998,0.0,0.0,-0.4567254781723022,-0.6825764179229736
-0.1352099478244781,0.5765588879585266,0.1005663499236106,-0.6719486117362976,-0.2334452420473098,0.1852634698152542,0.0,0.0,-0.5375781059265137,-0.0316619873046875
-0.1340151727199554,0.5610255002975464,0.1102163568139076,-0.6889327168464661,-0.2240592539310455,0.1877196729183197,0.0,0.0,-0.6962018013000488,-0.5564228296279907
-0.1327609121799469,0.5451289415359497,0.1149330288171768,-0.7049570679664612,-0.2134579420089721,0.2120262384414672,0.0,0.0,-0.0927807092666626,0.0205181837081909
-0.1314061135053634,0.528851330280304,0.1248078197240829,-0.721942663192749,-0.2026825249195099,0.2155083119869232,0.0,0.0,-0.5380736589431763,-0.4140470027923584
-0.1299491822719574,0.5121927261352539,0.1347851902246475,-0.7389282584190369,-0.1917082071304321,0.219486266374588,0.0,0.0,0.3784343004226684,-0.7270606756210327
-0.1284128129482269,0.4958072900772095,0.14111989736557,-0.7266709804534912,-0.1791280508041381,0.2516028881072998,0.0,0.0,-0.0745196938514709,-0.481670618057251
-0.1267720162868499,0.4790413379669189,0.1512828171253204,-0.7436598539352417,-0.1663015931844711,0.2565290331840515,0.0,0.0,0.6223845481872559,-0.4492883682250976
-0.1249557510018348,0.462727278470993,0.1686312705278396,-0.7236634492874146,-0.1533122360706329,0.2597872316837311,0.0,0.0,0.3514821529388428,-0.1900591254234314
-0.1230342835187912,0.4470208287239074,0.1793087273836136,-0.6967917084693909,-0.1405031830072403,0.2561811208724975,0.0,0.0,0.0172101259231567,-0.2258882522583007
-0.1208922415971756,0.4315609335899353,0.2007849216461181,-0.6858963370323181,-0.1271349638700485,0.2673646509647369,0.0,0.0,0.0807183980941772,-0.3307584524154663
-0.1186143904924392,0.4164577424526214,0.2141670435667038,-0.6701506972312927,-0.1135975942015647,0.2707475125789642,0.0,0.0,0.1342144012451172,-0.2528544664382934
-0.1162256225943565,0.4017501473426819,0.2251500338315963,-0.6526834964752197,-0.0999728813767433,0.272494226694107,0.0,0.0,0.2063620090484619,-0.0972967147827148
-0.1137088760733604,0.3872079849243164,0.2376502454280853,-0.6454404592514038,-0.0860641747713089,0.2781738042831421,0.0,0.0,0.2053312063217163,-0.4599883556365967
-0.1111286133527755,0.3729525208473205,0.2439885139465332,-0.6328261494636536,-0.0721641555428505,0.2780003547668457,0.0,0.0,0.091832160949707,-0.1052488684654235
-0.1085114479064941,0.3588458895683288,0.2477305382490158,-0.6263486742973328,-0.0583230331540107,0.2768223583698272,0.0,0.0,0.2797435522079468,0.1763191223144531
-0.1056680679321289,0.3451858758926391,0.2695309817790985,-0.6065998673439026,-0.0436861738562583,0.2927370965480804,0.0,0.0,0.3452516794204712,-0.0111743211746215
-0.1026493087410926,0.3315935730934143,0.2863911688327789,-0.6037242412567139,-0.0283878240734338,0.3059669733047485,0.0,0.0,0.3703303337097168,-0.4432172775268554
-0.0993793457746505,0.3185661137104034,0.3104830086231231,-0.5787702798843384,-0.0120891947299242,0.3259725868701935,0.0,0.0,-0.007587194442749,-0.46273934841156
-0.0959960967302322,0.3051600158214569,0.3213510811328888,-0.5957715511322021,0.004665701650083,0.3350980877876282,0.0,0.0,0.5702657699584961,-0.4720598459243774
-0.0923672690987587,0.2925950288772583,0.344803124666214,-0.5585910677909851,0.0225158911198377,0.357003778219223,0.0,0.0,0.6115690469741821,-0.8289079666137695
-0.0886199921369552,0.2805016338825226,0.3543709218502044,-0.5379137396812439,0.0426288470625877,0.4022591710090637,0.0,0.0,0.5033562183380127,-0.7269918918609619
-0.0848548859357833,0.2691489458084106,0.354225754737854,-0.5053459405899048,0.0646629408001899,0.4406818747520447,0.0,0.0,0.6124812364578247,0.338355541229248
-0.0809656158089637,0.2585777640342712,0.3658817112445831,-0.4709880948066711,0.0874692797660827,0.456126868724823,0.0,0.0,0.2087018489837646,-0.4325274229049682
-0.0769322365522384,0.2481410354375839,0.3795622885227203,-0.4654113054275512,0.1110555231571197,0.4717250466346741,0.0,0.0,0.4142020940780639,0.0089787244796752
-0.072946548461914,0.2381020635366439,0.3748145699501037,-0.4481124579906463,0.1346730589866638,0.4723507761955261,0.0,0.0,0.5587130784988403,-0.0379660129547119
-0.0690310448408126,0.2283868193626403,0.3679096102714538,-0.4340935945510864,0.1582538336515426,0.4716157019138336,0.0,0.0,0.3683264255523681,0.1545032262802124
-0.0650917068123817,0.2189854234457016,0.3699434399604797,-0.420567899942398,0.1822827905416488,0.4805790781974792,0.0,0.0,0.4345855712890625,0.5868484973907471
-0.0610512718558311,0.2099123299121856,0.3807373642921448,-0.4062872529029846,0.2057262510061264,0.4688692688941955,0.0,0.0,0.7874853610992432,0.2261099815368652
-0.0568367950618267,0.201080709695816,0.3970686197280884,-0.3960968852043152,0.2303670793771743,0.49281707406044,0.0,0.0,0.8565549850463867,0.7615113258361816
-0.0525086410343647,0.193063199520111,0.4093001782894134,-0.3601903319358825,0.2542777955532074,0.4782141149044037,0.0,0.0,0.6936759948730469,0.4055094718933105
-0.0482483878731727,0.1858833134174347,0.4019826054573059,-0.3234616816043854,0.2788627743721008,0.4916999340057373,0.0,0.0,0.6737589836120605,0.5251519680023193
-0.0438530929386615,0.1788266748189926,0.4159632325172424,-0.3183095157146454,0.3031344413757324,0.4854336380958557,0.0,0.0,0.7061500549316406,0.762326717376709
