x_pos,y_pos,x_vel,y_vel,angle,ang_vel,leg_1,leg_2,main_booster,lat_booster
-0.0015181541675701,1.4030780792236328,-0.1544446945190429,-0.3485302627086639,0.0023569886106997,0.0465380847454071,0.0,0.0,0.8351761393495747,-0.7444621402680921
-0.0030270577408373,1.3954782485961914,-0.1554611027240753,-0.3377870917320251,0.0068685058504343,0.0902398526668548,0.0,0.0,-0.5464415073842732,0.8065564041416846
-0.0044516562484204,1.3873265981674194,-0.1456468552350998,-0.3623140454292297,0.0100229224190115,0.0630939155817031,0.0,0.0,0.7113978067767064,0.7462748012201386
-0.0059498785994946,1.379401445388794,-0.1518174111843109,-0.3522404134273529,0.0119967646896839,0.0394805036485195,0.0,0.0,-0.9163117841855416,0.5986398293282517
-0.0073822019621729,1.370932936668396,-0.1443850547075271,-0.3763868510723114,0.0131315132603049,0.0226970873773098,0.0,0.0,0.8715069276745084,0.8586341596964577
-0.0085745807737112,1.3628445863723757,-0.1196416988968849,-0.3594875335693359,0.0135242426767945,0.0078553101047873,0.0,0.0,-0.2586000629668181,-0.503256467197849
-0.0097975730895996,1.3542091846466064,-0.1243495121598243,-0.3838220238685608,0.0155529621988534,0.0405783094465732,0.0,0.0,-0.951891880434794,0.7226178579155154
-0.0109381675720214,1.3450312614440918,-0.1149137392640113,-0.4079133570194244,0.0163997653871774,0.0169374868273735,0.0,0.0,0.8395237400586142,0.554760336015559
-0.0120521541684865,1.3367115259170532,-0.1117168515920639,-0.3697738647460937,0.0167118571698665,0.006242602597922,0.0,0.0,-0.3409608340837478,0.8530926796142323
-0.0130854602903127,1.3278522491455078,-0.102560855448246,-0.3937356173992157,0.0159427877515554,-0.0153826400637626,0.0,0.0,-0.6386010671344031,0.9218730960762735
-0.014021205715835,1.3184497356414795,-0.0912944376468658,-0.4178711473941803,0.0136944027617573,-0.0449720360338687,0.0,0.0,0.4359670577964276,0.5858617158941128
-0.0148342130705714,1.3091907501220703,-0.0786279439926147,-0.4114869832992553,0.0110493339598178,-0.052906472235918,0.0,0.0,0.7018873365665825,0.7673291618783815
-0.0154304504394531,1.3004738092422483,-0.0563310198485851,-0.3874035179615021,0.0077982209622859,-0.0650280117988586,0.0,0.0,-0.3001811546870947,0.588815905100571
-0.0159564968198537,1.291205883026123,-0.0486314706504344,-0.4119008481502533,0.0038564181886613,-0.0788429081439971,0.0,0.0,0.7655003150358479,-0.6788370510779838
-0.0163569450378417,1.2827205657958984,-0.0384321436285972,-0.3771118521690368,0.0022671814076602,-0.0317874327301979,0.0,0.0,-0.8046747019074463,0.851473577097716
-0.0166572574526071,1.2736793756484983,-0.0270249359309673,-0.40183225274086,-0.0007091588340699,-0.0595326013863086,0.0,0.0,-0.0830632676725133,0.5997117289352615
-0.0168774612247943,1.264098882675171,-0.0181526970118284,-0.4258008003234863,-0.0045356899499893,-0.076537124812603,0.0,0.0,0.264207407954657,0.6698432696440615
-0.0168987270444631,1.254395604133606,0.0022696768864989,-0.4312774837017059,-0.0088843517005443,-0.0869809836149215,0.0,0.0,0.0379919039732759,-0.7727361087316482
-0.0168810840696096,1.244909644126892,0.0039537781849503,-0.4216130077838897,-0.01105004735291,-0.0433177016675472,0.0,0.0,-0.2499835648702812,0.9756484363172492
-0.0167707446962595,1.2348756790161133,0.0142948869615793,-0.445980042219162,-0.0142854182049632,-0.0647133141756057,0.0,0.0,0.6287802590821174,-0.6672174208569489
-0.0165385250002145,1.2254103422164917,0.0242350306361913,-0.4206933975219726,-0.0152789456769824,-0.0198721829801797,0.0,0.0,0.3465951182087468,0.5173434993555583
-0.0162210464477539,1.215934991836548,0.0331570990383625,-0.4211344718933105,-0.016669362783432,-0.0278110094368457,0.0,0.0,-0.2315597322403826,0.5123517597513036
-0.0158244129270315,1.205911636352539,0.0417065396904945,-0.4455145001411438,-0.0186894033104181,-0.0404045768082141,0.0,0.0,0.2960758105418675,-0.8417981576780167
-0.0153961181640625,1.195699691772461,0.0425051860511302,-0.4538584053516388,-0.0183695629239082,0.0063972659409046,0.0,0.0,-0.4572307236128234,0.6543681146432456
-0.0148957250639796,1.1849420070648191,0.0501138344407081,-0.478121280670166,-0.0184399671852588,-0.0014081193367019,0.0,0.0,0.5884249583304311,-0.6102554408326126
-0.0145491603761911,1.1746402978897097,0.033247485756874,-0.4578312635421753,-0.0170464944094419,0.0278692338615655,0.0,0.0,-0.3199270669088991,0.6709403035695418
-0.0141137121245265,1.1637952327728271,0.0428793616592884,-0.4819988906383514,-0.016392471268773,0.013080527074635,0.0,0.0,0.0749752938905043,-0.9537090313430954
-0.0138094900175929,1.1532232761383057,0.0272084772586822,-0.4698278307914734,-0.0132210524752736,0.0634282380342483,0.0,0.0,0.2077129800541064,0.7554910458087449
-0.0135082248598337,1.1429616212844849,0.0279497392475605,-0.4560552537441253,-0.0110665457323193,0.0430902689695358,0.0,0.0,0.538437118704352,0.6538371047568547
-0.0131320003420114,1.1328318119049072,0.0361919738352298,-0.4502088129520416,-0.0096576940268278,0.0281770788133144,0.0,0.0,0.132770625173215,-0.7796273091557842
-0.0127562526613473,1.1230357885360718,0.0339575298130512,-0.4353584349155426,-0.0060885185375809,0.0713835060596466,0.0,0.0,-0.8567401766777039,0.558168888092041
-0.0122999195009469,1.1126898527145386,0.0423922315239906,-0.4598018229007721,-0.0028886264190077,0.0639978498220443,0.0,0.0,-0.908848524093628,0.5948526859283447
-0.011759472079575,1.101803421974182,0.0512329936027526,-0.4838422834873199,-0.0001134155972977,0.0555041432380676,0.0,0.0,-0.93072110414505,0.0656756162643432
-0.0111742969602346,1.0903706550598145,0.0551068559288978,-0.5081212520599365,0.0032563691493123,0.0673956125974655,0.0,0.0,-0.8735054731369019,0.561488151550293
-0.0104974750429391,1.0783933401107788,0.0648354738950729,-0.5323361158370972,0.006072481162846,0.0563218779861927,0.0,0.0,-0.8702461123466492,0.3475701808929443
-0.0097733493894338,1.0658698081970217,0.0689649358391761,-0.5566152334213257,0.0094800600782036,0.068151369690895,0.0,0.0,-0.9525580406188964,0.7075772285461426
-0.008947086520493,1.052797555923462,0.0799403041601181,-0.5810134410858154,0.0121317766606807,0.0530342981219291,0.0,0.0,-0.8940402269363403,0.4743444919586181
-0.0080711366608738,1.0391790866851809,0.0843151733279228,-0.6052929162979126,0.0153715517371892,0.0647954046726226,0.0,0.0,-0.8898295164108276,0.0961766242980957
-0.0071443556807935,1.0250146389007568,0.0888085216283798,-0.6295728087425232,0.0191975478082895,0.0765196308493614,0.0,0.0,-0.9509853720664978,-0.3322011232376098
-0.0061654089950025,1.0103044509887695,0.0934173315763473,-0.6538532376289368,0.0236077886074781,0.0882051438093185,0.0,0.0,-0.9722597002983092,-0.3450700044631958
-0.005133437924087,0.995048463344574,0.098138503730297,-0.6781342625617981,0.0286002680659294,0.0998498797416687,0.0,0.0,-0.8603989481925964,-0.1321281194686889
-0.0040473937988281,0.9792469143867492,0.1029688119888305,-0.7024160623550415,0.0341728590428829,0.1114516854286193,0.0,0.0,-0.9179494976997375,-0.2780625224113464
-0.0029060363303869,0.9628996253013612,0.1079049259424209,-0.7266985774040222,0.0403232686221599,0.1230083256959915,0.0,0.0,-0.8983768224716187,-0.3245559930801391
-0.0017085075378417,0.946006953716278,0.1129434555768966,-0.7509819269180298,0.0470491349697113,0.1345172375440597,0.0,0.0,-0.4701451063156128,-0.1094242334365844
-0.0004538536013569,0.928569197654724,0.1180809959769249,-0.7752662897109985,0.0543479062616825,0.145975723862648,0.0,0.0,-0.803991436958313,0.474922776222229
0.0008588790660724,0.9105860590934752,0.1233140677213668,-0.7995516061782837,0.0622169747948646,0.1573809087276458,0.0,0.0,-0.4639831781387329,0.2632820606231689
0.0022305487655103,0.892058253288269,0.1286391317844391,-0.8238380551338196,0.0706534460186958,0.168729543685913,0.0,0.0,-0.2986640930175781,0.9083967208862304
0.0037199021317064,0.8730013966560364,0.141325905919075,-0.8473478555679321,0.078180618584156,0.1505433917045593,0.0,0.0,-0.5636361241340637,0.8517874479293823
0.0053217886015772,0.8534132838249207,0.1533602327108383,-0.8709579706192017,0.0849441066384315,0.1352695971727371,0.0,0.0,-0.3377262949943542,0.5159568786621094
0.0070242881774902,0.833283543586731,0.1638737469911575,-0.8950302600860596,0.091274082660675,0.1265995800495147,0.0,0.0,0.0707653760910034,0.2170442342758178
0.0088479043915867,0.8131744265556335,0.1749829351902008,-0.8942068219184875,0.0985883623361587,0.1462855488061905,0.0,0.0,-0.131403386592865,-0.7935335040092468
0.0106655117124319,0.7925158143043518,0.1720888316631317,-0.9188264012336732,0.1081844121217727,0.1919208467006683,0.0,0.0,0.655867338180542,0.5173492431640625
0.0126556400209665,0.7720001339912415,0.1895195543766021,-0.9125243425369264,0.1176153868436813,0.1886194944381714,0.0,0.0,0.6122258901596069,-0.3918087482452392
0.0146215436980128,0.7521002888679504,0.1865529716014862,-0.8852556943893433,0.1276025921106338,0.1997442543506622,0.0,0.0,0.5815560817718506,0.7224438190460205
0.0168051719665527,0.7323891520500183,0.2089336216449737,-0.8768920302391052,0.1369882822036743,0.1877137124538421,0.0,0.0,0.6671570539474487,-0.059843361377716
0.0188934318721294,0.7128205895423889,0.1993320286273956,-0.870618462562561,0.1464601308107376,0.1894370168447494,0.0,0.0,-0.003987967967987,0.4985506534576416
0.0210474021732807,0.6927080154418945,0.2053834199905395,-0.8949106335639954,0.1564588248729705,0.1999741345643997,0.0,0.0,0.8073830604553223,0.5414537191390991
0.023353386670351,0.6731945872306824,0.2207150757312774,-0.8683385252952576,0.1663437038660049,0.1976975202560424,0.0,0.0,0.7639102935791016,0.6997060775756836
0.0257195476442575,0.6544799208641052,0.2274424731731414,-0.8328205347061157,0.1755326837301254,0.1837794631719589,0.0,0.0,0.1460206508636474,0.8705220222473145
0.0280636791139841,0.6360354423522949,0.2265191376209259,-0.8207076787948608,0.1834563165903091,0.1584729850292205,0.0,0.0,0.1972608566284179,0.918226718902588
0.0305411331355571,0.617466390132904,0.2411731034517288,-0.8261232972145081,0.1900592744350433,0.1320591121912002,0.0,0.0,0.3366681337356567,0.5035831928253174
0.0329317077994346,0.5991775393486023,0.2332089692354202,-0.8135955929756165,0.1959360688924789,0.1175359860062599,0.0,0.0,0.4195749759674072,0.6594436168670654
0.0354696288704872,0.5810456871986389,0.2485694587230682,-0.8065616488456726,0.201194018125534,0.105159118771553,0.0,0.0,0.7136449813842773,0.0725595951080322
0.0379727371037006,0.563310980796814,0.2445089817047119,-0.7890100479125977,0.2070414572954177,0.1169488430023193,0.0,0.0,0.5922775268554688,0.3022027015686035
0.0404722206294536,0.5456011891365051,0.2436636239290237,-0.7879952788352966,0.2133907824754715,0.1269864290952682,0.0,0.0,0.5677101612091064,0.4672693014144897
0.0428069122135639,0.5281318426132202,0.2272672206163406,-0.7773253917694092,0.2196535915136337,0.1252565532922744,0.0,0.0,0.9054608345031738,0.8302624225616455
0.045084286481142,0.5116025805473328,0.2227101325988769,-0.7353900074958801,0.2247380912303924,0.1016900762915611,0.0,0.0,0.3348358869552612,0.7558149099349976
0.0475100502371788,0.4949101209640503,0.2385267466306686,-0.7425072193145752,0.2288408279418945,0.0820544213056564,0.0,0.0,0.8171366453170776,0.2651095390319824
0.0498208031058311,0.4790548384189605,0.2264794111251831,-0.7054017782211304,0.2335033267736435,0.0932500660419464,0.0,0.0,0.6849067211151123,0.2361682653427124
0.0519955642521381,0.4633260071277618,0.2129182368516922,-0.6997909545898438,0.2381310760974884,0.0925550460815429,0.0,0.0,0.3431761264801025,0.1626102924346923
0.0540369041264057,0.4478285014629364,0.1995410472154617,-0.6895333528518677,0.2428087741136551,0.0935539901256561,0.0,0.0,-0.1880605816841125,0.903615951538086
0.0562198646366596,0.4318147003650665,0.2152049094438552,-0.7122355699539185,0.2459480166435241,0.0627852603793144,0.0,0.0,0.8372225761413574,0.7671411037445068
0.0581489577889442,0.4165956377983093,0.1913120001554489,-0.676669716835022,0.2475641071796417,0.0323216617107391,0.0,0.0,0.8493280410766602,0.8813455104827881
0.0601437576115131,0.4018304049968719,0.1991456598043441,-0.6562901735305786,0.2479113638401031,0.0069451741874217,0.0,0.0,0.8934590816497803,-0.2250596284866333
0.0620599761605262,0.3871574997901916,0.1911278069019317,-0.6522100567817688,0.2484109550714492,0.0099918236956,0.0,0.0,0.8059186935424805,0.5579023361206055
0.0640778541564941,0.3724957704544067,0.2018841803073883,-0.6516155004501343,0.2483178973197937,-0.0018612187122926,0.0,0.0,0.8310508728027344,0.1311948299407959
0.0660377517342567,0.3578228652477264,0.1959501653909683,-0.6521367430686951,0.2483565807342529,0.0007735326653346,0.0,0.0,0.8673278093338013,-0.570980429649353
0.0677910819649696,0.343892753124237,0.1739240139722824,-0.6193544268608093,0.2497903704643249,0.0286754816770553,0.0,0.0,0.9400821924209596,0.8930965662002563
0.0695422142744064,0.3308826684951782,0.1750507652759552,-0.5782390832901001,0.2498596310615539,0.001384973176755,0.0,0.0,0.8597391843795776,0.1563388109207153
0.0710109695792198,0.3186174035072326,0.1471558809280395,-0.5450752377510071,0.2495761066675186,-0.0056704534217715,0.0,0.0,0.8781477212905884,0.9458677768707277
0.072369672358036,0.3063117265701294,0.1380819380283355,-0.5465470552444458,0.247329443693161,-0.0449332222342491,0.0,0.0,0.9793384075164796,0.9708700180053712
0.0736879333853721,0.2948939502239227,0.1356856375932693,-0.506808340549469,0.2433926612138748,-0.0787353664636612,0.0,0.0,0.9705584049224854,-0.6501161456108093
0.0747314468026161,0.2838645577430725,0.1071042269468307,-0.4897428154945373,0.2405934184789657,-0.0559852197766304,0.0,0.0,0.9873743057250975,0.5489711761474609
0.0756201744079589,0.2734700441360473,0.0927851796150207,-0.4613440632820129,0.2366190403699875,-0.0794874429702758,0.0,0.0,0.97222900390625,0.6711184978485107
0.0764143913984298,0.2637637257575989,0.0845985263586044,-0.4305695295333862,0.2313633412122726,-0.1051138266921043,0.0,0.0,0.988682985305786,-0.2915996313095093
0.0772146210074424,0.2545703947544098,0.0846485048532486,-0.4078782498836517,0.2266831547021865,-0.0936037227511406,0.0,0.0,0.9755265712738036,-0.4585698843002319
0.0780144706368446,0.2454390078783035,0.0844127088785171,-0.4051654934883117,0.2221990972757339,-0.0896810442209243,0.0,0.0,0.9827815294265748,-0.2583533525466919
0.07887963950634,0.2365054637193679,0.0904022380709648,-0.3964637219905853,0.2182700037956237,-0.0785817876458168,0.0,0.0,0.9962594509124756,0.0291087627410888
0.0798315033316612,0.2280941307544708,0.0982441529631614,-0.3733891248703003,0.2151780724525451,-0.0618386939167976,0.0,0.0,0.9944361448287964,-0.8186113238334656
0.0808603316545486,0.2198661118745803,0.103920117020607,-0.365538477897644,0.2141252309083938,-0.0210568532347679,0.0,0.0,0.9740816354751588,-0.8409203290939331
0.0816863030195236,0.2123899757862091,0.0820211023092269,-0.3323581516742706,0.2147094309329986,0.0116841718554496,0.0,0.0,0.9480748176574708,-0.9033123254776
0.0823504477739334,0.2056750208139419,0.064017467200756,-0.2987929582595825,0.2171219885349273,0.0482510067522525,0.0,0.0,0.987417221069336,-0.5818191170692444
0.0830111503601074,0.1996278166770935,0.0621672086417675,-0.2693423926830292,0.2210710346698761,0.0789810717105865,0.0,0.0,0.9923776388168336,-0.3478152751922607
0.0837623625993728,0.1936504244804382,0.0707689002156257,-0.2663195729255676,0.2254752367734909,0.088084265589714,0.0,0.0,0.9647834300994872,-0.4247549772262573
0.0843744277954101,0.1879910975694656,0.057267278432846,-0.2521326839923858,0.2294597327709198,0.0796900540590286,0.0,0.0,0.9963600635528564,-0.8546168208122253
0.0848467797040939,0.1833332926034927,0.0415461547672748,-0.2079132944345474,0.2352363616228103,0.1155325770378112,0.0,0.0,0.9248663187026978,-0.8111720681190491
0.0851285010576248,0.1790634244680404,0.0211015827953815,-0.1909172534942627,0.2424119561910629,0.1435118019580841,0.0,0.0,0.9442756175994872,-0.2741339206695556
0.0850968360900878,0.1755578070878982,-0.0093583073467016,-0.1568421870470047,0.2487138211727142,0.1260372549295425,0.0,0.0,-0.0013313293457031,0.0597034692764282
0.0851174369454383,0.1715056747198104,-0.0039081908762454,-0.1811192035675048,0.2547990679740906,0.1217050924897193,0.0,0.0,0.547349214553833,-0.2370863556861877
0.0849634185433387,0.1679079383611679,-0.0209087897092103,-0.1608649045228958,0.2604160904884338,0.1123408526182174,0.0,0.0,-0.324284553527832,-0.0346040725708007
0.0848588943481445,0.1637634634971618,-0.0157008897513151,-0.1851402223110199,0.2657781839370727,0.1072417646646499,0.0,0.0,0.2920759916305542,-0.331628143787384
0.0846813172101974,0.1596281379461288,-0.0226438231766223,-0.1846877038478851,0.2707773745059967,0.0999838784337043,0.0,0.0,-0.2809208631515503,0.1956731081008911
0.0845501869916915,0.1549457907676696,-0.0177125874906778,-0.2089614868164062,0.2754866778850555,0.0941862389445304,0.0,0.0,0.3865234851837158,0.5503208637237549
0.0842542648315429,0.1503112912178039,-0.0325026735663414,-0.2065280228853225,0.2784699201583862,0.0596650652587413,0.0,0.0,0.0470423698425293,0.2019853591918945
0.0839406996965408,0.1458139717578888,-0.0342510752379894,-0.2004347890615463,0.2814423441886902,0.0594482906162738,0.0,0.0,-0.5037127733230591,0.7087016105651855
0.0837285965681076,0.1407889425754547,-0.0222389288246631,-0.2235338985919952,0.2825004756450653,0.0211623571813106,0.0,0.0,0.1005103588104248,0.4724805355072021
0.0835068672895431,0.1359887868165969,-0.0232958458364009,-0.2135557383298874,0.2836562097072601,0.0231144018471241,0.0,0.0,-0.1636872887611389,0.0806962251663208
0.0833223313093185,0.1306411772966385,-0.0192248094826936,-0.2378255873918533,0.284449964761734,0.0158751979470253,0.0,0.0,0.5001411437988281,0.7823156118392944
0.0831508636474609,0.1259581893682479,-0.0162163730710744,-0.207950547337532,0.2834958136081695,-0.0190827846527099,0.0,0.0,-0.2944979667663574,0.6382012367248535
0.0830666571855545,0.1207514107227325,-0.0057044317945837,-0.230885237455368,0.280697226524353,-0.0559714660048484,0.0,0.0,0.6917665004730225,0.9046391248703004
0.0828400626778602,0.116237074136734,-0.0177427288144826,-0.1997012943029403,0.2756469845771789,-0.1010045856237411,0.0,0.0,-0.3765243291854858,0.968397855758667
0.0827205628156662,0.1112179830670356,-0.0045109777711331,-0.2216859757900238,0.2680226862430572,-0.1524854749441146,0.0,0.0,0.6273167133331299,0.970106840133667
0.0826677307486534,0.1063666939735412,0.0043972847051918,-0.2138707637786865,0.2581287324428558,-0.1978789865970611,0.0,0.0,0.552519679069519,0.9409873485565186
0.0824348479509353,0.1017922759056091,-0.0111555848270654,-0.2012231647968292,0.2457633167505264,-0.2473087310791015,0.0,0.0,0.1507843732833862,0.9644433259963988
0.0821063071489334,0.0971810221672058,-0.0183625053614377,-0.2025883644819259,0.2310250103473663,-0.2947661876678467,0.0,0.0,-0.0516320466995239,0.9127148389816284
0.0818618759512901,0.0920487716794014,-0.0076913861557841,-0.2255641818046569,0.2140774428844452,-0.3389514088630676,0.0,0.0,-0.1214553117752075,0.2354975938796997
0.0816310867667198,0.08637285977602,-0.0058232201263308,-0.2498579919338226,0.1966886669397354,-0.3477759659290313,0.0,0.0,-0.1797226071357727,-0.4080880880355835
0.0814110785722732,0.0801535695791244,-0.0042509380728006,-0.2741537094116211,0.1788532435894012,-0.3567087054252624,0.0,0.0,0.2107486724853515,-0.3279409408569336
0.0811798125505447,0.0741499960422515,-0.0051962682045996,-0.2647701799869537,0.1608966737985611,-0.359131395816803,0.0,0.0,-0.2810583114624023,-0.7646650671958923
0.0808951407670974,0.067596398293972,-0.0115017341449856,-0.2895240485668182,0.1439472883939743,-0.3389879763126373,0.0,0.0,0.5502243041992188,-0.8267824053764343
0.0805719345808029,0.0609248504042625,-0.0166068933904171,-0.2950696051120758,0.1282975971698761,-0.3129937052726745,0.0,0.0,0.90749990940094,-0.93372243642807
0.080206774175167,0.0547809451818466,-0.0224129445850849,-0.2719077169895172,0.1142690852284431,-0.280570387840271,0.0,0.0,0.4145959615707397,-0.875809371471405
