x_pos,y_pos,x_vel,y_vel,angle,ang_vel,leg_1,leg_2,main_booster,lat_booster
-0.0015457153785973,1.4034746885299685,-0.1568839997053146,-0.3309041559696197,0.0020577397663146,0.0406130626797676,0.0,0.0,-0.1724226474761963,0.9647353887557985
-0.0030252456199377,1.3958983421325684,-0.1481357514858245,-0.3367249667644501,0.0022386773489415,0.0036199842579662,0.0,0.0,-0.0722863674163818,0.83028244972229
-0.0044342041946947,1.3881661891937256,-0.1392787098884582,-0.343655526638031,0.0006357510574162,-0.0320614799857139,0.0,0.0,-0.5388083457946777,0.4761512279510498
-0.0058458326384425,1.3802841901779177,-0.13972869515419,-0.3503128886222839,-0.000771687249653,-0.028151636943221,0.0,0.0,0.1922670602798462,0.0280007123947143
-0.0071598053909838,1.3729583024978638,-0.130598559975624,-0.3255985081195831,-0.0015661809593439,-0.0158911701291799,0.0,0.0,-0.2811564207077026,0.6089646816253662
-0.0084045408293604,1.3654813766479492,-0.1223057955503463,-0.3323048949241638,-0.0037005443591624,-0.0426914617419242,0.0,0.0,-0.0362219214439392,-0.0977413058280944
-0.0096321105957031,1.3578550815582275,-0.1207098513841629,-0.3389561772346496,-0.0057233269326388,-0.0404594354331493,0.0,0.0,-0.3778653144836426,0.1529512405395507
-0.0108362194150686,1.35007905960083,-0.1184503659605979,-0.345609575510025,-0.0076653915457427,-0.0388448499143123,0.0,0.0,-0.5393612384796143,0.4376405477523803
-0.0120107652619481,1.342153549194336,-0.115540936589241,-0.3522637188434601,-0.0095567191019654,-0.0378299690783023,0.0,0.0,-0.708653450012207,0.8603472709655762
-0.0130819324404001,1.3340826034545898,-0.1035042256116867,-0.3587334454059601,-0.0131300240755081,-0.0714727565646171,0.0,0.0,-0.403623104095459,0.6633884906768799
-0.0140518192201852,1.3258614540100098,-0.091848224401474,-0.3654331266880035,-0.0182156059890985,-0.1017210260033607,0.0,0.0,-0.6388394236564636,-0.6767833828926086
-0.0150217059999704,1.3174909353256226,-0.0929992571473121,-0.3720791935920715,-0.0221581496298313,-0.0788581147789955,0.0,0.0,-0.6258427500724792,0.56519615650177
-0.0158848762512207,1.3089721202850342,-0.0808773189783096,-0.3787065744400024,-0.0275363977998495,-0.1075748577713966,0.0,0.0,-0.6196698546409607,-0.2810155153274536
-0.0166903492063283,1.3003040552139282,-0.0750083327293396,-0.3853631913661957,-0.0330165326595306,-0.1096125692129135,0.0,0.0,-0.7830867767333984,-0.579059898853302
-0.0174680706113576,1.2914942502975464,-0.0729973167181015,-0.3916573822498321,-0.0377489104866981,-0.0946562513709068,0.0,0.0,-0.8755353689193726,-0.1480033993721008
-0.0181788448244333,1.282535195350647,-0.0661237090826034,-0.3983139395713806,-0.04264397919178,-0.0979102551937103,0.0,0.0,-0.7675585150718689,-0.4919043183326721
-0.0188179966062307,1.2734270095825195,-0.0587861463427543,-0.4049707651138305,-0.0477298274636268,-0.1017262116074562,0.0,0.0,-0.9414612054824828,-0.4868520498275757
-0.0193817131221294,1.2641693353652954,-0.0510115809738636,-0.4116281270980835,-0.0530343689024448,-0.1061004176735878,0.0,0.0,-0.9707551598548888,-0.4662098884582519
-0.0198660846799612,1.2547625303268433,-0.0428263135254383,-0.4182859659194946,-0.0585843212902545,-0.1110092177987098,0.0,0.0,-0.9233450293540956,-0.7702036499977112
-0.0203362461179494,1.2452123165130615,-0.0428985282778739,-0.4246231317520141,-0.0626696348190307,-0.0817132443189621,0.0,0.0,-0.8307883739471436,-0.8616641163825989
-0.0207734107971191,1.2355241775512695,-0.0406687781214714,-0.4307203590869903,-0.0656994879245758,-0.0606022402644157,0.0,0.0,-0.8868147730827332,-0.5696935653686523
-0.0211655609309673,1.2256877422332764,-0.0369544140994548,-0.4372779726982116,-0.0679384171962738,-0.0447826460003852,0.0,0.0,-0.6159584522247314,-0.8093909025192261
-0.0215156562626361,1.2157057523727417,-0.0336783304810524,-0.4436995089054107,-0.0692558661103248,-0.0263509210199117,0.0,0.0,-0.6510898470878601,-0.2107468843460083
-0.0217708591371774,1.2055745124816897,-0.023825803771615,-0.4503563046455383,-0.0709360241889953,-0.0336062535643577,0.0,0.0,-0.6703325510025024,-0.5654654502868652
-0.0219838134944438,1.1953012943267822,-0.0206156931817531,-0.4566163718700409,-0.071606233716011,-0.0134058650583028,0.0,0.0,-0.8320431113243103,-0.7408894300460815
-0.0221705436706542,1.1848691701889038,-0.0194451473653316,-0.4636145234107971,-0.0708440542221069,0.0152433887124061,0.0,0.0,-0.941522777080536,-0.3063294887542724
-0.0222556106746196,1.1742877960205078,-0.0088500082492828,-0.4702692329883575,-0.0704990550875663,0.0068999277427792,0.0,0.0,-0.4723819494247436,-0.3356900215148926
-0.0222369190305471,1.163557052612305,0.0019567259587347,-0.4769239425659179,-0.0705865323543548,-0.0017494946951046,0.0,0.0,-0.7893470525741577,-0.6712092757225037
-0.0221769325435161,1.1526894569396973,0.0048957588151097,-0.4829517304897308,-0.0694932118058204,0.0218664556741714,0.0,0.0,-0.8775467872619629,-0.1008793711662292
-0.0220097545534372,1.1416726112365725,0.0160775743424892,-0.4896066784858703,-0.0688596218824386,0.0126716401427984,0.0,0.0,-0.2548478245735168,-0.5043256878852844
-0.0217721946537494,1.1305161714553833,0.0226104576140642,-0.4957868456840515,-0.0677236020565033,0.0227206442505121,0.0,0.0,-0.8158921599388123,-0.3159723281860351
-0.021424388512969,1.119210720062256,0.0341104008257389,-0.5024418234825134,-0.0670705512166023,0.0130609888583421,0.0,0.0,-0.8104437589645386,-0.1209281086921691
-0.0209653861820697,1.1077557802200315,0.0457505546510219,-0.5090968608856201,-0.0669107288122177,0.0031964746303856,0.0,0.0,-0.954600751399994,-0.7367801666259766
-0.0204582214355468,1.0961514711380005,0.0494176894426345,-0.5156881213188171,-0.0656330734491348,0.0255531221628189,0.0,0.0,-0.939350128173828,-0.7093720436096191
-0.0198918338865041,1.0844049453735352,0.0544728226959705,-0.5219780206680298,-0.0634923130273819,0.0428150258958339,0.0,0.0,-0.9226381182670592,-0.5892462730407715
-0.0192557331174612,1.072517991065979,0.0608246512711048,-0.5281974077224731,-0.060732215642929,0.055201880633831,0.0,0.0,-0.9578004479408264,-0.4506623148918152
-0.0185039527714252,1.0604816675186155,0.0729202553629875,-0.534852921962738,-0.0584985613822937,0.0446730889379978,0.0,0.0,-0.8795179724693298,-0.867030918598175
-0.0176995284855365,1.0483086109161377,0.0770821124315261,-0.5408976674079895,-0.0551800616085529,0.0663701519370079,0.0,0.0,-0.9611579179763794,-0.3784369230270386
-0.0167778972536325,1.0359864234924316,0.0893527716398239,-0.547553300857544,-0.0524007380008697,0.0555862486362457,0.0,0.0,-0.9410096406936646,-0.893500566482544
-0.0158055312931537,1.0235214233398438,0.0932601168751716,-0.5538628101348877,-0.0484713986515998,0.0785868167877197,0.0,0.0,-0.8205528259277344,-0.8394744396209717
-0.0147924423217773,1.010920166969299,0.09589833766222,-0.5598875284194946,-0.0431241504848003,0.1069450229406356,0.0,0.0,-0.9249682426452636,-0.7636205554008484
-0.013708209618926,0.9981714487075806,0.1023519784212112,-0.5664475560188293,-0.037123754620552,0.1200075969099998,0.0,0.0,-0.9430869817733764,-0.7891116738319397
-0.0125567438080906,0.9852680563926696,0.1083032637834549,-0.5733295679092407,-0.0303667411208152,0.1351402699947357,0.0,0.0,-0.9763522744178772,-0.4221793413162231
-0.0112851141020655,0.9722158312797546,0.1208957433700561,-0.5799869298934937,-0.0241722483187913,0.1238898187875747,0.0,0.0,-0.9772258400917052,-0.8542720079421997
-0.0099650379270315,0.959007203578949,0.1244680657982826,-0.5869477391242981,-0.0167310312390327,0.1488244086503982,0.0,0.0,-0.8795927166938782,-0.8981788158416748
-0.008589744567871,0.9456421732902528,0.1289055496454239,-0.5939204692840576,-0.0082097370177507,0.1704259514808654,0.0,0.0,-0.9646222591400146,-0.8347256779670715
-0.0071522714570164,0.9321251511573792,0.1341785937547683,-0.6007413864135742,0.0012309609446674,0.1888136714696884,0.0,0.0,-0.9651147723197936,-0.9446422457695008
-0.0056818961165845,0.918469786643982,0.1358071267604828,-0.6069592833518982,0.0123256985098123,0.22189462184906,0.0,0.0,-0.8743017911911011,-0.2849942445755005
-0.00408935546875,0.9046660661697388,0.148598313331604,-0.6136210560798645,0.0228431262075901,0.210348755121231,0.0,0.0,-0.9659765362739564,-0.7728567123413086
-0.0024376870132982,0.8907098174095154,0.1534797251224517,-0.6205014586448669,0.0343723148107528,0.230583906173706,0.0,0.0,-0.6424306035041809,-0.354711651802063
-0.0006636619800701,0.8766054511070251,0.1663243174552917,-0.6271631121635437,0.0453200712800025,0.2189552038908004,0.0,0.0,-0.81389981508255,-0.931715965270996
0.0011522292625159,0.862353503704071,0.1690467447042465,-0.6338532567024231,0.05771454423666,0.2478894293308258,0.0,0.0,-0.8954563736915588,-0.8359400629997253
0.0030370713211596,0.8479441404342651,0.1751677691936493,-0.6409834027290344,0.0708868727087974,0.2634466290473938,0.0,0.0,-0.6971684694290161,-0.3571848273277282
0.005044937133789,0.8333866596221924,0.1880695074796676,-0.6476467251777649,0.0834729820489883,0.2517223060131073,0.0,0.0,-0.764787495136261,-0.8881167769432068
0.0071232793852686,0.8186711668968201,0.1943893581628799,-0.6548252105712891,0.096804141998291,0.2666231691837311,0.0,0.0,-0.7774286270141602,-0.1268166899681091
0.0093249324709177,0.8038074374198914,0.2073150873184204,-0.6614874005317688,0.1095467582345008,0.2548523843288421,0.0,0.0,-0.6115525960922241,-0.0807700157165527
0.0116497036069631,0.7887951731681824,0.220248743891716,-0.6681477427482605,0.1216999068856239,0.243063136935234,0.0,0.0,-0.855944812297821,0.5059258937835693
0.0141465188935399,0.7736452221870422,0.2393011152744293,-0.6742156744003296,0.1320204585790634,0.2064107656478881,0.0,0.0,-0.8573060035705566,-0.8433130383491516
0.0167078021913766,0.7583430409431458,0.2448953688144683,-0.6811312437057495,0.1432215273380279,0.2240209579467773,0.0,0.0,-0.6484506130218506,-0.7207183241844177
0.0193283073604106,0.7428843379020691,0.2497983425855636,-0.6882771253585815,0.1554508954286575,0.2445873320102691,0.0,0.0,-0.8300762176513672,-0.595442533493042
0.0220300666987895,0.7272617220878601,0.2574466466903686,-0.6957195401191711,0.1681813597679138,0.2546093761920929,0.0,0.0,-0.9289500713348388,-0.1038985252380371
0.0248549468815326,0.7114900946617126,0.2703832983970642,-0.7023767828941345,0.1803194731473922,0.2427618950605392,0.0,0.0,-0.9877922534942628,-0.3582938909530639
0.0278031341731548,0.6955692172050476,0.283312976360321,-0.7090322971343994,0.1918649673461914,0.2309098243713379,0.0,0.0,-0.9413958787918092,-0.1813292503356933
0.0308742523193359,0.6794988512992859,0.2962331473827362,-0.7156859636306763,0.2028177082538604,0.2190549075603485,0.0,0.0,-0.8672468066215515,-0.0716912150382995
0.0340682975947856,0.6632786989212036,0.3091413974761963,-0.7223379611968994,0.2131776362657547,0.207198828458786,0.0,0.0,-0.9052962064743042,-0.5263234972953796
0.0373363494873046,0.6468930244445801,0.3158714175224304,-0.7298643589019775,0.2242212146520614,0.2208719998598098,0.0,0.0,-0.9027393460273744,-0.1388238668441772
0.0407269485294818,0.6303574442863464,0.3287487626075744,-0.7365154027938843,0.2346720993518829,0.2090181410312652,0.0,0.0,-0.9298593401908876,-0.6946404576301575
0.0441952720284462,0.6136474013328552,0.3359381556510925,-0.7444475293159485,0.245747372508049,0.2215058356523513,0.0,0.0,-0.7766082882881165,-0.4811232089996338
0.0477859489619731,0.5967873930931091,0.3487738966941833,-0.7510976791381836,0.2562304437160492,0.2096613347530365,0.0,0.0,-0.3955979347229004,-0.804139256477356
0.0514282211661338,0.5797458291053772,0.352708488702774,-0.7594576478004456,0.2680051326751709,0.235493391752243,0.0,0.0,0.5739306211471558,-0.1278616189956665
0.0549371726810932,0.563452422618866,0.3403714299201965,-0.7261102199554443,0.2787836492061615,0.2155712395906448,0.0,0.0,0.4065291881561279,0.0938069820404052
0.0584468841552734,0.547783613204956,0.3409442603588104,-0.6983413696289062,0.2890925109386444,0.2061769962310791,0.0,0.0,0.1594469547271728,-0.0042476654052734
0.0618222244083881,0.5327775478363037,0.3285075426101684,-0.6687527894973755,0.2983928918838501,0.1860083192586898,0.0,0.0,0.1474208831787109,0.2432190179824829
0.0652493461966514,0.5182180404663086,0.3340460658073425,-0.6488880515098572,0.3073397874832153,0.17893847823143,0.0,0.0,-0.2230603098869323,0.3743925094604492
0.0687968283891677,0.5035074353218079,0.3466833233833313,-0.6555318236351013,0.315697968006134,0.1671638786792755,0.0,0.0,-0.4046575427055359,-0.147792100906372
0.0724642723798751,0.4886455535888672,0.3592753112316131,-0.6621742844581604,0.3234682977199554,0.1554063260555267,0.0,0.0,0.7319715023040771,0.6173305511474609
0.0761519446969032,0.4741385281085968,0.3631556630134582,-0.6460207104682922,0.3293108344078064,0.1168506890535354,0.0,0.0,0.2660486698150635,-0.731906533241272
0.0796994194388389,0.4603173732757568,0.3482924401760101,-0.6157575249671936,0.3360467851161957,0.1347188651561737,0.0,0.0,0.1231663227081298,0.0199745893478393
0.083233930170536,0.4471568763256073,0.3473345637321472,-0.5863522291183472,0.3424495458602905,0.1280551552772522,0.0,0.0,0.1591423749923706,-0.0423510074615478
0.0866197571158409,0.4346150159835815,0.3333815336227417,-0.558661162853241,0.3479043841361999,0.1090969070792198,0.0,0.0,0.1556853055953979,-0.5362752079963684
0.0899120345711708,0.422170341014862,0.3237145543098449,-0.5544414520263672,0.3536999523639679,0.1159111857414245,0.0,0.0,0.4444658756256103,0.1520177125930786
0.0931147560477256,0.4105646014213562,0.3151620328426361,-0.5170791149139404,0.3590775728225708,0.1075523346662521,0.0,0.0,0.41164231300354,0.6620383262634277
0.0962200164794921,0.3994743525981903,0.307435005903244,-0.4936780631542206,0.3623444437980652,0.0653373971581459,0.0,0.0,0.6929950714111328,0.0810427665710449
0.0991418808698654,0.3891761600971222,0.2898785769939422,-0.4582798779010772,0.3647735118865967,0.0485814586281776,0.0,0.0,0.63631272315979,0.5755372047424316
0.1019605621695518,0.3797162771224975,0.2812661528587341,-0.4205942451953888,0.3654083907604217,0.0126977637410163,0.0,0.0,0.7234876155853271,-0.4179882407188415
0.1047606468200683,0.3710030317306518,0.2795612215995788,-0.3873727917671203,0.3658895790576935,0.0096235889941453,0.0,0.0,0.7176272869110107,-0.4221917390823364
0.107568934559822,0.3626490533351898,0.280803233385086,-0.3712929189205169,0.3659122288227081,0.000453043176094,0.0,0.0,0.5871148109436035,-0.5609342455863953
0.1103994399309158,0.3547084927558899,0.2822604179382324,-0.3531176149845123,0.3667572140693664,0.0168995223939418,0.0,0.0,0.5085117816925049,-0.5642784237861633
0.1132473945617675,0.3473997116088867,0.2831180691719055,-0.3252621591091156,0.3685323894023895,0.0355035960674285,0.0,0.0,0.4615397453308105,-0.914807677268982
0.1161438971757888,0.3404572308063507,0.2865922749042511,-0.3093456625938415,0.3717669546604156,0.0646911486983299,0.0,0.0,0.3654232025146484,-0.8968587517738342
0.1188501343131065,0.3341950178146362,0.2663772702217102,-0.2794323265552521,0.3762720227241516,0.0901011675596237,0.0,0.0,0.7977559566497803,-0.831473708152771
0.1213313117623329,0.3289224505424499,0.2427408397197723,-0.235763594508171,0.3819895982742309,0.1143519878387451,0.0,0.0,0.595404863357544,-0.9339179396629332
0.1237338036298751,0.3244325816631317,0.2334478199481964,-0.2013875693082809,0.3892297148704529,0.1448023468255996,0.0,0.0,0.4972087144851684,-0.8794103860855103
0.1261609047651291,0.3202123641967773,0.2346206158399582,-0.1897972226142883,0.3978627920150757,0.1726612746715545,0.0,0.0,0.5689599514007568,-0.9104576706886292
0.1283849775791168,0.3164329528808594,0.2131633013486862,-0.1705918163061142,0.4077659845352173,0.198063850402832,0.0,0.0,0.6194586753845215,-0.9587209224700928
0.130386546254158,0.3136883676052093,0.1895527243614196,-0.1250807344913482,0.4191995859146118,0.2286717444658279,0.0,0.0,0.2093950510025024,-0.9411838054656982
0.1322304755449295,0.3113062679767608,0.1725361049175262,-0.1094462797045707,0.4320436418056488,0.2568811774253845,0.0,0.0,0.4458694458007812,-0.6927232146263123
0.1337178200483322,0.3096181154251098,0.136329635977745,-0.0789051428437233,0.4455791413784027,0.2707097828388214,0.0,0.0,-0.1822626590728759,-0.691964328289032
0.1352554261684417,0.3077528178691864,0.1407949030399322,-0.0871027782559394,0.4598146677017212,0.2847107350826263,0.0,0.0,-0.1041680574417114,-0.0256759524345397
0.1368839293718338,0.3057370781898498,0.150443285703659,-0.0937507152557373,0.4735259711742401,0.2742262184619903,0.0,0.0,-0.1353084444999694,-0.5861362218856812
0.1385533362627029,0.3035388886928558,0.1538246572017669,-0.1022457256913185,0.4881115853786468,0.2917124629020691,0.0,0.0,0.0301560163497924,-0.7560346722602844
0.1400957107543945,0.3015455305576324,0.1402800232172012,-0.0936192795634269,0.5037742853164673,0.3132537305355072,0.0,0.0,-0.3635096549987793,-0.7426343560218811
0.1416604965925216,0.2993530035018921,0.1414302736520767,-0.1030773669481277,0.5208028554916382,0.3405709564685821,0.0,0.0,-0.1807060837745666,-0.0679181814193725
0.1433056890964508,0.2970107495784759,0.1500512510538101,-0.1097299978137016,0.5373344421386719,0.3306313455104828,0.0,0.0,-0.0015119910240173,-0.2343207597732544
0.1450285911560058,0.2945185005664825,0.1583823263645172,-0.1163809671998024,0.5533771514892578,0.3208540081977844,0.0,0.0,-0.2022428512573242,0.330254316329956
0.1468261778354644,0.2918759882450104,0.1664112955331802,-0.1230304241180419,0.5689396262168884,0.3112492263317108,0.0,0.0,0.4401346445083618,-0.1534734368324279
0.1484438925981521,0.2900257706642151,0.1484536081552505,-0.0879983156919479,0.5846158266067505,0.3135239481925964,0.0,0.0,-0.7389715313911438,0.4489190578460693
0.1501302719116211,0.2880252003669739,0.1558437347412109,-0.0946464240550994,0.599830687046051,0.3042974472045898,0.0,0.0,-0.1635276675224304,-0.2302885055541992
0.1518821716308593,0.2858739197254181,0.1628965586423874,-0.1012933552265167,0.6145945191383362,0.2952783703804016,0.0,0.0,-0.4416985511779785,0.7853326797485352
0.153752326965332,0.2836311757564544,0.1767928302288055,-0.1045516058802604,0.6270039677619934,0.2481893599033355,0.0,0.0,0.1227116584777832,0.7369546890258789
0.1553950309753418,0.2819619178771972,0.1557862162590026,-0.0783208310604095,0.6373698711395264,0.2073179483413696,0.0,0.0,-0.5800184011459351,0.3214898109436035
0.1570934355258941,0.2801408767700195,0.1617578864097595,-0.0849595218896865,0.6473197340965271,0.198998361825943,0.0,0.0,-0.2997556328773498,0.8231580257415771
0.1589032113552093,0.2782298326492309,0.1749275922775268,-0.0880089253187179,0.654839277267456,0.1503903567790985,0.0,0.0,-0.7183993458747864,0.4907329082489013
0.1607618331909179,0.276166558265686,0.180134892463684,-0.0946449860930442,0.6619694828987122,0.1426039487123489,0.0,0.0,-0.652319610118866,-0.4601502418518066
0.1626650840044021,0.2739510536193847,0.1849502176046371,-0.1012811958789825,0.668724775314331,0.1351059377193451,0.0,0.0,-0.5098792314529419,0.2415353059768676
0.1646095216274261,0.2715833187103271,0.1893674731254577,-0.1079176738858223,0.6751203536987305,0.1279118359088897,0.0,0.0,-0.3951312303543091,0.3275643587112427
0.166591078042984,0.2690634727478027,0.1933815479278564,-0.1145545169711113,0.681172251701355,0.1210374385118484,0.0,0.0,-0.6720353960990906,0.7377877235412598
0.1686628311872482,0.2664519548416137,0.2042137384414672,-0.1176726073026657,0.6849364638328552,0.0752844661474227,0.0,0.0,-0.6514663696289062,-0.1153106689453125
0.1707638800144195,0.2636882662773132,0.2074092328548431,-0.1243092864751815,0.6883912682533264,0.0690963417291641,0.0,0.0,-0.3481259942054748,0.3153138160705566
0.1728905737400055,0.2607725858688354,0.2101931571960449,-0.1309467107057571,0.6915549635887146,0.0632744804024696,0.0,0.0,-0.7100200653076172,0.7352538108825684
0.1750907003879547,0.2577588558197021,0.2191463261842727,-0.1344242691993713,0.6926705837249756,0.0223119221627712,0.0,0.0,-0.6230542063713074,-0.1207470893859863
