x_pos,y_pos,x_vel,y_vel,angle,ang_vel,leg_1,leg_2,main_booster,lat_booster
-0.0015138626331463,1.403477430343628,-0.1532294899225235,-0.3307912647724151,0.0016455425648018,0.0324513837695121,0.0,0.0,-0.3975229499501709,-0.5032744701746728
-0.0030554770492017,1.3959081172943115,-0.1565746217966079,-0.3364182412624359,0.0040414868853986,0.0479241497814655,0.0,0.0,0.6190264199819424,-0.8658465497165628
-0.0045130727812647,1.3887791633605957,-0.1500502675771713,-0.3168535530567169,0.0082843359559774,0.0848646461963653,0.0,0.0,0.5141721130037444,0.7935972317342945
-0.006026935763657,1.382186770439148,-0.1537620723247528,-0.2930149137973785,0.0106305321678519,0.0469284206628799,0.0,0.0,-0.8525103864204324,0.971640442855024
-0.0074423789046704,1.375451683998108,-0.1414496749639511,-0.2993417084217071,0.0105363270267844,-0.0018842719728127,0.0,0.0,0.8898665599382676,0.8204940567462998
-0.0086233140900731,1.369503617286682,-0.1166313737630844,-0.2643428146839142,0.0090949432924389,-0.0288305021822452,0.0,0.0,0.1995370739776594,0.9406211884380132
-0.0097491266205906,1.3640379905700684,-0.1091288924217224,-0.2428956478834152,0.0056806947104632,-0.0682914108037948,0.0,0.0,-0.2946115872983321,0.8995733726655923
-0.0107833864167332,1.358429193496704,-0.0976229459047317,-0.2492802590131759,-5.350034189177677e-05,-0.1146943569183349,0.0,0.0,-0.5390135840326904,-0.6663617783473472
-0.0118685718625783,1.3526806831359863,-0.1039901599287986,-0.2554987668991089,-0.0045358845964074,-0.0896558091044426,0.0,0.0,-0.5175175445238476,-0.6980262504706575
-0.0130070690065622,1.346789836883545,-0.1106304377317428,-0.2618268728256225,-0.0077264155261218,-0.0638164058327674,0.0,0.0,-0.3438501776673501,-0.9437393943979762
-0.0142084117978811,1.340753197669983,-0.1184376329183578,-0.2682978212833404,-0.0094030173495411,-0.0335349328815937,0.0,0.0,0.2076581915416122,-0.6739889388208179
-0.0154010774567723,1.335147261619568,-0.1189206689596176,-0.2491538971662521,-0.0097415503114461,-0.0067711709998548,0.0,0.0,-0.6296392448096932,-0.5324100903219224
-0.0166270248591899,1.329397201538086,-0.1230009570717811,-0.2555519640445709,-0.0093350810930132,0.008130082860589,0.0,0.0,-0.062047100057345,0.7785249770342176
-0.0177854541689157,1.3234920501708984,-0.1144361123442649,-0.2624666690826416,-0.0107283806428313,-0.0278686825186014,0.0,0.0,0.907838051894574,-0.6730255365306953
-0.0188126564025878,1.318872332572937,-0.1030588001012802,-0.2053110003471374,-0.0104056941345334,0.006454745773226,0.0,0.0,0.9324496942094348,0.6584782482023052
-0.0196487419307231,1.314616322517395,-0.0829048231244087,-0.189166784286499,-0.0110975056886672,-0.0138372154906392,0.0,0.0,0.7878187825374754,-0.9525848497028336
-0.0203855521976947,1.3116111755371094,-0.075100190937519,-0.133555069565773,-0.0096980324015021,0.0279917772859334,0.0,0.0,0.7400800437495765,0.9403882803172552
-0.0208795554935932,1.3090389966964722,-0.0491216890513896,-0.1143199652433395,-0.0099696163088083,-0.0054322094656527,0.0,0.0,-0.711964724968932,0.7873666435319201
-0.0213042255491018,1.306326150894165,-0.0402944535017013,-0.1205904707312583,-0.0121166007593274,-0.0429437384009361,0.0,0.0,-0.3361722891591252,-0.7374363764740823
-0.0217982288450002,1.3034669160842896,-0.0488428547978401,-0.1270789504051208,-0.0126601494848728,-0.0108722513541579,0.0,0.0,-0.4448454065687341,-0.7033576580758572
-0.0223393440246582,1.3004666566848757,-0.0546269491314888,-0.1333456486463546,-0.0121576376259326,0.0100510772317647,0.0,0.0,0.5352027978878366,-0.6529628865486541
-0.0229189880192279,1.2979328632354736,-0.0597553476691246,-0.1126000732183456,-0.0103837335482239,0.0354813821613788,0.0,0.0,0.3408017431992836,0.7868098718116366
-0.0233168601989746,1.2959105968475342,-0.0401032269001007,-0.0898734629154205,-0.0100689176470041,0.0062968833371996,0.0,0.0,0.2860053626412766,0.7017957606807743
-0.0235997196286916,1.2940959930419922,-0.0272476486861705,-0.0806532576680183,-0.0111025962978601,-0.0206752177327871,0.0,0.0,-0.9593539566649948,0.8304168887617083
-0.023836325854063,1.2921358346939087,-0.021287640556693,-0.0871395692229271,-0.0134386410936713,-0.0467249229550361,0.0,0.0,0.2597777399481542,-0.5456174218374936
-0.0242342948913574,1.2908185720443726,-0.038238663226366,-0.058561585843563,-0.0149787459522485,-0.0308023355901241,0.0,0.0,0.4231968268256849,-0.6963940225305296
-0.0246781352907419,1.2902982234954834,-0.0441910102963447,-0.0231280382722616,-0.015162126161158,-0.0036677711177617,0.0,0.0,-0.2076528456876207,-0.7202294046600832
-0.0251947399228811,1.2896398305892944,-0.053215779364109,-0.0292470548301935,-0.0136338025331497,0.0305666085332632,0.0,0.0,0.6528097970850051,-0.9609537065760834
-0.0259272567927837,1.2900090217590332,-0.0765159279108047,0.0164407007396221,-0.0104127693921327,0.0644207224249839,0.0,0.0,0.8742585229736275,-0.9357607214582968
-0.0267577171325683,1.2910592555999756,-0.0881239622831344,0.046699833124876,-0.0054023116827011,0.1002091318368911,0.0,0.0,0.7034607321402888,-0.8029096150645234
-0.0276286117732524,1.2932815551757812,-0.093806006014347,0.0987769290804863,0.0012213172158226,0.1324726492166519,0.0,0.0,-0.4978915452957153,0.8744997978210449
-0.0284420009702444,1.2953519821166992,-0.0864899232983589,0.0920133963227272,0.0063101444393396,0.1017767041921615,0.0,0.0,-0.3423150181770324,0.7904924154281616
-0.0292037017643451,1.29728364944458,-0.0799333900213241,0.0858304649591445,0.0100244525820016,0.0742863044142723,0.0,0.0,-0.1956816911697387,0.1878998279571533
-0.0299673080444335,1.2990683317184448,-0.0801099985837936,0.0792900696396827,0.0137233640998601,0.0739781707525253,0.0,0.0,-0.3328964710235595,0.4926657676696777
-0.0307324416935443,1.300706148147583,-0.0802452787756919,0.0727496966719627,0.0174092296510934,0.0737172365188598,0.0,0.0,-0.2723425030708313,0.6057174205780029
-0.0314492210745811,1.3022027015686035,-0.0741448327898979,0.0664829909801483,0.0198429990559816,0.0486752465367317,0.0,0.0,-0.1356178522109985,0.1983219385147094
-0.0321665778756141,1.3035521507263184,-0.0741847977042198,0.0599432587623596,0.0222680810838937,0.0485016219317913,0.0,0.0,-0.168591022491455,0.0067200660705566
-0.0328837409615516,1.304754614830017,-0.0741709470748901,0.0534035302698612,0.0246864762157201,0.0483680702745914,0.0,0.0,-0.0104502439498901,-0.473380446434021
-0.0336003303527832,1.3058100938796997,-0.0740993469953537,0.0468638017773628,0.0271000787615776,0.0482720993459224,0.0,0.0,-0.1513578295707702,-0.2412523031234741
-0.0343155860900878,1.306718349456787,-0.0739661529660224,0.0403240695595741,0.029510648921132,0.0482112728059291,0.0,0.0,-0.4002571105957031,0.1258561611175537
-0.035028837621212,1.3074796199798584,-0.0737676694989204,0.0337843336164951,0.0319197960197925,0.0481830015778541,0.0,0.0,-0.423416256904602,0.1298885345458984
-0.0357394218444824,1.308093786239624,-0.0735003277659416,0.0272445920854806,0.034329030662775,0.0481847524642944,0.0,0.0,-0.5460067987442017,0.0867607593536377
-0.0364465713500976,1.3085609674453735,-0.0731607228517532,0.0207048486918211,0.0367397107183933,0.0482139363884925,0.0,0.0,-0.6427249312400818,0.4537006616592407
-0.0371496193110942,1.3088810443878174,-0.0727455765008926,0.0141651015728712,0.03915311768651,0.0482680201530456,0.0,0.0,-0.6391543745994568,-0.0483620166778564
-0.0378476157784462,1.3090540170669556,-0.0722518116235733,0.0076253488659858,0.0415703281760215,0.0483443960547447,0.0,0.0,-0.6576212644577026,0.0045396089553833
-0.0385398864746093,1.3090801239013672,-0.0716764628887176,0.0010855901055037,0.0439923405647277,0.048440434038639,0.0,0.0,-0.5778833627700806,0.2284979820251464
-0.0392255783081054,1.3089590072631836,-0.0710167810320854,-0.0054541751742362,0.0464200340211391,0.0485536083579063,0.0,0.0,-0.7854993939399719,-0.0722159743309021
-0.0399035438895225,1.3086910247802734,-0.0702701956033706,-0.0119939465075731,0.0488540790975093,0.0486812852323055,0.0,0.0,-0.7208376526832581,-0.4595247507095337
-0.0405732169747352,1.308275818824768,-0.0694343000650405,-0.0185337252914905,0.0512951351702213,0.0488209500908851,0.0,0.0,-0.816797137260437,0.6454039812088013
-0.0411842353641986,1.307715654373169,-0.0623251385986804,-0.024944769218564,0.052504789084196,0.0241930745542049,0.0,0.0,-0.8270304203033447,-0.0477045774459838
-0.0417849533259868,1.3070082664489746,-0.0613043010234832,-0.0314841791987419,0.0537222400307655,0.0243491847068071,0.0,0.0,-0.9102343320846558,0.2230528593063354
-0.0423744209110736,1.306153655052185,-0.060188204050064,-0.0380235947668552,0.054947730153799,0.0245097838342189,0.0,0.0,-0.8964878916740417,0.2514183521270752
-0.0429516807198524,1.3051520586013794,-0.0589752718806266,-0.0445630140602588,0.0561813414096832,0.0246724411845207,0.0,0.0,-0.952173113822937,0.6729745864868164
-0.0434625633060932,1.3040140867233276,-0.0509796515107154,-0.0505753643810749,0.0560753233730793,-0.002120726974681,0.0,0.0,-0.7485665678977966,0.7840638160705566
-0.0438818931579589,1.3027324676513672,-0.0398614257574081,-0.0568828247487545,0.0540313012897968,-0.0408805422484874,0.0,0.0,-0.9230589270591736,-0.0992085337638855
-0.0442859642207622,1.3013038635253906,-0.0383506938815116,-0.0634224712848663,0.0519949942827224,-0.0407260619103908,0.0,0.0,-0.970832884311676,-0.1443749666213989
-0.0446738228201866,1.2997281551361084,-0.0367390103638172,-0.0699620991945266,0.0499660372734069,-0.0405789501965045,0.0,0.0,-0.9625600576400756,-0.107246458530426
-0.0450446121394634,1.2980053424835205,-0.0350259020924568,-0.0765017196536064,0.0479439720511436,-0.0404414236545562,0.0,0.0,-0.973291039466858,0.3679147958755493
-0.0453970916569232,1.2961355447769165,-0.0332111231982708,-0.0830413401126861,0.0459281839430332,-0.0403156951069831,0.0,0.0,-0.9839599132537842,0.5280423164367676
-0.045694064348936,1.2941256761550903,-0.0267331060022115,-0.0892361104488372,0.0429994389414787,-0.0585749149322509,0.0,0.0,-0.96527498960495,0.1625139713287353
-0.0459708198904991,1.291968822479248,-0.0247150622308254,-0.095776081085205,0.0400754921138286,-0.0584790594875812,0.0,0.0,-0.9928953051567078,-0.3314371109008789
-0.0462263114750385,1.2896649837493896,-0.0225958991795778,-0.1023160517215728,0.0371554307639598,-0.0584011897444725,0.0,0.0,-0.9945954084396362,-0.1162763237953186
-0.046459674835205,1.2872141599655151,-0.0203762240707874,-0.1088560298085212,0.0342382676899433,-0.0583433136343956,0.0,0.0,-0.9726654887199402,-0.0162416100502014
-0.0466696731746196,1.2846163511276243,-0.018056858330965,-0.1153959929943084,0.0313228890299797,-0.0583073273301124,0.0,0.0,-0.9494767785072328,0.3406864404678345
-0.0468556396663188,1.2818714380264282,-0.0156388245522975,-0.1219359561800956,0.0284081418067216,-0.0582950636744499,0.0,0.0,-0.9934561848640442,0.233469009399414
-0.0470163337886333,1.2789794206619265,-0.0131233381107449,-0.1284759193658828,0.0254927147179842,-0.0583083219826221,0.0,0.0,-0.964596390724182,-0.4794802665710449
-0.0471509918570518,1.2759405374526978,-0.010511802509427,-0.1350158751010894,0.0225752908736467,-0.0583488270640373,0.0,0.0,-0.989027738571167,-0.377716064453125
-0.0472585670650005,1.2727545499801636,-0.0078058056533336,-0.1415558159351349,0.0196543671190738,-0.0584182515740394,0.0,0.0,-0.9993678331375122,-0.4209189414978027
-0.0473382957279682,1.2694216966629028,-0.0050071072764694,-0.1480957716703415,0.0167284626513719,-0.0585181713104248,0.0,0.0,-0.9827933311462402,0.2649188041687011
-0.0473892204463481,1.2659417390823364,-0.0021176333539187,-0.1546357125043869,0.0137959588319063,-0.0586501434445381,0.0,0.0,-0.9966623783111572,-0.1243376731872558
-0.0474103912711143,1.2623146772384644,0.0008605316397733,-0.1611756682395935,0.0108551839366555,-0.0588155500590801,0.0,0.0,-0.9978069067001344,-0.4921857118606567
-0.047400951385498,1.2585406303405762,0.0039251539856195,-0.1677156090736389,0.0079043786972761,-0.0590159073472023,0.0,0.0,-0.9970780611038208,0.101574420928955
-0.0473602302372455,1.254619598388672,0.0070738596841692,-0.1742555797100067,0.0049417470581829,-0.0592524409294128,0.0,0.0,-0.9956777691841124,0.4932880401611328
-0.0472873672842979,1.2505515813827517,0.0103041408583521,-0.1807955652475357,0.0019654280040413,-0.0595264509320259,0.0,0.0,-0.9822384119033812,-0.2595338225364685
-0.0471816062927246,1.246336579322815,0.0136133702471852,-0.1873355358839035,-0.0010265127057209,-0.0598390698432922,0.0,0.0,-0.9889615774154664,0.5117220878601074
-0.0469970703125,1.241969108581543,0.022653417661786,-0.1941199451684951,-0.0051686102524399,-0.0828417688608169,0.0,0.0,-0.9987746477127076,0.114579439163208
-0.046778105199337,1.2374546527862549,0.0261121783405542,-0.2006606310606002,-0.0093303332105278,-0.0832348316907882,0.0,0.0,-0.9902719855308532,0.5673255920410156
-0.0464797988533973,1.2327978610992432,0.0351994708180427,-0.207007959485054,-0.014626189135015,-0.1059168800711631,0.0,0.0,-0.996466875076294,-0.3660211563110351
-0.0461457259953022,1.2279945611953735,0.0387959219515323,-0.2135495990514755,-0.01994588971138,-0.1063939556479454,0.0,0.0,-0.9742552042007446,-0.8164312839508057
-0.0458518043160438,1.2230546474456787,0.0328522734344005,-0.2195988148450851,-0.0233648605644702,-0.0683794096112251,0.0,0.0,-0.9976530075073242,0.0322268009185791
-0.0455209724605083,1.2179677486419678,0.0365739166736602,-0.226139098405838,-0.0268120542168617,-0.068943865597248,0.0,0.0,-0.9669005870819092,0.2611217498779297
-0.0451526641845703,1.2127339839935305,0.0403532460331916,-0.2326794117689132,-0.0302896928042173,-0.0695528835058212,0.0,0.0,-0.9860965013504028,-0.3993148803710937
-0.0447463989257812,1.2073532342910769,0.0441868975758552,-0.2392197549343109,-0.0338000319898128,-0.0702069401741027,0.0,0.0,-0.9918152093887328,0.5577576160430908
-0.0442613586783409,1.201826095581055,0.0531081557273864,-0.2457693964242935,-0.0383535809814929,-0.091070719063282,0.0,0.0,-0.9792683720588684,-0.0629929304122924
-0.0437375083565712,1.1961519718170166,0.0570400543510913,-0.2523104548454284,-0.0429443754255771,-0.0918158963322639,0.0,0.0,-0.97859525680542,-0.9316572546958924
-0.0432372093200683,1.190335035324097,0.0531124398112297,-0.2586177587509155,-0.0459896363317966,-0.060904961079359,0.0,0.0,-0.9556772112846376,-0.2725640535354614
-0.0426971428096294,1.1843712329864502,0.0571284964680671,-0.26515793800354,-0.0490767545998096,-0.0617422759532928,0.0,0.0,-0.9783276915550232,-0.1655383110046386
-0.0421170219779014,1.178260326385498,0.0611811354756355,-0.2716981768608093,-0.05220802500844,-0.0626255422830581,0.0,0.0,-0.9228900671005248,-0.5430172681808472
-0.0415289886295795,1.1720050573349,0.0611972287297248,-0.2781032621860504,-0.0545692667365074,-0.0472246930003166,0.0,0.0,-0.827507495880127,-0.4564021825790405
-0.0409003272652626,1.165602445602417,0.0653118640184402,-0.2846432030200958,-0.0569792613387107,-0.0482000336050987,0.0,0.0,-0.8856038451194763,-0.8713550567626953
-0.0402998924255371,1.1590652465820312,0.0607565157115459,-0.2905701100826263,-0.0576885566115379,-0.0141859110444784,0.0,0.0,-0.739780843257904,-0.5251370668411255
-0.0396975502371788,1.152388334274292,0.0599950179457664,-0.2967427670955658,-0.0574589110910892,0.004592883400619,0.0,0.0,-0.8970422744750977,-0.551439642906189
-0.0390886291861534,1.1455693244934082,0.059845894575119,-0.3030241727828979,-0.0564138926565647,0.0209003444761037,0.0,0.0,-0.860236644744873,-0.0791856050491333
-0.0384382233023643,1.1386033296585083,0.0640382170677185,-0.3095637857913971,-0.0554266348481178,0.0197450555860996,0.0,0.0,-0.8150216341018677,-0.3913953304290771
-0.0377465263009071,1.1314901113510132,0.068240001797676,-0.3161033987998962,-0.0544993244111537,0.0185462087392807,0.0,0.0,-0.9130927920341492,-0.2541137933731079
-0.0370132438838481,1.124229907989502,0.0724471360445022,-0.322642982006073,-0.0536340996623039,0.0173045918345451,0.0,0.0,-0.7807544469833374,-0.1612170934677124
-0.0362385734915733,1.1168227195739746,0.0766554251313209,-0.3291825950145721,-0.0528330616652965,0.0160210914909839,0.0,0.0,-0.7681598663330078,-0.2612800002098083
-0.0354225151240825,1.1092684268951416,0.0808606296777725,-0.3357222378253937,-0.0520982295274734,0.0146966921165585,0.0,0.0,-0.9541316032409668,-0.2995593547821045
-0.0345651619136333,1.1015669107437134,0.0850584357976913,-0.3422618210315704,-0.0514316037297248,0.0133325206115841,0.0,0.0,-0.8641691207885742,-0.8827201128005981
-0.0337424278259277,1.0937306880950928,0.0797348693013191,-0.3481906652450561,-0.0489213243126869,0.0502058267593383,0.0,0.0,-0.8642311096191406,0.1480951309204101
-0.0328786857426166,1.085747480392456,0.0839045345783233,-0.3547307252883911,-0.0464830435812473,0.0487655811011791,0.0,0.0,-0.8879060745239258,-0.2536556720733642
-0.0319742187857627,1.0776172876358032,0.0880533307790756,-0.3612707555294037,-0.0441185869276523,0.0472893044352531,0.0,0.0,-0.8332667946815491,-0.6508328914642334
-0.0310906413942575,1.069344997406006,0.0844717696309089,-0.367555022239685,-0.0402838960289955,0.0766939371824264,0.0,0.0,-0.7759096622467041,0.3685111999511719
-0.0301669128239154,1.0609257221221924,0.0885646939277648,-0.3740957677364349,-0.0365264043211936,0.0751499682664871,0.0,0.0,-0.5912696123123169,0.1998199224472046
-0.0292035099118948,1.0523593425750732,0.0926224365830421,-0.3806363940238952,-0.0328476838767528,0.0735745355486869,0.0,0.0,-0.6175909042358398,-0.5275289416313171
-0.028238296508789,1.043643355369568,0.0919281393289566,-0.3872787654399872,-0.0283073633909225,0.0908061861991882,0.0,0.0,-0.7519948482513428,-0.4771518111228943
-0.0272340774536132,1.0347806215286257,0.0959004312753677,-0.3938199579715729,-0.0238487161695957,0.0891730859875679,0.0,0.0,-0.8234060406684875,0.0451123714447021
-0.026191521435976,1.025771141052246,0.0998222231864929,-0.400361031293869,-0.0194730218499898,0.0875139459967613,0.0,0.0,-0.9513763785362244,0.4354007244110107
-0.0251112934201955,1.0166146755218506,0.1036881804466247,-0.406902015209198,-0.015181478112936,0.0858307629823684,0.0,0.0,-0.9286442399024964,-0.5341722369194031
-0.024030590429902,1.0073124170303345,0.10286146402359,-0.4133939743041992,-0.010047547519207,0.10267885774374,0.0,0.0,-0.626494288444519,0.3391057252883911
-0.0229134559631347,0.9978632926940918,0.1065991297364234,-0.4199355542659759,-0.0049998830072581,0.1009535416960716,0.0,0.0,-0.8360279202461243,-0.2753833532333374
-0.0217605587095022,0.988267421722412,0.1102641001343727,-0.4264769554138183,-3.935663698939607e-05,0.0992104113101959,0.0,0.0,-0.8973999619483948,0.0363826751708984
-0.0205727573484182,0.9785246253013612,0.1138504892587661,-0.4330182671546936,0.0048332260921597,0.0974517315626144,0.0,0.0,-0.8140758275985718,-0.2397764921188354
-0.0193507187068462,0.968635082244873,0.1173522621393203,-0.4395594894886017,0.0096172140911221,0.0956797152757644,0.0,0.0,-0.901409924030304,-0.7543492913246155
-0.0181679725646972,0.9585957527160645,0.1116782277822494,-0.4462470114231109,0.0161319226026535,0.130294069647789,0.0,0.0,-0.8977199196815491,0.3327242136001587
-0.0169529914855957,0.9484097957611084,0.1149921640753746,-0.4527896642684936,0.0225570481270551,0.1285023987293243,0.0,0.0,-0.867675244808197,0.3809717893600464
-0.0157068260014057,0.9380772113800048,0.1182025894522667,-0.4593321681022644,0.0288922991603612,0.1267046630382537,0.0,0.0,-0.8832967877388,-0.4159489870071411
-0.0144305229187011,0.927597999572754,0.1213029623031616,-0.465874582529068,0.0351374633610248,0.1249034032225608,0.0,0.0,-0.9204649329185486,0.2229337692260742
-0.0131254196166992,0.9169721603393556,0.1242865920066833,-0.4724168479442596,0.0412925221025943,0.1231011748313903,0.0,0.0,-0.9333811402320862,0.449702501296997
-0.0117925647646188,0.9061996936798096,0.1271467059850692,-0.4789589941501617,0.0473575517535209,0.121300533413887,0.0,0.0,-0.8914682269096375,0.1634113788604736
-0.0104332920163869,0.8952804803848267,0.1298764795064926,-0.4855009317398071,0.0533327497541904,0.119504190981388,0.0,0.0,-0.882713258266449,0.032297134399414
