x_pos,y_pos,x_vel,y_vel,angle,ang_vel,leg_1,leg_2,main_booster,lat_booster
-0.0016227721935138,1.4032081365585327,-0.1644042432308197,-0.342752456665039,0.0019013524288311,0.0375166237354278,0.0,0.0,0.7156252424008767,-0.6067884144737486
-0.0033358572982251,1.3958187103271484,-0.1746159940958023,-0.3284250199794769,0.0051744789816439,0.0654690861701965,0.0,0.0,-0.9176483750369532,-0.9029537676424284
-0.0052035329863429,1.3880057334899902,-0.1915485709905624,-0.3472723662853241,0.0099009107798337,0.0945373848080635,0.0,0.0,0.4250969270340374,0.7001659062115975
-0.0072332383133471,1.3804198503494265,-0.2061872780323028,-0.337175190448761,0.0130864139646291,0.0637160092592239,0.0,0.0,-0.4160781464960901,-0.9085709452780624
-0.0094179157167673,1.372419357299805,-0.2231851518154144,-0.355618268251419,0.017751682549715,0.093313992023468,0.0,0.0,0.7461078389280569,-0.6571590134147263
-0.0116063114255666,1.3648661375045776,-0.2253318130970001,-0.3357966840267181,0.0241796467453241,0.1285710632801056,0.0,0.0,0.4524133710012303,-0.7347822768052272
-0.0139849660918116,1.35765540599823,-0.2458644658327102,-0.3206258416175842,0.0320869199931621,0.1581597626209259,0.0,0.0,0.7543027373962106,-0.8573727226950809
-0.0163759235292673,1.351067066192627,-0.2492069453001022,-0.2930623888969421,0.0420934595167636,0.2001494169235229,0.0,0.0,-0.2886854123544506,0.8029859522121041
-0.0188028328120708,1.344076156616211,-0.251292884349823,-0.3109716475009918,0.0506046265363693,0.1702388077974319,0.0,0.0,-0.2350857428199047,-0.6372313413793238
-0.0213772766292095,1.336670160293579,-0.2673855721950531,-0.3295113146305084,0.06044802069664,0.196886345744133,0.0,0.0,0.0493086261464752,-0.6719997468132941
-0.0240619666874408,1.329416275024414,-0.2798876464366913,-0.3228946030139923,0.0717595592141151,0.2262515127658844,0.0,0.0,0.0158116516239437,0.9008366003740188
-0.0267436988651752,1.322244644165039,-0.2778443396091461,-0.3192234337329864,0.0813467279076576,0.1917608082294464,0.0,0.0,0.9262960146216428,-0.7327729901635258
-0.0294814109802246,1.315894365310669,-0.2853675782680511,-0.2829025685787201,0.0928606390953064,0.2302991151809692,0.0,0.0,-0.3100652755014903,0.7697132728168135
-0.0322464928030967,1.3091316223144531,-0.2864522039890289,-0.3012169599533081,0.1027385145425796,0.1975750178098678,0.0,0.0,0.4789543843878938,-0.985907872815352
-0.0351161956787109,1.3030757904052734,-0.2990712523460388,-0.2700218558311462,0.114779382944107,0.240839272737503,0.0,0.0,0.2433205560872728,-0.6455344865356327
-0.0380641929805278,1.29693865776062,-0.3084108233451843,-0.2738648951053619,0.1283297538757324,0.2710318267345428,0.0,0.0,0.1275770656394232,-0.8152256262990539
-0.0411370284855365,1.2912746667861938,-0.3226297795772552,-0.2531283795833587,0.1436386406421661,0.3062059283256531,0.0,0.0,-0.0698360998534579,0.6432097028402723
-0.0442398078739643,1.2852050065994265,-0.3240784704685211,-0.271147072315216,0.1574307382106781,0.2758671343326568,0.0,0.0,-0.3783199153815615,0.9079997628785912
-0.0473531708121299,1.2787494659423828,-0.3230540156364441,-0.2881966233253479,0.1691803634166717,0.2350136339664459,0.0,0.0,-0.6914218282678322,-0.6484550125381501
-0.0506141670048236,1.271864891052246,-0.3393398225307464,-0.3075459897518158,0.1824702471494674,0.265822172164917,0.0,0.0,0.5645271023937075,0.7372871876399851
-0.0539066307246685,1.2656738758087158,-0.3412948250770569,-0.2766872942447662,0.1945970803499221,0.2425588369369506,0.0,0.0,0.9989661380671332,0.7035012702648182
-0.0573210716247558,1.2598726749420166,-0.3521773517131805,-0.2592798471450805,0.2054221332073211,0.2165205031633377,0.0,0.0,0.0966411070159427,-0.9153406053933438
-0.0608674064278602,1.2541956901550293,-0.3672346472740173,-0.2541188895702362,0.2181598991155624,0.254778116941452,0.0,0.0,-0.7753045089393089,0.7651886913872344
-0.0644328147172927,1.2481175661087036,-0.3674786388874054,-0.271787941455841,0.2292516082525253,0.2218539714813232,0.0,0.0,-0.2900064145789636,-0.9921041667591518
-0.068177506327629,1.2415951490402222,-0.3878740668296814,-0.2920294404029846,0.2428803145885467,0.2725983262062073,0.0,0.0,0.1003823721174967,-0.8901013116680594
-0.0722943320870399,1.2352592945098877,-0.4268757402896881,-0.2841747403144836,0.2583541572093963,0.309477299451828,0.0,0.0,-0.5781581712435895,-0.9718088091640872
-0.076567456126213,1.2284877300262451,-0.4444055557250976,-0.3040688633918762,0.2758422493934631,0.3497619926929474,0.0,0.0,0.0301568036386226,-0.7304033225739905
-0.0812079459428787,1.2219923734664917,-0.482503741979599,-0.2922746241092682,0.2948131561279297,0.3794182240962982,0.0,0.0,0.8364220733095378,0.7828071749004037
-0.0862709060311317,1.2162851095199585,-0.5228331685066223,-0.2571041882038116,0.3119229078292846,0.3421949446201324,0.0,0.0,-0.0617755531787693,-0.6547955023917649
-0.0914603248238563,1.2101387977600098,-0.5367859601974487,-0.2771112024784088,0.3304777145385742,0.3710961043834686,0.0,0.0,0.1764867493264859,0.6155713316119918
-0.0968614593148231,1.2044733762741089,-0.5567120313644409,-0.2556910812854767,0.3478485345840454,0.3474161624908447,0.0,0.0,-0.943588151040348,0.7996411274500307
-0.1022820472717285,1.1984189748764038,-0.5572605133056641,-0.2728392779827118,0.3638550937175751,0.3201311230659485,0.0,0.0,-0.774701308799957,0.8824325475502266
-0.1077181845903396,1.191991090774536,-0.557306706905365,-0.2892212569713592,0.3783423900604248,0.2897459864616394,0.0,0.0,0.1805447422385957,0.8403682174170366
-0.1133021339774131,1.1855093240737915,-0.5704058408737183,-0.2913185954093933,0.3911339938640594,0.2558323442935943,0.0,0.0,0.5638290568809337,-0.7736116562631502
-0.1192173957824707,1.179413676261902,-0.6050464510917664,-0.2747040688991546,0.4056006968021393,0.289334237575531,0.0,0.0,0.0953626281386714,-0.8972419740094589
-0.1254458427429199,1.1735689640045166,-0.6380230188369751,-0.2642015814781189,0.4219651520252228,0.3272895216941833,0.0,0.0,0.8367969584305843,0.7249848200441336
-0.1319162398576736,1.1680161952972412,-0.6607276201248169,-0.2509650886058807,0.4368064105510711,0.296825647354126,0.0,0.0,-0.2377901447008252,-0.7334470237735042
-0.1384930610656738,1.1620210409164429,-0.6725948452949524,-0.2711823284626007,0.4531152546405792,0.3261768221855163,0.0,0.0,-0.5689677777864783,0.6367050889248761
-0.1450826674699783,1.1556499004364014,-0.6726745367050171,-0.2876942455768585,0.4682123363018036,0.301942378282547,0.0,0.0,0.8341895865963516,-0.7746271243799441
-0.152050107717514,1.149751901626587,-0.7118992209434509,-0.2673336863517761,0.485039472579956,0.3365435302257538,0.0,0.0,-0.999465230613552,-0.7554745351017054
-0.1591273248195648,1.143398642539978,-0.7244272828102112,-0.2883547246456146,0.5037638545036316,0.3744879961013794,0.0,0.0,-0.985359251499176,0.9969441890716552
-0.1661642044782638,1.136698842048645,-0.7180342078208923,-0.3031252324581146,0.519989013671875,0.3245038986206054,0.0,0.0,-0.971929132938385,0.9971561431884766
-0.1731576919555664,1.1296436786651611,-0.7114502191543579,-0.3182565867900848,0.5338089466094971,0.2763985395431518,0.0,0.0,-0.9903485178947448,0.9972143173217772
-0.1801071166992187,1.122241497039795,-0.7048314809799194,-0.3329305052757263,0.5451918840408325,0.2276582717895507,0.0,0.0,-0.943223774433136,0.9931780099868774
-0.1870209723711013,1.1144707202911377,-0.6995598673820496,-0.3487043380737304,0.5546461343765259,0.1890849620103836,0.0,0.0,-0.9951497316360474,0.9974136352539062
-0.1938864737749099,1.106342077255249,-0.6927418112754822,-0.3638473153114319,0.5618476867675781,0.144032672047615,0.0,0.0,-0.9856850504875184,0.9888391494750975
-0.2007004767656326,1.0978609323501587,-0.6855964064598083,-0.3787079751491546,0.5667493343353271,0.0980326011776924,0.0,0.0,-0.9866424798965454,0.995419979095459
-0.2074832916259765,1.0890235900878906,-0.6809898018836975,-0.3939256966114044,0.5699169635772705,0.0633526369929313,0.0,0.0,-0.976276993751526,0.9863089323043824
-0.2142329663038253,1.079825758934021,-0.6762581467628479,-0.4093484878540039,0.5714365839958191,0.0303929802030324,0.0,0.0,-0.9351450204849244,0.9636895656585692
-0.2209305316209793,1.070267915725708,-0.669364333152771,-0.4246177971363067,0.570979118347168,-0.0091491257771849,0.0,0.0,-0.9823338389396667,0.9483885765075684
-0.2275567948818206,1.0603680610656738,-0.6601012349128723,-0.438918262720108,0.5680137872695923,-0.0593049898743629,0.0,0.0,-0.906141459941864,0.7491285800933838
-0.2341422587633133,1.0500986576080322,-0.6547633409500122,-0.4548141360282898,0.5635942816734314,-0.0883900448679924,0.0,0.0,-0.978568971157074,0.9459435939788818
-0.240649938583374,1.0394788980484009,-0.6449363827705383,-0.4695538878440857,0.5567944049835205,-0.1359976977109909,0.0,0.0,-0.8781452178955078,0.6075555086135864
-0.2471131831407547,1.0284857749938965,-0.639331042766571,-0.4857045114040375,0.5486794114112854,-0.1622998118400573,0.0,0.0,-0.93096661567688,0.552425742149353
-0.2535200119018554,1.0171173810958862,-0.6323712468147278,-0.5019046664237976,0.5390941500663757,-0.1917054504156112,0.0,0.0,-0.980301320552826,0.0132660865783691
-0.2599131166934967,1.005333662033081,-0.6309440732002258,-0.5204110741615295,0.5295012593269348,-0.1918583661317825,0.0,0.0,-0.9152471423149108,0.428837776184082
-0.2662886679172516,0.9931349158287048,-0.6291391849517822,-0.5389173626899719,0.5198976993560791,-0.1920715421438217,0.0,0.0,-0.9485958218574524,0.1874480247497558
-0.2726431488990783,0.9805206656455994,-0.6269665360450745,-0.5574235916137695,0.5102804899215698,-0.1923443078994751,0.0,0.0,-0.8902862071990967,0.4372804164886474
-0.278972864151001,0.9674912691116332,-0.6244369149208069,-0.5759297609329224,0.500646710395813,-0.1926758289337158,0.0,0.0,-0.842396080493927,0.8286898136138916
-0.2852273881435394,0.9540936350822448,-0.6154763102531433,-0.591849684715271,0.4894551336765289,-0.2238320112228393,0.0,0.0,-0.7455605268478394,0.4315204620361328
-0.291450560092926,0.9402812123298644,-0.612265944480896,-0.6103581190109253,0.4782412648200989,-0.2242772579193115,0.0,0.0,-0.7128618955612183,0.9282792806625366
-0.2975871562957763,0.9261001348495485,-0.6020514369010925,-0.6263154745101929,0.4653703570365906,-0.2574178576469421,0.0,0.0,-0.5431020259857178,0.9572031497955322
-0.3036051392555237,0.9115635752677916,-0.5878886580467224,-0.6414917707443237,0.4500591456890106,-0.3062240481376648,0.0,0.0,-0.5250096917152405,0.893730878829956
-0.3095181584358215,0.896662175655365,-0.5754737257957458,-0.6572772264480591,0.4327765107154846,-0.345653235912323,0.0,0.0,-0.1411756873130798,0.952789068222046
-0.3153179585933685,0.8813899159431458,-0.5621436834335327,-0.67340087890625,0.413462221622467,-0.3862864971160888,0.0,0.0,-0.2510411739349365,0.9852830171585084
-0.3210166990756988,0.8657435774803162,-0.5503384470939636,-0.6898213028907776,0.3924889266490936,-0.4194658696651459,0.0,0.0,0.1669843196868896,0.9173617362976074
-0.3268191814422607,0.8505858778953552,-0.558716356754303,-0.6679017543792725,0.3695720732212066,-0.4583373069763183,0.0,0.0,0.2822673320770263,0.8992407321929932
-0.3325172960758209,0.8354043960571289,-0.546328604221344,-0.6688690185546875,0.3448211848735809,-0.4950178563594818,0.0,0.0,0.2159467935562133,0.803112268447876
-0.3382974565029144,0.8207539916038513,-0.5527118444442749,-0.6452990174293518,0.3183905184268951,-0.5286134481430054,0.0,0.0,-0.4481948614120483,0.4303196668624878
-0.3440238535404205,0.8056959509849548,-0.5470656156539917,-0.6638532876968384,0.2919160723686218,-0.5294890999794006,0.0,0.0,0.1116062402725219,0.56345534324646
-0.3498490452766418,0.7908771634101868,-0.5554676651954651,-0.6534397006034851,0.2641371190547943,-0.555579423904419,0.0,0.0,0.2743531465530395,0.6636471748352051
-0.3556659817695617,0.7763795256614685,-0.5531066656112671,-0.6394542455673218,0.2350068092346191,-0.5826065540313721,0.0,0.0,0.4889745712280273,0.4583336114883423
-0.3617132604122162,0.7625463008880615,-0.5753668546676636,-0.6103925704956055,0.2052900493144989,-0.5943355560302734,0.0,0.0,-0.4754971265792846,0.3636412620544433
-0.3676990568637848,0.7483085989952087,-0.5689770579338074,-0.6289640665054321,0.1755221784114837,-0.5953578352928162,0.0,0.0,0.1091023683547973,0.6106457710266113
-0.3736442029476166,0.7340553998947144,-0.5634464025497437,-0.6300954818725586,0.1444441825151443,-0.6215603947639465,0.0,0.0,0.5390963554382324,0.961383581161499
-0.3794206976890564,0.7198708653450012,-0.5445232391357422,-0.6275447010993958,0.11147091537714,-0.6594659686088562,0.0,0.0,0.5478637218475342,0.2238165140151977
-0.3851954340934753,0.7057535648345947,-0.5440326929092407,-0.625275194644928,0.0783055201172828,-0.6633082628250122,0.0,0.0,0.6696450710296631,0.9509179592132568
-0.3908997178077698,0.6924505233764648,-0.5349077582359314,-0.5897658467292786,0.0431742370128631,-0.7026262283325195,0.0,0.0,0.7843501567840576,0.9982879161834716
-0.3963969349861145,0.6800901889801025,-0.5122086405754089,-0.548683762550354,0.0061336429789662,-0.7408124208450317,0.0,0.0,0.8210294246673584,0.9848554134368896
-0.4018887877464294,0.6686936020851135,-0.5094110369682312,-0.506816565990448,-0.033130656927824,-0.7852869629859924,0.0,0.0,0.4447364807128906,0.9870353937149048
-0.4073502421379089,0.6573292016983032,-0.5042790770530701,-0.506531298160553,-0.0745190158486366,-0.8277682065963745,0.0,0.0,0.4379346370697021,0.9370040893554688
-0.4125717580318451,0.6465969085693359,-0.4785060882568359,-0.479723572731018,-0.1177920624613761,-0.8654621243476868,0.0,0.0,0.9709677696228028,0.3628147840499878
-0.4177564680576324,0.6365178227424622,-0.4744293689727783,-0.4520239531993866,-0.1616821587085724,-0.8778027296066284,0.0,0.0,0.9370758533477784,0.9638111591339112
-0.422730028629303,0.6272283792495728,-0.4515291154384613,-0.4184935390949249,-0.2076795697212219,-0.9199498295783995,0.0,0.0,0.7904925346374512,0.0908669233322143
-0.4274803102016449,0.6186670660972595,-0.4295295774936676,-0.3875634968280792,-0.2537945806980133,-0.9223009943962096,0.0,0.0,0.9407039880752563,0.2056180238723755
-0.4318787455558777,0.6106702089309692,-0.3952800631523132,-0.3637713491916656,-0.2994936108589172,-0.913981556892395,0.0,0.0,0.9404778480529784,0.8967905044555664
-0.4359808564186096,0.6028079390525818,-0.3645142912864685,-0.3595511317253113,-0.347026914358139,-0.9506675004959106,0.0,0.0,0.9200729131698608,0.4435156583786011
-0.4397379755973816,0.5951628684997559,-0.331204354763031,-0.3512267172336578,-0.3941183388233185,-0.9418295621871948,0.0,0.0,0.9561097621917723,-0.5509330630302429
-0.4430193901062011,0.5879828333854675,-0.2859625220298767,-0.3314817249774933,-0.4396007657051086,-0.9096491932868958,0.0,0.0,0.7742136716842651,-0.9841518402099608
-0.4459547400474548,0.5809209942817688,-0.2542279660701751,-0.3268114924430847,-0.4828819036483764,-0.865623950958252,0.0,0.0,0.4808918237686157,-0.9928791522979736
-0.4485624432563782,0.5744232535362244,-0.2241345643997192,-0.3021758794784546,-0.524125874042511,-0.8248793482780457,0.0,0.0,-0.0838451385498046,-0.9952624440193176
-0.4511446356773376,0.567590057849884,-0.224119022488594,-0.3173798620700836,-0.5634125471115112,-0.785735011100769,0.0,0.0,0.5750815868377686,-0.998467743396759
-0.4532507359981537,0.5611212253570557,-0.1791834235191345,-0.3012333214282989,-0.6005069613456726,-0.7418900728225708,0.0,0.0,0.7680611610412598,-0.9973084330558776
-0.4550411105155945,0.5546377301216125,-0.1502024084329605,-0.3017668724060058,-0.6353858113288879,-0.6975773572921753,0.0,0.0,0.7709355354309082,-0.9927794337272644
-0.4565349519252777,0.5485320091247559,-0.1228920668363571,-0.2847924828529358,-0.6682393550872803,-0.6570709943771362,0.0,0.0,0.677138090133667,-0.9986464977264404
-0.4573796391487121,0.5430432558059692,-0.0603922195732593,-0.2569741010665893,-0.698850154876709,-0.6122164726257324,0.0,0.0,-0.8336426615715027,-0.999547243118286
-0.4582001566886902,0.5372247099876404,-0.0602813251316547,-0.2711163759231567,-0.7272256016731262,-0.5675103664398193,0.0,0.0,-0.5755410194396973,-0.9993979334831238
-0.459000825881958,0.5310970544815063,-0.0607903227210044,-0.284043937921524,-0.7529605031013489,-0.5146981477737427,0.0,0.0,0.6907787322998047,-0.9990713000297546
-0.459209144115448,0.5253209471702576,-0.0036648113746196,-0.2676745653152466,-0.7764186859130859,-0.4691653847694397,0.0,0.0,-0.6209396719932556,-0.9998409152030944
-0.4593897461891174,0.5192266702651978,-0.0029781523626297,-0.2809140086174011,-0.7974708080291748,-0.4210422039031982,0.0,0.0,0.0472882986068725,-0.9990265369415284
-0.4592412114143371,0.5133724808692932,0.0280257351696491,-0.2693313360214233,-0.8162394165992737,-0.3753738105297088,0.0,0.0,-0.5206394195556641,-0.999964475631714
-0.4590660631656647,0.5071904063224792,0.0288551598787307,-0.2829169332981109,-0.8327047824859619,-0.3293074369430542,0.0,0.0,-0.5236197710037231,-0.9993695616722108
-0.4588693976402282,0.5006967186927795,0.029000986367464,-0.2955420315265655,-0.8465040922164917,-0.2759864628314972,0.0,0.0,0.3452343940734863,-0.9969441294670104
-0.4584170877933502,0.494455873966217,0.0529551692306995,-0.2832522988319397,-0.8580794334411621,-0.2315064370632171,0.0,0.0,-0.2723078727722168,-0.998529314994812
-0.4579215049743652,0.4878755211830139,0.055970162153244,-0.2974535524845123,-0.8678106665611267,-0.19462451338768,0.0,0.0,-0.4112240672111511,-0.9999189972877502
-0.4573939442634582,0.4809530675411224,0.0578049831092357,-0.3116607666015625,-0.8755468726158142,-0.1547237336635589,0.0,0.0,-0.512542724609375,-0.9920430779457092
-0.4568186402320862,0.4736863374710083,0.0614352412521839,-0.3261036574840545,-0.8815880417823792,-0.1208228096365928,0.0,0.0,-0.091640293598175,-0.99822336435318
-0.4562092423439026,0.4661008417606354,0.0633134543895721,-0.3390584886074066,-0.8852788209915161,-0.0738149955868721,0.0,0.0,-0.3903830051422119,-0.9529688954353333
-0.4555494785308838,0.458171010017395,0.0672861784696579,-0.3535088300704956,-0.8873239755630493,-0.040902741253376,0.0,0.0,-0.1843959093093872,-0.9979369640350342
-0.4548524022102356,0.4499028921127319,0.0697632953524589,-0.3675183653831482,-0.8874092698097229,-0.0017057284712791,0.0,0.0,0.2628971338272095,-0.9984245300292968
-0.4536393284797668,0.4419123232364654,0.119905948638916,-0.3539898693561554,-0.8852225542068481,0.0437341555953025,0.0,0.0,-0.2991684079170227,-0.9752538204193116
-0.4523855745792389,0.4335891902446747,0.1226915344595909,-0.36773881316185,-0.8810489773750305,0.0834717005491256,0.0,0.0,-0.6815968155860901,-0.8793379068374634
-0.4510929584503174,0.4249151349067688,0.1254669576883316,-0.3824623525142669,-0.8751788139343262,0.1174026951193809,0.0,0.0,-0.4534239768981933,-0.9906914830207824
-0.4497799277305603,0.4159316718578338,0.1257194876670837,-0.3948378562927246,-0.8666146993637085,0.1712826341390609,0.0,0.0,-0.1317680478096008,-0.8582842946052551
-0.4484419226646423,0.4066228866577148,0.1266089975833892,-0.4081363677978515,-0.855714738368988,0.217999055981636,0.0,0.0,0.1035026311874389,-0.8782474398612976
-0.4467976093292236,0.3973647058010101,0.15583136677742,-0.4049486815929413,-0.8428497314453125,0.2572997212409973,0.0,0.0,0.2232359647750854,-0.8179352283477783
-0.4448091983795166,0.3881311118602752,0.1888680756092071,-0.40301713347435,-0.8281623125076294,0.2937478721141815,0.0,0.0,0.3644517660140991,-0.7822079062461853
-0.4424877166748047,0.3787132501602173,0.2207464873790741,-0.4104104340076446,-0.8116461038589478,0.3303239047527313,0.0,0.0,-0.0162111520767211,-0.2041405439376831
-0.4400900304317474,0.3688820600509643,0.2281978875398636,-0.428929328918457,-0.7951802015304565,0.3293186128139496,0.0,0.0,0.3293116092681885,-0.2128875851631164
-0.4371394515037536,0.3592976331710815,0.2832622826099396,-0.4180697202682495,-0.7786718010902405,0.3301676213741302,0.0,0.0,0.3537611961364746,0.1074401140213012
-0.4338975548744201,0.3495180904865265,0.3120559155941009,-0.4267864823341369,-0.7619731426239014,0.3339743316173553,0.0,0.0,0.7127692699432373,-0.2957788109779358
