x_pos,y_pos,x_vel,y_vel,angle,ang_vel,leg_1,leg_2,main_booster,lat_booster
-0.0015326499706134,1.4034173488616943,-0.1549009829759597,-0.3334533870220184,0.0014712698757648,0.0290004704147577,0.0,0.0,-0.2658497327821323,0.7607099022251053
-0.0030090331565588,1.3957271575927734,-0.1471221596002578,-0.3417851626873016,0.0009633891750127,-0.0101579520851373,0.0,0.0,0.3315106100330114,0.9288781524651863
-0.0042968750931322,1.3883113861083984,-0.1262156069278717,-0.3295914232730865,-0.0015797374071553,-0.0508676283061504,0.0,0.0,0.7783480125756792,0.7651100921785388
-0.0056712152436375,1.3814929723739624,-0.1327070146799087,-0.3030534386634826,-0.0062634730711579,-0.0936830341815948,0.0,0.0,0.2941763482083095,-0.9223320366268268
-0.007005310151726,1.3752362728118896,-0.1302977800369262,-0.2780906558036804,-0.0093395579606294,-0.0615272894501686,0.0,0.0,-0.1436585352451977,0.6126762327748589
-0.0082865711301565,1.3687710762023926,-0.1231974959373474,-0.287382960319519,-0.0142192225903272,-0.0976021438837051,0.0,0.0,0.3922251538420456,0.9034004540969004
-0.0095173837617039,1.362828254699707,-0.1159873381257057,-0.2642098367214203,-0.0212251432240009,-0.1401312798261642,0.0,0.0,0.2679293471830726,0.93204427919714
-0.010536384768784,1.3574199676513672,-0.0927254781126976,-0.2405254542827606,-0.0303025394678115,-0.1815649420022964,0.0,0.0,-0.6666299144358592,0.6723359628544371
-0.0115077970549464,1.3518109321594238,-0.0863293558359146,-0.249545082449913,-0.0410012118518352,-0.2139931619167328,0.0,0.0,-0.3120548356838692,0.9521596085121512
-0.0124079706147313,1.3459982872009275,-0.076982095837593,-0.258747398853302,-0.053901232779026,-0.258024126291275,0.0,0.0,0.2362975080829124,0.9528065156662654
-0.0131370546296238,1.3406362533569336,-0.0576891675591468,-0.2389282435178756,-0.0689726769924163,-0.301456868648529,0.0,0.0,0.9155394168064496,-0.9186381453836454
-0.013808250427246,1.3359830379486084,-0.0536068081855773,-0.2074960023164749,-0.0823660269379615,-0.2678914666175842,0.0,0.0,-0.4787883545620199,-0.6687244938708277
-0.0145221706479787,1.3311333656311035,-0.0586193799972534,-0.2162844687700271,-0.0950389727950096,-0.2534822225570678,0.0,0.0,-0.7225888581310398,0.6354236693421413
-0.0151819232851266,1.326066017150879,-0.0514812991023063,-0.2262050956487655,-0.1094431951642036,-0.2881107330322265,0.0,0.0,0.2562838199888544,-0.8808941666788594
-0.0157190319150686,1.3217291831970217,-0.0407829657196998,-0.1937424540519714,-0.1223171651363372,-0.2575026154518127,0.0,0.0,-0.5371112866575587,0.929400749313512
-0.0161709785461425,1.3171619176864624,-0.029754739254713,-0.2043372243642807,-0.1377081871032714,-0.3078488111495971,0.0,0.0,0.4984669310472303,0.6173028778199893
-0.016331672668457,1.3135132789611816,0.0005899232928641,-0.1637861430644989,-0.1543435454368591,-0.3327374756336212,0.0,0.0,0.6177957130410707,0.9471103803765614
-0.0162057876586914,1.310144543647766,0.0311939269304275,-0.1517629623413086,-0.1729925721883773,-0.3730142712593078,0.0,0.0,-0.8456442178270771,0.9677387392354484
-0.0159891135990619,1.3065606355667114,0.042784683406353,-0.1618805229663849,-0.1942085325717926,-0.4243578910827636,0.0,0.0,0.8035640745864767,0.9932300887815836
-0.0156694408506155,1.303691864013672,0.0554184317588806,-0.1307514309883117,-0.217885360121727,-0.4735797345638275,0.0,0.0,-0.7356849696786347,0.6189469794874244
-0.0152868274599313,1.300609827041626,0.0633771419525146,-0.1408955156803131,-0.2433907240629196,-0.51015305519104,0.0,0.0,-0.6309644124032388,-0.7908020338032808
-0.0149592403322458,1.2973471879959106,0.0565258339047431,-0.1491205245256424,-0.2676599025726318,-0.4854269027709961,0.0,0.0,0.7223326722701822,-0.6253377510703437
-0.0143827442079782,1.2946674823760986,0.0799960047006607,-0.1233477666974067,-0.2906337976455688,-0.4595195353031158,0.0,0.0,0.3939662956877523,0.7258640248092625
-0.0136086465790867,1.292106866836548,0.1012501865625381,-0.1187496706843376,-0.3153139948844909,-0.4936482012271881,0.0,0.0,-0.5615682642709623,0.9232412598769428
-0.0127739906311035,1.2893251180648804,0.1087834984064102,-0.1293639987707138,-0.3417550027370453,-0.5288673043251038,0.0,0.0,0.7587385922725793,0.8663493760863019
-0.0117818834260106,1.287442684173584,0.1266012042760849,-0.0904285684227943,-0.3705812394618988,-0.5765241980552673,0.0,0.0,0.3076933678432119,-0.9624043605369484
-0.0106391906738281,1.2862130403518677,0.1398000121116638,-0.061500359326601,-0.3977480828762054,-0.5433371067047119,0.0,0.0,0.6711180565366077,-0.8946325262405543
-0.0093629835173487,1.2860761880874634,0.151640385389328,-0.0130343735218048,-0.4235933721065521,-0.5169059038162231,0.0,0.0,-0.6992167500804936,-0.9738410667193818
-0.0081606861203908,1.2858059406280518,0.1420147866010666,-0.0187445897608995,-0.4472966194152832,-0.474065363407135,0.0,0.0,0.9652765763337354,0.9854391918966524
-0.0066551207564771,1.2860870361328125,0.1743028461933136,0.0046723242849111,-0.4734362661838531,-0.5227934122085571,0.0,0.0,-0.9179752952370146,0.8237265956072415
-0.0050775529816746,1.2861348390579224,0.1830492317676544,-0.0067919748835265,-0.5016745328903198,-0.5647655725479126,0.0,0.0,0.8704841769012388,-0.6298570411280242
-0.0033779144287109,1.2867395877838137,0.1941983103752136,0.0177505351603031,-0.5291550159454346,-0.5496094226837158,0.0,0.0,-0.9813097724941068,-0.6117128943855368
-0.0017125129234045,1.287193775177002,0.1894109100103378,0.0110292695462703,-0.5554800033569336,-0.5265001654624939,0.0,0.0,0.8237203282267618,-0.7325331329369138
5.807876732433215e-05,1.288058161735535,0.1986465156078338,0.0292538534849882,-0.5807419419288635,-0.5052392482757568,0.0,0.0,-0.9282162453244044,0.8366622562840487
0.0018966675270348,1.2886719703674316,0.2068983614444732,0.0169301275163888,-0.6081758737564087,-0.5486783981323242,0.0,0.0,-0.5212410534663565,0.644229028604811
0.0037918090820312,1.2890501022338867,0.2135519087314605,0.0053214412182569,-0.6373648047447205,-0.583779513835907,0.0,0.0,-0.8203824959357855,-0.7217041889488562
0.0056512830778956,1.2892814874649048,0.2084396779537201,-0.0011127882171422,-0.6652509570121765,-0.5577237010002136,0.0,0.0,0.0300538713900258,0.8672842572676518
0.0078947069123387,1.2897944450378418,0.2480881512165069,0.0100343720987439,-0.69536292552948,-0.6022388339042664,0.0,0.0,-0.5894969633314102,0.9512800283932048
0.0102100372314453,1.2900551557540894,0.2564153671264648,-0.0026633623056113,-0.727743923664093,-0.6476216912269592,0.0,0.0,0.7135389457987689,0.9962926890160017
0.0130433086305856,1.2907205820083618,0.3093319237232208,0.0136296842247247,-0.7626310586929321,-0.6977429986000061,0.0,0.0,0.2731573835694394,-0.7822577867053766
0.0161999706178903,1.292007327079773,0.3398564755916595,0.0413045436143875,-0.7961498498916626,-0.6703752279281616,0.0,0.0,-0.2884840965270996,-0.9933326244354248
0.0193294528871774,1.293163537979126,0.335334450006485,0.0356953851878643,-0.8282151818275452,-0.6413076519966125,0.0,0.0,0.1584033966064453,-0.9382532835006714
0.0226370804011821,1.2943323850631714,0.3512187600135803,0.0366763472557067,-0.8585195541381836,-0.6060878038406372,0.0,0.0,0.2727824449539184,-0.977774441242218
0.026276970282197,1.2956866025924685,0.382507860660553,0.0455161482095718,-0.8869282603263855,-0.5681741237640381,0.0,0.0,0.0221480131149292,-0.997446060180664
0.0299997329711914,1.297132968902588,0.388937383890152,0.0503145568072795,-0.9133440256118774,-0.5283151865005493,0.0,0.0,0.2301555871963501,-0.9822863340377808
0.033907413482666,1.2986445426940918,0.4057217240333557,0.0539718531072139,-0.9378387928009032,-0.4898957312107086,0.0,0.0,0.2648904323577881,-0.9952863454818726
0.0380896553397178,1.3002829551696775,0.43154177069664,0.0604685135185718,-0.9603646993637084,-0.4505179822444916,0.0,0.0,-0.3085327744483948,-0.9990761876106262
0.0422401428222656,1.3018381595611572,0.4265314638614654,0.0579543188214302,-0.9804174304008484,-0.4010542035102844,0.0,0.0,0.0015608072280883,-0.9982635378837584
0.0467093475162982,1.3038116693496704,0.4568774700164795,0.0776369497179985,-0.9982829689979552,-0.357310801744461,0.0,0.0,-0.0842903852462768,-0.9372093081474304
0.0511500351130962,1.3056751489639282,0.4526949822902679,0.0737565606832504,-1.0141823291778564,-0.3179875612258911,0.0,0.0,-0.1665035486221313,-0.9302318692207336
0.0555747970938682,1.3074052333831787,0.4501689076423645,0.0685174688696861,-1.028722047805786,-0.2907939851284027,0.0,0.0,-0.4870262742042541,-0.9573362469673156
0.0599743835628032,1.3090384006500244,0.4463653564453125,0.0654083639383316,-1.0410772562026978,-0.2471030950546264,0.0,0.0,-0.5738078951835632,-0.9827752709388732
0.0643521323800087,1.3105452060699463,0.4432370662689209,0.0606720447540283,-1.051841139793396,-0.2152775079011917,0.0,0.0,-0.5783603191375732,-0.9725880026817322
0.0687106102705001,1.311948537826538,0.4402167201042175,0.0572308301925659,-1.060596585273743,-0.1751058101654052,0.0,0.0,-0.696694016456604,-0.8784987330436707
0.0730544105172157,1.3132129907608032,0.4380590915679931,0.0517699979245662,-1.068088412284851,-0.1498364359140396,0.0,0.0,-0.695232093334198,-0.9767370223999025
0.0773658752441406,1.314384698867798,0.4336252212524414,0.0490486547350883,-1.073188066482544,-0.1019919142127037,0.0,0.0,-0.8423478007316589,-0.975596010684967
0.0816643685102462,1.315438985824585,0.4314959049224853,0.0448287464678287,-1.0766088962554932,-0.0684175118803978,0.0,0.0,-0.8287613987922668,-0.9907333254814148
0.0859492272138595,1.3163679838180542,0.4293883740901947,0.0401634164154529,-1.0784976482391355,-0.0377739034593105,0.0,0.0,-0.911734700202942,-0.9874448776245116
0.0902205482125282,1.317184329032898,0.4271799027919769,0.0362263284623622,-1.0785988569259644,-0.0020230249501764,0.0,0.0,-0.9435437321662904,-0.980931520462036
0.0944688767194747,1.3179116249084473,0.4237477779388428,0.03366369754076,-1.0763362646102903,0.0452515222132205,0.0,0.0,-0.9584157466888428,-0.9862552881240844
0.0986912697553634,1.31852126121521,0.4202505648136139,0.0295444522053003,-1.0722191333770752,0.0823456272482872,0.0,0.0,-0.9544470310211182,-0.997818648815155
0.1028862968087196,1.3190460205078125,0.4162775874137878,0.0272338297218084,-1.0655981302261353,0.1324212253093719,0.0,0.0,-0.9702298045158386,-0.980104386806488
0.1070631965994834,1.3194434642791748,0.4136480391025543,0.0224923379719257,-1.05740487575531,0.1638648211956024,0.0,0.0,-0.9857858419418336,-0.996708869934082
0.1112174987792968,1.3197327852249146,0.4103164672851562,0.0188506059348583,-1.0472054481506348,0.2039888352155685,0.0,0.0,-0.9845215678215028,-0.9942966103553772
0.1153428107500076,1.3199121952056885,0.4062694609165191,0.0151148485019803,-1.034956932067871,0.244969755411148,0.0,0.0,-0.990405261516571,-0.9982019662857056
0.1194347366690635,1.3200067281723022,0.4014410376548767,0.0127839623019099,-1.020119547843933,0.2967471182346344,0.0,0.0,-0.990871012210846,-0.9941860437393188
0.1235087364912033,1.3199975490570068,0.3983567357063293,0.0092596001923084,-1.0032585859298706,0.3372227847576141,0.0,0.0,-0.9950084686279296,-0.995902180671692
0.1275548040866851,1.3198630809783936,0.3943342268466949,0.00456582615152,-0.9846465587615968,0.3722408711910248,0.0,0.0,-0.9967266321182252,-0.9969252347946168
0.1315815895795822,1.3196238279342651,0.3909720778465271,0.0008911932236514,-0.9640295505523682,0.4123397767543793,0.0,0.0,-0.9970632195472716,-0.9913996458053588
0.1355713903903961,1.319288730621338,0.385461151599884,-0.0021952984388917,-0.9409818649291992,0.4609541296958923,0.0,0.0,-0.9977282285690308,-0.9950631260871888
0.1395276039838791,1.3188621997833252,0.380183607339859,-0.0051676896400749,-0.9154936075210572,0.5097649693489075,0.0,0.0,-0.9978438019752502,-0.9604597091674804
0.1434590369462967,1.3183205127716064,0.375965416431427,-0.0095643261447548,-0.8881216645240784,0.547439455986023,0.0,0.0,-0.9982144832611084,-0.9891161918640136
0.1473553627729416,1.3176943063735962,0.3702007830142975,-0.0123156458139419,-0.8581867814064026,0.5986979007720947,0.0,0.0,-0.9983505010604858,-0.9768503904342652
0.1512268036603927,1.3169459104537964,0.3658150136470794,-0.0172664206475019,-0.8265036940574646,0.633662223815918,0.0,0.0,-0.9986346960067748,-0.9841468930244446
0.1550588607788086,1.3160849809646606,0.3596183061599731,-0.0216898377984762,-0.7926778793334961,0.6765173673629761,0.0,0.0,-0.9986443519592284,-0.9184940457344056
0.1588615477085113,1.3150904178619385,0.3546449542045593,-0.0274183545261621,-0.7572274804115295,0.7090093493461609,0.0,0.0,-0.9989638924598694,-0.9641947150230408
0.1626224517822265,1.3139771223068235,0.3480372428894043,-0.0323879830539226,-0.7197089791297913,0.7503710985183716,0.0,0.0,-0.9988378286361694,-0.9863460659980774
0.1663496047258377,1.3127559423446655,0.3421060442924499,-0.037010658532381,-0.6801300048828125,0.7915790677070618,0.0,0.0,-0.9987971186637878,-0.961043894290924
0.1700515747070312,1.311414361000061,0.3372149169445038,-0.0425098985433578,-0.6388643383979797,0.8253137469291687,0.0,0.0,-0.9981812238693236,-0.9509583115577698
0.1737085282802581,1.309972047805786,0.3297312557697296,-0.0470256209373474,-0.5952754616737366,0.8717774152755737,0.0,0.0,-0.9968980550765992,-0.9511929154396056
0.1773089468479156,1.308413028717041,0.3209883570671081,-0.0524264350533485,-0.5493487119674683,0.9185358285903932,0.0,0.0,-0.9981070160865784,-0.7880498766899109
0.180884838104248,1.3067233562469482,0.3161295354366302,-0.0589684285223484,-0.5019641518592834,0.9476917386054992,0.0,0.0,-0.993191123008728,-0.8873367309570312
0.1844116151332855,1.3049131631851196,0.308224081993103,-0.0650326088070869,-0.4524987339973449,0.989310383796692,0.0,0.0,-0.9954052567481996,-0.6940675377845764
0.1879076063632965,1.3029680252075195,0.3026695847511291,-0.072108119726181,-0.4015392959117889,1.0191900730133057,0.0,0.0,-0.9959958791732788,-0.5376730561256409
0.1913859397172927,1.3008768558502195,0.298858493566513,-0.0799775496125221,-0.3495188355445862,1.0404101610183716,0.0,0.0,-0.9972984194755554,-0.8088895082473755
0.1948336660861969,1.2986414432525637,0.293544590473175,-0.0878162309527397,-0.2961413860321045,1.0675499439239502,0.0,0.0,-0.997028648853302,0.101924180984497
0.1983009278774261,1.2962356805801392,0.2946935296058655,-0.0972454100847244,-0.2428099066019058,1.066631317138672,0.0,0.0,-0.9825531840324402,0.8667304515838623
0.201861947774887,1.293623447418213,0.3054012656211853,-0.1085443571209907,-0.1915328800678253,1.025542140007019,0.0,0.0,-0.9874765276908876,0.9389863014221193
0.2055301666259765,1.290810465812683,0.3179746270179748,-0.1194455400109291,-0.1426137238740921,0.9783846139907836,0.0,0.0,-0.9573152661323548,0.8615469932556152
0.2092961370944976,1.2877962589263916,0.3295424580574035,-0.1301344782114029,-0.0958133488893508,0.9360091090202332,0.0,0.0,-0.9325070381164552,0.9617156982421876
0.2131521254777908,1.284598708152771,0.3402163088321686,-0.1398120522499084,-0.0508865751326084,0.8985365629196167,0.0,0.0,-0.937373161315918,0.9948740005493164
0.2171047180891037,1.2812211513519287,0.3518363833427429,-0.14919975399971,-0.0080000422894954,0.857731819152832,0.0,0.0,-0.8408129811286926,0.9796972274780272
0.2211640328168869,1.27766215801239,0.3648056387901306,-0.1584549248218536,0.0325917899608612,0.8118377923965454,0.0,0.0,-0.7583889961242676,0.9560319185256958
0.225324347615242,1.2739113569259644,0.3771353363990783,-0.1680011004209518,0.0710372105240821,0.7689090371131897,0.0,0.0,-0.8513377904891968,0.8740279674530029
0.2295598983764648,1.2699763774871826,0.3862800598144531,-0.1770631372928619,0.1079828888177871,0.738913893699646,0.0,0.0,-0.735611617565155,0.9890774488449096
0.2338951081037521,1.2658780813217163,0.3985637128353119,-0.1850523650646209,0.1427765935659408,0.6958742737770081,0.0,0.0,-0.9193335771560668,0.8206651210784912
0.2383040487766266,1.2616009712219238,0.4075478911399841,-0.1936255842447281,0.1761105358600616,0.666678786277771,0.0,0.0,-0.867972195148468,0.8822070360183716
0.2427781075239181,1.2571536302566528,0.4155203402042389,-0.201756402850151,0.2081670612096786,0.6411308646202087,0.0,0.0,-0.8200182318687439,0.6570614576339722
0.2473213225603103,1.25253427028656,0.4239997863769531,-0.2098717242479324,0.238852396607399,0.6137072443962097,0.0,0.0,-0.8932352066040039,0.7819547653198242
0.2519296705722809,1.247745156288147,0.4319965839385986,-0.2177924960851669,0.2682510912418365,0.5879746675491333,0.0,0.0,-0.484732985496521,0.7593467235565186
0.2565983831882477,1.242786169052124,0.4393766820430755,-0.2256843000650406,0.2964853048324585,0.5646848082542419,0.0,0.0,-0.5678950548171997,0.6964535713195801
0.2613290846347809,1.2376514673233032,0.4469577670097351,-0.2337609231472015,0.3235423266887665,0.5411409735679626,0.0,0.0,-0.2727663516998291,0.7014095783233643
0.2661131918430328,1.2323414087295532,0.4534520506858825,-0.241805151104927,0.3496322929859161,0.5218001008033752,0.0,0.0,-0.0393457412719726,0.9821110963821412
0.2709634900093078,1.2268608808517456,0.461550772190094,-0.2494865506887436,0.3744122385978699,0.4955994188785553,0.0,0.0,0.1326498985290527,0.9183465242385864
0.2757902145385742,1.2219605445861816,0.4609915316104889,-0.2236439734697342,0.3975045084953308,0.4618456363677978,0.0,0.0,0.5293419361114502,0.969911813735962
0.2806282043457031,1.2174066305160522,0.4639150202274322,-0.2081077396869659,0.4188758730888366,0.4274281561374664,0.0,0.0,0.4665882587432861,0.6510016918182373
0.2853761613368988,1.2137022018432615,0.4559074342250824,-0.1703941822052002,0.4393819868564605,0.4101224839687347,0.0,0.0,0.5994536876678467,0.9828985929489136
0.2898608148097992,1.2108566761016846,0.4314270913600921,-0.1319103688001632,0.4580343961715698,0.3730478882789612,0.0,0.0,0.8415603637695312,-0.0165926218032836
0.2940782606601715,1.2091970443725586,0.403996467590332,-0.0797239989042282,0.4776592254638672,0.3924968242645263,0.0,0.0,0.8947256803512573,0.9750614166259766
0.2981553971767425,1.208341121673584,0.3916195034980774,-0.0437007322907447,0.4956245720386505,0.3593068122863769,0.0,0.0,0.9347186088562012,0.9309649467468262
0.3018418252468109,1.2085983753204346,0.3542461991310119,0.0061474675312638,0.5118472576141357,0.3244527280330658,0.0,0.0,0.9578447341918944,0.6395959854125977
0.3051911294460296,1.20997154712677,0.321458101272583,0.0559060387313365,0.5271590352058411,0.3062351942062378,0.0,0.0,0.966957688331604,0.4285734891891479
0.3083598017692566,1.2119224071502686,0.3029006719589233,0.0811932906508445,0.543173611164093,0.3202912807464599,0.0,0.0,0.9480390548706056,0.2148803472518921
0.3110389709472656,1.2144951820373535,0.2544301748275757,0.1088342517614364,0.5587858557701111,0.3122452795505523,0.0,0.0,0.9218506813049316,0.8016006946563721
0.3133269250392914,1.2175453901290894,0.2169630974531173,0.1305607408285141,0.5726321339607239,0.276925653219223,0.0,0.0,0.8654987812042236,0.9295856952667236
0.3153190612792969,1.221231460571289,0.1889590322971344,0.1593646705150604,0.5847179889678955,0.2417173385620117,0.0,0.0,0.9502996206283568,0.9232965707778932
0.3170627653598785,1.2255873680114746,0.1655749082565307,0.1896866708993911,0.595154345035553,0.2087271511554718,0.0,0.0,0.8724660873413086,0.8381285667419434
0.3187794685363769,1.2304307222366333,0.1639434248208999,0.2117479145526886,0.604369580745697,0.1843054592609405,0.0,0.0,0.947124481201172,0.9477899074554444
0.3202112317085266,1.2362388372421265,0.13682821393013,0.2551901638507843,0.6120137572288513,0.1528829634189605,0.0,0.0,0.859882116317749,0.9260553121566772
0.3212119936943054,1.2430535554885864,0.0951466709375381,0.3005533814430237,0.6179724335670471,0.1191742047667503,0.0,0.0,0.7510384321212769,0.9524484872817992
0.3221564292907715,1.2501890659332275,0.0909063071012497,0.3154508173465729,0.6222683787345886,0.0859185457229614,0.0,0.0,0.6061246395111084,0.9135351181030272
0.322904109954834,1.2580082416534424,0.0725242272019386,0.3464432954788208,0.6249899864196777,0.0544320046901702,0.0,0.0,0.3815922737121582,0.4305286407470703
