x_pos,y_pos,x_vel,y_vel,angle,ang_vel,leg_1,leg_2,main_booster,lat_booster
-0.0015292167663574,1.4029462337493896,-0.1548998653888702,-0.3543958067893982,0.0017697132425382,0.0349097996950149,0.0,0.0,-0.0316786915919589,-0.6032452905345658
-0.0031073570717126,1.3943142890930176,-0.1606518626213073,-0.3836506605148315,0.0045803422108292,0.0562184453010559,0.0,0.0,-0.7845688891581382,0.9901636261545012
-0.0045954706147313,1.3849968910217283,-0.1492291241884231,-0.4141035676002502,0.0049958568997681,0.0083107640966773,0.0,0.0,-0.3521150260329431,-0.553189494125127
-0.0061401366256177,1.3749990463256836,-0.1562143415212631,-0.4443546533584595,0.0067217233590781,0.034520823508501,0.0,0.0,0.2228484805854447,0.7700489908938177
-0.0075232507660984,1.365051031112671,-0.1386411935091018,-0.4421340823173523,0.007054575253278,0.006657728459686,0.0,0.0,0.0833767966756653,0.5570655308348571
-0.0087683675810694,1.3549596071243286,-0.1239227801561355,-0.448507159948349,0.0064669102430343,-0.011754160746932,0.0,0.0,-0.0599904592572317,-0.7646978799539876
-0.010078621096909,1.3441892862319946,-0.1320294439792633,-0.4786880612373352,0.007452527526766,0.0197142865508794,0.0,0.0,0.9353155389472316,-0.8355334130306131
-0.011271190829575,1.3338812589645386,-0.1223451346158981,-0.4581488668918609,0.0105197057127952,0.0613489523530006,0.0,0.0,-0.028810334904443,-0.8652080007536807
-0.0125344274565577,1.3229032754898071,-0.1311940848827362,-0.487947553396225,0.0153375584632158,0.0963656529784202,0.0,0.0,-0.3232826046772266,-0.7348933124786768
-0.0138559341430664,1.3112510442733765,-0.1385059505701065,-0.5179609060287476,0.0216171164065599,0.1256028711795807,0.0,0.0,0.5050108479021973,-0.7547187785664842
-0.0151609424501657,1.299734592437744,-0.1385317742824554,-0.5119767189025879,0.0295551978051662,0.158776193857193,0.0,0.0,-0.9719419819628332,0.9987164590462156
-0.0163763053715229,1.2875423431396484,-0.1273317039012909,-0.542008101940155,0.03528543561697,0.1146153211593627,0.0,0.0,-0.5447072268908086,-0.6979277977939261
-0.0176319126039743,1.274673581123352,-0.1324552595615387,-0.5721221566200256,0.0421066246926784,0.1364360153675079,0.0,0.0,0.9460798422920208,0.8501553502884474
-0.0187448505312204,1.2617559432983398,-0.1166702359914779,-0.5742788314819336,0.0474367998540401,0.1066130995750427,0.0,0.0,0.259503211018611,-0.6789052818076488
-0.0198156349360942,1.2491137981414795,-0.1140233129262924,-0.5621079206466675,0.0543098449707031,0.1374731808900833,0.0,0.0,0.7827838036145489,-0.5806093446206373
-0.0208158493041992,1.236274242401123,-0.1084887534379959,-0.5709741115570068,0.0626865252852439,0.167549267411232,0.0,0.0,0.8599311678926562,-0.5602512268445088
-0.0217475891113281,1.224217176437378,-0.1032269448041915,-0.5363209843635559,0.0726511925458908,0.1993112862110138,0.0,0.0,0.9672236942185028,-0.7087871906071029
-0.0225749015808105,1.212158441543579,-0.0946706384420394,-0.5365652441978455,0.0844898223876953,0.2367940694093704,0.0,0.0,-0.9670859897982056,-0.942583790691538
-0.0234535224735736,1.1994245052337646,-0.1013696193695068,-0.5667701959609985,0.0978983491659164,0.2681948840618133,0.0,0.0,-0.7505839293116863,0.8249207389393376
-0.0242629051208496,1.1860222816467283,-0.0929915606975555,-0.5964859127998352,0.1098833903670311,0.2397226095199585,0.0,0.0,0.2298047716223439,0.7039566818111724
-0.0249576568603515,1.1728098392486572,-0.0802519917488098,-0.5880504846572876,0.1206084713339805,0.2145208567380905,0.0,0.0,0.2012278211028204,0.5913716773425661
-0.0256181713193655,1.159406065940857,-0.0756511837244033,-0.5965254902839661,0.1301688700914383,0.1912249624729156,0.0,0.0,-0.8311957901832978,-0.7655270971218797
-0.0263069160282611,1.145315170288086,-0.0796533077955246,-0.6272438168525696,0.1409239768981933,0.2151215970516204,0.0,0.0,0.5700285176495603,0.9443207086633908
-0.026867389678955,1.1310087442398071,-0.0650098398327827,-0.6367096304893494,0.1498790979385376,0.1791183352470398,0.0,0.0,0.7879054224911548,-0.9767630999133492
-0.0277557373046875,1.1170049905776978,-0.0994688794016838,-0.6234888434410095,0.1605264842510223,0.2129669934511184,0.0,0.0,-0.8480475877750409,-0.8175030900534743
-0.0286965370178222,1.1022887229919434,-0.1067335754632949,-0.6554753184318542,0.1731933951377868,0.2533383667469024,0.0,0.0,0.8372750311671859,0.7021464591152662
-0.0296907424926757,1.0881097316741943,-0.110641561448574,-0.6315355896949768,0.1844491064548492,0.2251143455505371,0.0,0.0,0.6440845544949008,0.7532976631622277
-0.0308892242610454,1.0744493007659912,-0.1292551606893539,-0.6083240509033203,0.1939005553722381,0.1890289485454559,0.0,0.0,0.6417074420246494,0.602567716895556
-0.0322958007454872,1.0612229108810425,-0.1484872251749038,-0.5888907313346863,0.2017843872308731,0.1576765477657318,0.0,0.0,-0.92347923153383,-0.6403852768551167
-0.0337195396423339,1.0473010540008545,-0.1514910012483596,-0.6200238466262817,0.2109827399253845,0.1839669197797775,0.0,0.0,0.2454810681682699,-0.5501556968591281
-0.0352691635489463,1.033635497093201,-0.1651621758937835,-0.6088495850563049,0.2212922871112823,0.2061906158924102,0.0,0.0,-0.9561177492141724,0.9931504726409912
-0.0367129333317279,1.019309639930725,-0.1528243422508239,-0.6379960179328918,0.2298401445150375,0.1709573566913604,0.0,0.0,-0.8537995219230652,0.9913578033447266
-0.0380518920719623,1.0043383836746216,-0.1405867040157318,-0.6664515137672424,0.2366288304328918,0.1357735842466354,0.0,0.0,-0.9456218481063844,0.9844461679458618
-0.0392788872122764,0.9887048602104188,-0.1276103556156158,-0.6956183910369873,0.2416189163923263,0.0998021513223648,0.0,0.0,-0.915649950504303,0.9976661205291748
-0.040382482111454,0.9724243879318236,-0.113189123570919,-0.7240501046180725,0.2445057928562164,0.0577373690903186,0.0,0.0,-0.8025192618370056,0.9962263107299804
-0.0413609519600868,0.955502152442932,-0.0986103862524032,-0.7522262334823608,0.2452775537967682,0.0154352765530347,0.0,0.0,0.0082254409790039,0.998665690422058
-0.0422985069453716,0.9383225440979004,-0.0925091207027435,-0.7633317112922668,0.2440111637115478,-0.0253273881971836,0.0,0.0,0.4515975713729858,0.994694709777832
-0.0432332046329975,0.9214878678321838,-0.0902232155203819,-0.7476722002029419,0.2407147288322448,-0.0659288465976715,0.0,0.0,0.3288123607635498,0.9853345155715942
-0.0442367568612098,0.9049875140190125,-0.095084361732006,-0.7324907183647156,0.2353576719760894,-0.1071410775184631,0.0,0.0,-0.7991464138031006,0.9152944087982178
-0.045110035687685,0.8878369331359863,-0.0801022723317146,-0.7611055374145508,0.228017196059227,-0.1468090415000915,0.0,0.0,-0.1490789055824279,0.6086456775665283
-0.0458866134285926,0.8700273633003235,-0.0693587437272071,-0.7902809381484985,0.2196104675531387,-0.1681345105171203,0.0,0.0,0.5010958909988403,0.5679166316986084
-0.0465432181954383,0.8522897362709045,-0.0564310327172279,-0.7869975566864014,0.2102890312671661,-0.1864287108182907,0.0,0.0,0.2716388702392578,0.479559063911438
-0.0471133217215538,0.8342522978782654,-0.0480686202645301,-0.8004173040390015,0.2012533843517303,-0.1807126700878143,0.0,0.0,0.4711158275604248,-0.2147881388664245
-0.0476253516972065,0.8162557482719421,-0.0425679869949817,-0.7986966371536255,0.1925629377365112,-0.1738089025020599,0.0,0.0,0.728445291519165,0.1858172416687011
-0.0481700897216796,0.7980231642723083,-0.0455707050859928,-0.8092024326324463,0.1836083531379699,-0.1790913045406341,0.0,0.0,0.9011163711547852,0.2650558948516845
-0.0486630424857139,0.7796948552131653,-0.0405501388013362,-0.8135350942611694,0.1748272180557251,-0.1756222695112228,0.0,0.0,0.6253761053085327,-0.4973092079162597
-0.0491012558341026,0.7613541483879089,-0.0352665036916732,-0.8141574263572693,0.166248932480812,-0.1715655028820037,0.0,0.0,0.7954723834991455,0.9218556880950928
-0.0496786125004291,0.7436710000038147,-0.0470018647611141,-0.7847597599029541,0.1555194109678268,-0.214590311050415,0.0,0.0,-0.4281249642372131,-0.2740408182144165
-0.0501799583435058,0.7253108024597168,-0.0392970666289329,-0.814911961555481,0.1447078287601471,-0.2162315845489502,0.0,0.0,0.4586846828460693,-0.332775354385376
-0.0506864562630653,0.7069364786148071,-0.0396324805915355,-0.8156097531318665,0.1337240487337112,-0.2196755111217498,0.0,0.0,-0.3768313527107239,0.0805051326751709
-0.0511131286621093,0.6878853440284729,-0.0315399244427681,-0.8457624912261963,0.1226508989930152,-0.2214630395174026,0.0,0.0,0.9213311672210692,0.6829507350921631
-0.051581285893917,0.6694341897964478,-0.0340237617492675,-0.8190480470657349,0.1099398210644722,-0.2542216777801513,0.0,0.0,0.8360593318939209,-0.7254776954650879
-0.051945686340332,0.6510515213012695,-0.0253050960600376,-0.8162283301353455,0.0988802164793014,-0.2211921513080597,0.0,0.0,0.7814067602157593,0.0773133039474487
-0.0523064620792865,0.6332764029502869,-0.0248331595212221,-0.7892993688583374,0.0877364203333854,-0.222876101732254,0.0,0.0,0.612706184387207,-0.3164133429527282
-0.0524770729243755,0.6155549883842468,-0.0063901664689183,-0.7870358824729919,0.077161781489849,-0.2114928066730499,0.0,0.0,0.274091362953186,0.3865821361541748
-0.0526607520878315,0.5976915955543518,-0.0072282352484762,-0.7933960556983948,0.0661392584443092,-0.2204505950212478,0.0,0.0,0.958538293838501,-0.8847803473472595
-0.0527649894356727,0.5805785059928894,-0.0011812328593805,-0.7601979374885559,0.0570062510669231,-0.1826600730419159,0.0,0.0,0.4819749593734741,-0.68972247838974
-0.0527305603027343,0.5637038350105286,0.0111446864902973,-0.7497097253799438,0.0493896156549453,-0.1523328572511673,0.0,0.0,0.3462101221084595,0.4458365440368652
-0.0525753982365131,0.5471612811088562,0.0230472348630428,-0.7349961400032043,0.0419375747442245,-0.1490406394004821,0.0,0.0,0.5701096057891846,-0.248570442199707
-0.0524296760559082,0.5310558080673218,0.0225810818374156,-0.715595543384552,0.0340306051075458,-0.1581392884254455,0.0,0.0,0.2933583259582519,-0.3985275626182556
-0.0521580688655376,0.51470947265625,0.0351010896265506,-0.7263423204421997,0.0261858310550451,-0.1568955183029174,0.0,0.0,0.7843247652053833,-0.7053685784339905
-0.0519828796386718,0.498818427324295,0.0244420487433671,-0.7061648964881897,0.0193500127643346,-0.1367163807153701,0.0,0.0,0.2744290828704834,-0.8398928642272949
-0.0516749396920204,0.4828469753265381,0.0360605455935001,-0.7097840905189514,0.0141536565497517,-0.1039272546768188,0.0,0.0,0.6656239032745361,-0.6892404556274414
-0.0513051971793174,0.4671248197555542,0.0409256145358085,-0.6987323760986328,0.0102521991357207,-0.0780292674899101,0.0,0.0,0.7717351913452148,-0.0751712918281555
-0.0508313179016113,0.451369434595108,0.0514438673853874,-0.7002153396606445,0.0062549146823585,-0.079945683479309,0.0,0.0,0.8584749698638916,-0.4823307991027832
-0.0503994934260845,0.4359320104122162,0.04801856726408,-0.6860941648483276,0.0014762416249141,-0.0955735221505165,0.0,0.0,0.383310317993164,-0.7518907785415649
-0.049906063824892,0.4209001064300537,0.0527860708534717,-0.6680852770805359,-0.0019173129694536,-0.0678711161017417,0.0,0.0,0.8655352592468262,-0.6217139959335327
-0.0492586120963096,0.4056778252124786,0.0668014287948608,-0.676550030708313,-0.0039566038176417,-0.0407859310507774,0.0,0.0,0.841046929359436,-0.4633904695510864
-0.0484734550118446,0.3912041187286377,0.0805867165327072,-0.6432825922966003,-0.0060011073946952,-0.0408900156617164,0.0,0.0,0.617894172668457,-0.8623723387718201
-0.0477520003914833,0.3767453134059906,0.0727951228618621,-0.6426168084144592,-0.0066358754411339,-0.0126955118030309,0.0,0.0,0.3245930671691894,-0.873219907283783
-0.0470746979117393,0.3624277412891388,0.0668385475873947,-0.6363322138786316,-0.0057588350027799,0.0175410564988851,0.0,0.0,0.4945943355560303,-0.5258350372314453
-0.0462998375296592,0.3482775688171386,0.0756213143467903,-0.6288900971412659,-0.0039117392152547,0.0369417890906333,0.0,0.0,0.5992928743362427,-0.5548542141914368
-0.045592974871397,0.3346827626228332,0.0681936666369438,-0.6042088270187378,-0.0014548810431733,0.0491372719407081,0.0,0.0,0.7782508134841919,0.3939375877380371
-0.0446988120675087,0.3213419616222381,0.0867040827870369,-0.5929235219955444,0.0012131680268794,0.0533613637089729,0.0,0.0,0.5166107416152954,0.1383936405181884
-0.0437284484505653,0.3078614473342895,0.0946442708373069,-0.5991363525390625,0.0035818181931972,0.0473726764321327,0.0,0.0,0.5057340860366821,-0.1739360094070434
-0.0425888076424598,0.2941474914550781,0.1114265322685241,-0.609515905380249,0.0060792560689151,0.0499490462243557,0.0,0.0,0.6478339433670044,-0.2561469078063965
-0.0413742065429687,0.2802629470825195,0.1192404180765152,-0.6171029210090637,0.0082716112956404,0.0438470132648944,0.0,0.0,0.807640552520752,-0.3344520330429077
-0.0400670059025287,0.2670018374919891,0.1287125796079635,-0.5893968939781189,0.010260964743793,0.0397867932915687,0.0,0.0,0.8443084955215454,-0.6306291222572327
-0.0386137962341308,0.2544354200363159,0.141955554485321,-0.5585323572158813,0.0135887917131185,0.0665565431118011,0.0,0.0,0.5656278133392334,-0.5551735758781433
-0.0372200012207031,0.2423549741506576,0.1353452354669571,-0.5369489192962646,0.0175711251795291,0.0796466842293739,0.0,0.0,0.6543759107589722,-0.8456722497940063
-0.0359330177307128,0.2300797551870346,0.1233671456575393,-0.5456374883651733,0.022833814844489,0.1052536517381668,0.0,0.0,0.8445683717727661,-0.3508774042129516
-0.0345111861824989,0.2184516936540603,0.1368037015199661,-0.5168951749801636,0.0281399115920066,0.106122076511383,0.0,0.0,0.5827281475067139,-0.8801849484443665
-0.0331732742488384,0.206964910030365,0.1269678473472595,-0.5106683969497681,0.0348765440285205,0.1347327530384063,0.0,0.0,0.8208990097045898,-0.6820311546325684
-0.0318706519901752,0.1959169954061508,0.1223937645554542,-0.4912202954292297,0.0426472090184688,0.155413344502449,0.0,0.0,0.5347602367401123,-0.037128746509552
-0.0304967872798442,0.1851643472909927,0.1297434866428375,-0.4781319499015808,0.0501997210085392,0.1510505229234695,0.0,0.0,0.4607404470443725,-0.7575762271881104
-0.0290129669010639,0.1745069622993469,0.1392484456300735,-0.4739928245544433,0.0592308640480041,0.180622711777687,0.0,0.0,0.5622775554656982,-0.6015522480010986
-0.0274614337831735,0.163649097084999,0.144921988248825,-0.4830064475536346,0.069349780678749,0.2023783177137375,0.0,0.0,0.6471409797668457,0.0609809160232543
-0.0257357601076364,0.1527245640754699,0.16208116710186,-0.4860529601573944,0.0797290802001953,0.2075855433940887,0.0,0.0,0.7901995182037354,-0.6807820796966553
-0.023831557482481,0.1420624554157257,0.1783352345228195,-0.47455695271492,0.0917031466960907,0.2394814044237136,0.0,0.0,0.9182634353637696,-0.500924825668335
-0.0217290874570608,0.1314223110675811,0.1968203336000442,-0.473773181438446,0.1050271615386009,0.266480416059494,0.0,0.0,0.9361274242401124,-0.1150633096694946
-0.0196166038513183,0.1214183196425437,0.1980292499065399,-0.4456042945384979,0.1181535571813583,0.2625279426574707,0.0,0.0,0.971240758895874,-0.3135527372360229
-0.0174657814204692,0.1120927408337593,0.2018840610980987,-0.4155671298503876,0.1312843412160873,0.2626160681247711,0.0,0.0,0.9199076890945436,-0.1330404281616211
-0.0151649471372365,0.1032721400260925,0.2163954973220825,-0.3932850658893585,0.1449189186096191,0.2726916670799255,0.0,0.0,0.9430156946182252,-0.7564708590507507
-0.0127432821318507,0.0943526849150657,0.2268562316894531,-0.3979801535606384,0.1602007001638412,0.3056357502937317,0.0,0.0,0.9630436897277832,-0.1545581817626953
-0.0103730205446481,0.0856385827064514,0.222203254699707,-0.388952225446701,0.1750298142433166,0.296582967042923,0.0,0.0,0.978769302368164,0.0886725187301635
-0.0079768178984522,0.0778017342090606,0.2245320379734039,-0.3501516282558441,0.1901652216911316,0.3027080297470093,0.0,0.0,0.7737281322479248,0.1688175201416015
-0.0056153298355638,0.0701821148395538,0.2213742434978485,-0.3406116366386413,0.2050235569477081,0.2971668839454651,0.0,0.0,0.8583523035049438,-0.0392482280731201
-0.0034687041770666,0.0631578788161277,0.2007499188184738,-0.3141771554946899,0.2190747708082199,0.281024307012558,0.0,0.0,0.6518490314483643,-0.239699125289917
-0.0012850761413574,0.0565076433122158,0.2042476236820221,-0.2977287173271179,0.2333705723285675,0.2859157919883728,0.0,0.0,0.6423962116241455,-0.1565486192703247
0.0007769584772177,0.0502511598169803,0.1925317943096161,-0.2802924811840057,0.2472641170024871,0.2778709828853607,0.0,0.0,0.5805375576019287,-0.2864715456962585
0.0026885033585131,0.0443311296403408,0.1780460178852081,-0.2653754949569702,0.2606376111507416,0.2674700915813446,0.0,0.0,0.5353946685791016,-0.3518713712692261
0.0045589446090161,0.0383964404463768,0.1742357313632965,-0.2660983800888061,0.2737525403499603,0.262298434972763,0.0,0.0,0.7819502353668213,-0.3172148466110229
0.0062322616577148,0.0326708182692527,0.1552724242210388,-0.2567802965641022,0.2861362397670746,0.2476733475923538,0.0,0.0,0.817015528678894,0.106201171875
0.0076822279952466,0.0270270202308893,0.1338651329278946,-0.2530606389045715,0.2976078391075134,0.2294325828552246,0.0,1.0,0.9806118011474608,0.9765995740890504
0.0090710641816258,0.0230655763298273,0.1444920599460601,-0.1758487075567245,0.2893214225769043,-0.1693633943796157,0.0,1.0,0.9891164302825928,0.6677842140197754
0.010326194576919,0.0198665242642164,0.1527049839496612,-0.1370628476142883,0.2613280117511749,-0.5599923133850098,0.0,1.0,0.9789547920227052,-0.7113991379737854
0.0113923074677586,0.0179057214409112,0.1447467803955078,-0.0808458626270294,0.2224283516407013,-0.7781356573104858,0.0,1.0,0.8362336158752441,-0.9579493403434752
0.0121396062895655,0.0166695453226566,0.115027867257595,-0.0494033135473728,0.1817165613174438,-0.814353346824646,0.0,1.0,0.5876977443695068,-0.95497727394104
0.0128416065126657,0.0159855466336011,0.1072463020682334,-0.0262890867888927,0.1446122974157333,-0.7421177625656128,0.0,1.0,0.2946847677230835,-0.9052736163139344
0.0134751321747899,0.0153138497844338,0.0986847281455993,-0.0268091596662998,0.1094151511788368,-0.7039713859558105,0.0,0.0,-0.9729751944541932,-0.8289905190467834
0.01413812674582,0.0139772510156035,0.1002370938658714,-0.0572721734642982,0.0757438167929649,-0.6734539270401001,0.0,0.0,-0.7153382897377014,-0.962088942527771
0.0148274423554539,0.0119776101782917,0.1013581752777099,-0.0875508263707161,0.043653167784214,-0.6418393850326538,0.0,0.0,-0.1427525281906128,-0.980214774608612
0.0155433658510446,0.0093036629259586,0.1025031805038452,-0.1182291358709335,0.0131157888099551,-0.6107725501060486,0.0,0.0,0.7034082412719727,-0.9819055795669556
0.0161299705505371,0.0069061256945133,0.0875344276428222,-0.1065507382154464,-0.0153888333588838,-0.5700923204421997,0.0,0.0,0.7192540168762207,-0.9481642842292786
0.0165903083980083,0.0046467399224638,0.0733363479375839,-0.1009184792637825,-0.0423561036586761,-0.5393457412719727,0.0,0.0,0.7524759769439697,-0.9799239039421082
0.0171488765627145,0.0033481575082987,0.061983186751604,-0.0578973516821861,-0.0484169945120811,-0.1212227120995521,1.0,0.0,-0.0731294155120849,-0.4855235815048218
0.0178213119506835,0.0020526146981865,0.0544413104653358,-0.0572131536900997,-0.0357661359012126,0.2530211806297302,1.0,0.0,-0.3517736196517944,-0.653113842010498
0.0185392387211322,0.0005945300799794,0.0435943491756916,-0.0643696933984756,-0.0079062804579734,0.5572172403335571,1.0,0.0,0.2164710760116577,-0.4078372120857239
0.019314955919981,-0.0008059763931669,0.0501108393073082,-0.0623240582644939,0.0191959459334611,0.542044460773468,1.0,1.0,0.5974547863006592,0.5035569667816162
0.0200086589902639,-0.0013331198133528,0.0549163222312927,-0.0238381922245025,0.0327702909708023,0.2705922424793243,0.0,1.0,-0.9209926128387452,0.6098575592041016
0.0205563548952341,-0.0020881437230855,0.0587612278759479,-0.0334801711142063,0.0288007818162441,-0.0794214159250259,0.0,1.0,-0.5246002078056335,-0.1061519980430603
