x_pos,y_pos,x_vel,y_vel,angle,ang_vel,leg_1,leg_2,main_booster,lat_booster
-0.0015314102638512,1.403414607048035,-0.1549185961484909,-0.3335756361484527,0.0015945475315675,0.0314413644373416,0.0,0.0,0.6404348323847386,-0.9149559690193187
-0.0030847550369799,1.3964051008224487,-0.1586377322673797,-0.3115405738353729,0.0048551466315984,0.0652190074324607,0.0,0.0,-0.9161873929071236,0.952920147806467
-0.0045529366470873,1.3891788721084597,-0.1475801169872284,-0.321165919303894,0.0056064394302666,0.0150271281599998,0.0,0.0,-0.7588825194610582,0.6000698291979786
-0.0059886933304369,1.3817411661148071,-0.1431464254856109,-0.3305607140064239,0.0051889647729694,-0.0083501208573579,0.0,0.0,-0.5837569709055945,0.6222577530125716
-0.0073695182800292,1.374096155166626,-0.1359204947948455,-0.3397735357284546,0.0030496274121105,-0.0427906103432178,0.0,0.0,-0.4813850200162175,0.7291019212063549
-0.0086836814880371,1.3662407398223877,-0.1272160708904266,-0.3491275906562805,-0.0010971187148243,-0.082942821085453,0.0,0.0,-0.7677934885299169,0.7770188002856131
-0.0099415779113769,1.3581756353378296,-0.1198616251349449,-0.3584591746330261,-0.0069696977734565,-0.1174621358513832,0.0,0.0,0.5135315019402737,-0.9387204913497534
-0.0111160278320312,1.3507920503616333,-0.1133269220590591,-0.3281818330287933,-0.0110447453334927,-0.0815085843205452,0.0,0.0,-0.9693766909559318,-0.7002149647958267
-0.0123478891327977,1.3432073593139648,-0.1202287450432777,-0.3371255993843078,-0.0139680868014693,-0.0584721155464649,0.0,0.0,0.195214495381635,-0.7524377398450766
-0.0136326793581247,1.336207151412964,-0.1267553865909576,-0.3111403584480285,-0.0156704820692539,-0.0340508110821247,0.0,0.0,0.5865455955247163,0.66658067056564
-0.0147651676088571,1.329850196838379,-0.1101323589682579,-0.2825593054294586,-0.0187661610543727,-0.0619194023311138,0.0,0.0,0.9153117712208272,-0.7391362800692125
-0.0158545486629009,1.324199914932251,-0.1072243899106979,-0.2511548697948456,-0.0204616300761699,-0.0339123681187629,0.0,0.0,-0.1667308398603226,0.8697688565448594
-0.0168585777282714,1.318341612815857,-0.0962772816419601,-0.2604300379753113,-0.0245424881577491,-0.081624612212181,0.0,0.0,-0.5942087179852835,0.9285083757307036
-0.0177783966064453,1.3122625350952148,-0.0854858309030532,-0.2703061997890472,-0.0309676956385374,-0.1285159885883331,0.0,0.0,-0.1321138951958176,0.9869315590546934
-0.018598461523652,1.3059799671173096,-0.0727641433477401,-0.2794306576251983,-0.0401044636964798,-0.1827520728111267,0.0,0.0,0.1545266206563273,-0.88143364950911
-0.0193864814937114,1.2997889518737793,-0.0710650011897087,-0.2753905057907104,-0.0477514378726482,-0.1529537737369537,0.0,0.0,-0.9880071633311304,0.9972959731148952
-0.0200723651796579,1.293393611907959,-0.0581054762005806,-0.2845949828624725,-0.0581361204385757,-0.2077125757932663,0.0,0.0,-0.4080216744050891,0.8540536093218609
-0.0206695552915334,1.2867763042449951,-0.0468105748295784,-0.2946572303771972,-0.0709272176027298,-0.2558448910713196,0.0,0.0,-0.2046735148458895,-0.9737759151451474
-0.0213242527097463,1.279967188835144,-0.0538880415260791,-0.3032086491584778,-0.0824034139513969,-0.2295445203781128,0.0,0.0,0.2158636835937861,-0.8171099108698971
-0.0220696441829204,1.2735888957977295,-0.0642375200986862,-0.2840771079063415,-0.0926302522420883,-0.2045552730560302,0.0,0.0,0.0321714916292112,-0.9352199156976768
-0.0227422714233398,1.2677077054977417,-0.0584965273737907,-0.2619531452655792,-0.101333849132061,-0.1740874946117401,0.0,0.0,0.8991889397726918,-0.8615265380066984
-0.0234086997807025,1.2623800039291382,-0.0593196563422679,-0.237294003367424,-0.1086154803633689,-0.1456458866596222,0.0,0.0,0.5834243353060953,0.6866597805726884
-0.0238209720700979,1.2575899362564087,-0.03247756883502,-0.2135448455810547,-0.1173071041703224,-0.1738482415676117,0.0,0.0,0.0055158703719837,-0.7175721259484872
-0.0242100711911916,1.2528678178787231,-0.0313145779073238,-0.2104831337928772,-0.1248647421598434,-0.1511664688587188,0.0,0.0,0.971560800190844,0.7468083884377367
-0.0246170051395893,1.2491059303283691,-0.0308650191873312,-0.1680526286363601,-0.1346757560968399,-0.1962379515171051,0.0,0.0,-0.0452469359575702,0.8906808632528447
-0.0249626152217388,1.245108723640442,-0.0230445489287376,-0.1787328273057937,-0.1461633592844009,-0.2297516614198684,0.0,0.0,-0.4636373910565901,-0.9893337662036614
-0.0253743175417184,1.2409272193908691,-0.0313016772270202,-0.1868519037961959,-0.1560151129961013,-0.1970350593328476,0.0,0.0,-0.4750770570662919,-0.9962255574233264
-0.0258688926696777,1.2365700006484983,-0.0417064204812049,-0.1944863498210907,-0.1637696623802185,-0.1550907492637634,0.0,0.0,0.3617412623945779,-0.9334508142993724
-0.0264422409236431,1.2330050468444824,-0.0510331280529499,-0.1591477692127227,-0.1700792759656906,-0.1261919438838958,0.0,0.0,0.0164725072734637,-0.9204922553221104
-0.027040958404541,1.2296940088272097,-0.055073469877243,-0.14771468937397,-0.1748797744512558,-0.0960098654031753,0.0,0.0,0.0881829387170984,0.7295549777485701
-0.0274592395871877,1.2269874811172483,-0.0352689810097217,-0.1210790202021598,-0.1814648956060409,-0.1317020058631897,0.0,0.0,0.1950192493511646,0.647390292034878
-0.0278204921633005,1.224539875984192,-0.0278378538787364,-0.1098195686936378,-0.1897833943367004,-0.166370078921318,0.0,0.0,0.5033904566581329,-0.8031785695000325
-0.0281754489988088,1.2230076789855957,-0.0283693373203277,-0.069026842713356,-0.1969521343708038,-0.1433751285076141,0.0,0.0,-0.756022992438786,-0.8730979781396417
-0.0285938270390033,1.2212817668914795,-0.0362968742847442,-0.0774550288915634,-0.2025288492441177,-0.1115342155098915,0.0,0.0,-0.1939445387890974,0.8589331007946355
-0.0289308540523052,1.2193281650543213,-0.0260850451886653,-0.0878837779164314,-0.2102199345827102,-0.1538216173648834,0.0,0.0,0.6924924234712626,0.6481834008609046
-0.0290227886289358,1.2182860374450684,4.329157036409015e-06,-0.0476595535874366,-0.2195078283548355,-0.1857580244541168,0.0,0.0,-0.0683517914727123,-0.8282912130450428
-0.0291687007993459,1.2170541286468506,-0.0067869811318814,-0.0559340938925743,-0.2274026423692703,-0.1578959077596664,0.0,0.0,-0.2821617242137388,0.9309651996328498
-0.0292238239198923,1.215595006942749,0.004569130949676,-0.0664364472031593,-0.237631157040596,-0.2045707702636718,0.0,0.0,0.7364602724416542,-0.8011603572646282
-0.0291610714048147,1.2152665853500366,0.0151746291667222,-0.0160607229918241,-0.2466667294502258,-0.1807110756635666,0.0,0.0,0.329026351785614,0.9553591499492898
-0.0288661010563373,1.215406060218811,0.0405771248042583,0.0042968140915036,-0.257962018251419,-0.2259058654308319,0.0,0.0,-0.120096807251423,0.9002943385963118
-0.0284990314394235,1.2153236865997314,0.0495394095778465,-0.0059695565141737,-0.2710947096347809,-0.2626540958881378,0.0,0.0,-0.8074749708175659,-0.9963458180427552
-0.028178310021758,1.2150577306747437,0.0436498709022998,-0.0140065299347043,-0.282970666885376,-0.2375191152095794,0.0,0.0,-0.65667724609375,-0.995365023612976
-0.0279083251953125,1.2146021127700806,0.0372290387749671,-0.022275798022747,-0.2935096025466919,-0.2107790261507034,0.0,0.0,-0.8211526274681091,-0.9984634518623352
-0.0276872627437114,1.213965654373169,0.0310187935829162,-0.0301058832556009,-0.3027025759220123,-0.1838590204715728,0.0,0.0,-0.4298535585403442,-0.9925636649131776
-0.0275336261838674,1.2131478786468506,0.0225081406533718,-0.0378524176776409,-0.3100981414318084,-0.147911250591278,0.0,0.0,-0.8178564310073853,-0.9954510927200316
-0.0274364463984966,1.2121458053588867,0.0153835695236921,-0.0457605235278606,-0.3159779906272888,-0.117597185075283,0.0,0.0,-0.115311861038208,-0.9813379645347596
-0.0273917205631732,1.2109628915786743,0.0087341014295816,-0.0535075701773166,-0.320412278175354,-0.0886860340833664,0.0,0.0,-0.7915616035461426,-0.9736279845237732
-0.027416419237852,1.2096246480941772,-0.0001449070550734,-0.059990145266056,-0.3228248357772827,-0.0482513606548309,0.0,0.0,-0.652356743812561,-0.9837999939918518
-0.0275139808654785,1.2081313133239746,-0.0094699645414948,-0.0664342492818832,-0.3231243789196014,-0.0059908786788582,0.0,0.0,-0.7218796014785767,-0.9791322946548462
-0.0276730544865131,1.2064648866653442,-0.0172684788703918,-0.0737543553113937,-0.3217050433158874,0.0283865388482809,0.0,0.0,-0.1799455285072326,-0.9687995910644532
-0.027872372418642,1.2046177387237549,-0.0224160719662904,-0.0815525576472282,-0.3191268146038055,0.0515652522444725,0.0,0.0,-0.0907894372940063,-0.957270622253418
-0.0281337741762399,1.2026071548461914,-0.0303597953170537,-0.0884364992380142,-0.3147489130496979,0.0875588208436966,0.0,0.0,-0.5165826678276062,-0.8474264144897461
-0.0284332279115915,1.2004094123840332,-0.0351892486214637,-0.0965478718280792,-0.3093087077140808,0.1088039726018905,0.0,0.0,-0.5536012053489685,-0.972234845161438
-0.0287882797420024,1.198047161102295,-0.0423391051590442,-0.1035527437925338,-0.3022356331348419,0.1414616256952285,0.0,0.0,-0.3041363954544067,-0.8394980430603027
-0.0291764251887798,1.1954964399337769,-0.0465722829103469,-0.1117776408791542,-0.2942265272140503,0.1601824462413787,0.0,0.0,-0.9020361304283142,-0.7941663265228271
-0.0296195987612009,1.1927664279937744,-0.0535682737827301,-0.1194977983832359,-0.2846966087818146,0.1905982047319412,0.0,0.0,-0.7511312365531921,-0.902237832546234
-0.030103588476777,1.1898622512817385,-0.0588538832962513,-0.1270662993192672,-0.2739588618278503,0.2147550582885742,0.0,0.0,-0.9401240944862366,-0.3387233018875122
-0.0305724143981933,1.186751127243042,-0.0570370852947235,-0.1364068984985351,-0.2635665237903595,0.2078464031219482,0.0,0.0,-0.9425899386405944,0.1370778083801269
-0.0310261733829975,1.1834328174591064,-0.0552224516868591,-0.145746648311615,-0.2535191774368286,0.2009472399950027,0.0,0.0,-0.5406507253646851,0.114957571029663
-0.0314650535583496,1.179907202720642,-0.0534108653664588,-0.1550855338573455,-0.2438162267208099,0.1940588355064392,0.0,0.0,-0.927034556865692,-0.6400073766708374
-0.0319347381591796,1.1761853694915771,-0.0573368780314922,-0.163727194070816,-0.2332794070243835,0.2107366025447845,0.0,0.0,-0.8827742338180542,0.2561231851577759
-0.0323894508183002,1.172256350517273,-0.0555346980690956,-0.1730663776397705,-0.2230857461690902,0.2038733512163162,0.0,0.0,-0.74240642786026,0.2123736143112182
-0.0328293815255165,1.1681199073791504,-0.0537381097674369,-0.1824046820402145,-0.2132344841957092,0.1970250904560089,0.0,0.0,-0.8302310109138489,-0.4415194988250732
-0.0332546234130859,1.16377592086792,-0.0519480034708976,-0.1917421519756317,-0.2037248015403747,0.1901935189962387,0.0,0.0,-0.9189865589141846,-0.2355867624282837
-0.0336651802062988,1.159224033355713,-0.0501652657985687,-0.2010788172483444,-0.1945558041334152,0.1833803206682205,0.0,0.0,-0.5317369103431702,-0.4199870824813843
-0.0340613350272178,1.1544643640518188,-0.0483907833695411,-0.210414707660675,-0.1857264339923858,0.17658731341362,0.0,0.0,-0.7854707837104797,0.2883801460266113
-0.0344429984688758,1.1494966745376587,-0.0466254577040672,-0.2197498530149459,-0.1772355735301971,0.1698165088891983,0.0,0.0,-0.5207886099815369,-0.0643293261528015
-0.0348103530704975,1.1443209648132324,-0.0448701903223991,-0.2290842533111572,-0.1690820902585983,0.1630699783563614,0.0,0.0,-0.3289949893951416,-0.2270636558532714
-0.0351634994149208,1.1389368772506714,-0.0431258976459503,-0.2384179532527923,-0.1612645983695984,0.1563500165939331,0.0,0.0,-0.4353554248809814,0.406554102897644
-0.0355025306344032,1.133344650268555,-0.0413934960961341,-0.2477509826421737,-0.1537816673517227,0.1496590673923492,0.0,0.0,-0.672188401222229,0.3103369474411011
-0.03582763671875,1.1275440454483032,-0.039673913270235,-0.2570833563804626,-0.1466316878795623,0.1429996490478515,0.0,0.0,-0.5522209405899048,0.4439620971679687
-0.0361389145255088,1.121534824371338,-0.0379680953919887,-0.2664151489734649,-0.13981294631958,0.1363746672868728,0.0,0.0,-0.7990307807922363,0.2219500541687011
-0.0364365577697753,1.1153171062469482,-0.036276988685131,-0.2757463157176971,-0.1333235949277877,0.1297871619462967,0.0,0.0,0.3118213415145874,0.3438869714736938
-0.0366018302738666,1.1095609664916992,-0.0229933857917785,-0.2552729845046997,-0.1268917322158813,0.128637284040451,0.0,0.0,-0.3921951055526733,0.331446886062622
-0.0367538444697856,1.1035958528518677,-0.0213346444070339,-0.2646033465862274,-0.1207850128412246,0.1221345067024231,0.0,0.0,-0.8492209911346436,0.2964704036712646
-0.0368925109505653,1.0974218845367432,-0.0196935143321752,-0.2739331424236297,-0.1150010302662849,0.1156797260046005,0.0,0.0,-0.7336228489875793,0.6404554843902588
-0.036971092224121,1.09102463722229,-0.0121329361572861,-0.2840056121349334,-0.1107507646083831,0.0850051939487457,0.0,0.0,-0.6952165961265564,0.8992652893066406
-0.0369664207100868,1.0844143629074097,-0.0017179433489218,-0.2936232686042785,-0.108583740890026,0.0433403216302394,0.0,0.0,-0.7753362059593201,0.2245033979415893
-0.0369490608572959,1.0775949954986572,-0.0001353476254735,-0.3029499351978302,-0.1067309826612472,0.0370552316308021,0.0,0.0,-0.7867141366004944,-0.3521814346313476
-0.0369193069636821,1.0705662965774536,0.0014255864080041,-0.3122764527797699,-0.105189174413681,0.0308362208306789,0.0,0.0,-0.9156634211540222,-0.1715103983879089
-0.0368772521615028,1.0633282661437988,0.0029638512060046,-0.3216028213500976,-0.1039547473192215,0.0246887151151895,0.0,0.0,-0.7768216729164124,-0.2422103881835937
-0.0368230827152729,1.055880784988403,0.0044784378260374,-0.3309289813041687,-0.1030238270759582,0.0186184495687484,0.0,0.0,-0.6995143890380859,-0.120377242565155
-0.0367569923400878,1.0482242107391355,0.0059683378785848,-0.3402550816535949,-0.1023922562599182,0.0126315401867032,0.0,0.0,-0.6286538243293762,-0.5129785537719727
-0.0367231369018554,1.0403668880462646,0.0019187238067388,-0.3491071164608001,-0.1009387597441673,0.0290699154138565,0.0,0.0,-0.910807728767395,-0.1234503984451294
-0.0366778373718261,1.0323004722595217,0.0033562197349965,-0.3584331572055816,-0.0997752696275711,0.0232697557657957,0.0,0.0,-0.8778846859931946,-0.0864675045013427
-0.0366212837398052,1.024024486541748,0.0047660483978688,-0.3677591681480407,-0.0988965779542923,0.0175737980753183,0.0,0.0,-0.8985792398452759,-0.3986173868179321
-0.0365537628531456,1.0155391693115234,0.0061472323723137,-0.3770850002765655,-0.0982971042394638,0.0119897965341806,0.0,0.0,-0.8572095036506653,-0.6725067496299744
-0.0365206710994243,1.0068461894989014,0.0018448164919391,-0.3862590789794922,-0.0968383848667144,0.0291741155087947,0.0,0.0,-0.8835456371307373,0.1888175010681152
-0.0364769920706748,0.9979438185691832,0.0031658292282372,-0.3955848813056946,-0.095646433532238,0.0238389633595943,0.0,0.0,-0.932482123374939,-0.0718266367912292
-0.0364230163395404,0.9888320565223694,0.0044553941115736,-0.404910534620285,-0.0947143584489822,0.018641447648406,0.0,0.0,-0.7532368302345276,-0.2281374931335449
-0.0363590233027935,0.9795107245445251,0.0057126255705952,-0.4142360687255859,-0.0940348282456398,0.0135908322408795,0.0,0.0,-0.8865652084350586,0.0436116456985473
-0.0362853035330772,0.9699800610542296,0.0069366702809929,-0.4235614836215973,-0.0935999751091003,0.0086967535316944,0.0,0.0,-0.9654364585876464,-0.1863716840744018
-0.0362020507454872,0.960239827632904,0.0081267142668366,-0.4328868091106415,-0.09340151399374,0.0039690574631094,0.0,0.0,-0.9883511662483216,-0.4860929846763611
-0.0361096374690532,0.9502900838851928,0.0092819863930344,-0.4422120451927185,-0.093430608510971,-0.0005822138627991,0.0,0.0,-0.9789398908615112,-0.4546626806259155
-0.036008071154356,0.9401307106018066,0.0104017639532685,-0.4515371918678283,-0.0936779603362083,-0.0049468544311821,0.0,0.0,-0.9932836890220642,-0.1914430856704712
-0.0358978286385536,0.929762065410614,0.0114853773266077,-0.4608622789382934,-0.0941336825489997,-0.0091145988553762,0.0,0.0,-0.9585781097412108,-0.8672095537185669
-0.0358500480651855,0.9191936254501344,0.0036252471618354,-0.4696402847766876,-0.0929921716451644,0.0228302665054798,0.0,0.0,-0.9800084829330444,0.0232021808624267
-0.0357940681278705,0.90841543674469,0.0046347430907189,-0.4789653122425079,-0.0920378416776657,0.0190866738557815,0.0,0.0,-0.9946228861808776,0.3729503154754638
-0.0357301719486713,0.8974279761314392,0.0056064310483634,-0.4882902204990387,-0.0912593379616737,0.0155700268223881,0.0,0.0,-0.9878286719322203,0.1972937583923339
-0.0356585495173931,0.8862307667732239,0.006539890076965,-0.4976149797439575,-0.0906448438763618,0.0122898695990443,0.0,0.0,-0.9855611324310304,-0.3849070072174072
-0.0355794914066791,0.8748238682746887,0.0074347755871713,-0.5069396495819092,-0.0901821032166481,0.0092551279813051,0.0,0.0,-0.9820571541786194,-0.7216176986694336
-0.0355525985360145,0.8632131218910217,0.0008452804759144,-0.5159226655960083,-0.0883617773652076,0.0364067107439041,0.0,0.0,-0.98809015750885,0.1373671293258667
-0.0355189330875873,0.8513928055763245,0.0016622531693428,-0.5252472758293152,-0.086667388677597,0.033887468278408,0.0,0.0,-0.895695149898529,0.0782943964004516
-0.0354785919189453,0.8393629193305969,0.0024400874972343,-0.5345718264579773,-0.0850855559110641,0.031636793166399,0.0,0.0,-0.9533313512802124,-0.1125091314315795
-0.0354318618774414,0.8271234631538391,0.0031787562184035,-0.5438961386680603,-0.0836025178432464,0.0296607557684183,0.0,0.0,-0.9735831022262572,-0.3610705137252807
-0.0353789329528808,0.8146741390228271,0.0038783159106969,-0.5532204508781433,-0.0822043120861053,0.0279643684625625,0.0,0.0,-0.92473566532135,-0.6980171799659729
-0.0353615768253803,0.8020258545875549,-0.0006753065390512,-0.5620163083076477,-0.0798195973038673,0.0476940087974071,0.0,0.0,-0.91224604845047,-0.2443495392799377
-0.0353386886417865,0.7891678214073181,-5.348849299480207e-05,-0.5713406801223755,-0.0774912238121032,0.0465674623847007,0.0,0.0,-0.8976882696151733,-0.3551570773124695
-0.0353101715445518,0.7761002779006958,0.0005299097974784,-0.5806649327278137,-0.0752047672867775,0.0457289218902587,0.0,0.0,-0.9034992456436156,0.0843790769577026
-0.0352766029536724,0.7628229856491089,0.0010752854868769,-0.5899890065193176,-0.0729458108544349,0.0451789274811744,0.0,0.0,-0.8765051364898682,-0.0633190870285034
-0.0352380760014057,0.7493359446525574,0.0015831210184842,-0.5993130207061768,-0.0706999748945236,0.0449166558682918,0.0,0.0,-0.9215383529663086,-0.6648399233818054
-0.0352417938411235,0.7356501221656799,-0.0038402578793466,-0.6080978512763977,-0.0672610700130462,0.0687778741121292,0.0,0.0,-0.8893106579780579,0.4509713649749756
-0.0352408401668071,0.7217547297477722,-0.0034057938028126,-0.6174222826957703,-0.0638068541884422,0.0690842345356941,0.0,0.0,-0.9221398830413818,-0.3501025438308716
-0.0352356918156147,0.7076495885848999,-0.0030069453641772,-0.6267465949058533,-0.0603233985602855,0.0696692317724227,0.0,0.0,-0.8455756902694702,-0.0490894317626953
-0.0352264419198036,0.6933348774909973,-0.0026429197750985,-0.6360709071159363,-0.0567970052361488,0.0705280005931854,0.0,0.0,-0.9352437257766724,0.6350647211074829
-0.0351649299263954,0.6788058876991272,0.0037567042745649,-0.645641565322876,-0.0544331409037113,0.0472775287926197,0.0,0.0,-0.8860079050064087,-0.1023052334785461
-0.0350997932255268,0.6640672087669373,0.0040537780150771,-0.6549651622772217,-0.0519998855888843,0.0486649088561534,0.0,0.0,-0.8404159545898438,-0.0974814891815185
-0.035031221807003,0.6491187810897827,0.0043187988921999,-0.6642887592315674,-0.0494846105575561,0.0503056161105632,0.0,0.0,-0.7764869928359985,0.3021484613418579
-0.0349593162536621,0.633960485458374,0.0045528137125074,-0.6736124753952026,-0.046875026077032,0.0521916523575782,0.0,0.0,-0.648723840713501,-0.1019680500030517
-0.0348841659724712,0.6185925006866455,0.0047569209709763,-0.6829361319541931,-0.0441593118011951,0.0543143227696418,0.0,0.0,-0.8373456001281738,0.0641291141510009
