x_pos,y_pos,x_vel,y_vel,angle,ang_vel,leg_1,leg_2,main_booster,lat_booster
-0.0015331268077716,1.4030956029891968,-0.1560855656862259,-0.3477571904659271,0.0024875039234757,0.0491222105920314,0.0,0.0,0.4130611613698198,-0.9988377821729733
-0.0031054497230798,1.3953523635864258,-0.1624346077442169,-0.3441590964794159,0.0076378704980015,0.1030175536870956,0.0,0.0,0.4383830376724504,0.6637201767729679
-0.00451240548864,1.387604832649231,-0.1455604285001754,-0.3443651497364044,0.012445168569684,0.0961551219224929,0.0,0.0,-0.014517509563886,0.5875884476199145
-0.0058956146240234,1.3793275356292725,-0.1429421007633209,-0.3679260015487671,0.0170220788568258,0.0915461927652359,0.0,0.0,-0.1969791009297812,0.8114800327670166
-0.00721578579396,1.3705263137817385,-0.1353875696659088,-0.3912093937397003,0.0203508846461772,0.0665821582078933,0.0,0.0,-0.8535196991057523,-0.5255533785273516
-0.008583640679717,1.361194729804993,-0.1416701525449752,-0.4148058891296386,0.025183331221342,0.096657820045948,0.0,0.0,0.8253002789006454,0.7499213460988983
-0.0099526401609182,1.352292776107788,-0.1409259736537933,-0.3957152962684631,0.0291637945920228,0.0796167999505996,0.0,0.0,0.531002359335573,0.6794974293269157
-0.0111522674560546,1.3437721729278564,-0.1236493214964866,-0.3787733316421509,0.0328213237226009,0.0731569677591323,0.0,0.0,0.3728777432068153,0.8640302523042935
-0.0123373987153172,1.3357775211334229,-0.1211766451597213,-0.3553734719753265,0.0354456081986427,0.0524905733764171,0.0,0.0,-0.0317323030583758,-0.5237761561319255
-0.0135845188051462,1.3272557258605957,-0.1291074454784393,-0.3788648545742035,0.0398007035255432,0.0871098786592483,0.0,0.0,-0.4807617934721793,-0.8849465681677092
-0.0149129871279001,1.3182028532028198,-0.1394626200199127,-0.4025420248508453,0.0463468357920646,0.1309344470500946,0.0,0.0,0.1191612189821238,0.8282615934305655
-0.0161602012813091,1.3091647624969482,-0.1303941011428833,-0.4018766582012176,0.0519695542752742,0.1124645248055458,0.0,0.0,0.7826361718292116,-0.7428381982426039
-0.0173759460449218,1.3007404804229736,-0.1297880113124847,-0.3747127652168274,0.0600942112505435,0.1625080555677414,0.0,0.0,0.1306217386527461,-0.5765695022813105
-0.0186243057250976,1.2921481132507324,-0.1349664032459259,-0.3823221623897552,0.0701330676674842,0.2007955610752105,0.0,0.0,0.2181213595342093,0.93955690501369
-0.0197468753904104,1.2839683294296265,-0.1212369948625564,-0.363987535238266,0.0790304541587829,0.1779639571905136,0.0,0.0,0.6501218175632815,-0.8803667322410988
-0.0208670608699321,1.275701642036438,-0.1236267685890197,-0.3680640161037445,0.0905475914478302,0.2303637266159057,0.0,0.0,0.2534811770931995,-0.6818325559174607
-0.0220119468867778,1.2678951025009155,-0.1283005625009536,-0.3478575944900512,0.104262001812458,0.2743132412433624,0.0,0.0,-0.1146640605291713,0.5501140881411049
-0.0231326110661029,1.2595661878585815,-0.125150665640831,-0.3711318075656891,0.1172826588153839,0.2604363262653351,0.0,0.0,-0.7211409232640484,0.5533949889027979
-0.0242335312068462,1.2507259845733645,-0.1225340142846107,-0.3939291536808014,0.1296746581792831,0.2478624582290649,0.0,0.0,0.4498025641125238,0.7435857876881057
-0.0254496578127145,1.2420939207077026,-0.1330546289682388,-0.3846712708473205,0.1410982757806778,0.2284928113222122,0.0,0.0,0.6971342522877972,-0.5584195515440911
-0.02671136893332,1.2341078519821167,-0.1397290229797363,-0.3562839925289154,0.1546505689620971,0.2710703015327453,0.0,0.0,-0.8302476597120483,0.7911004325088793
-0.0279426574707031,1.2256063222885132,-0.135676234960556,-0.3791985809803009,0.1672236323356628,0.2514837384223938,0.0,0.0,-0.6534304173021221,0.6470639875427795
-0.0291460994631052,1.2165937423706057,-0.1319347918033599,-0.4018999934196472,0.1788478195667266,0.2325045764446258,0.0,0.0,0.6037476911910742,0.9358000203895992
-0.0302886962890625,1.2075326442718506,-0.1246652230620384,-0.4040104448795318,0.1893156170845031,0.2093743085861206,0.0,0.0,0.7133124913310456,-0.8470494322183011
-0.0318181030452251,1.1988661289215088,-0.1653279364109039,-0.3868059813976288,0.2018057405948639,0.2498247176408767,0.0,0.0,0.5999784670454473,0.8494214602586956
-0.0336058624088764,1.1906325817108154,-0.1898189336061477,-0.3674888908863067,0.2129413336515426,0.2227118015289306,0.0,0.0,0.5247591605670836,0.9486847463429534
-0.0354950912296772,1.182886838912964,-0.1986242085695266,-0.3456865847110748,0.2227528840303421,0.1962311416864395,0.0,0.0,0.6899027204643797,-0.9269955801759824
-0.0378259643912315,1.1757858991622925,-0.2449615448713302,-0.3174323141574859,0.2347834110260009,0.2406104356050491,0.0,0.0,0.181284877462835,0.506420443346312
-0.0403838157653808,1.168949842453003,-0.2669582068920135,-0.3056373298168182,0.2461378723382949,0.2270893603563308,0.0,0.0,-0.5715362291093693,0.6287672348350892
-0.0429325103759765,1.161603927612305,-0.2653394937515259,-0.3282868266105652,0.256813496351242,0.2135126888751983,0.0,0.0,0.7740720876612002,0.6379534439179817
-0.0456817634403705,1.1550853252410889,-0.2846708595752716,-0.2914512753486633,0.2667745947837829,0.1992218196392059,0.0,0.0,-0.8435741066932678,0.9824522733688354
-0.0484031662344932,1.1480621099472046,-0.2806885838508606,-0.3137277066707611,0.2755213975906372,0.1749361902475357,0.0,0.0,-0.8966915607452393,0.981346845626831
-0.0511008277535438,1.1405487060546875,-0.2770929038524627,-0.3353298902511596,0.2830380499362945,0.1503336727619171,0.0,0.0,-0.7202824354171753,0.906280517578125
-0.0537745468318462,1.1325275897979736,-0.2735557556152344,-0.3577031791210174,0.2893950641155243,0.1271406263113021,0.0,0.0,-0.90920752286911,0.9624946117401124
-0.0564133636653423,1.1240150928497314,-0.2685328125953674,-0.3792683184146881,0.2941994667053222,0.096088171005249,0.0,0.0,-0.8206804394721985,0.9914960861206056
-0.0590159408748149,1.1150177717208862,-0.2633152306079864,-0.4005075991153717,0.2973567545413971,0.0631451830267906,0.0,0.0,-0.9453588724136353,0.9917869567871094
-0.0615854263305664,1.1055209636688232,-0.2585523426532745,-0.4223985075950622,0.2990050315856933,0.032965563237667,0.0,0.0,-0.905121922492981,0.9969496726989746
-0.0641163811087608,1.09554123878479,-0.2529728710651397,-0.4435189664363861,0.298881471157074,-0.0024714712053537,0.0,0.0,-0.9676270484924316,0.9811244010925292
-0.0666201561689376,1.0850763320922852,-0.2487953156232834,-0.4647811949253082,0.2972497940063476,-0.0326336733996868,0.0,0.0,-0.9609374403953552,0.9787611961364746
-0.0690865516662597,1.0741207599639893,-0.2433780878782272,-0.4862537980079651,0.2938765585422516,-0.0674642771482467,0.0,0.0,-0.992258846759796,0.9988770484924316
-0.0715323463082313,1.062673807144165,-0.2399873435497284,-0.5078322887420654,0.2891424298286438,-0.094682790338993,0.0,0.0,-0.9565249085426332,0.9980180263519288
-0.0739264488220214,1.050737977027893,-0.2327184677124023,-0.5291711688041687,0.2822592258453369,-0.1376643478870391,0.0,0.0,-0.979810118675232,0.9896671772003174
-0.0762707740068435,1.0383025407791138,-0.2257314473390579,-0.5510331392288208,0.2733184993267059,-0.1788153946399688,0.0,0.0,-0.9858086109161376,0.9933373928070068
-0.0785662680864334,1.0253751277923584,-0.2187571823596954,-0.5725682377815247,0.2622705698013305,-0.2209582030773162,0.0,0.0,-0.9737799167633056,0.991124391555786
-0.0808282867074012,1.0119386911392212,-0.2137610912322998,-0.5950052738189697,0.2495705485343933,-0.2540004253387451,0.0,0.0,-0.9631800055503844,0.9851984977722168
-0.0830462425947189,0.9979974627494812,-0.2073988616466522,-0.6172254085540771,0.2349154353141784,-0.2931023240089416,0.0,0.0,-0.965951144695282,0.9849588871002196
-0.0852188095450401,0.9835559129714966,-0.20077446103096,-0.6393117308616638,0.2182262241840362,-0.3337843120098114,0.0,0.0,-0.9675499796867372,0.7749831676483154
-0.0873820334672927,0.9686139225959778,-0.198640376329422,-0.6615765690803528,0.2003814876079559,-0.3568951487541199,0.0,0.0,-0.9692940711975098,0.7227356433868408
-0.0895399078726768,0.9531671404838562,-0.1970141381025314,-0.6840883493423462,0.1814900189638137,-0.3778296709060669,0.0,0.0,-0.9160962104797364,0.1559116840362548
-0.0917348861694336,0.9371963143348694,-0.2006973922252655,-0.7076235413551331,0.1626589000225067,-0.3766223788261413,0.0,0.0,-0.9832186698913574,0.6569235324859619
-0.093902587890625,0.9207171201705932,-0.1963091790676117,-0.7302938103675842,0.1422297358512878,-0.4085839390754699,0.0,0.0,-0.96173757314682,0.2198141813278198
-0.0961055755615234,0.9037147760391236,-0.1997880339622497,-0.7538332343101501,0.1218016445636749,-0.4085617959499359,0.0,0.0,-0.8996150493621826,0.5920549631118774
-0.0982878655195236,0.8861960172653198,-0.1962322443723678,-0.7769553661346436,0.0999503061175346,-0.4370269179344177,0.0,0.0,-0.9471192955970764,-0.7540780305862427
-0.1005632430315017,0.8681525588035583,-0.206934168934822,-0.8006874322891235,0.079534962773323,-0.4083073735237121,0.0,0.0,-0.9509903192520142,-0.2420741319656372
-0.1028710380196571,0.8495854735374451,-0.2100519835948944,-0.8242265582084656,0.0590341687202453,-0.4100165367126465,0.0,0.0,-0.8798784613609314,-0.3013099431991577
-0.1052099242806434,0.8304951786994934,-0.2130338847637176,-0.847766101360321,0.0384200811386108,-0.4122816026210785,0.0,0.0,-0.0893858671188354,0.200581669807434
-0.1075788512825965,0.8108815550804138,-0.2158720791339874,-0.8713061809539795,0.0176656171679496,-0.4150893092155456,0.0,0.0,0.3430261611938476,-0.2185908555984497
-0.1098738685250282,0.7915701270103455,-0.2088340520858764,-0.8581762909889221,-0.0027368383016437,-0.4080492854118347,0.0,0.0,0.565192699432373,-0.440027117729187
-0.1121232062578201,0.7729049324989319,-0.2043979167938232,-0.829728364944458,-0.0230044871568679,-0.4053528308868408,0.0,0.0,0.44137704372406,-0.86020427942276
-0.1145253181457519,0.7547564506530762,-0.2211171835660934,-0.8069989085197449,-0.0418691597878932,-0.3772934973239898,0.0,0.0,-0.2664013504981994,-0.8292331099510193
-0.1170118302106857,0.7360801100730896,-0.2308481633663177,-0.8306440114974976,-0.0594667792320251,-0.3519525527954101,0.0,0.0,0.4860296249389648,-0.0389069318771362
-0.1195733994245529,0.7178323864936829,-0.2376777380704879,-0.8118495941162109,-0.0777461603283882,-0.3655874133110046,0.0,0.0,0.3760523796081543,-0.6336280703544617
-0.122059442102909,0.6996952295303345,-0.2313580960035324,-0.8070741891860962,-0.0948336794972419,-0.3417505025863647,0.0,0.0,-0.2072619795799255,-0.7177919745445251
-0.124618723988533,0.6810420751571655,-0.239777997136116,-0.8301264643669128,-0.1108539775013923,-0.3204061985015869,0.0,0.0,0.4803247451782226,-0.4726965427398681
-0.1271482408046722,0.6623985171318054,-0.2365407198667526,-0.8299077153205872,-0.1271701902151107,-0.3263242542743683,0.0,0.0,0.9646310806274414,-0.3650153875350952
-0.1297495812177658,0.6443037986755371,-0.2427291572093963,-0.8057766556739807,-0.1445150524377823,-0.3468970656394958,0.0,0.0,0.9356777667999268,-0.6366987824440002
-0.132241815328598,0.627185583114624,-0.2328422367572784,-0.7624809741973877,-0.160878375172615,-0.3272664248943329,0.0,0.0,0.9068543910980223,-0.9144523739814758
-0.1346602439880371,0.6100239157676697,-0.2271154373884201,-0.7644078135490417,-0.1756123602390289,-0.2946797907352447,0.0,0.0,0.9163105487823486,-0.541297972202301
-0.1369227468967437,0.5938077569007874,-0.2123530209064483,-0.7224158048629761,-0.1895618289709091,-0.2789896428585052,0.0,0.0,0.6504180431365967,-0.9178579449653624
-0.1392777413129806,0.57780921459198,-0.2229005843400955,-0.7127093076705933,-0.2022352069616317,-0.2534672617912292,0.0,0.0,0.9208817481994628,-0.9328221082687378
-0.1416658461093902,0.5625032186508179,-0.2274706810712814,-0.6818583011627197,-0.213670864701271,-0.2287130355834961,0.0,0.0,0.3358105421066284,-0.3449748158454895
-0.1439245194196701,0.5474010109901428,-0.2142364680767059,-0.67293381690979,-0.2254376262426376,-0.2353350669145584,0.0,0.0,0.4371031522750854,-0.5391741991043091
-0.1461768150329589,0.5329079627990723,-0.2139664590358734,-0.6459022164344788,-0.2368589490652084,-0.2284264266490936,0.0,0.0,0.3054642677307129,-0.8103625774383545
-0.1483167707920074,0.518553614616394,-0.2039811164140701,-0.6396169066429138,-0.2470488846302032,-0.2037984132766723,0.0,0.0,0.3322920799255371,-0.8756850957870483
-0.1504722535610199,0.5041619539260864,-0.2067630290985107,-0.6411284804344177,-0.2559871971607208,-0.1787655055522918,0.0,0.0,0.1619685888290405,-0.6177601218223572
-0.1525580435991287,0.489567756652832,-0.20063316822052,-0.6500374674797058,-0.2640979290008545,-0.1622154861688614,0.0,0.0,0.9277737140655518,-0.8811658620834351
-0.1546371430158615,0.4750552773475647,-0.2011512964963913,-0.6462330222129822,-0.2710168063640594,-0.1383778154850006,0.0,0.0,0.9781036376953124,-0.8899412751197815
-0.1565249413251876,0.4614291489124298,-0.1832817941904068,-0.6066374182701111,-0.276663601398468,-0.1129359006881713,0.0,0.0,0.968246579170227,-0.7677104473114014
-0.1580884009599685,0.4486684799194336,-0.1520790606737136,-0.5679538249969482,-0.2810391783714294,-0.0875115245580673,0.0,0.0,0.9799292087554932,-0.9332817196846008
-0.1595723181962967,0.4368939399719238,-0.1452087014913559,-0.5239307284355164,-0.2843172252178192,-0.0655606463551521,0.0,0.0,0.9777369499206544,-0.790765106678009
-0.1611463576555252,0.4252527356147766,-0.1548791825771331,-0.5178802013397217,-0.2869139015674591,-0.0519333966076374,0.0,0.0,0.9933218955993652,0.7344270944595337
-0.1623189002275467,0.4144164621829986,-0.112880066037178,-0.4824799597263336,-0.2914229035377502,-0.0901802256703376,0.0,0.0,0.9529601335525512,-0.5545033812522888
-0.1634325981140136,0.4041047096252441,-0.1071918606758117,-0.4591419398784637,-0.2957296371459961,-0.0861346796154975,0.0,0.0,0.9715498685836792,-0.8558915853500366
-0.1644129753112793,0.3944912254810333,-0.0948719456791877,-0.4279125034809112,-0.2990037202835083,-0.0654825121164321,0.0,0.0,0.61018967628479,-0.5564677715301514
-0.1652135848999023,0.3853558301925659,-0.0774049311876297,-0.4065683484077453,-0.3017480373382568,-0.0548863783478736,0.0,0.0,0.9350018501281738,-0.3200799226760864
-0.1656791716814041,0.3766242861747741,-0.0438063219189643,-0.388642281293869,-0.304599791765213,-0.0570348426699638,0.0,0.0,0.957693338394165,-0.7089815735816956
-0.1660114228725433,0.3679516017436981,-0.031367003917694,-0.3858455717563629,-0.3065277636051178,-0.0385586731135845,0.0,0.0,0.8955225944519043,-0.8300514221191406
-0.1661168038845062,0.3593840599060058,-0.0099553791806101,-0.3808993697166443,-0.3071306049823761,-0.0120565863326191,0.0,0.0,0.7495355606079102,-0.8000915050506592
-0.1658937484025955,0.3511054515838623,0.0215779021382331,-0.3677836954593658,-0.3063774406909942,0.0150634478777647,0.0,0.0,0.043644905090332,-0.7800577878952026
-0.1655128449201584,0.3426326215267181,0.0363684371113777,-0.376212328672409,-0.3046026825904846,0.0354949943721294,0.0,0.0,-0.0432433485984802,-0.7585841417312622
-0.1651411056518554,0.333665668964386,0.0345330163836479,-0.397977352142334,-0.3018677532672882,0.0546984747052192,0.0,0.0,-0.4668881893157959,-0.5701389312744141
-0.1647594422101974,0.32419553399086,0.0350341983139514,-0.4202494323253631,-0.2986360788345337,0.064633622765541,0.0,0.0,-0.3139999508857727,-0.6913617253303528
-0.1643667221069336,0.314220666885376,0.0356513187289238,-0.4425913691520691,-0.2948981523513794,0.0747582986950874,0.0,0.0,0.3351216316223144,-0.8075494170188904
-0.1638176888227462,0.304077535867691,0.0501911267638206,-0.4498576819896698,-0.2900401353836059,0.097160205245018,0.0,0.0,-0.0700165033340454,-0.7524533867835999
-0.1632746756076812,0.2934339046478271,0.0485678389668464,-0.4719214141368866,-0.2841401696205139,0.1179996728897094,0.0,0.0,0.6633192300796509,-0.7186217308044434
-0.162393182516098,0.2835077941417694,0.0813973471522331,-0.4398625195026397,-0.2772046625614166,0.1387093514204025,0.0,0.0,-0.5182244777679443,-0.7258285880088806
-0.1615087538957595,0.2730799317359924,0.0807961225509643,-0.4620300531387329,-0.2693633139133453,0.1568271070718765,0.0,0.0,0.2171738147735595,-0.4532119035720825
-0.160494714975357,0.2630100548267364,0.0947677567601203,-0.4463413953781128,-0.2625708281993866,0.1358495652675628,0.0,0.0,0.1224548816680908,-0.6723880767822266
-0.1592798233032226,0.2530989050865173,0.1140374913811683,-0.4391805827617645,-0.2549640834331512,0.1521348655223846,0.0,0.0,-0.4922604560852051,-0.8101679086685181
-0.1580657958984375,0.2426937967538833,0.1128071546554565,-0.460977703332901,-0.2461961507797241,0.1753584891557693,0.0,0.0,0.2856382131576538,-0.2527625560760498
-0.1567049026489257,0.2326340079307556,0.1283760219812393,-0.4458305537700653,-0.2383549511432647,0.1568238586187362,0.0,0.0,-0.4432104825973511,-0.9064381122589112
-0.1553481072187423,0.2220716029405594,0.1266937106847763,-0.4680078327655792,-0.2292412519454956,0.1822736263275146,0.0,0.0,0.2929368019104004,-0.6391515135765076
-0.153961569070816,0.2117232829332351,0.1291705965995788,-0.4584819674491882,-0.2196416109800338,0.1919930577278137,0.0,0.0,-0.0653347373008728,-0.2380685806274414
-0.152503490447998,0.2008489668369293,0.1369388550519943,-0.4820059835910797,-0.2106722593307495,0.1793868839740753,0.0,0.0,0.7701573371887207,-0.4224523901939392
-0.1507004797458648,0.1905423551797866,0.1715249121189117,-0.4568418860435486,-0.2018083482980728,0.1772780567407608,0.0,0.0,-0.2193319797515869,-0.2137456536293029
-0.1488230675458908,0.1797095090150833,0.1795578449964523,-0.4803638756275177,-0.1935742497444152,0.164682000875473,0.0,0.0,0.5899268388748169,-0.6327266693115234
-0.1466285735368728,0.1694066822528839,0.2102764099836349,-0.4567327499389648,-0.1843559592962265,0.1843659579753875,0.0,0.0,-0.0243042707443237,-0.7816501259803772
-0.1444196701049804,0.1586016714572906,0.2107032984495163,-0.4789854288101196,-0.1741338819265365,0.2044419050216674,0.0,0.0,0.3682972192764282,-0.2705491185188293
-0.141894057393074,0.1482854634523391,0.2424375563859939,-0.4573429524898529,-0.1639922708272934,0.2028321921825409,0.0,0.0,0.5618891716003418,-0.9693546891212464
-0.139195054769516,0.1382530033588409,0.2583536207675934,-0.444654643535614,-0.1524472683668136,0.2308998107910156,0.0,0.0,0.663726806640625,-0.9802385568618774
-0.1363749504089355,0.1289431005716323,0.2690951526165008,-0.4125023484230041,-0.1395696699619293,0.2575518488883972,0.0,0.0,0.7308809757232666,-0.9116834402084352
-0.1333599090576172,0.1203417852520942,0.2872523665428161,-0.3810096979141235,-0.1253771632909774,0.2838504612445831,0.0,0.0,0.8250949382781982,-0.9109565019607544
-0.1301738768815994,0.1119597777724266,0.3029426038265228,-0.3712922036647796,-0.1098186671733856,0.3111701011657715,0.0,0.0,0.8163673877716064,-0.9570582509040833
-0.1270550787448883,0.1041054800152778,0.2951306104660034,-0.347933828830719,-0.093201071023941,0.3323518931865692,0.0,0.0,0.8733937740325928,-0.9076862931251526
-0.124030590057373,0.0966287702322006,0.2847532033920288,-0.3312887251377105,-0.0756763368844986,0.3504948019981384,0.0,0.0,0.8481898307800293,-0.9234200716018676
-0.1209741607308387,0.0895822122693061,0.2867340445518493,-0.3123314678668976,-0.0569686777889728,0.3741530776023865,0.0,0.0,0.88910973072052,-0.9448696970939636
-0.1178403869271278,0.0829275473952293,0.2931037247180938,-0.2951145470142364,-0.0369313471019268,0.4007466435432434,0.0,0.0,0.8037704229354858,-0.7230789661407471
-0.1145094856619834,0.0763265192508697,0.311600387096405,-0.2929888665676117,-0.0157118085771799,0.424390971660614,0.0,0.0,0.9084908962249756,-0.9180988669395448
-0.1110288649797439,0.0703906118869781,0.3250961601734161,-0.263731300830841,0.0069602942094206,0.4534421563148498,0.0,0.0,0.8037399053573608,-0.8044384717941284
-0.1075019836425781,0.0652613714337349,0.3286463022232055,-0.2282502055168151,0.0306976754218339,0.4747475087642669,0.0,0.0,0.8418397903442383,-0.5540849566459656
