x_pos,y_pos,x_vel,y_vel,angle,ang_vel,leg_1,leg_2,main_booster,lat_booster
-0.0015045165782794,1.4032989740371704,-0.1523538380861282,-0.3387190699577331,0.0016930546844378,0.0333921164274215,0.0,0.0,0.0052986145019531,0.5141851902008057
-0.0029137611854821,1.395794153213501,-0.1415624022483825,-0.3335495889186859,0.0023239227011799,0.0126194627955555,0.0,0.0,0.0139447450637817,0.8786402940750122
-0.0041354177519679,1.388329267501831,-0.1209790930151939,-0.3317708373069763,0.0011584187159314,-0.0233124177902936,0.0,0.0,-0.4631482362747192,0.1702820062637329
-0.0053337095305323,1.380538821220398,-0.1185773611068725,-0.3462441563606262,-7.535097392974421e-05,-0.0246778726577758,0.0,0.0,-0.2956594824790954,0.2926149368286133
-0.006507396697998,1.3724228143692017,-0.1160444021224975,-0.3607117831707001,-0.001379114575684,-0.0260777026414871,0.0,0.0,0.0139405727386474,0.535758376121521
-0.0075186728499829,1.3644802570343018,-0.098830409348011,-0.3530069887638092,-0.0036521218717098,-0.0454642549157142,0.0,0.0,-0.2231023907661438,-0.247315764427185
-0.0085028652101755,1.356212139129639,-0.0960418060421943,-0.3674801588058471,-0.0059961257502436,-0.0468847081065177,0.0,0.0,-0.7732680439949036,0.1683874130249023
-0.0094587327912449,1.3476184606552124,-0.0931325554847717,-0.3819478154182434,-0.0084124086424708,-0.048330433666706,0.0,0.0,-0.6636839509010315,-0.2976335287094116
-0.0103849414736032,1.3386995792388916,-0.0901063829660415,-0.3964161276817322,-0.010901722125709,-0.0497907474637031,0.0,0.0,-0.9037485718727112,-0.2381235957145691
-0.0112805366516113,1.329455018043518,-0.0869672447443008,-0.4108851552009582,-0.0134648690000176,-0.0512679517269134,0.0,0.0,-0.8606358766555786,-0.1412877440452575
-0.0121444705873727,1.3198851346969604,-0.0837194174528122,-0.4253543019294739,-0.0161027163267135,-0.0527620986104011,0.0,0.0,-0.8616411685943604,0.145946979522705
-0.0129756927490234,1.3099900484085083,-0.0803671404719352,-0.4398235082626343,-0.0188160967081785,-0.054272573441267,0.0,0.0,-0.5584372878074646,-0.1985554695129394
-0.0137730594724416,1.2997692823410034,-0.0769146308302879,-0.4542928338050842,-0.0216058101505041,-0.0557992942631244,0.0,0.0,-0.855531632900238,-0.1791122555732727
-0.0145356180146336,1.2892231941223145,-0.073366180062294,-0.4687622785568237,-0.0244726110249757,-0.0573416948318481,0.0,0.0,-0.9344929456710817,-0.4891168475151062
-0.0152626037597656,1.2783515453338623,-0.0697260349988937,-0.4832318127155304,-0.0274173617362976,-0.0589000172913074,0.0,0.0,-0.853938639163971,-0.4820071458816528
-0.0159530639648437,1.2671544551849363,-0.0659984052181243,-0.4977014660835266,-0.0304407756775617,-0.0604734309017658,0.0,0.0,-0.8529708981513977,-0.8797289729118347
-0.0166596416383981,1.2556447982788086,-0.0688841566443443,-0.5115798711776733,-0.0321954563260078,-0.0350963473320007,0.0,0.0,-0.8200421333312988,-0.8019031882286072
-0.017376709729433,1.243804931640625,-0.0710760653018951,-0.5262230038642883,-0.0328158773481845,-0.0124096712097525,0.0,0.0,-0.6958361268043518,-0.7789919376373291
-0.018106460571289,1.23164963722229,-0.0735736340284347,-0.540222704410553,-0.032219149172306,0.0119356792420148,0.0,0.0,-0.8791767954826355,-0.5545001029968262
-0.0188464168459177,1.2191708087921145,-0.0757772326469421,-0.5545715093612671,-0.0304559133946895,0.0352678336203098,0.0,0.0,-0.7088922262191772,-0.0962178707122802
-0.0195462219417095,1.206366777420044,-0.0716880708932876,-0.5690409541130066,-0.0287758279591798,0.0336050800979137,0.0,0.0,-0.7749948501586914,-0.2069535255432129
-0.0202054977416992,1.193237066268921,-0.0675349161028862,-0.583510160446167,-0.0271789226680994,0.0319407470524311,0.0,0.0,-0.5355839133262634,0.0234413146972656
-0.0208233837038278,1.1797820329666138,-0.0633213818073272,-0.5979794859886169,-0.0256661549210548,0.0302579998970031,0.0,0.0,-0.8289053440093994,0.3016012907028198
-0.0213994979858398,1.166001319885254,-0.0590510256588459,-0.6124487519264221,-0.0242381263524293,0.0285631157457828,0.0,0.0,-0.8252722024917603,-0.3665186166763305
-0.0219331737607717,1.1518951654434204,-0.0547271557152271,-0.6269181370735168,-0.0228953901678323,0.026857066899538,0.0,0.0,-0.6716965436935425,-0.7180154323577881
-0.0224947929382324,1.1374483108520508,-0.0592320673167705,-0.6420366764068604,-0.019864397123456,0.0606195330619812,0.0,0.0,-0.7810091376304626,-0.0140648484230041
-0.0230130199342966,1.122676134109497,-0.0548071451485157,-0.6565045118331909,-0.016919195652008,0.0589040219783782,0.0,0.0,-0.8420144319534302,0.0499600172042846
-0.0234874729067087,1.1075785160064695,-0.0503382161259651,-0.6709721684455872,-0.0140599133446812,0.0571857914328575,0.0,0.0,-0.8360678553581238,0.0777088403701782
-0.0239175800234079,1.0921555757522583,-0.0458280369639396,-0.6854398250579834,-0.0112866703420877,0.0554651729762554,0.0,0.0,-0.7507210969924927,0.1041158437728881
-0.0243031494319438,1.0764074325561523,-0.0412792637944221,-0.6999074220657349,-0.0085995309054851,0.0537429377436637,0.0,0.0,-0.6511721014976501,0.3862651586532593
-0.0246437080204486,1.0603337287902832,-0.0366944000124931,-0.7143748998641968,-0.00599852995947,0.0520198047161102,0.0,0.0,-0.6848490834236145,-0.0154464244842529
-0.024938965216279,1.0439344644546509,-0.0320758298039436,-0.7288423776626587,-0.0034837136045098,0.0502964556217193,0.0,0.0,-0.6495481729507446,0.2534143924713135
-0.025188636034727,1.027209997177124,-0.0274258349090814,-0.743309736251831,-0.0010550278238952,0.0485736951231956,0.0,0.0,-0.5157564878463745,0.4680168628692627
-0.0253923423588275,1.010159969329834,-0.0227465629577636,-0.7577770948410034,0.0012875827960669,0.0468522980809211,0.0,0.0,-0.1047521829605102,0.5790934562683105
-0.0255027767270803,0.9927858710289,-0.0121345799416303,-0.7721856832504272,0.0023615462705492,0.0214792899787426,0.0,0.0,-0.5340219140052795,0.2247527837753296
-0.0255667679011821,0.9750861525535583,-0.0074028046801686,-0.7866526246070862,0.003349696053192,0.0197630934417247,0.0,0.0,0.3361908197402954,0.144798994064331
-0.025606632232666,0.9576132893562316,-0.0047926986590027,-0.7765752673149109,0.0041540511883795,0.0160868931561708,0.0,0.0,0.3717902898788452,0.1484262943267822
-0.0255704876035451,0.940762996673584,0.0027362094260752,-0.7488985061645508,0.0050191916525363,0.0173027217388153,0.0,0.0,-0.2350135445594787,0.54933762550354
-0.0254466049373149,0.9235936999320984,0.0126294549554586,-0.7630771398544312,0.0047780722379684,-0.0048223743215203,0.0,0.0,0.1592029333114624,0.2778702974319458
-0.0252576824277639,0.9067388772964478,0.0191322788596153,-0.7491045594215393,0.0045439121313393,-0.0046833544038236,0.0,0.0,-0.4696455001831054,0.5436180830001831
-0.0249859802424907,0.889563262462616,0.0284040607511997,-0.7633542418479919,0.0033359206281602,-0.0241599213331937,0.0,0.0,-0.6135678291320801,-0.2869513034820556
-0.0246664993464946,0.8720622658729553,0.033251728862524,-0.7778211236000061,0.0020439967047423,-0.025838378816843,0.0,0.0,-0.5354095697402954,-0.2477929592132568
-0.0242993347346782,0.854235827922821,0.0381134711205959,-0.7922880053520203,0.0006686648121103,-0.0275066886097192,0.0,0.0,-0.4143111705780029,-0.5931726098060608
-0.0239233970642089,0.8360826373100281,0.0380693897604942,-0.8068112730979919,0.0001955260377144,-0.0094628436490893,0.0,0.0,0.1455329656600952,0.2112154960632324
-0.023527717217803,0.8179101347923279,0.0402659103274345,-0.8076657652854919,-0.0004901788197457,-0.0137141766026616,0.0,0.0,-0.367606520652771,-0.326498806476593
-0.0230838768184185,0.799412190914154,0.0451621450483799,-0.8221325278282166,-0.0012573661515489,-0.0153438244014978,0.0,0.0,-0.2911846041679382,-0.0540146231651306
-0.0225917808711528,0.7805886268615723,0.0500674434006214,-0.8365994095802307,-0.0021052516531199,-0.0169576052576303,0.0,0.0,0.1414040327072143,0.429253339767456
-0.0221277233213186,0.7623040080070496,0.047702707350254,-0.8126539587974548,-0.0033921860158443,-0.0257385820150375,0.0,0.0,-0.1480894088745117,-0.1836086511611938
-0.0216153152287006,0.7436938881874084,0.0526227429509162,-0.8271210193634033,-0.0047579631209373,-0.0273154582828283,0.0,0.0,-0.1688777208328247,-0.1087782382965087
-0.0210545547306537,0.7247583270072937,0.0575484931468963,-0.841588020324707,-0.0062015042640268,-0.0288711097091436,0.0,0.0,0.1604561805725097,-0.4698784351348877
-0.0203418731689453,0.7060980200767517,0.0723321810364723,-0.8293550610542297,-0.0072556273080408,-0.0210823900997638,0.0,0.0,-0.1298959851264953,-0.6549257636070251
-0.019637394696474,0.6871170401573181,0.0701439008116722,-0.8435934782028198,-0.0069581693969666,0.0059491652064025,0.0,0.0,-0.5683360695838928,0.2211227416992187
-0.0188842769712209,0.6678106784820557,0.0750804618000984,-0.8580604791641235,-0.0067347013391554,0.0044694477692246,0.0,0.0,-0.0162769556045532,-0.3801732063293457
-0.0180825237184762,0.64817875623703,0.0800185352563858,-0.8725273609161377,-0.0065837414003908,0.0030193841084837,0.0,0.0,0.3824727535247803,-0.4315923452377319
-0.0171048156917095,0.6288322806358337,0.0971109271049499,-0.8598477244377136,-0.0059269126504659,0.0131366001442074,0.0,0.0,0.4356319904327392,-0.7931442260742188
-0.0162317268550395,0.6097720265388489,0.0852529555559158,-0.8471082448959351,-0.0038960047531872,0.0406179055571556,0.0,0.0,0.1674209833145141,-0.2415894865989685
-0.0152413370087742,0.5912309288978577,0.0967427045106887,-0.8240480422973633,-0.0016251325141638,0.0454173758625984,0.0,0.0,0.198367953300476,-0.6848483681678772
-0.0141430851072072,0.5731008052825928,0.1060575023293495,-0.8057829737663269,0.0020931046456098,0.0743649676442146,0.0,0.0,-0.3984931111335754,0.2070988416671753
-0.0129961017519235,0.5546453595161438,0.1109874621033668,-0.8202510476112366,0.0057480805553495,0.0730994045734405,0.0,0.0,0.7768659591674805,-0.8073018193244934
-0.0119593618437647,0.537138044834137,0.0985902771353721,-0.778130292892456,0.0107712429016828,0.1004631519317627,0.0,0.0,-0.1745743155479431,0.5340192317962646
-0.0108281131833791,0.5193015933036804,0.1092657297849655,-0.792763888835907,0.0145836090669035,0.076247252523899,0.0,0.0,0.5806175470352173,-0.4297441840171814
-0.0097539899870753,0.5021441578865051,0.1040582284331321,-0.7625879049301147,0.0178959034383296,0.0662456899881362,0.0,0.0,-0.1171228885650634,-0.5313250422477722
-0.0086647989228367,0.4846592247486114,0.1047703772783279,-0.7771653532981873,0.0219944454729557,0.0819707661867141,0.0,0.0,0.5333034992218018,-0.0911885499954223
-0.0075177191756665,0.4677027463912964,0.1104990243911743,-0.7536880970001221,0.0261430498212575,0.0829723477363586,0.0,0.0,0.8101718425750732,-0.5160365700721741
-0.0063654901459813,0.4510745406150818,0.1100026369094848,-0.7391301989555359,0.0312962979078292,0.1030651554465293,0.0,0.0,0.7562882900238037,-0.2330029606819152
-0.0053161620162427,0.4350569546222687,0.1003719791769981,-0.7119959592819214,0.0357952937483787,0.0899796932935714,0.0,0.0,0.48043954372406,-0.1289772987365722
-0.0042269704863429,0.4198646545410156,0.1043186336755752,-0.6753289699554443,0.0403406284749507,0.0909068062901496,0.0,0.0,-0.385100245475769,0.3183196783065796
-0.0030898093245923,0.4043471813201904,0.109159231185913,-0.6897974014282227,0.0448462888598442,0.0901133045554161,0.0,0.0,0.4265170097351074,0.1393826007843017
-0.0019144058460369,0.3896105289459228,0.1129028350114822,-0.6551085114479065,0.0494232177734375,0.0915384143590927,0.0,0.0,-0.2666360139846802,0.0144052505493164
-0.0006914138793945,0.3745486140251159,0.1177071332931518,-0.6695770025253296,0.0539664514362812,0.0908646136522293,0.0,0.0,0.5986969470977783,0.1052280664443969
0.0004550933954305,0.360135555267334,0.1105013042688369,-0.6407323479652405,0.0580679327249527,0.0820298790931701,0.0,0.0,0.046402096748352,0.0422086715698242
0.0016455650329589,0.345989316701889,0.1148292422294616,-0.6288945078849792,0.0622318722307682,0.0832787007093429,0.0,0.0,-0.0911356806755065,-0.0685787796974182
0.002882957458496,0.3315176963806152,0.1195642948150634,-0.6433626413345337,0.0663711205124855,0.0827848985791206,0.0,0.0,0.6062158346176147,0.0254454612731933
0.0042014122009277,0.3175681829452514,0.1273440271615982,-0.6201838850975037,0.070819042623043,0.0889585316181182,0.0,0.0,0.1236305236816406,0.1010644435882568
0.0055247307755053,0.3036889433860779,0.1279599815607071,-0.6170675158500671,0.0751420482993125,0.0864602029323577,0.0,0.0,0.5849460363388062,0.359524130821228
0.0069358823820948,0.2899582386016845,0.1364648938179016,-0.610493540763855,0.0797508358955383,0.0921756327152252,0.0,0.0,0.6471521854400635,-0.060414433479309
0.0083346366882324,0.2764045000076294,0.1353855282068252,-0.6026328206062317,0.0842006653547287,0.0889965817332267,0.0,0.0,0.8119852542877197,-0.4384025335311889
0.0096966745331883,0.2638247311115265,0.1317702382802963,-0.5593597292900085,0.0885975360870361,0.0879373997449874,0.0,0.0,0.4513336420059204,-0.134900152683258
0.0111105917021632,0.2519997060298919,0.1366346478462219,-0.5258452296257019,0.0933117568492889,0.0942845195531845,0.0,0.0,-0.0352092981338501,-0.3250249624252319
0.0125692365691065,0.2398494333028793,0.1411159932613372,-0.5403138995170593,0.0980206727981567,0.0941781848669052,0.0,0.0,0.6131688356399536,-0.3096343278884887
0.0139147760346531,0.2278382182121276,0.1303995251655578,-0.5341107249259949,0.102142333984375,0.0824329853057861,0.0,0.0,0.5514440536499023,-0.1076858639717102
0.0152660366147756,0.2166152149438858,0.1308017820119857,-0.4991032779216766,0.1064387708902359,0.0859288126230239,0.0,0.0,0.8005243539810181,-0.5728873014450073
0.0164315216243267,0.2059763520956039,0.111384704709053,-0.4732132256031036,0.1115610301494598,0.1024454608559608,0.0,0.0,0.8600368499755859,-0.8315900564193726
0.0174217224121093,0.1961312890052795,0.0923205912113189,-0.4380750656127929,0.1182104870676994,0.1329891383647918,0.0,0.0,0.7613295316696167,0.4452093839645386
0.0183531753718853,0.1870694309473037,0.0865093320608139,-0.4032887816429138,0.1248071789741516,0.1319338381290435,0.0,0.0,0.7219955921173096,0.2236043214797973
0.0193404201418161,0.1786022335290908,0.0916681513190269,-0.3769278228282928,0.1318325996398925,0.1405085623264312,0.0,0.0,0.805368185043335,0.3439552783966064
0.0203445442020893,0.1703714877367019,0.0932288989424705,-0.3664620518684387,0.138988196849823,0.1431120932102203,0.0,0.0,0.8916788101196289,-0.4385000467300415
0.021429443731904,0.1625229865312576,0.1008112654089927,-0.3495595157146454,0.1466474682092666,0.1531853824853897,0.0,0.0,0.7909684181213379,0.3536050319671631
0.0226202961057424,0.15530326962471,0.1106535196304321,-0.3217243552207947,0.1550587862730026,0.1682259440422058,0.0,0.0,0.6772298812866211,0.1281975507736206
0.0239265449345111,0.1483853161334991,0.1215437427163124,-0.3084364235401153,0.1641408950090408,0.181642085313797,0.0,0.0,0.1679439544677734,-0.799413800239563
0.0251149181276559,0.1419182568788528,0.1081572622060775,-0.2886392474174499,0.1748349815607071,0.2138813436031341,0.0,0.0,-0.1630520224571228,0.7207289934158325
0.0263968463987112,0.1351480782032013,0.1190238744020462,-0.3020037412643432,0.1840265393257141,0.1838311851024627,0.0,0.0,0.5715076923370361,0.0866924524307251
0.0277130119502544,0.1290217787027359,0.121906504034996,-0.2735134661197662,0.1937877833843231,0.1952249705791473,0.0,0.0,0.2861604690551758,0.5158129930496216
0.0291374213993549,0.1229763627052307,0.1335507333278656,-0.2698718607425689,0.2027301490306854,0.1788476109504699,0.0,0.0,0.2642089128494262,-0.6905888319015503
0.0304173473268747,0.1171473115682601,0.1177841648459434,-0.2605012059211731,0.2130223214626312,0.205843299627304,0.0,0.0,-0.4042391777038574,0.7050044536590576
0.0317877754569053,0.1110222935676574,0.12842857837677,-0.2734852433204651,0.2217173278331756,0.1739004999399185,0.0,0.0,-0.3481353521347046,0.1591064929962158
0.0331861488521099,0.1045728996396064,0.1312192678451538,-0.2879588007926941,0.2304413020610809,0.1744795441627502,0.0,0.0,-0.2948374152183532,-0.2871344089508056
0.0346109382808208,0.097799003124237,0.1338354051113128,-0.3024324476718902,0.2391960173845291,0.1750949919223785,0.0,0.0,-0.4560830593109131,-0.2758339643478393
0.0360601432621479,0.0907008051872253,0.1362670063972473,-0.3169061839580536,0.2479833513498306,0.1757471263408661,0.0,0.0,0.1147166490554809,-0.0328221321105957
0.0373725891113281,0.0840009301900863,0.1227431073784828,-0.2992276549339294,0.2566380798816681,0.1730945855379104,0.0,0.0,-0.1730403900146484,0.6405301094055176
0.0387467369437217,0.0769975036382675,0.130007803440094,-0.3125747442245483,0.2642074823379516,0.151388794183731,0.0,0.0,0.4496846199035644,0.0040050745010375
0.0400041565299034,0.0702936276793479,0.1184088587760925,-0.2992896437644958,0.2717141807079315,0.1501337736845016,0.0,0.0,0.2357645034790039,0.6528390645980835
0.0411128029227256,0.0638972371816635,0.1049468740820884,-0.2853972315788269,0.2777900099754333,0.1215167269110679,0.0,0.0,0.4173496961593628,0.0870282649993896
0.0419881828129291,0.0577710010111331,0.0821579545736312,-0.2733108401298523,0.2833107113838196,0.1104141101241111,0.0,0.0,0.4250733852386474,0.5584527254104614
0.0428385734558105,0.0522755496203899,0.080522745847702,-0.2451248914003372,0.2879619598388672,0.0930246785283088,0.0,0.0,0.3873939514160156,0.167560338973999
0.0436595901846885,0.0469227880239486,0.0773122459650039,-0.2388585954904556,0.2928974032402038,0.0987085551023483,0.0,0.0,0.2754433155059814,0.2015836238861084
0.0444244369864463,0.0421393029391765,0.0711571127176284,-0.21368108689785,0.2983986437320709,0.1100245714187622,0.0,0.0,0.3039866685867309,0.6047539710998535
0.0450388900935649,0.0379260145127773,0.0573087558150291,-0.1881132125854492,0.302677571773529,0.0855781137943267,0.0,0.0,0.3347065448760986,0.4098864793777466
0.0455593094229698,0.0344276987016201,0.0473375990986824,-0.1564693748950958,0.3075413703918457,0.0972757786512374,0.0,0.0,-0.2739578485488891,-0.0806605219841003
0.0460786819458007,0.030604301020503,0.0471937581896781,-0.1709394752979278,0.3124587535858154,0.0983476862311363,0.0,1.0,0.8793637752532959,0.9225444793701172
0.0463233962655067,0.0287990663200616,0.0373808816075325,-0.0781137570738792,0.297584980726242,-0.2997065186500549,0.0,1.0,0.8126184940338135,0.8927783966064453
0.0463628768920898,0.0285014491528272,0.0315599851310253,-0.0078731458634138,0.2690833806991577,-0.5701675415039062,0.0,1.0,0.0678515434265136,0.5921783447265625
0.0464604385197162,0.0283292159438133,0.0367697589099407,-0.0031162360683083,0.2411409020423889,-0.5594130754470825,0.0,1.0,0.1571109294891357,-0.2954708337783813
0.0463576316833496,0.0284439418464899,0.0180802959948778,0.0094846179708838,0.2123782485723495,-0.5752767324447632,0.0,0.0,-0.9996581673622132,0.4210157394409179
0.0462576858699321,0.0282356590032577,0.0181103367358446,-0.0054631964303553,0.184070348739624,-0.5661580562591553,0.0,0.0,-0.9992830753326416,0.094955563545227
0.0461503975093364,0.0277125220745801,0.0174654982984066,-0.0199967194348573,0.1558214873075485,-0.5649778246879578,0.0,0.0,-0.9965305924415588,0.1996493339538574
0.0460334792733192,0.0268745273351669,0.0165608413517475,-0.0345302075147628,0.1276334822177887,-0.5637596845626831,0.0,0.0,-0.9876969456672668,-0.4030910730361938
0.0459043495357036,0.0257215350866317,0.0154001582413911,-0.0490635856986045,0.0995082333683967,-0.5625047087669373,0.0,0.0,-0.9649852514266968,-0.0450858473777771
0.0457610115408897,0.0242535453289747,0.013988533988595,-0.0635967999696731,0.0714476704597473,-0.5612117052078247,0.0,0.0,-0.8710501194000244,-0.8746328949928284
0.045534610748291,0.0224713422358036,0.0039905896410346,-0.0781534984707832,0.045120395720005,-0.5265461206436157,0.0,0.0,-0.5272735357284546,-0.8748531937599182
0.0452281944453716,0.020358333364129,-0.0056351390667259,-0.0933443307876586,0.0204191170632839,-0.4940255284309387,0.0,0.0,0.0689774751663208,-0.9364387392997742
