x_pos,y_pos,x_vel,y_vel,angle,ang_vel,leg_1,leg_2,main_booster,lat_booster
-0.0015332221519201,1.4033561944961548,-0.1552828252315521,-0.3361771702766418,0.0017588242189958,0.034693919122219,0.0,0.0,-0.7357960181505678,0.6781541924285143
-0.0030174255371093,1.395543932914734,-0.1486884355545044,-0.3472146093845367,0.0020217224955558,0.0052591850981116,0.0,0.0,-0.5383335069156374,-0.946907358803296
-0.0045674322172999,1.387455701828003,-0.1567763984203338,-0.3594802916049957,0.003772550728172,0.0350199304521083,0.0,0.0,-0.151311957165634,0.91603501596022
-0.0060667991638183,1.379096508026123,-0.150284856557846,-0.3715249598026275,0.0041214567609131,0.0069787427783012,0.0,0.0,0.6667565749507152,-0.5324321400630164
-0.0074778557755053,1.3714579343795776,-0.1430057138204574,-0.3394968211650848,0.0060008140280842,0.0375908799469471,0.0,0.0,0.7673025556281285,-0.7532558576755096
-0.0087967868894338,1.36442232131958,-0.1357773840427398,-0.312717080116272,0.009834561496973,0.0766821652650833,0.0,0.0,0.3810555520978931,-0.8123018151007638
-0.0102105140686035,1.3578412532806396,-0.1469710767269134,-0.2925341427326202,0.0153708579018712,0.1107359305024147,0.0,0.0,0.8010205484247077,0.7637215777790438
-0.0114012714475393,1.3520578145980835,-0.1236999407410621,-0.2570987939834595,0.0199442859739065,0.0914768874645233,0.0,0.0,0.0496800070884184,0.8572677968983997
-0.0125475879758596,1.346814513206482,-0.1177059412002563,-0.2330806106328964,0.0229873564094305,0.0608669742941856,0.0,0.0,-0.3829696016672566,0.970424954904072
-0.0136201856657862,1.3413116931915283,-0.1085890308022499,-0.2445948421955108,0.024302652105689,0.0263083633035421,0.0,0.0,0.8587446763201845,0.7445348630015481
-0.0145467761904001,1.336549997329712,-0.0929693952202797,-0.2116351872682571,0.0246051587164402,0.006050887517631,0.0,0.0,0.2159510567247444,0.9767049460213424
-0.0153460502624511,1.3321058750152588,-0.078528307378292,-0.1974904835224151,0.0232244990766048,-0.0276157669723033,0.0,0.0,0.4863500596819667,0.9889393197722758
-0.0159482955932617,1.3283499479293823,-0.0572438761591911,-0.16689532995224,0.0202661622315645,-0.0591719858348369,0.0,0.0,-0.5633437708322666,-0.5573738839824377
-0.0165893547236919,1.3243190050125122,-0.0623722858726978,-0.179125115275383,0.0185580980032682,-0.0341642461717128,0.0,0.0,0.7045823342331692,-0.6263336670343642
-0.0171378143131732,1.3213050365447998,-0.0550617277622222,-0.1339534968137741,0.0187739785760641,0.0043181059882044,0.0,0.0,0.3308663435079197,-0.6989822477315184
-0.0176462177187204,1.3183749914169312,-0.0529365949332714,-0.1302603632211685,0.0208431202918291,0.0413865968585014,0.0,0.0,-0.992014702928139,-0.7522361782784035
-0.0181989669799804,1.3151838779449463,-0.0588490143418312,-0.1418766528367996,0.0243810229003429,0.0707645341753959,0.0,0.0,-0.767183381963894,0.5245970709794715
-0.0186983104795217,1.3117222785949707,-0.0525447838008403,-0.1538976579904556,0.0269636642187833,0.0516574010252952,0.0,0.0,-0.4047838730565047,0.6348991979066833
-0.0191370006650686,1.3080008029937744,-0.0453440472483634,-0.165428414940834,0.0284276977181434,0.0292831696569919,0.0,0.0,-0.4043447465339873,0.9127120202485824
-0.0195100791752338,1.3040130138397217,-0.0375691279768943,-0.1772278100252151,0.02867928519845,0.0050324401818215,0.0,0.0,-0.1123022604092691,-0.5688190378538797
-0.0199151989072561,1.2997599840164185,-0.042048804461956,-0.1890559941530227,0.0301905758678913,0.0302283763885498,0.0,0.0,0.411666527605133,0.8781392053670423
-0.0202472694218158,1.2958043813705444,-0.0333585925400257,-0.1758143156766891,0.0303484313189983,0.0031574978493154,0.0,0.0,-0.236317024555732,-0.6197908868953002
-0.0206134803593158,1.2915778160095217,-0.0381583645939827,-0.187882512807846,0.0318628326058387,0.0302908867597579,0.0,0.0,0.6342642155038467,0.8126401233508076
-0.0208441726863384,1.287543535232544,-0.0235089380294084,-0.1793037801980972,0.0322928726673126,0.0086016422137618,0.0,0.0,0.2607202953726508,-0.5891120438097022
-0.0212520603090524,1.283971071243286,-0.0425881519913673,-0.1588170826435089,0.0340749435126781,0.0356442630290985,0.0,0.0,0.1836275673211043,-0.8458725827078764
-0.0218592640012502,1.280860185623169,-0.0645707324147224,-0.1383551061153412,0.0378764346241951,0.0760297328233718,0.0,0.0,0.9706212491763226,0.6781142565764278
-0.0224357601255178,1.2787877321243286,-0.0605672374367713,-0.0921878144145011,0.0407614782452583,0.0577009841799736,0.0,0.0,-0.5597395720455474,-0.9441666717420316
-0.0230980869382619,1.2764517068862915,-0.0718944445252418,-0.1039895936846733,0.0463579893112182,0.1119300499558448,0.0,0.0,-0.2783752813733349,-0.8121150337326344
-0.0238332748413085,1.273849606513977,-0.0816071555018425,-0.1159242242574691,0.0543521866202354,0.1598841547966003,0.0,0.0,-0.7257135248644815,-0.9729972999254252
-0.024642277508974,1.270970344543457,-0.0914617627859115,-0.1283814013004303,0.064789243042469,0.2087408602237701,0.0,0.0,0.4550348749085122,-0.8828655961282674
-0.025545597076416,1.2689459323883057,-0.1031174883246421,-0.0905706584453582,0.0774462074041366,0.2531393766403198,0.0,0.0,-0.9921122193336488,0.9945285320281982
-0.0263745300471782,1.266658067703247,-0.0943896025419235,-0.1023254692554473,0.0888275504112243,0.2276269495487213,0.0,0.0,-0.9881940484046936,0.9993941783905028
-0.0271305087953805,1.2641222476959229,-0.0857906937599182,-0.1133425682783126,0.0989392772316932,0.2022343873977661,0.0,0.0,-0.9866638779640198,0.9994491338729858
-0.0278096199035644,1.2613214254379272,-0.0767785906791687,-0.1250970661640167,0.1077282652258873,0.1757800281047821,0.0,0.0,-0.9773552417755128,0.9939005374908448
-0.0284029953181743,1.2582687139511108,-0.0665981993079185,-0.1362144649028778,0.114939659833908,0.1442280262708664,0.0,0.0,-0.9716538786888124,0.99680495262146
-0.0289105419069528,1.2549704313278198,-0.0564138367772102,-0.1470385938882827,0.1205612421035766,0.1124319285154342,0.0,0.0,-0.9990726113319396,0.9608137607574464
-0.0293398853391408,1.2514129877090454,-0.0472137369215488,-0.1584562212228775,0.1248160675168037,0.0850962474942207,0.0,0.0,-0.9815728068351746,0.9981915950775146
-0.0296810157597064,1.2476115226745603,-0.0367293022572994,-0.1691739112138748,0.127416506409645,0.0520087406039238,0.0,0.0,-0.996463418006897,0.9985098838806152
-0.0299445148557424,1.243567705154419,-0.0275526102632284,-0.1798301786184311,0.1286187469959259,0.0240448657423257,0.0,0.0,-0.9942687153816224,0.9958033561706544
-0.0301209446042776,1.2392735481262207,-0.0172340907156467,-0.1908191293478012,0.1282112449407577,-0.0081503922119736,0.0,0.0,-0.9959222078323364,0.9827017784118652
-0.0302294734865427,1.2347322702407837,-0.0092971296980977,-0.201699674129486,0.1266603916883468,-0.0310172736644744,0.0,0.0,-0.9876368045806884,0.9322302341461182
-0.0302447322756052,1.229938268661499,0.0018109481316059,-0.2127834260463714,0.1233444213867187,-0.066319465637207,0.0,0.0,-0.9815517663955688,0.909459352493286
-0.0301713943481445,1.2248824834823608,0.0123050790280103,-0.2242975085973739,0.1184031441807746,-0.0988258048892021,0.0,0.0,-0.9350408315658568,0.8119690418243408
-0.0300189014524221,1.219571232795715,0.021625131368637,-0.2355628907680511,0.1120553538203239,-0.1269557327032089,0.0,0.0,-0.9397040605545044,0.5067925453186035
-0.0298246387392282,1.2139934301376345,0.026288017630577,-0.2474113404750824,0.1052493005990982,-0.1361212730407714,0.0,0.0,-0.9219376444816588,-0.1052745580673217
-0.0296261794865131,1.2081483602523804,0.026215586811304,-0.2593444883823395,0.0989268571138382,-0.126448705792427,0.0,0.0,-0.9328230023384094,-0.2292323112487793
-0.029424000531435,1.2020361423492432,0.0261139422655105,-0.2712768316268921,0.0930893793702125,-0.1167494878172874,0.0,0.0,-0.9488723874092102,-0.2695019245147705
-0.0292181968688964,1.1956565380096436,0.0259813610464334,-0.283208429813385,0.0877381265163421,-0.1070254296064376,0.0,0.0,-0.9691627025604248,0.3521828651428222
-0.0290090553462505,1.189009666442871,0.0258161686360836,-0.2951393723487854,0.0828742012381553,-0.0972783640027046,0.0,0.0,-0.972549319267273,0.3764553070068359
-0.0287971496582031,1.182095289230347,0.0256167612969875,-0.307069718837738,0.0784987062215805,-0.0875098705291748,0.0,0.0,-0.9832309484481812,0.1249301433563232
-0.0285825729370117,1.1749132871627808,0.0253816004842519,-0.3189995586872101,0.0746126398444175,-0.0777214244008064,0.0,0.0,-0.9869113564491272,-2.7954578399658203e-05
-0.0283658020198345,1.1674635410308838,0.025109227746725,-0.3309288322925567,0.0712169185280799,-0.0679143816232681,0.0,0.0,-0.959904670715332,0.5371619462966919
-0.0280969627201557,1.1597485542297363,0.0310987327247858,-0.3426913321018219,0.067049391567707,-0.0833504647016525,0.0,0.0,-0.9791250228881836,-0.2078847885131836
-0.0278265960514545,1.151766061782837,0.0307479295879602,-0.3546205461025238,0.0633738934993743,-0.0735099986195564,0.0,0.0,-0.9813042879104614,-0.6620852947235107
-0.0275945663452148,1.1435093879699707,0.0254289060831069,-0.3668688237667084,0.0611835829913616,-0.0438065715134143,0.0,0.0,-0.9986208081245422,-0.6206673383712769
-0.0274184234440326,1.1349769830703735,0.0178784001618623,-0.3792104423046112,0.0609187521040439,-0.0052965120412409,0.0,0.0,-0.9616511464118958,0.3946188688278198
-0.0272419936954975,1.1261764764785769,0.0174008179455995,-0.3911379277706146,0.0611480213701725,0.0045855119824409,0.0,0.0,-0.9908830523490906,-0.3397563695907593
-0.0270659439265728,1.1171081066131592,0.0168789960443973,-0.4030654728412628,0.0618719868361949,0.0144793288782238,0.0,0.0,-0.9905097484588624,0.3699980974197387
-0.026890467852354,1.107771873474121,0.016312088817358,-0.4149930775165558,0.0630911886692047,0.0243839770555496,0.0,0.0,-0.9772914052009584,0.3772661685943603
-0.0267162322998046,1.098167896270752,0.0156993418931961,-0.4269207715988159,0.0648061111569404,0.0342984423041343,0.0,0.0,-0.9895498752593994,0.6885381937026978
-0.0264842025935649,1.088295817375183,0.0224685482680797,-0.4387935101985931,0.065531350672245,0.0145048331469297,0.0,0.0,-0.9511761665344238,-0.1144760847091674
-0.0262541770935058,1.078155755996704,0.0217622313648462,-0.450721263885498,0.0667531564831733,0.0244362242519855,0.0,0.0,-0.9478714466094972,0.6827588081359863
-0.0259616859257221,1.0677528381347656,0.0291681885719299,-0.4623622596263885,0.0668341889977455,0.0016207683365792,0.0,0.0,-0.9028570055961608,-0.0698921084403991
-0.025672148913145,1.057081937789917,0.0283665116876363,-0.4742900133132934,0.0674124583601951,0.0115652065724134,0.0,0.0,-0.8426973223686218,-0.5022107362747192
-0.0254251472651958,1.046135425567627,0.0226225443184375,-0.4866036772727966,0.0694759562611579,0.0412699207663536,0.0,0.0,-0.8922427296638489,0.6157677173614502
-0.0251433365046978,1.0349256992340088,0.0265690144151449,-0.4982915818691253,0.0710630044341087,0.0317409709095954,0.0,0.0,-0.8953490257263184,0.3460259437561035
-0.0248661041259765,1.0234479904174805,0.0256228111684322,-0.5102197527885437,0.0731478929519653,0.0416977033019065,0.0,0.0,-0.8756545186042786,0.7661893367767334
-0.0245244987308979,1.0117008686065674,0.033294953405857,-0.5221325755119324,0.0739993900060653,0.0170300267636775,0.0,0.0,-0.7195461392402649,0.8719823360443115
-0.0241169929504394,0.9997042417526244,0.0412261448800563,-0.5331674814224243,0.073531687259674,-0.0093541061505675,0.0,0.0,-0.8746896386146545,-0.3760306239128113
-0.0237153060734272,0.9874395728111268,0.0401360541582107,-0.5450955033302307,0.0735619366168975,0.0006053291726857,0.0,0.0,-0.4684387445449829,-0.0918019413948059
-0.0233200080692768,0.974907159805298,0.0389986261725425,-0.5570235848426819,0.0740901082754135,0.010563239455223,0.0,0.0,-0.875105619430542,-0.0725769996643066
-0.0229314807802438,0.9621069431304932,0.0378143526613712,-0.5689516663551331,0.0751160159707069,0.0205183271318674,0.0,0.0,-0.4861674308776855,0.1769241094589233
-0.0225502960383892,0.9490389227867126,0.0365838035941123,-0.5808799266815186,0.0766394808888435,0.030469262972474,0.0,0.0,-0.507707953453064,0.9489960670471193
-0.0220927242189645,0.93571275472641,0.0458501651883125,-0.5922685861587524,0.0765394866466522,-0.0019997656345367,0.0,0.0,-0.3871024847030639,0.1680426597595214
-0.0216434486210346,0.9221187233924866,0.0445291176438331,-0.6041967868804932,0.0769363865256309,0.0079380590468645,0.0,0.0,-0.577423095703125,0.4271535873413086
-0.0212028510868549,0.9082569479942322,0.0431640446186065,-0.6161251068115234,0.0778297483921051,0.0178670808672904,0.0,0.0,-0.4733209609985351,0.6294877529144287
-0.020723819732666,0.8941265940666199,0.0476931259036064,-0.6280246376991272,0.0780327767133712,0.0040608528070151,0.0,0.0,-0.2330926060676574,0.6506087779998779
-0.0202040672302246,0.8797402381896973,0.0525640659034252,-0.6393610835075378,0.0774515569210052,-0.011624451726675,0.0,0.0,-0.6823350787162781,0.8186979293823242
-0.019621467217803,0.8651028275489807,0.060213666409254,-0.6504518985748291,0.0755152031779289,-0.0387271083891391,0.0,0.0,-0.4721012711524963,-0.3895878791809082
-0.0190492626279592,0.8501977324485779,0.058682382106781,-0.6623802781105042,0.0740725398063659,-0.028853390365839,0.0,0.0,-0.3049472570419311,0.4456849098205566
-0.0184876434504985,0.8350247740745544,0.0571123361587524,-0.6743085980415344,0.0731225833296775,-0.018999196588993,0.0,0.0,-0.5148250460624695,0.5334417819976807
-0.017892550677061,0.8195935487747192,0.0611187443137168,-0.6857503652572632,0.0715294927358627,-0.031861774623394,0.0,0.0,-0.4053927659988403,-0.5379087924957275
-0.0173584930598735,0.8038892149925232,0.0532513484358787,-0.6979778409004211,0.0716780424118042,0.0029709709342569,0.0,0.0,-0.5221424698829651,0.8318684101104736
-0.0167768485844135,0.7879270315170288,0.0590457245707511,-0.709392249584198,0.0708089098334312,-0.0173827614635229,0.0,0.0,-0.2623740434646606,0.902502179145813
-0.0161378867924213,0.7717089056968689,0.0660743787884712,-0.7207017540931702,0.0686645656824112,-0.0428873971104621,0.0,0.0,-0.1597710847854614,0.9415270090103148
-0.0154262538999319,0.7552319765090942,0.0750079602003097,-0.7321327924728394,0.0648596584796905,-0.0760982483625412,0.0,0.0,-0.2093265056610107,-0.0535798072814941
-0.0147274974733591,0.7384874224662781,0.0732339918613433,-0.7440616488456726,0.0615383721888065,-0.0664257854223251,0.0,0.0,-0.4564548134803772,-0.0350741147994995
-0.0140419006347656,0.7214750647544861,0.0714311674237251,-0.7559901475906372,0.0586985312402248,-0.0567970462143421,0.0,0.0,-0.3775067329406738,0.1587245464324951
-0.0133698461577296,0.7041947245597839,0.0696011036634445,-0.7679182887077332,0.0563376769423484,-0.0472168587148189,0.0,0.0,-0.4273406267166137,0.3189750909805298
-0.0127113340422511,0.6866466403007507,0.0677454322576522,-0.7798460721969604,0.0544531531631946,-0.0376904346048831,0.0,0.0,0.1950161457061767,-0.1702862977981567
-0.012100601568818,0.6696441769599915,0.062519870698452,-0.7556145191192627,0.0530230030417442,-0.0286030434072017,0.0,0.0,-0.2359158396720886,0.6598176956176758
-0.011449527926743,0.652383029460907,0.0674794986844062,-0.7670762538909912,0.0506813786923885,-0.0468322075903415,0.0,0.0,-0.1161519289016723,-0.6506299376487732
-0.0108537673950195,0.6348534226417542,0.0604313910007476,-0.7790683507919312,0.0498326458036899,-0.0169745609164237,0.0,0.0,0.0783835649490356,0.7889957427978516
-0.0101445196196436,0.617376983165741,0.0728591606020927,-0.7766645550727844,0.0479194484651088,-0.0382640324532985,0.0,0.0,0.0433566570281982,-0.2772963047027588
-0.0094986911863088,0.6001120805740356,0.0662025585770607,-0.767277717590332,0.0463108085095882,-0.0321725718677043,0.0,0.0,-0.0949171185493469,0.5843238830566406
-0.0088156703859567,0.5825898051261902,0.0708189159631729,-0.7786903381347656,0.0438282117247581,-0.0496516451239585,0.0,0.0,0.0803674459457397,-0.3918354511260986
-0.008179378695786,0.5653563141822815,0.0657514184713363,-0.7658723592758179,0.0417230762541294,-0.042102500796318,0.0,0.0,0.0903812646865844,-0.1674873232841491
-0.0076625822111964,0.5486365556716919,0.0537445656955242,-0.7430459856987,0.039680253714323,-0.04085648432374,0.0,0.0,-0.1670847535133361,0.261601448059082
-0.0071615218184888,0.5316486954689026,0.0517375543713569,-0.7549728751182556,0.0380733124911785,-0.0321388132870197,0.0,0.0,0.2734060287475586,-0.1817337870597839
-0.0067394254729151,0.5152572989463806,0.0435936376452446,-0.7284751534461975,0.0367044247686862,-0.0273778140544891,0.0,0.0,-0.0141274333000183,-0.0256670117378234
-0.00633325567469,0.4985977113246918,0.0415736474096775,-0.7404015064239502,0.035756941884756,-0.0189496502280235,0.0,0.0,-0.0927255153656005,0.0505834817886352
-0.0059432028792798,0.4816700220108032,0.039550170302391,-0.7523278594017029,0.0352226495742797,-0.0106861311942338,0.0,0.0,0.5195257663726807,-0.0097511410713195
-0.0056960107758641,0.4652978181838989,0.0253583844751119,-0.7276415228843689,0.0345962047576904,-0.0125287324190139,0.0,0.0,0.6472153663635254,-0.3779217600822449
-0.0056329728104174,0.4494324624538421,0.0072381435893476,-0.7051054835319519,0.0336702428758144,-0.0185192395001649,0.0,0.0,0.4519028663635254,0.5055845975875854
-0.0054675103165209,0.4342558085918426,0.0178539343178272,-0.6744896173477173,0.0323758572340011,-0.02588776871562,0.0,0.0,-0.121858537197113,-0.3044953346252441
-0.0053184507414698,0.4188109934329986,0.0158374737948179,-0.6864157915115356,0.0314540416002273,-0.0184364039450883,0.0,0.0,-0.3942911028861999,-0.0619934797286987
-0.0051858900114893,0.4030980467796325,0.0138281863182783,-0.6983417868614197,0.0308925025165081,-0.0112308505922555,0.0,0.0,0.7918620109558105,-0.3010553121566772
-0.0051205633208155,0.3883776664733886,0.006867510266602,-0.6542328596115112,0.030563211068511,-0.006585975177586,0.0,0.0,0.1878702640533447,0.2310209274291992
-0.0049879075959324,0.374314934015274,0.0127778723835945,-0.625019907951355,0.0310412943363189,0.0095618050545454,0.0,0.0,0.5730817317962646,0.6267397403717041
-0.0047604562714695,0.3608174920082092,0.0230218060314655,-0.5998808145523071,0.0307684782892465,-0.0054563032463192,0.0,0.0,0.0543245077133178,0.4572095870971679
-0.0045701027847826,0.3478327989578247,0.0190247204154729,-0.5770959258079529,0.0307758636772632,0.0001479342899983,0.0,0.0,0.4692859649658203,0.3556249141693115
-0.0043639182113111,0.3356326222419739,0.0200731363147497,-0.5422444939613342,0.0313171334564685,0.0108251553028821,0.0,0.0,0.4384791851043701,0.5188570022583008
-0.0040699960663914,0.3237655162811279,0.0294348448514938,-0.5274239182472229,0.0312791690230369,-0.0007592343026772,0.0,0.0,-0.5333868265151978,-0.3429864048957824
-0.0037924766074866,0.3116302788257599,0.0275416877120733,-0.5393495559692383,0.0314881429076194,0.0041795363649725,0.0,0.0,-0.2466568946838379,0.3477580547332763
-0.0035312653053551,0.2992268204689026,0.0256751328706741,-0.5512752532958984,0.0319239199161529,0.0087155830115079,0.0,0.0,0.3306083679199219,0.4521607160568237
-0.0033182143233716,0.2872349917888641,0.0207377914339303,-0.5329836010932922,0.0324852094054222,0.0112259071320295,0.0,0.0,0.4859206676483154,0.762291431427002
-0.0030506134498864,0.2756969928741455,0.0274952985346317,-0.5127838850021362,0.0317568518221378,-0.0145671367645263,0.0,0.0,0.3360329866409302,-0.0727147459983825
-0.0027027130126953,0.2643316984176636,0.0348633900284767,-0.5051196813583374,0.0316782146692276,-0.0015727670397609,0.0,0.0,-0.0052054524421691,-0.3389348983764648
-0.0023708343505859,0.2526982128620147,0.033130370080471,-0.5170449614524841,0.0317374393343925,0.0011843717657029,0.0,0.0,0.6923997402191162,-0.3636715412139892
-0.0020552636124193,0.2420365363359451,0.0312640592455863,-0.4738598465919494,0.0320292972028255,0.005837264470756,0.0,0.0,-0.1582839488983154,-0.639000654220581
-0.0018003464210778,0.2310973554849624,0.0239587388932704,-0.4862220585346222,0.0335481502115726,0.030376985669136,0.0,0.0,0.34747314453125,0.1261399984359741
