x_pos,y_pos,x_vel,y_vel,angle,ang_vel,leg_1,leg_2,main_booster,lat_booster
-0.0014711379772052,1.4030563831329346,-0.1483629792928695,-0.3494947552680969,0.0011163622839376,0.0219732671976089,0.0,0.0,0.4175949096679687,0.5804653167724609
-0.0027963637840002,1.3952388763427734,-0.1319499462842941,-0.3474424183368683,0.0005592749803327,-0.0111419390887022,0.0,0.0,-0.5472185015678406,0.5894761085510254
-0.0040126801468431,1.3868485689163208,-0.1190204992890358,-0.3729026913642883,-0.0020249083172529,-0.0516885295510292,0.0,0.0,-0.1675341129302978,0.333332896232605
-0.0051771164871752,1.3778903484344482,-0.1132257357239723,-0.3981481492519378,-0.0052035111002624,-0.0635783076286315,0.0,0.0,-0.2559759020805359,0.040786862373352
-0.0062899589538574,1.3683644533157349,-0.1074754819273948,-0.4233928918838501,-0.0089682014659047,-0.0753005146980285,0.0,0.0,-0.0221732854843139,-0.0991849899291992
-0.0073515893891453,1.3582707643508911,-0.1017726212739944,-0.4486382603645324,-0.0133086247369647,-0.0868165045976638,0.0,0.0,0.2217941284179687,0.0642203092575073
-0.0083733554929494,1.348250389099121,-0.097141146659851,-0.4454018771648407,-0.0182936210185289,-0.0997090488672256,0.0,0.0,0.1192293167114257,0.6804251670837402
-0.0091687198728322,1.3383172750473022,-0.0727220773696899,-0.441571295261383,-0.0250299647450447,-0.1347392052412033,0.0,0.0,-0.3225198984146118,-0.8174557089805603
-0.0099795339629054,1.3278281688690186,-0.0753980278968811,-0.4662905633449554,-0.0306534431874752,-0.1124801412224769,0.0,0.0,0.1050846576690673,-0.4149338603019714
-0.0107265468686819,1.317500352859497,-0.0684805959463119,-0.4591585099697113,-0.0368065200746059,-0.1230731233954429,0.0,0.0,-0.5376445651054382,-0.906602144241333
-0.0114857675507664,1.306609034538269,-0.0707415714859962,-0.4841958880424499,-0.0419299528002738,-0.1024779677391052,0.0,0.0,-0.7472500205039978,-0.6942278742790222
-0.0122447963804006,1.2951520681381226,-0.0714588910341262,-0.5093352198600769,-0.0463341437280178,-0.0880916863679885,0.0,0.0,-0.6554184556007385,-0.9581040143966676
-0.0130149843171238,1.2831364870071411,-0.0735989287495613,-0.5341359376907349,-0.0497254766523838,-0.0678325444459915,0.0,0.0,-0.448933482170105,-0.8224546909332275
-0.013795661740005,1.270549774169922,-0.0756338909268379,-0.5594860315322876,-0.0521325878798961,-0.0481465980410575,0.0,0.0,-0.3338582515716553,-0.9817556142807008
-0.0145886419340968,1.2574104070663452,-0.0779274851083755,-0.5840217471122742,-0.0534845516085624,-0.0270418878644704,0.0,0.0,0.3673362731933594,-0.9330198168754578
-0.0152924535796046,1.2440584897994995,-0.0705494806170463,-0.5934155583381653,-0.0533145926892757,0.0033994689583778,0.0,0.0,-0.3631608486175537,-0.4933931827545166
-0.0159509666264057,1.2301385402679443,-0.0656228736042976,-0.6186645030975342,-0.0535408183932304,-0.0045248847454786,0.0,0.0,-0.1756888628005981,-0.7288669943809509
-0.0166089050471782,1.215648531913757,-0.0663124769926071,-0.6439875364303589,-0.0530334077775478,0.0101490849629044,0.0,0.0,-0.6944118142127991,-0.8203095197677612
-0.0172769539058208,1.2006027698516846,-0.0683518946170806,-0.6686488389968872,-0.0515038929879665,0.0305931828916072,0.0,0.0,-0.2493794560432434,-0.8030757308006287
-0.0179737098515033,1.1849944591522217,-0.0727244168519973,-0.6936023831367493,-0.0484848022460937,0.0603868849575519,0.0,0.0,-0.6037598848342896,-0.353985071182251
-0.0186280254274606,1.168818473815918,-0.0681873261928558,-0.7188482880592346,-0.0457580275833606,0.0545402467250824,0.0,0.0,-0.728467583656311,-0.0212214589118957
-0.019240666180849,1.1520745754241943,-0.0637525245547294,-0.7440942525863647,-0.0432936511933803,0.0492921285331249,0.0,0.0,-0.1724744439125061,-0.111034870147705
-0.0198122970759868,1.13476300239563,-0.059424091130495,-0.769339919090271,-0.0410618782043457,0.0446393303573131,0.0,0.0,0.3844002485275268,-0.5657368898391724
-0.0203143116086721,1.1172680854797363,-0.053531564772129,-0.7774580717086792,-0.037766259163618,0.0659183487296104,0.0,0.0,0.6171247959136963,-0.3822274208068847
-0.0208921432495117,1.100157618522644,-0.0602909140288829,-0.760406494140625,-0.0352855920791626,0.049617700278759,0.0,0.0,-0.4153552651405334,-0.336573839187622
-0.0214319229125976,1.0824575424194336,-0.0563512034714221,-0.7866073250770569,-0.0329413972795009,0.0468839481472969,0.0,0.0,0.2881491184234619,-0.2083780169486999
-0.0219122879207134,1.0650389194488523,-0.0503220669925212,-0.7741168737411499,-0.0306871607899665,0.0450848527252674,0.0,0.0,-0.4287240505218506,-0.2710744142532348
-0.02235584333539,1.0470523834228516,-0.0465646870434284,-0.799359917640686,-0.0285031385719776,0.043680366128683,0.0,0.0,-0.4265377521514892,-0.0233972668647766
-0.022763442248106,1.0284979343414309,-0.0429303869605064,-0.8246028423309326,-0.0263556949794292,0.0429486855864524,0.0,0.0,0.7160521745681763,0.0108675956726074
-0.0231443401426076,1.0101357698440552,-0.0401635617017746,-0.8160580992698669,-0.0243121515959501,0.0408710166811943,0.0,0.0,0.2227445840835571,-0.1217784285545349
-0.0234620086848735,0.9921450018882751,-0.0339363776147365,-0.799561619758606,-0.0221741925925016,0.0427594184875488,0.0,0.0,-0.3767365217208862,0.561326265335083
-0.0237079616636037,0.9735814929008484,-0.0258343461900949,-0.8250216245651245,-0.020945394411683,0.0245759654790163,0.0,0.0,-0.1690504550933838,-0.6183486580848694
-0.0239771846681833,0.954457700252533,-0.0296814683824777,-0.8499084711074829,-0.0182222463190555,0.0544630996882915,0.0,0.0,0.4429314136505127,0.8659281730651855
-0.024203872308135,0.9352304935455322,-0.0237404517829418,-0.8545331954956055,-0.0171697121113538,0.0210506375879049,0.0,0.0,0.8240513801574707,-0.4874127507209778
-0.0243704803287982,0.9164733290672302,-0.0179748367518186,-0.8336358666419983,-0.0158760417252779,0.0258732680231332,0.0,0.0,0.3951942920684814,0.8616433143615723
-0.0244121551513671,0.898110568523407,-0.0039439303800463,-0.8161242604255676,-0.016088381409645,-0.0042470237240195,0.0,0.0,0.5286550521850586,0.2291396856307983
-0.0244429595768451,0.8798123598098755,-0.0029794166330248,-0.8132602572441101,-0.0161964260041713,-0.0021606404334306,0.0,0.0,-0.0192993283271789,0.0840963125228881
-0.0244467742741107,0.8609458804130554,-0.0005117523251101,-0.8385023474693298,-0.0160602331161499,0.0027239604387432,0.0,0.0,0.3305438756942749,0.6049404144287109
-0.0244003292173147,0.8425357937812805,0.0055171381682157,-0.8182402849197388,-0.0169240273535251,-0.0172758530825376,0.0,0.0,0.2652268409729004,-0.0560153126716613
-0.0242992397397756,0.8242552876472473,0.0105743678286671,-0.8124757409095764,-0.0173918567597866,-0.0093564679846167,0.0,0.0,-0.5359062552452087,-0.1848325133323669
-0.0241743084043264,0.8054065704345703,0.0126498863101005,-0.8377177119255066,-0.017539931461215,-0.0029616449028253,0.0,0.0,-0.1266208887100219,0.4286043643951416
-0.0240263938903808,0.7859899401664734,0.0145966783165931,-0.862959623336792,-0.0173456408083438,0.0038859783671796,0.0,0.0,0.2275633811950683,0.8097397089004517
-0.0237059593200683,0.766342043876648,0.0330266989767551,-0.8732544779777527,-0.0183243472129106,-0.0195742286741733,0.0,0.0,0.0719842910766601,-0.2605432271957397
-0.023294162005186,0.7466385960578918,0.0414895303547382,-0.8757087588310242,-0.0186211485415697,-0.005936031229794,0.0,0.0,0.2261778116226196,0.3058023452758789
-0.0228886604309082,0.7266958355903625,0.0405927598476409,-0.8863462805747986,-0.0186547022312879,-0.0006711379392072,0.0,0.0,0.6165647506713867,0.2246992588043213
-0.022413158789277,0.7066740989685059,0.0469364002346992,-0.889847993850708,-0.0180598367005586,0.0118973953649401,0.0,0.0,0.0305461883544921,0.3096966743469238
-0.0218770019710063,0.6865013241767883,0.0523968636989593,-0.8965528607368469,-0.0168518852442502,0.0241590030491352,0.0,0.0,0.1679723262786865,-0.1372675895690918
-0.0213935859501361,0.6666465401649475,0.0470331907272338,-0.8824194669723511,-0.0155589561909437,0.0258584581315517,0.0,0.0,0.6410276889801025,-0.5060245990753174
-0.0210627559572458,0.6474065780639648,0.0306686013936996,-0.8550857305526733,-0.0131805017590522,0.0475693494081497,0.0,0.0,0.0833266973495483,0.7512068748474121
-0.0206692703068256,0.628095805644989,0.03797098249197,-0.8582433462142944,-0.0118274176493287,0.0270618554204702,0.0,0.0,0.5800669193267822,0.2651276588439941
-0.0201184265315532,0.6090338826179504,0.0525761023163795,-0.8471818566322327,-0.0093469163402915,0.0496100224554538,0.0,0.0,0.4190404415130615,-0.321321427822113
-0.019598102197051,0.590353786945343,0.0492347292602062,-0.8302129507064819,-0.006590842269361,0.05512161180377,0.0,0.0,0.0766928195953369,0.3045685291290283
-0.0189927108585834,0.5715396404266357,0.0568957217037677,-0.8361709117889404,-0.0029901477973908,0.0720140263438224,0.0,0.0,0.4367533922195434,0.5757436752319336
-0.0183253288269042,0.5532033443450928,0.0637011229991912,-0.8149437308311462,-2.557774905653787e-06,0.0597520172595977,0.0,0.0,0.849165678024292,0.3193035125732422
-0.0174809452146291,0.5351178646087646,0.0800889134407043,-0.8038057684898376,0.0042906943708658,0.085865132510662,0.0,0.0,0.3714801073074341,0.016352891921997
-0.0167079921811819,0.5170510411262512,0.0727635994553566,-0.802994966506958,0.0087596913799643,0.0893801003694534,0.0,0.0,0.8379077911376953,0.6515886783599854
-0.0157699584960937,0.4997544288635254,0.0897522643208503,-0.7687662839889526,0.0127648105844855,0.0801022425293922,0.0,0.0,0.1139929294586181,-0.2951607704162597
-0.0147366523742675,0.4825741052627563,0.0982794016599655,-0.7636203765869141,0.0177581328898668,0.0998664200305938,0.0,0.0,0.1910685300827026,-0.1111307144165039
-0.013652610592544,0.4657179713249206,0.1025227904319763,-0.7492402791976929,0.0235650725662708,0.1161385625600814,0.0,0.0,0.5480802059173584,0.0902621746063232
-0.0126505848020315,0.4493962526321411,0.0940809100866317,-0.7255205512046814,0.0296124760061502,0.1209478825330734,0.0,0.0,0.5133291482925415,0.1588281393051147
-0.0116056445986032,0.4330179691314697,0.0975695773959159,-0.7280758619308472,0.0364530272781848,0.1368107795715332,0.0,0.0,0.6006374359130859,0.5438997745513916
-0.0106411930173635,0.4170906543731689,0.0902957469224929,-0.7080399394035339,0.0425234101712703,0.1214076429605484,0.0,0.0,0.6635868549346924,0.6416172981262207
-0.0095085147768259,0.4013868570327759,0.1075075417757034,-0.6981200575828552,0.0482172705233097,0.1138771623373031,0.0,0.0,0.7192273139953613,0.3337416648864746
-0.0083775520324707,0.3860734701156616,0.1066224724054336,-0.6808192729949951,0.0546152032911777,0.1279585659503936,0.0,0.0,0.5014441013336182,0.5905299186706543
-0.0072078704833984,0.3707386553287506,0.1110632196068763,-0.6817711591720581,0.0604509711265563,0.1167155727744102,0.0,0.0,0.5538457632064819,0.5661883354187012
-0.0061488151550292,0.355662077665329,0.1008484810590744,-0.6702824831008911,0.0654510408639907,0.1000014767050743,0.0,0.0,0.7125827074050903,0.5166186094284058
-0.0050803185440599,0.3413586020469665,0.1021644473075866,-0.6359242796897888,0.0700890943408012,0.0927612036466598,0.0,0.0,0.6704320907592773,-0.2030948996543884
-0.0039466856978833,0.326939195394516,0.1076753363013267,-0.6411389112472534,0.0757156983017921,0.1125322207808494,0.0,0.0,0.919546604156494,0.8159294128417969
-0.0027872086502611,0.3134569823741913,0.1112161725759506,-0.599456787109375,0.0803944244980812,0.0935741811990737,0.0,0.0,0.3003618717193603,0.6128898859024048
-0.0016880988841876,0.2999580204486847,0.1059576645493507,-0.6001688838005066,0.0843110680580139,0.078332632780075,0.0,0.0,0.5990196466445923,0.3457398414611816
-0.0007304191822186,0.2868604063987732,0.0916176587343216,-0.5823574066162109,0.088428683578968,0.0823524966835975,0.0,0.0,0.393237829208374,0.5621019601821899
0.0002555847167968,0.2739905118942261,0.0948886424303054,-0.5722160935401917,0.0921026915311813,0.0734801292419433,0.0,0.0,0.657961368560791,0.7327765226364136
0.0010819435119628,0.2618160843849182,0.0800668150186538,-0.5412446856498718,0.0946436673402786,0.0508195757865905,0.0,0.0,0.8132584095001221,0.541246771812439
0.0019785880576819,0.2500392496585846,0.0873238369822502,-0.5235645771026611,0.0969645380973815,0.0464176125824451,0.0,0.0,0.6159839630126953,0.1827330589294433
0.0028075217269361,0.2382617145776748,0.0800815522670745,-0.523632824420929,0.0997514873743057,0.0557390749454498,0.0,0.0,0.8617966175079346,0.1078464984893798
0.0036783218383789,0.2264753729104995,0.083295539021492,-0.5240962505340576,0.1035127118229866,0.075224295258522,0.0,0.0,0.936753273010254,0.2008235454559326
0.0044734952971339,0.2147099822759628,0.0752757117152214,-0.523203432559967,0.1077232509851455,0.0842108577489852,0.0,0.0,0.972219705581665,0.5750142335891724
0.0052036284469068,0.203800693154335,0.0693293362855911,-0.4851291477680206,0.111375980079174,0.073054701089859,0.0,0.0,0.7095227241516113,-0.5828377604484558
0.0058846473693847,0.1935958415269851,0.0623995065689086,-0.4539828300476074,0.1170397326350212,0.1132747307419776,0.0,0.0,0.9272605180740356,0.6852321624755859
0.0063703535124659,0.1842363625764846,0.0439802780747413,-0.4163420796394348,0.1216047331690788,0.0913006588816642,0.0,0.0,0.9188551902770996,0.4726090431213379
0.0066634179092943,0.1748557239770889,0.0247815735638141,-0.4172935485839844,0.1260972768068313,0.0898510962724685,0.0,0.0,0.9203917980194092,0.5660302639007568
0.006937694735825,0.1662986129522323,0.0232866443693637,-0.3806731402873993,0.1302212178707122,0.0824787467718124,0.0,0.0,0.7763563394546509,-0.2525209188461303
0.0070274351164698,0.1580739617347717,0.0047088684514164,-0.3659197986125946,0.1344638466835022,0.0848525464534759,0.0,0.0,0.5226724147796631,0.8343619108200073
0.0070466040633618,0.150216594338417,-0.0012117000296711,-0.349502295255661,0.1375781744718551,0.0622863546013832,0.0,0.0,0.8690450191497803,0.5671370029449463
0.0069916723296046,0.1429769843816757,-0.0080584688112139,-0.3219980299472809,0.1401396244764328,0.0512290485203266,0.0,0.0,0.4799280166625976,0.8151957988739014
0.0070195198059082,0.1359767019748687,0.00109483464621,-0.3112819790840149,0.1418183892965316,0.0335754081606864,0.0,0.0,0.5825936794281006,0.729569673538208
0.0070891380310058,0.1289069801568985,0.0060611898079514,-0.3142945170402527,0.142710730433464,0.0178468599915504,0.0,0.0,0.7142881155014038,0.1066417694091796
0.0072006224654614,0.1219114139676094,0.0091927591711282,-0.3111046552658081,0.1446682661771774,0.0391505844891071,0.0,0.0,0.8180844783782959,0.6044027805328369
0.0074474336579442,0.1153295636177063,0.0228490307927131,-0.292704701423645,0.1464899331331253,0.0364334508776664,0.0,0.0,0.7215285301208496,0.1101137399673461
0.0077852248214185,0.1088226661086082,0.030662003904581,-0.2895037531852722,0.1496012955904007,0.0622269809246063,0.0,0.0,0.6546742916107178,-0.4645781517028808
0.0080131534487009,0.1028640121221542,0.0190949104726314,-0.2652072012424469,0.1533028334379196,0.0740307122468948,0.0,0.0,0.299025297164917,-0.3391660451889038
0.008182811550796,0.0972285866737365,0.0125305550172925,-0.2509269416332245,0.157731831073761,0.0885798707604408,0.0,0.0,0.3583781719207763,-0.5623589158058167
0.0083416942507028,0.091857299208641,0.0094818351790308,-0.2394178509712219,0.1641393303871154,0.1281498968601226,0.0,0.0,-0.0732737183570861,0.4560604095458984
0.0085105895996093,0.0859199613332748,0.0098806731402874,-0.2646720111370086,0.1711582392454147,0.1403780877590179,0.0,0.0,0.4869159460067749,0.7741833925247192
0.008620929904282,0.0800940617918968,0.005052522290498,-0.2596312463283539,0.1771531850099563,0.1198991760611534,0.0,0.0,0.4692426919937134,0.904617190361023
0.0087607381865382,0.0748870000243187,0.0091149033978581,-0.232014313340187,0.1820281893014907,0.0975005254149437,0.0,0.0,-0.2224674224853515,0.5869150161743164
0.0089567182585597,0.0691255405545234,0.0152705879881978,-0.256600558757782,0.1863766014575958,0.0869683548808097,0.0,0.0,0.5386579036712646,0.8841897249221802
0.0089682582765817,0.0638810023665428,-0.0018342761322855,-0.2334687411785125,0.1893783807754516,0.0600358359515666,0.0,0.0,0.6308579444885254,0.9655389785766602
0.0090337749570608,0.0591385699808597,0.0047784778289496,-0.2110002338886261,0.1911558657884597,0.0355496630072593,0.0,0.0,0.5641384124755859,0.7022596597671509
0.0089784618467092,0.0548807941377162,-0.0063762902282178,-0.1893457323312759,0.1920077353715896,0.0170372910797595,0.0,0.0,0.2096661329269409,0.7965589761734009
0.0088274953886866,0.0508675687015056,-0.0148794008418917,-0.1783355623483657,0.1917895823717117,-0.0043633002787828,0.0,0.0,0.6792526245117188,0.9454824924468994
0.0086427684873342,0.0470433793962001,-0.0169227458536624,-0.1697623878717422,0.1902270764112472,-0.0312501713633537,0.0,0.0,0.3868603706359863,0.7360937595367432
0.008329963311553,0.0433826297521591,-0.028667826205492,-0.1623666733503341,0.1876063793897628,-0.0524139516055583,0.0,0.0,0.4004069566726684,0.93721604347229
0.0078825950622558,0.0397876128554344,-0.0407230295240879,-0.1592768132686615,0.183568999171257,-0.0807472318410873,0.0,0.0,0.3115346431732178,0.9779224395751952
0.0075218202546238,0.0365211814641952,-0.030716773122549,-0.144518956542015,0.1781887412071228,-0.1076055616140365,0.0,0.0,0.5563158988952637,0.8775067329406738
0.0072528840973973,0.0332299321889877,-0.0204387940466403,-0.1455171406269073,0.1717163324356079,-0.1294480711221695,0.0,0.0,0.5199215412139893,0.9652707576751708
0.0071091651916503,0.030475839972496,-0.0066876574419438,-0.1215352341532707,0.1640261858701706,-0.1538029909133911,0.0,0.0,-0.1654368042945861,0.7503715753555298
0.0070434571243822,0.0271759368479251,0.0019897508900612,-0.1457360237836837,0.1554516106843948,-0.1714911758899688,0.0,0.0,0.6342744827270508,0.9341280460357666
0.0070983888581395,0.0246277675032615,0.0151924788951873,-0.112270675599575,0.1457713097333908,-0.1936059296131134,0.0,0.0,0.0568342208862304,0.2647222280502319
0.0071720122359693,0.0220745895057916,0.0162785556167364,-0.1126215159893035,0.1368709206581115,-0.1780076026916504,0.0,0.0,-0.0836583375930786,0.4650063514709472
0.0072706220671534,0.018955573439598,0.0182438008487224,-0.1378767788410186,0.1285187751054763,-0.1670426428318023,0.0,0.0,0.5483803749084473,0.0409413576126098
0.0073569295927882,0.0163792949169874,0.0162226129323244,-0.1138659864664077,0.1209717318415641,-0.1509411036968231,0.0,0.0,-0.1188775300979614,0.0670473575592041
0.007470226380974,0.0132366754114627,0.0183804892003536,-0.1391185373067855,0.1139601096510887,-0.14023257791996,0.0,0.0,0.209033727645874,0.1457479000091552
0.0074014663696289,0.0107597447931766,0.0143659487366676,-0.1085983589291572,0.0928822010755539,-0.4215587079524994,0.0,1.0,0.69773268699646,-0.0838274955749511
0.0071519850753247,0.008492705412209,-0.0030511529184877,-0.0995424315333366,0.0711947530508041,-0.4337491989135742,0.0,1.0,0.7297334671020508,0.318336009979248
0.0068377493880689,0.0065446351654827,-0.0093864081427454,-0.0856787860393524,0.049403753131628,-0.4358202517032623,0.0,1.0,0.5576171875,0.2785450220108032
0.0065229414030909,0.0047901486977934,-0.009534197859466,-0.0773963034152984,0.027726724743843,-0.4335407316684723,0.0,0.0,-0.1744649410247802,-0.4536032080650329
0.006236839108169,0.0024740791413933,-0.0071858437731862,-0.1026792675256729,0.0065713841468095,-0.4231067597866058,0.0,0.0,0.4901702404022217,-0.5755335688591003
0.0060258866287767,0.0005236124852672,-0.0015606691595166,-0.0867145434021949,-0.0127042513340711,-0.3855128288269043,0.0,0.0,0.0084686279296875,-0.6490094661712646
0.0059165954589843,-0.0005392932798713,-0.0126697001978755,-0.0472266227006912,-0.0109897209331393,0.034285694360733,1.0,0.0,-0.0941532254219055,0.3191488981246948
0.0059108734130859,-0.0015671515138819,-0.0193387679755687,-0.0456535741686821,0.0075389719568192,0.3705825209617615,1.0,0.0,0.1284989118576049,0.6143231391906738
