x_pos,y_pos,x_vel,y_vel,angle,ang_vel,leg_1,leg_2,main_booster,lat_booster
-0.0014526366721838,1.4034360647201538,-0.147283524274826,-0.3326245844364166,0.0018169395625591,0.0358446910977363,0.0,0.0,-0.130632996559143,0.8888139724731445
-0.0027584074996411,1.395782709121704,-0.1305283010005951,-0.340151846408844,0.0017725926591083,-0.0008867206051945,0.0,0.0,-0.0396053194999694,0.6061384677886963
-0.0039352416060864,1.3879361152648926,-0.1162515133619308,-0.3487363159656524,0.0003589367843233,-0.0282758381217718,0.0,0.0,-0.3950952887535095,0.1783146858215332
-0.0050417901948094,1.3799011707305908,-0.1093219071626663,-0.357114166021347,-0.000958832388278,-0.0263576097786426,0.0,0.0,0.1006386280059814,0.2044954299926757
-0.0059923171065747,1.3723291158676147,-0.0942307636141777,-0.3365316689014435,-0.0017687499057501,-0.0162000600248575,0.0,0.0,-0.6183225512504578,0.501706600189209
-0.0068253516219556,1.364567756652832,-0.0813456699252128,-0.3449505567550659,-0.0036997073329985,-0.0386229939758777,0.0,0.0,-0.6216477751731873,-0.5559355020523071
-0.0076353074982762,1.3566184043884275,-0.0802967324852943,-0.3533083796501159,-0.0043891752138733,-0.0137906996533274,0.0,0.0,-0.8421283960342407,0.1031055450439453
-0.0083776470273733,1.348480463027954,-0.0736329406499862,-0.3616825342178345,-0.004979349207133,-0.0118044251576066,0.0,0.0,-0.5682803988456726,0.3161780834197998
-0.0090531352907419,1.3401541709899902,-0.0670509487390518,-0.3700567185878753,-0.0054681259207427,-0.0097767477855086,0.0,0.0,-0.3780698180198669,-0.1221920847892761
-0.0096626281738281,1.3316396474838257,-0.0605585984885692,-0.3784309327602386,-0.0058547351509332,-0.0077328421175479,0.0,0.0,-0.7571046948432922,-0.1684418320655822
-0.010207176208496,1.3229365348815918,-0.0541642494499683,-0.3868051767349243,-0.0061381240375339,-0.0056685209274291,0.0,0.0,-0.1717656254768371,-0.5777609348297119
-0.0107279773801565,1.3140442371368408,-0.0529200844466686,-0.3952120244503021,-0.0053064664825797,0.0166348423808813,0.0,0.0,-0.5417206287384033,-0.1068243980407714
-0.0111859319731593,1.30496346950531,-0.0467518866062164,-0.4035862684249878,-0.0043701715767383,0.0187280606478452,0.0,0.0,-0.5836275815963745,-0.2320994138717651
-0.0115824695676565,1.2956942319869995,-0.0407101660966873,-0.4119606614112854,-0.0033275138121098,0.0208550281822681,0.0,0.0,-0.9037699103355408,-0.3320627212524414
-0.0119189266115427,1.2862366437911987,-0.0348063297569751,-0.4203350841999054,-0.0021776668727397,0.022999107837677,0.0,0.0,-0.844347357749939,-0.2821522355079651
-0.0121967317536473,1.2765907049179075,-0.0290521644055843,-0.4287095665931701,-0.0009195659658871,0.025164645165205,0.0,0.0,-0.9043964743614196,-0.5472502112388611
-0.0124506950378417,1.2667628526687622,-0.0276403427124023,-0.4367986023426056,0.0012856535613536,0.0441085360944271,0.0,0.0,-0.9127084612846376,-0.466352105140686
-0.0126495361328125,1.2567464113235474,-0.0222267620265483,-0.4451737105846405,0.003600925207138,0.0463097132742404,0.0,0.0,-0.8979373574256897,-0.5717493891716003
-0.012833023443818,1.246546983718872,-0.0217561889439821,-0.4533204436302185,0.0069800890050828,0.0675894245505333,0.0,0.0,-0.9483498334884644,-0.3691827058792114
-0.0129651073366403,1.2361594438552856,-0.0167399086058139,-0.4616959989070892,0.0104715917259454,0.0698363333940506,0.0,0.0,-0.8824838995933533,-0.3325256109237671
-0.0130480770021677,1.2255834341049194,-0.0119433905929327,-0.4700716733932495,0.0140773644670844,0.0721217989921569,0.0,0.0,-0.9646640419960022,0.2379021644592285
-0.0130842206999659,1.2148194313049316,-0.0073829875327646,-0.4784476161003113,0.0177986063063144,0.0744316577911377,0.0,0.0,-0.9088664054870604,0.6635160446166992
-0.0130123142153024,1.2038676738739014,0.0049258852377533,-0.4867696762084961,0.0200339555740356,0.0447110086679458,0.0,0.0,-0.8714423775672913,-0.5665489435195923
-0.0129384044557809,1.1927202939987185,0.0040094321593642,-0.4954914152622223,0.0233848448842763,0.0670235529541969,0.0,0.0,-0.7702499032020569,-0.2617192268371582
-0.0128257749602198,1.181384563446045,0.0077644339762628,-0.5038673877716064,0.0268552843481302,0.0694147944450378,0.0,0.0,-0.9327073097229004,-0.1331614255905151
-0.0126768108457326,1.1698392629623413,0.0112570412456989,-0.5131969451904297,0.0304483082145452,0.0718603804707527,0.0,0.0,-0.888359010219574,0.1129382848739624
-0.0124951358884572,1.158105731010437,0.0144028393551707,-0.5215708613395691,0.0341659896075725,0.0743535310029983,0.0,0.0,-0.8691906929016113,0.4374678134918213
-0.0122840879485011,1.146183967590332,0.0172157697379589,-0.5299448370933533,0.038010474294424,0.0768895968794822,0.0,0.0,-0.8775284886360168,0.4927248954772949
-0.0120470048859715,1.134074330329895,0.0196813941001892,-0.5383189916610718,0.0419839397072792,0.0794693082571029,0.0,0.0,-0.9384265542030334,0.6442437171936035
-0.0117383953183889,1.1217771768569946,0.0279618855565786,-0.5466282367706299,0.044851928949356,0.0573598630726337,0.0,0.0,-0.9330700635910034,0.3320789337158203
-0.0114110950380563,1.109291672706604,0.0296945571899414,-0.555001974105835,0.0478533171117305,0.0600275918841362,0.0,0.0,-0.8534722328186035,0.5389397144317627
-0.0110317226499319,1.0966176986694336,0.0357096903026104,-0.5633666515350342,0.0500569827854633,0.0440732315182685,0.0,0.0,-0.922424614429474,0.6582796573638916
-0.0105965612456202,1.0837647914886477,0.0422823876142501,-0.5712774991989136,0.0512669347226619,0.0241992063820362,0.0,0.0,-0.93453449010849,0.4649752378463745
-0.0101544382050633,1.0707237720489502,0.0428455658257007,-0.5796506404876709,0.0526167713105678,0.0269968323409557,0.0,0.0,-0.9262206554412842,0.5205200910568237
-0.0096671106293797,1.0574989318847656,0.0483057871460914,-0.5877895951271057,0.053044531494379,0.0085549484938383,0.0,0.0,-0.8027533888816833,-0.2899156808853149
-0.0091806408017873,1.0440857410430908,0.0480672791600227,-0.596162736415863,0.0536162219941616,0.0114338658750057,0.0,0.0,-0.8633812069892883,0.5489184856414795
-0.0086575504392385,1.0304847955703735,0.0526440627872943,-0.6044743657112122,0.0532895140349864,-0.0065342420712113,0.0,0.0,-0.8563662767410278,-0.6383901238441467
-0.0081907268613576,1.0166966915130615,0.0456613786518573,-0.6128404140472412,0.0542995184659957,0.0202001202851533,0.0,0.0,-0.790669322013855,0.2834656238555908
-0.0077366828918457,1.0027204751968384,0.0442345812916755,-0.6212137341499329,0.0554587841033935,0.0231852661818265,0.0,0.0,-0.67116379737854,0.311486005783081
-0.007299137301743,0.9885559678077698,0.0424247197806835,-0.6295870542526245,0.0567687712609767,0.0262000504881143,0.0,0.0,-0.7244341373443604,0.0659025907516479
-0.0068819047883152,0.9742030501365662,0.0402417480945587,-0.6379604339599609,0.0582308210432529,0.0292410310357809,0.0,0.0,-0.8749898076057434,0.8828768730163574
-0.00640449533239,0.9596673846244812,0.04825085029006,-0.646012544631958,0.0577290654182434,-0.0100350612774491,0.0,0.0,-0.8992606401443481,0.4017995595932007
-0.0059544565156102,0.944943368434906,0.0453582778573036,-0.6543857455253601,0.0573813840746879,-0.0069536482915282,0.0,0.0,-0.7440138459205627,-0.4856467247009277
-0.0055350302718579,0.9300310015678406,0.0421319641172885,-0.6627590656280518,0.0571884624660015,-0.003858522279188,0.0,0.0,-0.4417241811752319,0.5277950763702393
-0.0051104547455906,0.9149276614189148,0.0434902049601078,-0.6712237596511841,0.056172490119934,-0.020319614559412,0.0,0.0,-0.3813667893409729,-0.5723385214805603
-0.0047642709687352,0.8996266722679138,0.0344238132238388,-0.6800525188446045,0.0563652403652668,0.0038551618345081,0.0,0.0,-0.7851330041885376,0.381311297416687
-0.0044578551314771,0.8841375112533569,0.0302911698818206,-0.6884257793426514,0.0567133650183677,0.0069624343886971,0.0,0.0,-0.4980243444442749,0.8806736469268799
-0.0041376114822924,0.8684741258621216,0.0329556539654731,-0.6961105465888977,0.055788904428482,-0.018489209935069,0.0,0.0,-0.1943867802619934,0.3587112426757812
-0.0038622855208814,0.8526224493980408,0.0283016115427017,-0.7044838070869446,0.0550189055502414,-0.0153999719768762,0.0,0.0,-0.3236024379730224,0.7573232650756836
-0.0035766600631177,0.8365854620933533,0.0306645594537258,-0.7126879096031189,0.0529487133026123,-0.0414040237665176,0.0,0.0,-0.6797897815704346,0.240404725074768
-0.00334043498151,0.820360004901886,0.0255548115819692,-0.7210614085197449,0.0510309636592865,-0.0383548364043235,0.0,0.0,-0.4361621141433716,0.4858534336090088
-0.0031559944618493,0.8039464354515076,0.020240819081664,-0.7294348478317261,0.0492642633616924,-0.0353342518210411,0.0,0.0,-0.2729921340942383,0.1290372610092163
-0.0030249594710767,0.7873445153236389,0.014737551100552,-0.7378082275390625,0.0476468615233898,-0.0323480777442455,0.0,0.0,-0.2592651844024658,0.3596478700637817
-0.0029492378234863,0.7705544829368591,0.0090592950582504,-0.7461814880371094,0.0461767576634883,-0.0294022150337696,0.0,0.0,-0.0867657661437988,0.6228902339935303
-0.002868938492611,0.7535780072212219,0.0109341572970151,-0.7544214725494385,0.0433059930801391,-0.0574150756001472,0.0,0.0,-0.4802231788635254,0.2887624502182007
-0.0028470992110669,0.7364134192466736,0.0049458649009466,-0.7627951502799988,0.0405776090919971,-0.0545675829052925,0.0,0.0,-0.2144767642021179,0.5918086767196655
-0.0028310776688158,0.7190694808959961,0.005594827234745,-0.7707433104515076,0.0366266854107379,-0.0790183246135711,0.0,0.0,-0.3428025245666504,-0.3195324540138244
-0.0028762817382812,0.7015373110771179,-0.0006554888095706,-0.7791175842285156,0.0328120291233062,-0.0762930810451507,0.0,0.0,-0.4502631425857544,-0.3105839490890503
-0.0029837607871741,0.6838169693946838,-0.0070207840763032,-0.7874916195869446,0.0291301347315311,-0.0736380368471145,0.0,0.0,-0.0024353861808776,-0.00999116897583
-0.0031546591781079,0.6659083962440491,-0.0134913576766848,-0.7958655953407288,0.0255771689116954,-0.0710591524839401,0.0,0.0,-0.1616672277450561,0.293035626411438
-0.0033899308182299,0.6478118300437927,-0.0200582314282655,-0.8042393922805786,0.0221490506082773,-0.0685624629259109,0.0,0.0,-0.2896508574485779,-0.244275689125061
-0.0036906241439282,0.6295270323753357,-0.0267131142318248,-0.8126130700111389,0.0188413672149181,-0.0661538541316986,0.0,0.0,0.6080508232116699,-0.0872222185134887
-0.0039466856978833,0.6118122935295105,-0.0229388400912284,-0.7872904539108276,0.0162054691463708,-0.0527180060744285,0.0,0.0,0.2516614198684692,-0.040389597415924
-0.0042593954131007,0.5946062207221985,-0.0287969261407852,-0.7646913528442383,0.013762867078185,-0.0488522090017795,0.0,0.0,-0.3407319784164428,0.165061354637146
-0.0046398164704442,0.5772117376327515,-0.0356724373996257,-0.7730644941329956,0.011425738222897,-0.0467426255345344,0.0,0.0,-0.2433177232742309,-0.303459882736206
-0.0050886152312159,0.5596290230751038,-0.0426089391112327,-0.7814375758171082,0.0091885551810264,-0.0447436869144439,0.0,0.0,0.5262115001678467,0.0374268293380737
-0.0055937767028808,0.5430442094802856,-0.0484346486628055,-0.7370960116386414,0.0071372338570654,-0.0410266779363155,0.0,0.0,-0.2814160585403442,0.4150372743606567
-0.0061683654785156,0.5262709259986877,-0.0554773323237896,-0.7454689145088196,0.0051740207709372,-0.0392642468214035,0.0,0.0,0.7921545505523682,-0.6044536232948303
-0.0068343160673975,0.5107053518295288,-0.0659819468855857,-0.6918062567710876,0.0045761135406792,-0.0119582256302237,0.0,0.0,-0.2920416593551636,0.8999171257019043
-0.0075106620788574,0.4949477612972259,-0.06557197868824,-0.7003303170204163,0.0025437476579099,-0.0406474284827709,0.0,0.0,-0.0861554145812988,0.4139204025268554
-0.0082578659057617,0.4790018498897552,-0.0727407783269882,-0.7087031602859497,0.0005800848011858,-0.0392729230225086,0.0,0.0,0.1923136711120605,0.6361145973205566
-0.0090017318725585,0.4635426700115204,-0.0712135806679725,-0.6870768070220947,-0.0025485910009592,-0.0625732913613319,0.0,0.0,-0.0045782327651977,-0.0483027100563049
-0.0098173143342137,0.4478952288627624,-0.0784484893083572,-0.6954501271247864,-0.0056223184801638,-0.0614746585488319,0.0,0.0,0.768953800201416,0.5008732080459595
-0.0105784414336085,0.4329859316349029,-0.0722833350300788,-0.6626527905464172,-0.0094018448144197,-0.0755905956029892,0.0,0.0,0.292048692703247,0.1919658184051513
-0.0114355087280273,0.4183475971221924,-0.0817973092198371,-0.6506214737892151,-0.0132627030834555,-0.0772169753909111,0.0,0.0,0.9386312961578368,0.8500955104827881
-0.012205695733428,0.4040812253952026,-0.0716125220060348,-0.6341182589530945,-0.0186028759926557,-0.1068036928772926,0.0,0.0,-0.4440426230430603,0.1278433799743652
-0.0130489347502589,0.3896268606185913,-0.0789466127753257,-0.6424931883811951,-0.0239168629050254,-0.1062796264886856,0.0,0.0,0.060647964477539,0.1497026681900024
-0.0139587400481104,0.3757482469081878,-0.0855922847986221,-0.616921603679657,-0.029236763715744,-0.1063982099294662,0.0,0.0,0.3878959417343139,-0.6267814636230469
-0.0148977283388376,0.3627142906188965,-0.0899329036474227,-0.5793711543083191,-0.033152375370264,-0.0783119201660156,0.0,0.0,-0.8467916250228882,0.5933163166046143
-0.0158721916377544,0.3494962155818939,-0.0925146713852882,-0.587585985660553,-0.0380229912698268,-0.0974124521017074,0.0,0.0,0.7449365854263306,-0.70191490650177
-0.0171115882694721,0.3366187512874603,-0.1200786009430885,-0.5724323391914368,-0.0418329834938049,-0.0761998817324638,0.0,0.0,0.3794580698013305,0.5868384838104248
-0.0183140747249126,0.324542373418808,-0.1152940168976783,-0.5368729829788208,-0.0467415824532508,-0.0981719344854354,0.0,0.0,-0.1157651543617248,0.7842750549316406
-0.0195395462214946,0.3122744560241699,-0.1162472516298294,-0.5454521775245667,-0.0529643408954143,-0.1244551092386245,0.0,0.0,-0.1270636320114135,-0.0111877918243408
-0.0208395011723041,0.2998186945915222,-0.1236805170774459,-0.5538280606269836,-0.0592100284993648,-0.1249138712882995,0.0,0.0,-0.0608212947845459,-0.4912366867065429
-0.022214125841856,0.2871750593185425,-0.1311223357915878,-0.5622040033340454,-0.0654850751161575,-0.1255008280277252,0.0,0.0,0.4246042966842651,0.4223322868347168
-0.0235557556152343,0.2750869989395141,-0.1281357109546661,-0.5375192165374756,-0.0714479312300682,-0.1192569285631179,0.0,0.0,0.3037774562835693,-0.7849231958389282
-0.0249942783266305,0.2632119059562683,-0.1393883824348449,-0.5280038714408875,-0.075866512954235,-0.0883716568350792,0.0,0.0,-0.2507928609848022,-0.4330387115478515
-0.0265078544616699,0.2511487007141113,-0.1468490809202194,-0.5363782644271851,-0.0803325474262237,-0.0893206968903541,0.0,0.0,0.483669638633728,0.2874658107757568
-0.0279237739741802,0.23964823782444,-0.1376444697380066,-0.5113489627838135,-0.0842404216527938,-0.0781573727726936,0.0,0.0,-0.2972795963287353,-0.5144035816192627
-0.0294464118778705,0.2279596626758575,-0.149046391248703,-0.5196777582168579,-0.0874202325940132,-0.0635964944958686,0.0,0.0,0.0042833089828491,-0.3808709979057312
-0.0310078617185354,0.2167657017707824,-0.1528557687997818,-0.4977040588855743,-0.0906794145703315,-0.0651835650205612,0.0,0.0,-0.6494976282119751,-0.4566251039505005
-0.0326446518301963,0.205383688211441,-0.1603282392024994,-0.5060780048370361,-0.0940067693591117,-0.0665472596883773,0.0,0.0,-0.5220195651054382,0.4853955507278442
-0.0343569740653038,0.1938134282827377,-0.1678014993667602,-0.5144519805908203,-0.0974068865180015,-0.0680020153522491,0.0,0.0,0.412577748298645,0.8474414348602295
-0.035954475402832,0.1824389994144439,-0.154658630490303,-0.505871593952179,-0.1024606153368949,-0.1010746359825134,0.0,0.0,0.132266879081726,0.8110904693603516
-0.037569522857666,0.1713917404413223,-0.1546772718429565,-0.4914722144603729,-0.1092391833662986,-0.1355712413787841,0.0,0.0,0.0725574493408203,-0.0226925611495971
-0.0391444191336631,0.1609830409288406,-0.1508339643478393,-0.4631117284297943,-0.1158485412597656,-0.1321870386600494,0.0,0.0,0.0348517894744873,-0.4333503246307373
-0.0407680496573448,0.1509202569723129,-0.1555632054805755,-0.4477747976779938,-0.1226140186190605,-0.135309487581253,0.0,0.0,0.1739969253540039,0.5090851783752441
-0.0424537658691406,0.1415266543626785,-0.1604588329792022,-0.4181842505931854,-0.1306848227977752,-0.1614161729812622,0.0,0.0,-0.4798037409782409,0.4771143198013305
-0.0442150123417377,0.1319455951452255,-0.167919784784317,-0.4265632033348083,-0.1388507336378097,-0.1633186191320419,0.0,0.0,0.2964364290237427,-0.0329536199569702
-0.0460117347538471,0.1230605468153953,-0.1711907684803009,-0.3957014679908752,-0.1473091691732406,-0.1691686511039734,0.0,0.0,0.2966150045394897,0.532355546951294
-0.0478254333138465,0.114870510995388,-0.171586126089096,-0.3650007843971252,-0.1570852845907211,-0.1955226361751556,0.0,0.0,-0.0339328646659851,-0.4294227361679077
-0.0497145652770996,0.1064935773611068,-0.1790292412042617,-0.373382568359375,-0.1669649481773376,-0.1975932717323303,0.0,0.0,0.4176551103591919,0.4842135906219482
-0.0516918189823627,0.0987181067466735,-0.1872952878475189,-0.3467828631401062,-0.1774137169122696,-0.2089753448963165,0.0,0.0,0.3041212558746338,0.746978759765625
-0.0537446960806846,0.091384656727314,-0.1931095421314239,-0.3274332880973816,-0.1896447837352752,-0.2446212470531463,0.0,0.0,0.6129971742630005,0.3608906269073486
-0.0556387901306152,0.0848693251609802,-0.1776180863380432,-0.2911247313022613,-0.2015079259872436,-0.2372630089521408,0.0,0.0,0.2091367244720459,-0.0519687533378601
-0.0575098022818565,0.0785511136054992,-0.1754249036312103,-0.2824434638023376,-0.2132759094238281,-0.2353596687316894,0.0,0.0,0.4319088459014892,-0.3306822776794433
-0.0591925606131553,0.0729760527610778,-0.1571084111928939,-0.2494375854730606,-0.2245768308639526,-0.2260188311338424,0.0,0.0,0.731560230255127,-0.233701467514038
-0.0607923492789268,0.0684119313955307,-0.1485997289419174,-0.2046233713626861,-0.2361050099134445,-0.2305635958909988,0.0,0.0,0.053752064704895,-0.0185843706130981
-0.062250517308712,0.064424380660057,-0.1347782909870147,-0.1790359020233154,-0.2473302185535431,-0.2245040386915207,0.0,0.0,0.4530456066131592,-0.4199323654174804
-0.0635931938886642,0.0609671212732791,-0.1234413981437683,-0.155514970421791,-0.2583646774291992,-0.2206887304782867,0.0,0.0,0.5178579092025757,-0.7797085642814636
-0.0648835152387619,0.0584450587630271,-0.1196562424302101,-0.1137741953134536,-0.2679478228092193,-0.19166299700737,0.0,0.0,0.23114013671875,0.2869355678558349
-0.0660489052534103,0.056567084044218,-0.1072664484381675,-0.0851883441209793,-0.277444452047348,-0.1899327486753463,0.0,0.0,0.3593344688415527,0.0958437919616699
-0.0671210289001464,0.0550193414092063,-0.0981382355093956,-0.0705382451415062,-0.2867583632469177,-0.1862781047821045,0.0,0.0,0.2827495336532593,-0.5304298996925354
-0.0682700127363205,0.054037794470787,-0.1065620779991149,-0.0452824644744396,-0.2953400015830993,-0.1716334819793701,0.0,0.0,0.4488402605056762,-0.5041587352752686
-0.0695149451494216,0.0535859689116478,-0.1167553216218948,-0.0216678511351346,-0.303326666355133,-0.1597332507371902,0.0,0.0,0.5639762878417969,-0.815165638923645
-0.0707564353942871,0.0537494756281375,-0.1178833022713661,0.0059405188076198,-0.3098171353340149,-0.1298097223043441,0.0,0.0,0.3965828418731689,-0.4001545310020447
-0.0719123855233192,0.0543597303330898,-0.1093082204461097,0.025766797363758,-0.3163347542285919,-0.1303521394729614,0.0,0.0,0.4060919284820556,-0.8507682681083679
-0.0729914680123329,0.0551841370761394,-0.1033019796013832,0.0356253273785114,-0.3211174309253692,-0.09565369784832,0.0,0.0,-0.3591444492340088,-0.873961329460144
-0.0741963386535644,0.0558518283069133,-0.1172196492552757,0.0289432015269994,-0.3245315849781036,-0.0682829618453979,0.0,0.0,-0.3176114559173584,-0.9451597929000854
-0.0755386352539062,0.0563743934035301,-0.1326092779636383,0.0228620041161775,-0.3262177109718323,-0.0337223634123802,0.0,0.0,-0.4431163072586059,-0.8361034393310547
