x_pos,y_pos,x_vel,y_vel,angle,ang_vel,leg_1,leg_2,main_booster,lat_booster
-0.001502513885498,1.403457760810852,-0.1529082804918289,-0.3316584229469299,0.0023817543406039,0.0470281988382339,0.0,0.0,-0.0872287154197692,0.8231401443481445
-0.0029136657249182,1.3958481550216677,-0.1423000544309616,-0.3382032811641693,0.0035531565081328,0.0234311111271381,0.0,0.0,-0.7026625871658325,0.7028799057006836
-0.0042360303923487,1.3880667686462402,-0.132324606180191,-0.3458417952060699,0.0036367760039865,0.0016724973684176,0.0,0.0,0.2157368659973144,0.5761942863464355
-0.0055897710844874,1.380668044090271,-0.134724423289299,-0.3288353681564331,0.002988887252286,-0.0129591124132275,0.0,0.0,0.1960022449493408,-0.2736111283302307
-0.0068304063752293,1.3738110065460205,-0.1244637593626976,-0.3047592043876648,0.0033856977242976,0.0079366629943251,0.0,0.0,0.3487200736999511,0.313206672668457
-0.0079394336789846,1.36745285987854,-0.1124385967850685,-0.2825899124145508,0.0049077686853706,0.0304444227367639,0.0,0.0,-0.4851770997047424,0.8834214210510254
-0.0089605329558253,1.3609284162521362,-0.1025349721312522,-0.2899734079837799,0.0053294785320758,0.0084346449002623,0.0,0.0,-0.6998686790466309,0.653801441192627
-0.0098964693024754,1.3542399406433103,-0.0929695963859558,-0.2972658574581146,0.0047131185419857,-0.0123285101726651,0.0,0.0,-0.6702170968055725,0.4072475433349609
-0.0108115198090672,1.347384691238403,-0.0914570838212966,-0.3046742975711822,0.0046655791811645,-0.0009507541544735,0.0,0.0,-0.7705956101417542,0.3624988794326782
-0.0117058753967285,1.3403629064559937,-0.0899476557970047,-0.3120825588703155,0.0051780333742499,0.0102499891072511,0.0,0.0,-0.7725622057914734,0.7360398769378662
-0.012513255700469,1.3331756591796875,-0.0801255032420158,-0.3194389045238495,0.0045754006132483,-0.0120540615171194,0.0,0.0,-0.9248742461204528,0.2663867473602295
-0.0133000370115041,1.3258215188980105,-0.0786162614822387,-0.3268472850322723,0.0045166229829192,-0.0011757856700569,0.0,0.0,-0.9499301910400392,0.7357070446014404
-0.0139958383515477,1.3183050155639648,-0.0682627037167549,-0.3340619802474975,0.0032176908571273,-0.0259810350835323,0.0,0.0,-0.7805033922195435,0.140608549118042
-0.0146712306886911,1.3106218576431274,-0.0667543560266494,-0.3414705693721771,0.0024440523702651,-0.0154742421582341,0.0,0.0,-0.8071428537368774,0.5204217433929443
-0.0152757642790675,1.302777647972107,-0.058894969522953,-0.3486294448375702,0.000910812523216,-0.0306677781045436,0.0,0.0,-0.8266979455947876,0.1168478727340698
-0.0158600807189941,1.2947667837142944,-0.057389635592699,-0.3560377657413482,-0.0001174890494439,-0.0205680467188358,0.0,0.0,-0.8765962719917297,0.3933374881744385
-0.0164243690669536,1.28658926486969,-0.0558883175253868,-0.3634461462497711,-0.0006523593328893,-0.0106981750577688,0.0,0.0,-0.9058861136436462,-0.4976836442947387
-0.016968822106719,1.2782450914382937,-0.0543905794620513,-0.3708544969558716,-0.0007045464008115,-0.00104385020677,0.0,0.0,-0.8909630179405212,0.479811429977417
-0.0174935348331928,1.2697341442108154,-0.0528967306017875,-0.3782629072666168,-0.000285447895294,0.008382742293179,0.0,0.0,-0.9622046947479248,0.7705665826797485
-0.0179460532963275,1.2610560655593872,-0.0447912737727165,-0.3856892883777618,-0.000732263084501,-0.0089371697977185,0.0,0.0,-0.9379239082336426,0.3003861904144287
-0.0183791164308786,1.252211332321167,-0.0433016680181026,-0.3930977284908294,-0.0007308010244742,2.894930003094487e-05,0.0,0.0,-0.9238185286521912,0.2374626398086547
-0.0187928192317485,1.2432000637054443,-0.0418172106146812,-0.4005061984062195,-0.0002942382416222,0.0087318355217576,0.0,0.0,-0.9103378057479858,0.4259130954742431
-0.0191875454038381,1.23402202129364,-0.0403375513851642,-0.4079147279262543,0.0005650522070936,0.0171872805804014,0.0,0.0,-0.7387377023696899,0.3072586059570312
-0.0195632930845022,1.2246772050857544,-0.038863155990839,-0.4153233766555786,0.0018341531977057,0.0253842025995254,0.0,0.0,-0.8895674347877502,0.4554808139801025
-0.0199203491210937,1.2151657342910769,-0.0373944267630577,-0.4227322340011596,0.0034998664632439,0.0333174429833889,0.0,0.0,-0.9756928086280824,0.0026818513870239
-0.0202589035034179,1.2054662704467771,-0.0359259136021137,-0.4310948550701141,0.0055490280501544,0.0409830771386623,0.0,0.0,-0.9604907035827636,0.6990220546722412
-0.0205232612788677,1.1956050395965576,-0.0274799820035696,-0.4382819533348083,0.0065692327916622,0.0204042755067348,0.0,0.0,-0.9887762665748596,-0.5205880999565125
-0.0208197589963674,1.185582160949707,-0.0323159918189048,-0.4454759359359741,0.0092055592685937,0.0527263469994068,0.0,0.0,-0.9683687686920166,0.0314501523971557
-0.021098231896758,1.1753928661346436,-0.0308654196560382,-0.4528831243515014,0.0121844662353396,0.0595784857869148,0.0,0.0,-0.9677755236625672,0.2598596811294555
-0.0213588718324899,1.1650370359420776,-0.0294218659400939,-0.4602905809879303,0.0154920415952801,0.066151350736618,0.0,0.0,-0.965750813484192,0.1650993824005127
-0.0216021537780761,1.1545147895812988,-0.0279861576855182,-0.4676983654499054,0.019114164635539,0.0724422857165336,0.0,0.0,-0.8684380054473877,0.6898689270019531
-0.0217803958803415,1.1438233852386477,-0.0205899141728878,-0.4752091467380523,0.0218421593308448,0.0545598641037941,0.0,0.0,-0.957398533821106,0.3222978115081787
-0.0219415668398141,1.1329656839370728,-0.0191727094352245,-0.4826166927814483,0.0248562153428792,0.0602815076708793,0.0,0.0,-0.97060227394104,0.2483487129211425
-0.0220859535038471,1.1219414472579956,-0.0177663303911685,-0.4900243878364563,0.0281420666724443,0.065716914832592,0.0,0.0,-0.9875028729438782,0.1657497882843017
-0.0222138408571481,1.1107507944107056,-0.0163719654083251,-0.4974322617053985,0.0316853635013103,0.0708659440279007,0.0,0.0,-0.9673731923103333,0.461225152015686
-0.0223254207521677,1.0993938446044922,-0.014990915544331,-0.5048403143882751,0.0354718081653118,0.0757288858294487,0.0,0.0,-0.8352664113044739,0.20523202419281
-0.0224209781736135,1.087870478630066,-0.0136245917528867,-0.5122486352920532,0.0394871532917022,0.0803068727254867,0.0,0.0,-0.8842918276786804,0.4266853332519531
-0.0225008968263864,1.0761808156967163,-0.0122745325788855,-0.5196570158004761,0.0437172129750251,0.0846015363931655,0.0,0.0,-0.8333145380020142,0.8492448329925537
-0.022503089159727,1.064338445663452,-0.003095225431025,-0.5264170169830322,0.0465672053396701,0.0569997802376747,0.0,0.0,-0.7574722766876221,0.0084564685821533
-0.0224902145564556,1.0523295402526855,-0.0017829093849286,-0.5338248014450073,0.0496039167046546,0.0607342422008514,0.0,0.0,-0.97964608669281,-0.6730955839157104
-0.0225255005061626,1.0401555299758911,-0.0083695817738771,-0.5412409901618958,0.0543893575668334,0.09570874273777,0.0,0.0,-0.8790363669395447,0.9283156394958496
-0.0224580764770507,1.027820110321045,0.0039957691915333,-0.5483405590057373,0.0571086555719375,0.0543859377503395,0.0,0.0,-0.780424952507019,0.5547592639923096
-0.0223256107419729,1.0153164863586426,0.0116466572508215,-0.5557768940925598,0.0586931817233562,0.0316904969513416,0.0,0.0,-0.9548029899597168,-0.2726223468780517
-0.0221796985715627,1.0026463270187378,0.0128588899970054,-0.5631841421127319,0.0604108832776546,0.0343542098999023,0.0,0.0,-0.5826833844184875,0.5088516473770142
-0.0219829566776752,0.9898070693016052,0.0187674369663,-0.570669412612915,0.0613058656454086,0.0178994722664356,0.0,0.0,-0.8380565643310547,0.5418975353240967
-0.0217272751033306,0.97680002450943,0.0257179476320743,-0.5780850052833557,0.0611491128802299,-0.0031348273623734,0.0,0.0,-0.8575413823127747,0.685187578201294
-0.0213998798280954,0.9636281728744508,0.0343231558799743,-0.585352897644043,0.0595870874822139,-0.0312408246099948,0.0,0.0,-0.7329739332199097,-0.4754096269607544
-0.0210609436035156,0.950289785861969,0.0353946052491664,-0.5927598476409912,0.0581092312932014,-0.0295570436865091,0.0,0.0,-0.909277617931366,-0.397011935710907
-0.0207109451293945,0.9367847442626952,0.0364234745502471,-0.6001667380332947,0.0567042380571365,-0.028100099414587,0.0,0.0,-0.686834454536438,0.1910113096237182
-0.0203504562377929,0.923113226890564,0.037406601011753,-0.6075735688209534,0.0553611181676387,-0.0268620215356349,0.0,0.0,-0.5262054204940796,-0.1465557217597961
-0.0199801437556743,0.9092751741409302,0.0383407622575759,-0.6149803400039673,0.0540694072842597,-0.0258343555033206,0.0,0.0,-0.8314002752304077,-0.0547040104866027
-0.0196005813777446,0.8952704668045044,0.0392226949334144,-0.6223869919776917,0.0528189949691295,-0.0250082965940237,0.0,0.0,-0.7561038136482239,-0.6132647395133972
-0.0192519184201955,0.8810926675796509,0.0350841395556926,-0.6301206946372986,0.052599724382162,-0.0043854382820427,0.0,0.0,-0.8439427614212036,0.4499245882034302
-0.01889543607831,0.8667482137680054,0.0358518585562706,-0.6375271677970886,0.0524029657244682,-0.0039351787418127,0.0,0.0,-0.7163317799568176,0.678680419921875
-0.0184646602720022,0.8522396683692932,0.0449617467820644,-0.6447534561157227,0.0505357459187507,-0.037344042211771,0.0,0.0,-0.6227253675460815,-0.6151832342147827
-0.0180836673825979,0.8375576138496399,0.0385433696210384,-0.6525202393531799,0.0500930100679397,-0.008854690939188,0.0,0.0,-0.7488492131233215,0.6171884536743164
-0.0176407806575298,0.8227187991142273,0.0461745113134384,-0.6594380140304565,0.048227272927761,-0.037314623594284,0.0,0.0,-0.155128538608551,-0.1026990413665771
-0.017193030565977,0.8077134490013123,0.0466775745153427,-0.6668446063995361,0.0463522784411907,-0.0374999269843101,0.0,0.0,-0.8802473545074463,0.4100196361541748
-0.0167410857975482,0.7925414443016052,0.047108020633459,-0.6742512583732605,0.044461328536272,-0.0378190353512764,0.0,0.0,-0.5334447026252747,-0.4198979139328003
-0.0162858013063669,0.7772027850151062,0.0474638417363166,-0.6816577911376953,0.0425482429563999,-0.0382617115974426,0.0,0.0,-0.6694185137748718,0.6350188255310059
-0.0157732963562011,0.7616955637931824,0.0545943491160869,-0.6891152262687683,0.0392374210059642,-0.0662162452936172,0.0,0.0,-0.3815137147903442,0.0455085039138793
-0.0152591709047555,0.7460220456123352,0.054796390235424,-0.6965223550796509,0.0358936600387096,-0.0668751448392868,0.0,0.0,-0.6649903059005737,-0.3861541748046875
-0.0147441867738962,0.730181872844696,0.0549200475215911,-0.7039294838905334,0.0325123220682144,-0.0676267892122268,0.0,0.0,-0.34096759557724,0.4326074123382568
-0.0142292026430368,0.7141751646995544,0.0549649111926555,-0.7113366723060608,0.0290892831981182,-0.0684609040617942,0.0,0.0,-0.3414019346237182,-0.584733784198761
-0.0137606617063283,0.6979956030845642,0.0492111817002296,-0.7190473079681396,0.026769271120429,-0.0464002937078475,0.0,0.0,-0.5139280557632446,0.1764386892318725
-0.0132936481386423,0.6816494464874268,0.0490989387035369,-0.7264540195465088,0.0244008526206016,-0.0473686084151268,0.0,0.0,-0.5080700516700745,-0.5092211365699768
-0.0128680225461721,0.6651413440704346,0.04402532055974,-0.7336761951446533,0.0229574982076883,-0.0288672484457492,0.0,0.0,-0.748866617679596,-0.6303330659866333
-0.0124885560944676,0.6484574675559998,0.038366712629795,-0.7414999604225159,0.022544365376234,-0.0082625597715377,0.0,0.0,-0.5503526926040649,0.7190661430358887
-0.012053775601089,0.6316171884536743,0.0454728603363037,-0.7484242916107178,0.0205815304070711,-0.0392568781971931,0.0,0.0,-0.6092767715454102,0.1694746017456054
-0.0116235734894871,0.6146103739738464,0.0450600162148475,-0.7558308243751526,0.0185628812760114,-0.0403728559613227,0.0,0.0,-0.2163946032524109,-0.5867993831634521
-0.0112524032592773,0.5974379181861877,0.0378601886332035,-0.7632116675376892,0.0178325399756431,-0.0146069359034299,0.0,0.0,-0.3726018667221069,0.5914726257324219
-0.0108381267637014,0.5801012516021729,0.0434802584350109,-0.7704951763153076,0.0158091802150011,-0.0404669269919395,0.0,0.0,0.0513417720794677,-0.3316305875778198
-0.0105209350585937,0.563401997089386,0.0342040322721004,-0.7421605587005615,0.0133503330871462,-0.0491767190396785,0.0,0.0,-0.4043420553207397,0.0206823348999023
-0.0102111818268895,0.546536386013031,0.0335258655250072,-0.7495673298835754,0.0108361449092626,-0.0502840504050254,0.0,0.0,0.0071449279785156,-0.5684618353843689
-0.009979915805161,0.5298560857772827,0.024615017697215,-0.7413357496261597,0.0093666184693574,-0.0293903835117816,0.0,0.0,0.1084718704223632,-0.6018406748771667
-0.0097557064145803,0.5133299827575684,0.0226694084703922,-0.7344919443130493,0.0091176582500338,-0.004979345947504,0.0,0.0,0.2678366899490356,-0.5472849607467651
-0.0096126552671194,0.4970215559005737,0.013558829203248,-0.7248254418373108,0.009851942770183,0.0146858245134353,0.0,0.0,0.0289881229400634,0.0399714708328247
-0.0094891544431447,0.4812873601913452,0.0116798747330904,-0.6993020176887512,0.0105145797133445,0.0132530126720666,0.0,0.0,-0.3396453857421875,0.1233998537063598
-0.0093754772096872,0.4653865993022918,0.0107354568317532,-0.7067083716392517,0.0111328586935997,0.0123654771596193,0.0,0.0,-0.1629688739776611,-0.1062961816787719
-0.0092721935361623,0.4493190944194793,0.0097467061132192,-0.7141147255897522,0.0117102842777967,0.0115484679117798,0.0,0.0,0.7263672351837158,-0.0054238438606262
-0.0093188285827636,0.4336017072200775,-0.0045733908191323,-0.6985493302345276,0.0116253551095724,-0.0016989046707749,0.0,0.0,0.3569196462631225,0.2483876943588256
-0.0093507766723632,0.4186920523643493,-0.0032372015994042,-0.662651002407074,0.0116610424593091,0.0007139815133996,0.0,0.0,-0.3215898275375366,0.3499047756195068
-0.0093940738588571,0.4036157429218292,-0.0043424488976597,-0.6700573563575745,0.0116689829155802,0.0001590028987266,0.0,0.0,0.5057427883148193,0.4948157072067261
-0.0095062255859375,0.3892984688282013,-0.0109619153663516,-0.6363196969032288,0.0114231454208493,-0.0049164644442498,0.0,0.0,0.1359082460403442,0.5148656368255615
-0.0096039772033691,0.3755388855934143,-0.0084549318999052,-0.6115273833274841,0.0101185273379087,-0.0260924138128757,0.0,0.0,0.8010139465332031,0.6021244525909424
-0.0095706935971975,0.3625664412975311,0.0056100571528077,-0.5765418410301208,0.0078716874122619,-0.0449368990957737,0.0,0.0,-0.3897037506103515,0.5955352783203125
-0.0095006944611668,0.3494220972061157,0.0105326017364859,-0.5841771960258484,0.0043893731199204,-0.0696463510394096,0.0,0.0,0.4103691577911377,-0.8116353750228882
-0.0094197271391749,0.3366210460662842,0.0098636057227849,-0.5689321756362915,0.0026406508404761,-0.0349744446575641,0.0,0.0,0.0272533893585205,-0.6788661479949951
-0.0093015674501657,0.3241859674453735,0.0121217779815196,-0.5526698231697083,0.0023440702352672,-0.0059315771795809,0.0,0.0,0.0426163673400878,-0.0276707410812377
-0.0091088293120265,0.3119578659534454,0.0191528014838695,-0.5434704422950745,0.0024706723634153,0.0025318800471723,0.0,0.0,-0.4223874807357788,-0.7640879154205322
-0.0089900018647313,0.2995685040950775,0.0101772947236895,-0.5506423115730286,0.0041547589935362,0.0336816310882568,0.0,0.0,0.7435417175292969,0.6089195013046265
-0.0088042262941598,0.2882184684276581,0.0179804787039756,-0.5044499039649963,0.0047483970411121,0.0118725867941975,0.0,0.0,0.0251381397247314,-0.4620846509933471
-0.008556175045669,0.2773231863975525,0.0237985253334045,-0.4842392206192016,0.0057394858449697,0.0198216885328292,0.0,0.0,-0.3121224641799927,-0.3772330284118652
-0.0083213802427053,0.2662612497806549,0.0224303603172302,-0.4916457235813141,0.0067791063338518,0.0207924451678991,0.0,0.0,-0.0938993096351623,0.1155023574829101
-0.008099746890366,0.2550327479839325,0.0210474543273448,-0.4990521669387817,0.0078759957104921,0.0219377987086772,0.0,0.0,0.6505026817321777,-0.1213003993034362
-0.0078136445954442,0.244931474328041,0.0270338542759418,-0.4489561021327972,0.0094301411882042,0.0310828648507595,0.0,0.0,0.0821605920791626,-0.7574618458747864
-0.0076219560578465,0.2352213710546493,0.0160070806741714,-0.431581437587738,0.0125535419210791,0.062467835843563,0.0,0.0,-0.2848438024520874,0.1734611988067627
-0.0074437139555811,0.2253448367118835,0.0145861636847257,-0.4389886856079101,0.0157616846263408,0.0641627013683319,0.0,0.0,-0.1137335896492004,0.3876519203186035
-0.0072787282988429,0.2153017818927765,0.0131543930619955,-0.446395993232727,0.0190640874207019,0.0660480111837387,0.0,0.0,-0.0812736749649047,-0.0219092369079589
-0.0071270940825343,0.2050922960042953,0.0117125688120722,-0.4538034498691559,0.0224704314023256,0.0681267157196998,0.0,0.0,-0.013798713684082,0.6145015954971313
-0.0069469450972974,0.1947220861911773,0.015517252497375,-0.4609360992908478,0.0249358601868152,0.0493086352944374,0.0,0.0,0.4173964262008667,0.5382938385009766
-0.0067712785676121,0.1848249584436416,0.0160860978066921,-0.4398989975452423,0.0263999328017234,0.0292813386768102,0.0,0.0,0.5088497400283813,0.4429981708526611
-0.0067298887297511,0.1755806356668472,0.003018514951691,-0.410880982875824,0.0275046695023775,0.0220946818590164,0.0,0.0,0.6789474487304688,0.4204151630401611
-0.0068692206405103,0.1669614464044571,-0.0144886691123247,-0.3830849230289459,0.0280455611646175,0.0108182383701205,0.0,0.0,0.6638034582138062,0.8531239032745361
-0.0068562505766749,0.1592736542224884,0.0021141739562153,-0.341664046049118,0.02723771892488,-0.0161569602787494,0.0,0.0,0.3669884204864502,-0.8818149566650391
-0.0068765641190111,0.1518688946962356,-0.0032152286730706,-0.3291228711605072,0.0284043792635202,0.0233334116637706,0.0,0.0,0.3403075933456421,-0.7071415185928345
-0.0068526268005371,0.1452343314886093,-0.0005915311048738,-0.2949290573596954,0.0313563346862793,0.0590390153229236,0.0,0.0,-0.4795007705688476,0.5472557544708252
-0.0068001747131347,0.1384397596120834,0.0031248608138412,-0.3020251095294952,0.0334445685148239,0.041764885187149,0.0,0.0,-0.4496861100196838,-0.714111328125
-0.0068041803315281,0.1314848959445953,-0.0038050797302275,-0.3091847598552704,0.0368096642196178,0.0673019886016845,0.0,0.0,-0.3143695592880249,-0.2104556560516357
-0.0068211555480957,0.1243637427687645,-0.0053137936629354,-0.316592663526535,0.0403787605464458,0.0713820159435272,0.0,0.0,-0.1607407927513122,-0.1686940193176269
-0.0068511008284986,0.1170761436223983,-0.0068265595473349,-0.3240008056163788,0.0441617295145988,0.0756593272089958,0.0,0.0,-0.0500755906105041,-0.2556988000869751
-0.0068940161727368,0.1096222475171089,-0.0083429859951138,-0.3314091861248016,0.0481683164834976,0.0801317021250724,0.0,0.0,0.0471798181533813,-0.4409841299057007
-0.0069127082824707,0.1024412214756012,-0.006398799829185,-0.3193105459213257,0.0526443645358085,0.0895207375288009,0.0,0.0,-0.0014704465866088,0.0875359773635864
-0.006944274995476,0.0950939729809761,-0.0079214219003915,-0.3267196714878082,0.0573631189763546,0.0943750962615013,0.0,0.0,0.3868842124938965,0.8177480697631836
-0.0070698736235499,0.0882205814123153,-0.0157893784344196,-0.3056123554706573,0.0605551898479461,0.0638410896062851,0.0,0.0,0.4413533210754394,0.823082447052002
-0.0071939467452466,0.0819206833839416,-0.014210726134479,-0.2800692319869995,0.0623417608439922,0.0357315316796302,0.0,0.0,0.1335018873214721,0.2604929208755493
-0.0073355673812329,0.0760040134191513,-0.0163244009017944,-0.2630548179149627,0.0644807741045951,0.0427802987396717,0.0,0.0,0.1324617862701416,0.4289288520812988
-0.0074162483215332,0.0702986344695091,-0.010928314179182,-0.2536982595920563,0.0673126429319381,0.0566372089087963,0.0,0.0,-0.1472264528274536,0.9494140148162842
-0.0074224472045898,0.0644399002194404,-0.0015505788614973,-0.2604281604290008,0.0682345181703567,0.0184377171099185,0.0,0.0,0.5497961044311523,-0.250497817993164
-0.0074691772460937,0.0595496259629726,-0.0060050599277019,-0.2174070328474044,0.0695605427026748,0.0265202112495899,0.0,0.0,-0.2499964833259582,0.9796693325042723
-0.0074419975280761,0.0544910542666912,0.0032417476177215,-0.2248001396656036,0.06903588026762,-0.0104931136593222,0.0,0.0,0.2085136175155639,0.9968419075012208
