x_pos,y_pos,x_vel,y_vel,angle,ang_vel,leg_1,leg_2,main_booster,lat_booster
-0.001496696495451,1.4031193256378174,-0.1517286002635955,-0.3466965556144714,0.0018372709164395,0.0362476631999015,0.0,0.0,-0.1281651258468628,0.9063057899475098
-0.0028896331787109,1.3948326110839844,-0.1392041444778442,-0.3682991862297058,0.0017481263494119,-0.0017823806265369,0.0,0.0,0.2403682470321655,0.683624267578125
-0.0040909769013524,1.386490821838379,-0.1189059168100357,-0.3707480132579803,0.0005392124876379,-0.0241804234683513,0.0,0.0,-0.0003265142440795,0.5164868831634521
-0.0052338601090013,1.377642035484314,-0.11226187646389,-0.3932746946811676,-0.0014568383339792,-0.0399252362549304,0.0,0.0,-0.4226331114768982,0.3342138528823852
-0.0063512800261378,1.3682883977890017,-0.1097361221909523,-0.4157188534736633,-0.0034358580596745,-0.039584033191204,0.0,0.0,-0.1399616003036499,0.6994059085845947
-0.0073761940002441,1.3584285974502563,-0.0987721532583236,-0.438228964805603,-0.0071129058487713,-0.0735478997230529,0.0,0.0,-0.5919514894485474,0.3758584260940552
-0.0083765983581542,1.3480639457702637,-0.0963114947080612,-0.4606757164001465,-0.0108036622405052,-0.0738219544291496,0.0,0.0,0.2374700307846069,0.2627615928649902
-0.0092358589172363,1.3379193544387815,-0.0827132761478424,-0.4508954584598541,-0.0139913102611899,-0.0637586340308189,0.0,0.0,-0.2016811966896057,-0.2286394238471985
-0.0100719453766942,1.3272697925567627,-0.0803373754024505,-0.4733480811119079,-0.0172241497784852,-0.0646627098321914,0.0,0.0,-0.6609897613525391,-0.2544774413108825
-0.0108852386474609,1.3161154985427856,-0.0780076459050178,-0.4957927465438843,-0.0205161273479461,-0.0658455193042755,0.0,0.0,-0.4261905550956726,-0.4849110841751098
-0.0116765974089503,1.3044562339782717,-0.0757284164428711,-0.5182391405105591,-0.023881597444415,-0.067315362393856,0.0,0.0,-0.5862435698509216,-0.4781672954559326
-0.0124464035034179,1.2922919988632202,-0.0735038965940475,-0.5406863689422607,-0.0273342188447713,-0.0690585300326347,0.0,0.0,-0.7662178874015808,-0.9584291577339172
-0.0132548334077,1.279630422592163,-0.0787584260106086,-0.562781035900116,-0.0293968245387077,-0.0412556901574134,0.0,0.0,0.2336266040802002,-0.9319174289703368
-0.014049339108169,1.2668532133102417,-0.0791500732302665,-0.5678789615631104,-0.029694277793169,-0.0059494925662875,0.0,0.0,-0.5317292809486389,-0.6161850094795227
-0.0148619655519723,1.2535789012908936,-0.0817831605672836,-0.5899527072906494,-0.0291809979826211,0.0102664586156606,0.0,0.0,0.23556649684906,0.0486066341400146
-0.0155681613832712,1.2401295900344849,-0.0713797286152839,-0.5977346897125244,-0.0284197535365819,0.0152260828763246,0.0,0.0,-0.7316120862960815,-0.6240317821502686
-0.0162948612123727,1.2261838912963867,-0.0742625445127487,-0.6197708249092102,-0.0268513932824134,0.0313702262938022,0.0,0.0,-0.6945669651031494,-0.149606168270111
-0.0170053485780954,1.2117334604263306,-0.0724806189537048,-0.6422162652015686,-0.0254430174827575,0.0281702317297458,0.0,0.0,-0.4417678117752075,-0.7282405495643616
-0.0177488327026367,1.196786880493164,-0.0768274366855621,-0.6642551422119141,-0.0229906700551509,0.0490513555705547,0.0,0.0,-0.7314065098762512,-0.7296745777130127
-0.0185436252504587,1.1813372373580933,-0.0834324210882186,-0.686592161655426,-0.0190753135830163,0.0783141702413559,0.0,0.0,-0.649797260761261,0.0338051319122314
-0.0193254463374614,1.1653828620910645,-0.0819447338581085,-0.7090399861335754,-0.0153492987155914,0.0745266526937484,0.0,0.0,-0.0586760640144348,0.6774001121520996
-0.0200407989323139,1.148918628692627,-0.0737191662192344,-0.7317281365394592,-0.0131927710026502,0.0431343503296375,0.0,0.0,0.0473020076751709,-0.2016127705574035
-0.0206585880368948,1.1324652433395386,-0.0641487017273902,-0.7312362790107727,-0.0108582666143774,0.0466945469379425,0.0,0.0,-0.2531230449676513,-0.5498577356338501
-0.0213056560605764,1.1155015230178833,-0.0678232759237289,-0.7539235949516296,-0.0077710393816232,0.0617497339844703,0.0,0.0,0.5420453548431396,-0.2438478469848632
-0.0220725052058696,1.0989354848861694,-0.0789635106921196,-0.736257791519165,-0.0055183861404657,0.0450570508837699,0.0,0.0,0.693996787071228,0.2356698513031005
-0.0229781158268451,1.0829272270202637,-0.0919141694903373,-0.7114818692207336,-0.0041825100779533,0.0267174299806356,0.0,0.0,0.1331452131271362,-0.0647717118263244
-0.0238737110048532,1.0671610832214355,-0.0906818658113479,-0.7007107138633728,-0.0030662254430353,0.022325687110424,0.0,0.0,-0.4103642106056213,0.3217051029205322
-0.0247652046382427,1.0508902072906494,-0.0900475084781646,-0.72315514087677,-0.0021870736964046,0.0175829920917749,0.0,0.0,-0.1260082125663757,-0.6878573894500732
-0.0257205963134765,1.0341202020645142,-0.0978642106056213,,0.0001141694228863,0.0460247509181499,0.0,0.0,0.5613816976547241,-0.4551781415939331
-0.0266947746276855,1.0175362825393677,-0.0994128212332725,-0.7370599508285522,0.0020768893882632,0.0392544977366924,0.0,0.0,0.474697470664978,-0.2598464488983154
-0.0276544578373432,1.001581072807312,-0.097775898873806,-0.7091219425201416,0.0038660666905343,0.0357832424342632,0.0,0.0,-0.2358090281486511,-0.1428326964378357
-0.0286161415278911,0.9851210117340088,-0.0977253392338752,-0.7315664887428284,0.0054007666185498,0.0306940674781799,0.0,0.0,-0.8055027723312378,-0.0629969239234924
-0.0295815467834472,0.9681558609008788,-0.0978246927261352,-0.7540108561515808,0.0066777169704437,0.0255389604717493,0.0,0.0,-0.1335518956184387,-0.1106191873550415
-0.0305520053952932,0.950685739517212,-0.0980739742517471,-0.7764551043510437,0.0076940041035413,0.0203257389366626,0.0,0.0,0.8880860805511475,0.5994048118591309
-0.0314673408865928,0.9337878227233888,-0.0911379307508468,-0.7510179877281189,0.0073088183999061,-0.0077038360759615,0.0,0.0,-0.8576539754867554,-0.2963988780975342
-0.0323907844722271,0.9163848161697388,-0.0916838571429252,-0.773462176322937,0.0066582835279405,-0.0130109637975692,0.0,0.0,0.3205684423446655,-0.6714553833007812
-0.0334026329219341,0.899018406867981,-0.1015712469816207,-0.7718374729156494,0.00703697046265,0.0075735920108854,0.0,0.0,-0.0743240118026733,-0.7384457588195801
-0.0344803817570209,0.881152331829071,-0.1092755049467086,-0.7940613031387329,0.0085223820060491,0.0297084711492061,0.0,0.0,0.5018967390060425,0.6747328042984009
-0.0355628952383995,0.8639375567436218,-0.1080490723252296,-0.7650929093360901,0.0083180647343397,-0.0040865754708647,0.0,0.0,-0.5192674994468689,-0.265868067741394
-0.036659337580204,0.846217930316925,-0.1091546565294265,-0.7875369787216187,0.007843061350286,-0.0095001868903636,0.0,0.0,0.1916315555572509,-0.2778649926185608
-0.0378521904349327,0.8288347721099854,-0.1181683912873268,-0.7725809812545776,0.0067405295558273,-0.0220506154000759,0.0,0.0,0.1148167848587036,-0.5108396410942078
-0.0390126220881938,0.8114758133888245,-0.1158584505319595,-0.7715100049972534,0.0065593803301453,-0.003623133059591,0.0,0.0,0.4080822467803955,0.5559161901473999
-0.0400584228336811,0.7940078377723694,-0.1032047420740127,-0.7763459086418152,0.0052060978487133,-0.0270656440407037,0.0,0.0,-0.1645444631576538,-0.2025009393692016
-0.0411229133605957,0.7760348916053772,-0.1047948002815246,-0.7987901568412781,0.0035816496238112,-0.03248917683959,0.0,0.0,0.3331807851791382,0.0683940649032592
-0.0422406196594238,0.7579134702682495,-0.1097020879387855,-0.8053996562957764,0.0015348350862041,-0.0409362204372882,0.0,0.0,0.9513399600982666,0.2482609748840332
-0.0433254241943359,0.7398791313171387,-0.1063871532678604,-0.8015278577804565,-0.0005307578830979,-0.0413119755685329,0.0,0.0,0.9012537002563475,-0.0070926547050476
-0.0443614013493061,0.722111165523529,-0.1015593633055687,-0.7896899580955505,-0.002540334360674,-0.0401913411915302,0.0,0.0,0.0897605419158935,0.0178363323211669
-0.0454925522208213,0.7046635150909424,-0.1104654893279075,-0.7754583358764648,-0.0051602157764136,-0.0523975268006324,0.0,0.0,0.43140709400177,0.3782265186309814
-0.0467584617435932,0.6877362728118896,-0.1231314539909362,-0.7523431777954102,-0.0085775963962078,-0.0683475211262703,0.0,0.0,0.6543776988983154,0.4113873243331909
-0.0480653755366802,0.6710683703422546,-0.126854658126831,-0.7408233880996704,-0.0123569127172231,-0.075586512684822,0.0,0.0,0.5311121940612793,0.3264921903610229
-0.0492575652897357,0.6546870470046997,-0.1157432347536087,-0.7280949950218201,-0.0157831609249115,-0.0685249269008636,0.0,0.0,0.0491816997528076,0.5572805404663086
-0.0504642501473426,0.6385062336921692,-0.1157610565423965,-0.7192061543464661,-0.0206402111798524,-0.0971408635377883,0.0,0.0,-0.6422724723815918,0.4381883144378662
-0.0516971573233604,0.621820867061615,-0.1181038990616798,-0.7416528463363647,-0.0257541835308074,-0.1022793501615524,0.0,0.0,0.5563793182373047,0.2279554605484008
-0.0529341697692871,0.6057576537132263,-0.1182795166969299,-0.7140243053436279,-0.0311083812266588,-0.1070841550827026,0.0,0.0,-0.3740122318267822,0.7196989059448242
-0.054127313196659,0.5891841053962708,-0.1118276491761207,-0.7367770075798035,-0.0384997315704822,-0.1478268504142761,0.0,0.0,0.7015945911407471,-0.3425140380859375
-0.0554275512695312,0.572839617729187,-0.1218330413103103,-0.7266563773155212,-0.0465941429138183,-0.1618882417678833,0.0,0.0,-0.3544013500213623,-0.603104829788208
-0.0567957870662212,0.5559993386268616,-0.1294104903936386,-0.7487039566040039,-0.0539193339645862,-0.1465038955211639,0.0,0.0,0.9344089031219482,-0.8471472263336182
-0.0580398552119731,0.5398321747779846,-0.1188230961561203,-0.7187531590461731,-0.0594375655055046,-0.1103648319840431,0.0,0.0,0.2263851165771484,-0.2235831618309021
-0.0592208877205848,0.5240707397460938,-0.1125389784574508,-0.7007383108139038,-0.0649359151721,-0.1099671274423599,0.0,0.0,0.8299736976623535,0.140058159828186
-0.0604584701359272,0.5091160535812378,-0.1175724640488624,-0.6649360656738281,-0.0710570216178894,-0.1224220767617225,0.0,0.0,-0.7960985898971558,-0.7663182020187378
-0.0617809295654296,0.4936561584472656,-0.1272409856319427,-0.6873502731323242,-0.0760118067264556,-0.0990955457091331,0.0,0.0,0.3840645551681518,0.4512708187103271
-0.0631719604134559,0.4785803556442261,-0.1334822028875351,-0.6703313589096069,-0.081578716635704,-0.111338160932064,0.0,0.0,0.3149071931838989,0.406229019165039
-0.0644612312316894,0.463603526353836,-0.1235370486974716,-0.6659393906593323,-0.0869096145033836,-0.1066182106733322,0.0,0.0,0.6623063087463379,0.0841827392578125
-0.0657031089067459,0.4490409195423126,-0.1187036857008934,-0.6475591063499451,-0.0923445671796798,-0.1086992472410202,0.0,0.0,0.1171760559082031,0.6022547483444214
-0.0668970122933387,0.4343670308589935,-0.1124920696020126,-0.6526147127151489,-0.099180944263935,-0.1367278397083282,0.0,0.0,0.6303787231445312,-0.3573516011238098
-0.0681847557425499,0.4200778007507324,-0.1211185678839683,-0.6356045603752136,-0.1067855805158615,-0.1520923823118209,0.0,0.0,-0.92242032289505,-0.0146291851997375
-0.0695029273629188,0.4052846431732178,-0.1239547356963157,-0.6580554842948914,-0.1145876869559288,-0.1560423076152801,0.0,0.0,0.0725201368331909,-0.4767822623252868
-0.0707767456769943,0.3902613520622253,-0.1195914521813392,-0.66832035779953,-0.1223350539803505,-0.1549474895000457,0.0,0.0,0.4783130884170532,-0.261332631111145
-0.0719637870788574,0.3758669793605804,-0.1108492165803909,-0.6404155492782593,-0.130156397819519,-0.1564268320798874,0.0,0.0,-0.412712812423706,-0.9367732405662536
-0.073266789317131,0.36098113656044,-0.1244342550635337,-0.6621163487434387,-0.1359959244728088,-0.1167905703186988,0.0,0.0,0.8941478729248047,-0.707122266292572
-0.0746630653738975,0.3467821776866913,-0.1347379237413406,-0.6315212249755859,-0.1408662348985672,-0.0974057763814926,0.0,0.0,0.755805253982544,-0.7792571187019348
-0.0760225281119346,0.3330678641796112,-0.1325310170650482,-0.60985267162323,-0.1442737132310867,-0.0681499168276786,0.0,0.0,0.8204329013824463,0.0425788164138793
-0.0774194747209549,0.320261001586914,-0.1354588568210601,-0.5696104168891907,-0.1484985053539276,-0.0844957828521728,0.0,0.0,-0.3156735897064209,-0.363038420677185
-0.0788472145795822,0.306949645280838,-0.1383906900882721,-0.5920580625534058,-0.1528773158788681,-0.0875758081674575,0.0,0.0,-0.0223744511604309,-0.2815432548522949
-0.0803058594465255,0.2931339144706726,-0.1413321793079376,-0.6145057082176208,-0.1574033498764038,-0.0905209854245185,0.0,0.0,0.7640681266784668,-0.6942506432533264
-0.0817180648446083,0.2793149650096893,-0.1381221115589141,-0.6145069599151611,-0.1605055183172226,-0.0620430894196033,0.0,0.0,0.9740091562271118,-0.2145956754684448
-0.0831336975097656,0.2656010091304779,-0.1381500214338302,-0.609880805015564,-0.1639158427715301,-0.0682067647576332,0.0,0.0,0.9726473093032836,0.6006863117218018
-0.0843886360526084,0.2527804672718048,-0.1207348555326461,-0.5703346729278564,-0.1686820685863495,-0.0953242480754852,0.0,0.0,0.8717944622039795,-0.4297538995742798
-0.0854298621416091,0.2407992929220199,-0.0996677428483963,-0.5330091118812561,-0.1731483191251754,-0.089325413107872,0.0,0.0,0.8531798124313354,-0.9042692184448242
-0.0865505188703537,0.2297315746545791,-0.1090578809380531,-0.4922517836093902,-0.1761537492275238,-0.0601088926196098,0.0,0.0,-0.3084403872489929,-0.0833052992820739
-0.0877018943428993,0.2181592285633087,-0.112042412161827,-0.514698326587677,-0.179264485836029,-0.0622145347297191,0.0,0.0,0.7325389385223389,-0.4448139667510986
-0.0886947661638259,0.2072944194078445,-0.0962808728218078,-0.4832455217838287,-0.1822777092456817,-0.0602646693587303,0.0,0.0,0.4288496971130371,-0.587929904460907
-0.0897677391767501,0.1966976970434188,-0.1051747947931289,-0.4712283015251159,-0.1844097524881363,-0.0426405817270278,0.0,0.0,0.3669419288635254,-0.4828118085861206
-0.0908132568001747,0.1864356398582458,-0.1021380573511123,-0.456392377614975,-0.1868355870246887,-0.0485164560377597,0.0,0.0,0.235228419303894,0.2974958419799804
-0.0918011665344238,0.1764419376850128,-0.0962653085589408,-0.4444853961467743,-0.1893796622753143,-0.0508815944194793,0.0,0.0,0.5200257301330566,-0.7328883409500122
-0.0926889404654502,0.1667234748601913,-0.0877948999404907,-0.4320569336414337,-0.1903644204139709,-0.0196952410042285,0.0,0.0,0.6902256011962891,-0.8916860818862915
-0.0935849174857139,0.1570197492837906,-0.0903709232807159,-0.4311798512935638,-0.1895863711833953,0.0155608979985117,0.0,0.0,0.4926433563232422,-0.4873446226119995
-0.0943606346845626,0.1473233103752136,-0.0786809101700782,-0.4308117032051086,-0.1884766519069671,0.0221943408250808,0.0,0.0,0.6699850559234619,-0.3668723106384277
-0.0949128121137619,0.1379307061433792,-0.0569545924663543,-0.4172279238700866,-0.186728224158287,0.0349685065448284,0.0,0.0,0.8320951461791992,-0.2303549647331237
-0.0952624306082725,0.1286348849534988,-0.037372138351202,-0.412846952676773,-0.1843072772026062,0.0484189614653587,0.0,0.0,0.9338464736938475,-0.2685402631759643
-0.0954878777265548,0.1201327145099639,-0.0248934272676706,-0.3775838911533355,-0.1819530576467514,0.047084741294384,0.0,0.0,0.7405047416687012,-0.9717709422111512
-0.0956378951668739,0.1123228371143341,-0.0193100366741418,-0.3465819954872131,-0.1776239722967147,0.0865817666053772,0.0,0.0,0.3443080186843872,-0.7768623232841492
-0.0956701263785362,0.1047987043857574,-0.0092210937291383,-0.3337016701698303,-0.1716121882200241,0.1202356070280075,0.0,0.0,0.6531100273132324,-0.1057608723640441
-0.0955774337053299,0.09722700715065,0.0028131015133112,-0.3357888758182525,-0.1651508212089538,0.1292276680469513,0.0,0.0,0.1017948389053344,-0.6075899600982666
-0.0955453887581825,0.0896732658147811,-0.0044099083170294,-0.3348956108093261,-0.1575408428907394,0.1521999388933181,0.0,0.0,0.802715539932251,0.3780156373977661
-0.0953046828508377,0.0829883441329002,0.0160336345434188,-0.2962816655635834,-0.1495091766119003,0.1606331020593643,0.0,0.0,0.0683043003082275,0.2719513177871704
-0.0950541496276855,0.0763483345508575,0.017072832211852,-0.2943281233310699,-0.1415472775697708,0.1592378616333007,0.0,0.0,0.4356813430786133,0.373395562171936
-0.0948431938886642,0.0702536404132843,0.0136016700416803,-0.2701837122440338,-0.1340802758932113,0.1493396461009979,0.0,0.0,-0.1939448714256286,0.6985952854156494
-0.0945993438363075,0.0636453256011009,0.0184813402593135,-0.2931848764419555,-0.1281987130641937,0.1176308616995811,0.0,0.0,0.335301399230957,0.5281651020050049
-0.0943127647042274,0.0574392639100551,0.0238986201584339,-0.275424987077713,-0.1234614253044128,0.0947458893060684,0.0,0.0,0.6270174980163574,0.5199389457702637
-0.0940105468034744,0.0518382415175437,0.0267093274742364,-0.2486481219530105,-0.1199750527739524,0.0697273164987564,0.0,0.0,-0.0043140649795532,0.3619745969772339
-0.0937382727861404,0.0457323156297206,0.0236945431679487,-0.2710931599140167,-0.1164645254611969,0.0702107697725296,0.0,0.0,0.4701470136642456,0.5165231227874756
-0.0935039520263671,0.0399315916001796,0.0211866181343793,-0.2576338648796081,-0.1142369583249092,0.0445516072213649,0.0,0.0,0.5806604623794556,0.7525423765182495
-0.0933411568403244,0.0343880020081996,0.0158148296177387,-0.2463478744029998,-0.1137705221772193,0.0093286205083131,0.0,0.0,0.7777862548828125,-0.1016373038291931
-0.093006893992424,0.0294722653925418,0.0323843248188495,-0.218396320939064,-0.1127414852380752,0.0205809473991394,0.0,0.0,0.445813775062561,0.5486888885498047
-0.0925655364990234,0.0245109647512435,0.0440312288701534,-0.2204963713884353,-0.1126337274909019,0.0021550364326685,0.0,0.0,0.6790821552276611,0.3770501613616943
-0.0919199958443641,0.0201753713190555,0.0637138038873672,-0.1926298290491104,-0.1118026450276374,0.0166216753423213,0.0,0.0,0.8007348775863647,0.2229803800582885
-0.0912344008684158,0.0165997371077537,0.0677997469902038,-0.1588610857725143,-0.1110429093241691,0.0151944924145936,0.0,0.0,0.7229559421539307,0.1608184576034546
-0.090331457555294,0.0138227557763457,0.0887876898050308,-0.1233100667595863,-0.1095486506819725,0.0298852380365133,0.0,0.0,-0.0867536067962646,-0.765658974647522
-0.0895103439688682,0.0105495313182473,0.0792087540030479,-0.1452671587467193,-0.1066723614931106,0.0575259700417518,0.0,0.0,0.4464716911315918,-0.5695834159851074
-0.0886253342032432,0.0084128472954034,0.070398673415184,-0.093806192278862,-0.0886186584830284,0.3612137734889984,1.0,0.0,0.1363552808761596,-0.5829010009765625
-0.0876953154802322,0.0065933084115386,0.0739969760179519,-0.0800061300396919,-0.0693485736846923,0.3859905004501343,1.0,0.0,-0.1716716289520263,-0.3942975997924804
-0.0867509841918945,0.004321226850152,0.0735172778367996,-0.1001492962241172,-0.048650037497282,0.4139881134033203,1.0,0.0,0.0804634094238281,-0.2899345755577087
-0.0858544334769249,0.0022302842698991,0.0671810358762741,-0.0923524349927902,-0.0264336857944726,0.4443442225456238,1.0,0.0,-0.1451178193092346,-0.0339712500572204
-0.0849638953804969,-0.0003686690470203,0.0669184327125549,-0.1152602061629295,-0.0045841950923204,0.4369896352291107,1.0,0.0,0.2558906078338623,0.0006154775619506
-0.0840877518057823,-0.0028232478071004,0.0655549988150596,-0.1091717928647995,0.0171887464821338,0.4354591369628906,0.0,1.0,0.2293330430984497,0.9006500244140625
-0.0832329764962196,-0.0047533297911286,0.0777834057807922,-0.0861139968037605,0.0236228760331869,0.1272017061710357,0.0,1.0,0.3331599235534668,0.7572216987609863
-0.0823741927742958,-0.0057589076459407,0.086688682436943,-0.0446981713175773,0.0228518452495336,-0.0153890326619148,1.0,1.0,-0.2901699542999267,-0.932826280593872
-0.0816885009407997,-0.0061424281448125,0.0686401724815368,-0.0170583128929138,0.0228053536266088,-0.0009115304565057,1.0,1.0,-0.5674082040786743,-0.9397180080413818
-0.0811811462044715,-0.0058864019811153,0.0492840930819511,0.0113494833931326,0.024236436933279,0.0286193545907735,1.0,1.0,-0.5165858864784241,-0.2693344354629516
