x_pos,y_pos,x_vel,y_vel,angle,ang_vel,leg_1,leg_2,main_booster,lat_booster
-0.0015486717456951,1.4034606218338013,-0.1571927666664123,-0.3315372467041015,0.0020788034889847,0.0410298481583595,0.0,0.0,-0.7000282746006217,0.602862011444517
-0.0030728341080248,1.3958574533462524,-0.1534456610679626,-0.3379180133342743,0.0030979858711361,0.0203861948102712,0.0,0.0,-0.631730357541191,0.730676545337055
-0.004554939456284,1.388084888458252,-0.147742822766304,-0.3454459011554718,0.0026366899255663,-0.0092267859727144,0.0,0.0,-0.0009250063254759,-0.9533106389882222
-0.0061561586335301,1.3801450729370115,-0.1622259765863418,-0.3528943955898285,0.004715490154922,0.0415797792375087,0.0,0.0,-0.7309538375181308,-0.7480904029659089
-0.0078345295041799,1.3720431327819824,-0.1713913977146148,-0.3600955605506897,0.008235715329647,0.0704110115766525,0.0,0.0,-0.3355047157663067,0.6190270517543008
-0.0094851497560739,1.3637775182724,-0.1673748195171356,-0.3673815727233886,0.0105282180011272,0.0458540432155132,0.0,0.0,0.7099905907802744,-0.905147670014421
-0.0112723354250192,1.3562428951263428,-0.1830882132053375,-0.3349048793315887,0.0148419020697474,0.086281694471836,0.0,0.0,0.5300392789445401,0.8596538401766383
-0.0128800394013524,1.349450707435608,-0.163919061422348,-0.3019147515296936,0.0179597549140453,0.0623629093170166,0.0,0.0,-0.9855997499910713,0.9552734054555596
-0.0144494054839015,1.3425068855285645,-0.1584806591272354,-0.3086344003677368,0.0194899123162031,0.0306060351431369,0.0,0.0,-0.3827923879673482,0.932633133959977
-0.0159815791994333,1.335407257080078,-0.153170108795166,-0.3155407905578613,0.0194381941109895,-0.0010343992616981,0.0,0.0,0.0210919539101124,0.990987660987347
-0.0174155235290527,1.3286993503570557,-0.1415852010250091,-0.2980965673923492,0.0176548492163419,-0.0356701277196407,0.0,0.0,-0.6877907529389651,0.8349193888282651
-0.0188136100769042,1.3218282461166382,-0.1364034116268158,-0.3053564429283142,0.0142793329432606,-0.0675165504217147,0.0,0.0,-0.9102577797578176,-0.6718533859431691
-0.0202919952571392,1.314795732498169,-0.1457293629646301,-0.3125390708446502,0.0122008239850401,-0.0415736399590969,0.0,0.0,0.3443352142702278,0.7019849839846874
-0.0216952320188283,1.3080283403396606,-0.1371728181838989,-0.3007466197013855,0.0090836072340607,-0.0623503327369689,0.0,0.0,0.1487779873686314,-0.7709834564180291
-0.0230922698974609,1.301965594291687,-0.1384492218494415,-0.2694489359855652,0.0078442385420203,-0.0247890446335077,0.0,0.0,-0.176372796367465,0.7815890498950557
-0.0244570728391408,1.2957305908203125,-0.1336167305707931,-0.2771018445491791,0.0050106598064303,-0.056676972657442,0.0,0.0,0.3190469503141524,0.7507562219042598
-0.0256836898624897,1.2903664112091064,-0.1187129989266395,-0.2384003251791,0.0010989744914695,-0.0782405585050582,0.0,0.0,-0.211378418645683,-0.7505306198152637
-0.0269974712282419,1.2848317623138428,-0.1288065016269683,-0.2459843605756759,-0.0014449496520683,-0.0508828088641166,0.0,0.0,-0.7312491632335802,-0.8388887598373022
-0.0284092910587787,1.2791413068771362,-0.1402464807033538,-0.2529093623161316,-0.0023675141856074,-0.0184529908001422,0.0,0.0,-0.3362400611054015,-0.6772554302460039
-0.0299247745424509,1.2732868194580078,-0.152374118566513,-0.2601991593837738,-0.0015459500718861,0.0164324976503849,0.0,0.0,0.3995433423444714,-0.9779813660401714
-0.0314355865120887,1.2682307958602903,-0.1541800647974014,-0.2247093170881271,0.0015247644623741,0.061419803649187,0.0,0.0,-0.5854912614085912,-0.9457669542644112
-0.0330636017024517,1.2630054950714111,-0.1679818779230117,-0.2322521060705185,0.0066456603817641,0.1024271622300148,0.0,0.0,0.9461688432101544,-0.7772789396323958
-0.0346355438232421,0.0,-0.1645268052816391,-0.1967905163764953,0.0138918068259954,0.1449358761310577,0.0,0.0,-0.5751492331513881,-0.7384065377020531
-0.0363039001822471,1.2539796829223633,-0.1756763309240341,-0.2045148909091949,0.0226319581270217,0.1748188436031341,0.0,0.0,-0.7023746288342287,-0.9346585796261058
-0.0381089225411415,1.249217510223389,-0.1918535530567169,-0.2118635177612304,0.0338597223162651,0.2245753109455108,0.0,0.0,0.2719159266046747,-0.7061692339102379
-0.0401587486267089,1.2450791597366333,-0.2177810221910476,-0.1842712610960006,0.0464980900287628,0.2527670264244079,0.0,0.0,-0.8611199737519244,-0.9103370034274988
-0.0423259735107421,1.2407798767089844,-0.2315002977848053,-0.1915964633226394,0.0611153878271579,0.2923460602760315,0.0,0.0,0.3143686365003717,-0.8425287808273002
-0.0447641387581825,1.2372949123382568,-0.260343849658966,-0.1556407958269119,0.0774645805358886,0.3269839286804199,0.0,0.0,-0.1848779557436599,0.9676855125653506
-0.0471890456974506,0.0,-0.257641851902008,-0.162206694483757,0.0924693718552589,0.3000957071781158,0.0,0.0,0.8170763458623418,0.9410849176636008
-0.0496610626578331,1.2306770086288452,-0.2605561017990112,-0.1336511522531509,0.1057195290923118,0.2650036215782165,0.0,0.0,0.2502863718240378,-0.7074251307562547
-0.0522874817252159,1.228485941886902,-0.2775818109512329,-0.0985079929232597,0.1205542087554931,0.2966935336589813,0.0,0.0,-0.7644660358567472,0.7672643902840609
-0.0549077987670898,1.2261388301849363,-0.2757509052753448,-0.1054784134030342,0.1342058181762695,0.2730321884155273,0.0,0.0,-0.2496283036610369,-0.8363532399242231
-0.0576501861214637,1.223623752593994,-0.2899768948554992,-0.1132770106196403,0.1498961895704269,0.3138070702552795,0.0,0.0,0.0938706520898338,0.6032094481165707
-0.0604742057621479,1.2212969064712524,-0.2969686090946197,-0.1049507111310958,0.1644514352083206,0.291105180978775,0.0,0.0,0.8980261917537185,-0.8850348890679014
-0.0635122284293174,1.2198655605316162,-0.3202625513076782,-0.0655227601528167,0.1809463948011398,0.3298989236354828,0.0,0.0,0.3239758100794827,-0.9576535964777126
-0.0667654052376747,1.219160079956055,-0.343757688999176,-0.0337102524936199,0.1994902342557907,0.3708766996860504,0.0,0.0,-0.6929785326620628,-0.6535917981130527
-0.0701182335615158,1.2182767391204834,-0.355145126581192,-0.0420663729310035,0.219524085521698,0.4006768763065338,0.0,0.0,-0.9765681690389372,0.803868302676231
-0.0734539031982421,1.2172627449035645,-0.3517320156097412,-0.0478852801024913,0.2379432171583175,0.3683828711509704,0.0,0.0,0.5275593252673263,-0.8416420619352343
-0.0771262198686599,1.2171964645385742,-0.387040227651596,-0.0062657771632075,0.2581004500389099,0.4031449854373932,0.0,0.0,0.1218758796346493,-0.8376327581485961
-0.0809943228960037,1.2175555229187012,-0.4082552492618561,0.0120285516604781,0.2800593078136444,0.4391772150993347,0.0,0.0,-0.1977531621011721,0.8650076518866704
-0.0848576575517654,1.2177871465682983,-0.4063418805599212,0.0063168522901833,0.3006603121757507,0.4120209217071533,0.0,0.0,-0.8916127681732178,0.9993124008178712
-0.0886777862906456,1.2178996801376345,-0.3996049761772156,0.0012616221792995,0.318901002407074,0.3648137152194977,0.0,0.0,-0.7632442116737366,0.9674392938613892
-0.0924588218331337,1.2178839445114136,-0.3935025632381439,-0.0041704894974827,0.334942877292633,0.3208377361297607,0.0,0.0,-0.9801160097122192,0.9835472106933594
-0.0962014198303222,1.217750072479248,-0.387410819530487,-0.0090676909312605,0.3487201929092407,0.2755468785762787,0.0,0.0,-0.937666654586792,0.9920812845230104
-0.0999196022748947,1.2174806594848633,-0.383190393447876,-0.0147672975435853,0.3606862425804138,0.2393207848072052,0.0,0.0,-0.9547467231750488,0.909870147705078
-0.1036100387573242,1.2170814275741575,-0.3785323798656463,-0.0201619025319814,0.3707183599472046,0.2006416767835617,0.0,0.0,-0.97579425573349,0.9783034324645996
-0.1072664260864257,1.2165607213974,-0.3730649352073669,-0.0250924415886402,0.3786017298698425,0.1576671749353408,0.0,0.0,-0.9305054545402528,0.9933875799179076
-0.1109123229980468,1.2159218788146973,-0.3704801499843597,-0.0299641825258731,0.3848639130592346,0.1252435743808746,0.0,0.0,-0.8730630278587341,0.9696872234344482
-0.1145510673522949,1.2151613235473633,-0.3683153986930847,-0.0350200794637203,0.3896082043647766,0.0948859900236129,0.0,0.0,-0.9103378653526306,0.9593009948730468
-0.1181669235229492,1.21427583694458,-0.36429163813591,-0.0400927104055881,0.3924933671951294,0.0577035322785377,0.0,0.0,-0.7554851174354553,0.9954421520233154
-0.1217382401227951,1.2132819890975952,-0.357488214969635,-0.0442668348550796,0.3928771317005157,0.0076754824258387,0.0,0.0,-0.9756165742874146,0.9859851598739624
-0.1252911537885666,1.2121708393096924,-0.3539537191390991,-0.0490205660462379,0.3914507627487182,-0.0285273138433694,0.0,0.0,-0.964518666267395,0.9874818325042723
-0.1288021057844162,1.2109432220458984,-0.3475428223609924,-0.0535833761096,0.3876586258411407,-0.0758426114916801,0.0,0.0,-0.9689223766326904,0.9614572525024414
-0.1322890222072601,1.2096034288406372,-0.3432767391204834,-0.0580840036273002,0.3818938136100769,-0.1152964606881141,0.0,0.0,-0.9845198392868042,0.9940400123596193
-0.1357281655073166,1.2081515789031982,-0.3361090421676636,-0.0624651163816452,0.3736074566841125,-0.1657269895076751,0.0,0.0,-0.9363079071044922,0.8228967189788818
-0.1391588151454925,1.2065633535385132,-0.3339276611804962,-0.0682338625192642,0.3639276921749115,-0.1935953199863433,0.0,0.0,-0.9793089032173156,0.99217426776886
-0.1425504684448242,1.204869270324707,-0.3277532458305359,-0.0724423229694366,0.3519040644168854,-0.2404725551605224,0.0,0.0,-0.9943705797195436,0.8150374889373779
-0.1459114104509353,1.2030574083328247,-0.3226935267448425,-0.0773132890462875,0.337844043970108,-0.2812007069587707,0.0,0.0,-0.998763144016266,0.7880101203918457
-0.1492505073547363,1.2011268138885498,-0.318721741437912,-0.0823287293314933,0.3219823241233825,-0.3172349333763122,0.0,0.0,-0.9989399909973145,-0.3115859627723694
-0.1526312828063964,1.1990355253219604,-0.3228181898593902,-0.0896341949701309,0.3061388432979584,-0.3168689906597137,0.0,0.0,-0.9968533515930176,0.3769172430038452
-0.1560529768466949,1.1967836618423462,-0.3268562257289886,-0.0969396606087684,0.2903119027614593,-0.3165384829044342,0.0,0.0,-0.997384250164032,0.0307840108871459
-0.1595149934291839,1.1943711042404177,-0.3308332860469818,-0.1042451336979866,0.2744999527931213,-0.3162392079830169,0.0,0.0,-0.983814299106598,-0.0518849492073059
-0.1630167961120605,1.1917978525161743,-0.334746778011322,-0.1115506067872047,0.2587016224861145,-0.3159669041633606,0.0,0.0,-0.9437070488929749,-0.2202844619750976
-0.1665575951337814,1.1890639066696167,-0.3385942280292511,-0.118856094777584,0.2429157346487045,-0.315717488527298,0.0,0.0,-0.9996381402015686,-0.0776795148849487
-0.1701365411281585,1.1861692667007446,-0.3423729240894317,-0.1261616051197052,0.2271414101123809,-0.3154866099357605,0.0,0.0,-0.9848579168319702,0.1255160570144653
-0.1737531721591949,1.183113932609558,-0.3460803925991058,-0.1334671378135681,0.2113779038190841,-0.3152702152729034,0.0,0.0,-0.9960135817527772,-0.3239274024963379
-0.1774064004421234,1.179898023605347,-0.3497141003608703,-0.1407726854085922,0.1956246942281723,-0.315064013004303,0.0,0.0,-0.9988385438919068,0.2097662687301635
-0.1810957938432693,1.1765214204788208,-0.3532716631889343,-0.1480782777070999,0.1798814982175827,-0.314863920211792,0.0,0.0,-0.9995283484458924,0.3518327474594116
-0.1848203688859939,1.17298424243927,-0.3567506670951843,-0.1553838700056076,0.1641482412815094,-0.3146657645702362,0.0,0.0,-0.9340292811393738,0.5406248569488525
-0.1885434091091156,1.1692930459976196,-0.3556537926197052,-0.1622993946075439,0.1475128531455993,-0.3327079117298126,0.0,0.0,-0.9935749769210817,-0.1906796097755432
-0.1922999322414398,1.1654415130615234,-0.3589680790901184,-0.169607475399971,0.1308878511190414,-0.3325003683567047,0.0,0.0,-0.9594438672065736,0.2011598348617553
-0.1960888803005218,1.16143000125885,-0.3621971011161804,-0.1769156008958816,0.1142737343907356,-0.3322825133800506,0.0,0.0,-0.97162926197052,0.6727521419525146
-0.1998685896396637,1.1572728157043457,-0.3601778745651245,-0.1834919899702072,0.096612811088562,-0.3532185554504394,0.0,0.0,-0.9240285158157348,0.2660813331604004
-0.2036790400743484,1.1529558897018433,-0.3632298111915588,-0.1908031404018402,0.0789644718170166,-0.3529669344425201,0.0,0.0,-0.9740846157073976,0.8274959325790405
-0.2074572145938873,1.1484804153442385,-0.3584238588809967,-0.197992667555809,0.0597756765782833,-0.3837761282920837,0.0,0.0,-0.9372485280036926,0.9623618125915528
-0.2111790627241134,1.1438441276550293,-0.3506348729133606,-0.2053365558385849,0.0384723134338855,-0.4260674118995666,0.0,0.0,-0.8705669045448303,0.0827757120132446
-0.2149287164211273,1.139050006866455,-0.353408008813858,-0.2126596271991729,0.0171857271343469,-0.4257319867610931,0.0,0.0,-0.9174057245254515,0.7193713188171387
-0.2186489552259445,1.1341065168380735,-0.349050223827362,-0.2196130156517028,-0.005493635777384,-0.453587532043457,0.0,0.0,-0.9716519713401794,0.8806335926055908
-0.2223157882690429,1.129014492034912,-0.3417215943336487,-0.2265865951776504,-0.0301364436745643,-0.4928564131259918,0.0,0.0,-0.9600774049758912,-0.1009402871131897
-0.2260070294141769,1.1237666606903076,-0.3442062735557556,-0.2339225113391876,-0.0547565631568431,-0.4924026131629944,0.0,0.0,-0.9224901795387268,0.3107662200927734
-0.2297215461730957,1.1183629035949707,-0.3465933203697204,-0.241258218884468,-0.0793517902493476,-0.4919047355651855,0.0,0.0,-0.9355697631835938,-0.9757617712020874
-0.2335295677185058,1.112819790840149,-0.3578478395938873,-0.2477301508188247,-0.1021039709448814,-0.4550434648990631,0.0,0.0,-0.8935157060623169,-0.624085545539856
-0.237416073679924,1.1071279048919678,-0.367239385843277,,-0.1233727782964706,-0.4253761172294616,0.0,0.0,-0.4391998052597046,-0.8807269334793091
-0.2413977086544037,1.1012952327728271,-0.378767192363739,-0.2609448432922363,-0.1426894068717956,-0.3863324522972107,0.0,0.0,-0.066890001296997,0.6364153623580933
-0.2453492134809494,1.0952966213226318,-0.3745916783809662,-0.268704891204834,-0.1632166653871536,-0.4105451107025146,0.0,0.0,-0.5956135988235474,-0.2907461524009704
-0.2493185102939605,1.0891392230987549,-0.3764797747135162,-0.2760243713855743,-0.1837059706449508,-0.4097864627838135,0.0,0.0,-0.2381259202957153,0.094169020652771
-0.2533045411109924,1.0828235149383545,-0.3782683908939361,-0.283343493938446,-0.2041541934013366,-0.4089646935462951,0.0,0.0,-0.561124861240387,-0.5468336939811707
-0.257342517375946,1.0763561725616455,-0.3845110535621643,-0.2902156412601471,-0.2236310243606567,-0.3895367681980133,0.0,0.0,-0.6429398655891418,0.3845628499984741
-0.2613950669765472,1.069729566574097,-0.3861015141010284,-0.2975309491157532,-0.2430601269006729,-0.3885819613933563,0.0,0.0,-0.3291211128234863,-0.0495248436927795
-0.26546111702919,1.062943935394287,-0.387594610452652,-0.3048457503318786,-0.2624379396438598,-0.3875560164451599,0.0,0.0,0.595778226852417,-0.2831611633300781
-0.2693566381931305,1.0570522546768188,-0.3706675171852112,-0.2653507888317108,-0.281786173582077,-0.3869645595550537,0.0,0.0,-0.711190938949585,-0.4102079272270202
-0.273263543844223,1.0510013103485107,-0.3719695806503296,-0.2726648151874542,-0.3010756075382232,-0.3857891261577606,0.0,0.0,-0.4448976516723633,-0.0354629158973693
-0.2771808505058288,1.044790744781494,-0.3731783926486969,-0.2799782454967499,-0.3203023970127105,-0.3845357596874237,0.0,0.0,0.2205150127410888,-0.037195086479187
-0.2809608578681946,1.038728952407837,-0.3599618077278137,-0.2735224962234497,-0.3391179740428924,-0.376311719417572,0.0,0.0,0.4603157043457031,-0.4397981762886047
-0.2846433222293854,1.0331671237945557,-0.350189059972763,-0.2515536844730377,-0.3580777049064636,-0.3791945576667785,0.0,0.0,0.3054044246673584,-0.9357608556747437
-0.2880881726741791,1.0284112691879272,-0.3284903764724731,-0.2154565155506134,-0.374988853931427,-0.3382231295108795,0.0,0.0,0.6873430013656616,-0.7862396240234375
-0.2914088666439056,1.0243537425994873,-0.3177219331264496,-0.184179201722145,-0.3902499079704284,-0.3052210807800293,0.0,0.0,0.0625094175338745,-0.4831153154373169
-0.2946148812770843,1.0208901166915894,-0.3060784935951233,-0.1580032855272293,-0.405797928571701,-0.3109602928161621,0.0,0.0,0.2566466331481933,-0.0137178897857666
-0.2975556254386902,1.017957091331482,-0.2800120115280151,-0.1344526261091232,-0.4209522902965545,-0.3030869364738464,0.0,0.0,0.1149438619613647,-0.8565565943717957
-0.30039182305336,1.0156280994415283,-0.2713658213615417,-0.1072290614247322,-0.4342367947101593,-0.2656903564929962,0.0,0.0,0.4719263315200805,-0.6504598259925842
-0.3030691146850586,1.0141315460205078,-0.2567424178123474,-0.0699561461806297,-0.4462194442749023,-0.2396532595157623,0.0,0.0,0.4968723058700561,-0.5632689595222473
-0.305617094039917,1.01312518119812,-0.2449785768985748,-0.047895360738039,-0.4569844901561737,-0.2153010815382003,0.0,0.0,0.6191794872283936,-0.2450436353683471
-0.308009922504425,1.012824535369873,-0.2291353046894073,-0.016718415543437,-0.4681732356548309,-0.2237751185894012,0.0,0.0,0.531923770904541,-0.5253158211708069
-0.3103559911251068,1.013139247894287,-0.2252691239118576,0.0108010107651352,-0.4785234630107879,-0.2070042788982391,0.0,0.0,0.595308780670166,-0.631936252117157
-0.3123277127742767,1.0141751766204834,-0.1894012987613678,0.0433199778199195,-0.4871875345706939,-0.1732814162969589,0.0,0.0,0.4481877088546753,-0.7535075545310974
-0.3141500353813171,1.015469312667847,-0.1760776489973068,0.0553285256028175,-0.4940706491470337,-0.1376620829105377,0.0,0.0,0.3221794366836548,-0.486682653427124
-0.3155806958675384,1.017323017120361,-0.1375202089548111,0.0803821831941604,-0.5002941489219666,-0.124471440911293,0.0,0.0,-0.2617393732070923,-0.4748550653457641
-0.3170109391212463,1.019012451171875,-0.1376062333583831,0.0730993896722793,-0.5063905715942383,-0.1219286918640136,0.0,0.0,-0.2757839560508728,-0.0008758902549743
-0.3184401094913482,1.020537495613098,-0.137643426656723,0.0658169612288475,-0.5123555660247803,-0.119299791753292,0.0,0.0,-0.2849994897842407,0.232474684715271
-0.3198678493499756,1.0218981504440308,-0.1376353800296783,0.0585348941385746,-0.5181848406791687,-0.1165858656167984,0.0,0.0,-0.2222474813461303,-0.3592620491981506
-0.3212936818599701,1.0230944156646729,-0.137585699558258,0.05125318095088,-0.5238742232322693,-0.1137882247567176,0.0,0.0,-0.0267920494079589,-0.3843755722045898
-0.3227171897888183,1.024126052856445,-0.1374980509281158,0.0439718179404735,-0.5294196605682373,-0.1109083443880081,0.0,0.0,0.4517769813537597,-0.0190082192420959
-0.3238735198974609,1.0254613161087036,-0.1112035512924194,0.0575999766588211,-0.534489631652832,-0.1013999730348587,0.0,0.0,-0.2846777439117431,0.0760725736618042
-0.3250268399715423,1.0266317129135132,-0.1110508814454078,0.0503195635974407,-0.5394076704978943,-0.0983605906367302,0.0,0.0,0.2178752422332763,0.1892271041870117
-0.3260631561279297,1.0281987190246582,-0.0991187170147895,0.0678326711058616,-0.5446075201034546,-0.1039970740675926,0.0,0.0,-0.3060342073440552,0.1413444280624389
-0.3270959258079529,1.0296008586883545,-0.0989163964986801,0.0605526119470596,-0.5496478080749512,-0.100805677473545,0.0,0.0,-0.2023136615753173,-0.4062457084655761
-0.3281249403953552,1.0308384895324707,-0.098694697022438,0.0532728992402553,-0.5545248985290527,-0.097541406750679,0.0,0.0,0.0323911905288696,-0.521669864654541
-0.3289911150932312,1.0321543216705322,-0.0836339145898819,0.05724473670125,-0.5579935908317566,-0.0693737715482711,0.0,0.0,-0.5712482333183289,-0.1611990332603454
-0.3298532366752624,1.0333051681518557,-0.0833839699625969,0.0499663949012756,-0.5612921118736267,-0.0659707188606262,0.0,0.0,-0.2850083112716675,-0.1722053289413452
-0.330711305141449,1.0342910289764404,-0.0831258371472358,0.0426883213222026,-0.5644171833992004,-0.0625018402934074,0.0,0.0,-0.0130451917648315,-0.0488204360008239
-0.3315652012825012,1.0351117849349976,-0.0828632041811943,0.0354105159640312,-0.5673656463623047,-0.0589696876704692,0.0,0.0,-0.1925995349884033,-0.0483304858207702
