x_pos,y_pos,x_vel,y_vel,angle,ang_vel,leg_1,leg_2,main_booster,lat_booster
-0.0016036987071856,1.4032621383666992,-0.1626233756542205,-0.3403563499450683,0.0020113831851631,0.039695031940937,0.0,0.0,-0.2622933983802795,0.943490743637085
-0.0032063485123217,1.3952605724334717,-0.1603812426328659,-0.3556252717971802,0.0021270704455673,0.0023147033061832,0.0,0.0,0.1334967613220214,-0.1284178495407104
-0.0047955513000488,1.3873120546340942,-0.1596631109714508,-0.353263795375824,0.0028581796213984,0.0146234361454844,0.0,0.0,-0.0298861861228942,0.9409255981445312
-0.0064015388488769,1.3789982795715332,-0.1599853932857513,-0.3694990277290344,0.0022639581002295,-0.0118854874745011,0.0,0.0,0.0642298460006713,0.8079259395599365
-0.0079222675412893,1.370955467224121,-0.1500837504863739,-0.3574605882167816,0.0002919684338849,-0.0394434779882431,0.0,0.0,-0.7184044122695923,0.7151682376861572
-0.0094461441040039,1.362549066543579,-0.1488007456064224,-0.3736160397529602,-0.0032595235388725,-0.0710366293787956,0.0,0.0,0.0605912208557128,0.5820889472961426
-0.0110093113034963,1.3543366193771362,-0.1516852229833603,-0.3650149405002594,-0.0078384540975093,-0.0915868580341339,0.0,0.0,0.1668025255203247,0.5082807540893555
-0.0124811176210641,1.3464469909667969,-0.1419383734464645,-0.3506859540939331,-0.0130268251523375,-0.1037768721580505,0.0,0.0,-0.4890029430389404,0.4810504913330078
-0.0140182496979832,1.3381953239440918,-0.1486028730869293,-0.3667969703674316,-0.0180802326649427,-0.1010770350694656,0.0,0.0,-0.0894779562950134,-0.2186391353607177
-0.0156179424375295,1.329581618309021,-0.1549939811229705,-0.382902592420578,-0.0230072736740112,-0.0985498800873756,0.0,0.0,0.2700645923614502,0.5211423635482788
-0.0171538349241018,1.3212875127792358,-0.147843986749649,-0.3687227070331573,-0.0286832228302955,-0.1135294660925865,0.0,0.0,-0.4562631845474243,0.232337474822998
-0.0187463760375976,1.312631368637085,-0.1536239832639694,-0.384836345911026,-0.0342512726783752,-0.1113712936639785,0.0,0.0,-0.5172383785247803,0.453126311302185
-0.0203922279179096,1.3036131858825684,-0.1590678542852401,-0.4009426534175873,-0.0397220700979232,-0.1094256490468978,0.0,0.0,-0.0725790858268737,0.8131587505340576
-0.0220170021057128,1.2942214012145996,-0.1552143990993499,-0.4176250100135803,-0.0469050928950309,-0.1436734795570373,0.0,0.0,-0.6135146021842957,0.6678636074066162
-0.0236227996647357,1.2844700813293457,-0.1517468094825744,-0.4336832463741302,-0.0556458570063114,-0.1748315691947937,0.0,0.0,-0.0757912993431091,0.1013540029525756
-0.0252708438783884,1.2743574380874634,-0.1560435891151428,-0.4497956335544586,-0.0643217414617538,-0.1735334694385528,0.0,0.0,-0.2542176842689514,0.2138508558273315
-0.0269571300595998,1.263883352279663,-0.1599196642637252,-0.4659083485603332,-0.0729452669620513,-0.1724861562252044,0.0,0.0,-0.0047357082366943,0.9256627559661864
-0.0285874363034963,1.25303053855896,-0.1520871818065643,-0.4829205870628357,-0.083805114030838,-0.2172168493270874,0.0,0.0,0.1036702394485473,0.6617835760116577
-0.0300766937434673,1.2426087856292725,-0.1367854624986648,-0.463905930519104,-0.095858559012413,-0.2410905808210373,0.0,0.0,0.0081002712249755,0.3912131786346435
-0.0316065773367881,1.2323492765426636,-0.1406420767307281,-0.4568148553371429,-0.1081260219216346,-0.2453715056180954,0.0,0.0,-0.3390371799468994,0.3458431959152221
-0.0331562981009483,1.2217295169830322,-0.1426477134227752,-0.4729363620281219,-0.1203900948166847,-0.2453034669160843,0.0,0.0,-0.426211953163147,-0.1120083928108215
-0.0347209945321083,1.2107490301132202,-0.1441526710987091,-0.4890556037425995,-0.1326636373996734,-0.2454933226108551,0.0,0.0,0.0302056074142456,0.2572860717773437
-0.036170482635498,1.1998968124389648,-0.1330109387636184,-0.4834221005439758,-0.1445829272270202,-0.2384073287248611,0.0,0.0,-0.5512705445289612,-0.2455117106437683
-0.0376250259578228,1.1886842250823977,-0.1334937959909439,-0.4995473623275757,-0.1565373986959457,-0.2391106784343719,0.0,0.0,-0.508338451385498,-0.7003064155578613
-0.0391467101871967,1.177128553390503,-0.1419237703084945,-0.514689564704895,-0.1668061316013336,-0.2053928673267364,0.0,0.0,-0.8967535495758057,-0.3743122816085815
-0.0406660065054893,1.1651910543441772,-0.1416098177433014,-0.5317490696907043,-0.177136018872261,-0.2065974771976471,0.0,0.0,-0.6181942224502563,-0.5990437865257263
-0.0422212593257427,1.1529088020324707,-0.1463470011949539,-0.5470050573348999,-0.1863435059785843,-0.1841501891613006,0.0,0.0,-0.4322285652160644,-0.8385341763496399
-0.0438397414982318,1.140296220779419,-0.1546517759561538,-0.5614854097366333,-0.1935825496912002,-0.1447804868221283,0.0,0.0,0.8220202922821045,-0.7980756759643555
-0.0454898849129676,1.1286494731903076,-0.1590071618556976,-0.5184263586997986,-0.1996291726827621,-0.1209324747323989,0.0,0.0,-0.1234717369079589,-0.5954315066337585
-0.0471635833382606,1.116653561592102,-0.1624972373247146,-0.5338240265846252,-0.2045460641384124,-0.0983379110693931,0.0,0.0,0.5762938261032104,-0.3861734867095947
-0.0486268028616905,1.1054766178131104,-0.1414085328578949,-0.4974342882633209,-0.2094973623752594,-0.0990262106060981,0.0,0.0,-0.0253824591636657,-0.2175319194793701
-0.0500564575195312,1.0939383506774902,-0.1379378139972686,-0.5135427713394165,-0.2145752906799316,-0.1015586405992508,0.0,0.0,0.2462415695190429,-0.5635568499565125
-0.0514290817081928,1.082965612411499,-0.1330938637256622,-0.488288015127182,-0.2187836617231369,-0.0841671377420425,0.0,0.0,-0.3242101669311523,-0.8640987277030945
-0.0528345108032226,1.071647882461548,-0.1381396502256393,-0.5033637881278992,-0.2212187349796295,-0.0487010329961776,0.0,0.0,0.0015144348144531,-0.1889042258262634
-0.0541011802852153,1.0605217218399048,-0.1241460815072059,-0.4948787093162536,-0.2237608581781387,-0.0508425161242485,0.0,0.0,-0.8490737080574036,-0.7684007883071899
-0.0553747192025184,1.0490586757659912,-0.126166358590126,-0.5096418857574463,-0.2249577194452285,-0.0239371601492166,0.0,0.0,-0.7969192862510681,-0.7761850357055664
-0.0566579811275005,1.037251591682434,-0.1285976022481918,-0.5247251987457275,-0.2246933281421661,0.0052876835688948,0.0,0.0,-0.4999207258224487,-0.8078592419624329
-0.0579422935843467,1.0251085758209229,-0.1300269663333892,-0.5394466519355774,-0.2230736911296844,0.0323928482830524,0.0,0.0,-0.4714306592941284,-0.5909533500671387
-0.0592145919799804,1.0126266479492188,-0.1299072206020355,-0.5543474555015564,-0.2203613519668579,0.054246712476015,0.0,0.0,-0.3771020174026489,-0.4041972160339355
-0.060424517840147,0.9997830390930176,-0.1234915629029274,-0.5704556703567505,-0.2178353816270828,0.0505196824669837,0.0,0.0,-0.8921976089477539,-0.73714679479599
-0.0616353973746299,0.9866060614585876,-0.1251291334629058,-0.5850522518157959,-0.2137494087219238,0.0817193537950515,0.0,0.0,-0.8694583177566528,-0.1022165417671203
-0.0627787560224533,0.9730675220489502,-0.1181858330965042,-0.6011613011360168,-0.2098602503538131,0.0777830407023429,0.0,0.0,-0.914360284805298,-0.5296051502227783
-0.0638874024152755,0.9591726660728456,-0.1154026612639427,-0.6169121861457825,-0.2052835375070572,0.0915341451764106,0.0,0.0,-0.9609789252281188,-0.3058450222015381
-0.0649240463972091,0.9449163675308228,-0.1080067157745361,-0.6330216526985168,-0.2009126245975494,0.0874183475971221,0.0,0.0,-0.9899088144302368,-0.1972866058349609
-0.065886877477169,0.930298388004303,-0.1004101783037185,-0.6491308808326721,-0.1967514753341674,0.0832229927182197,0.0,0.0,-0.938946545124054,0.2075883150100708
-0.0667739883065223,0.9153189063072203,-0.0926289856433868,-0.6652399897575378,-0.192803755402565,0.0789542645215988,0.0,0.0,-0.9509630799293518,0.1379034519195556
-0.0675835609436035,0.8999778628349304,-0.0846780389547348,-0.6813489198684692,-0.1890728622674942,0.0746179968118667,0.0,0.0,-0.8722109794616699,-0.2146345376968383
-0.0683143585920333,0.884274959564209,-0.0765712335705757,-0.6974576711654663,-0.1855618804693222,0.0702195912599563,0.0,0.0,-0.8896914124488831,-0.2489002346992492
-0.0689648613333702,0.8682106137275696,-0.0683214887976646,-0.7135663628578186,-0.1822736710309982,0.0657640993595123,0.0,0.0,-0.7832380533218384,-0.0632132887840271
-0.0695337280631065,0.8517846465110779,-0.0599407851696014,-0.729674756526947,-0.1792108565568924,0.061256218701601,0.0,0.0,-0.8691362738609314,-0.5799450874328613
-0.0700541511178016,0.8350059986114502,-0.0557594001293182,-0.7452686429023743,-0.1754900515079498,0.0744159668684005,0.0,0.0,-0.7495889663696289,0.0631729364395141
-0.0704908370971679,0.8178659081459045,-0.0471492484211921,-0.7613773345947266,-0.1719992756843567,0.0698156207799911,0.0,0.0,-0.5974727272987366,-0.5405339002609253
-0.0708774551749229,0.8003701567649841,-0.0428017154335975,-0.7771164774894714,-0.1678558439016342,0.0828685313463211,0.0,0.0,-0.1167802214622497,-0.2480042576789856
-0.0711784362792968,0.7825126647949219,-0.0339997373521328,-0.7932252883911133,-0.1639463305473327,0.0781901776790618,0.0,0.0,-0.3032588958740234,0.4115948677062988
-0.0713928192853927,0.7642936706542969,-0.0251140091568231,-0.8093339204788208,-0.1602724641561508,0.0734776929020881,0.0,0.0,-0.3169474005699157,0.1723062992095947
-0.071519948542118,0.7457130551338196,-0.0161517988890409,-0.825442373752594,-0.1568357646465301,0.0687338933348655,0.0,0.0,-0.0417320728302001,0.4244096279144287
-0.0715592354536056,0.7267706394195557,-0.007119764573872,-0.8415506482124329,-0.1536376774311065,0.0639615580439567,0.0,0.0,-0.560763955116272,-0.1144875884056091
-0.071509838104248,0.7074664831161499,0.0019759943243116,-0.8576586842536926,-0.1506795138120651,0.0591631531715393,0.0,0.0,-0.2305004000663757,-0.0331221222877502
-0.0713713616132736,0.6878005266189575,0.0111298952251672,-0.8737666606903076,-0.1479624658823013,0.05434101074934,0.0,0.0,-0.0657476186752319,-0.4087673425674438
-0.0711431503295898,0.6677729487419128,0.0203368254005908,-0.8898744583129883,-0.1454875916242599,0.0494972690939903,0.0,0.0,0.5490860939025879,-0.4041041731834411
-0.0707269683480262,0.6478883624076843,0.0391537584364414,-0.8835211992263794,-0.1430338770151138,0.0490742661058902,0.0,0.0,0.562570333480835,-0.6775941848754883
-0.0702811256051063,0.6286640167236328,0.0412286892533302,-0.8540939688682556,-0.1396809816360473,0.0670578107237815,0.0,0.0,0.1251637935638427,-0.5310646891593933
-0.0696450248360633,0.6095892786979675,0.0592487044632434,-0.8473638892173767,-0.1353408396244049,0.0868027880787849,0.0,0.0,0.244504690170288,-0.4796265959739685
-0.0688377395272255,0.5908355116844177,0.0765323266386985,-0.8331252932548523,-0.1311642527580261,0.0835318565368652,0.0,0.0,0.1786437034606933,-0.7301946878433228
-0.0679529160261154,0.5721502304077148,0.0830674394965171,-0.8299933671951294,-0.125771090388298,0.1078633666038513,0.0,0.0,0.6049134731292725,-0.6137648224830627
-0.0670814514160156,0.5539917349815369,0.0810519754886627,-0.8065414428710938,-0.1197035014629364,0.1213518381118774,0.0,0.0,0.3557928800582886,-0.6419321298599243
-0.0660642609000206,0.5365308523178101,0.0945305749773979,-0.775480329990387,-0.1125631332397461,0.1428073197603225,0.0,0.0,-0.3721940517425537,-0.6605889797210693
-0.0650000572204589,0.5187085270881653,0.0983331203460693,-0.7915153503417969,-0.1045356094837188,0.1605504900217056,0.0,0.0,-0.0363503694534301,-0.3991106748580932
-0.0638431534171104,0.5005250573158264,0.1078464165329933,-0.8076270222663879,-0.0967565178871154,0.1555821746587753,0.0,0.0,0.5863426923751831,-0.8436189293861389
-0.0627164840698242,0.4826796054840088,0.1035355553030967,-0.7925641536712646,-0.0877010151743888,0.1811099350452423,0.0,0.0,0.4458751678466797,-0.2243387699127197
-0.0615249648690223,0.4653692841529846,0.1106492429971695,-0.7688759565353394,-0.0792664214968681,0.1686916649341583,0.0,0.0,0.7288304567337036,-0.4968421459197998
-0.0601564422249794,0.4486677050590515,0.1284348964691162,-0.7418699264526367,-0.0709323808550834,0.1666806638240814,0.0,0.0,0.4907028675079345,-0.6182247400283813
-0.0588152892887592,0.4327706396579742,0.1249692291021347,-0.7061262130737305,-0.0618896409869194,0.1808544993400573,0.0,0.0,0.2451673746109008,-0.2447454929351806
-0.0572985634207725,0.4171590507030487,0.142526239156723,-0.6934967637062073,-0.0528405718505382,0.1809812784194946,0.0,0.0,-0.2962454557418823,-0.2725775241851806
-0.0556881912052631,0.4011863172054291,0.152132973074913,-0.7096088528633118,-0.0440414324402809,0.1759827435016632,0.0,0.0,0.6387448310852051,-0.4772675037384033
-0.0539025291800498,0.385331243276596,0.1695929914712906,-0.7044345736503601,-0.0351803041994571,0.1772225201129913,0.0,0.0,0.3100006580352783,-0.5557704567909241
-0.0520852096378803,0.3695167303085327,0.1719613373279571,-0.7026687860488892,-0.0255222916603088,0.1931603848934173,0.0,0.0,0.8510972261428833,-0.4236424565315246
-0.0501605980098247,0.3546741008758545,0.1829707771539688,-0.6595377326011658,-0.0161577109247446,0.1872916519641876,0.0,0.0,0.245389699935913,-0.3781802654266357
-0.0480719581246376,0.3403912186622619,0.1993539780378341,-0.6347212195396423,-0.0067639960907399,0.1878742128610611,0.0,0.0,0.2095293998718261,-0.0531561374664306
-0.0459674820303916,0.3266454935073852,0.201572373509407,-0.6109071969985962,0.0019998291973024,0.1752766668796539,0.0,0.0,0.2530491352081299,-0.2989123463630676
-0.0438675880432128,0.3129148781299591,0.2018147706985473,-0.6102825403213501,0.0100601082667708,0.1612057834863662,0.0,0.0,0.5838668346405029,-0.4828411340713501
-0.0416428558528423,0.2999600172042846,0.2143881767988205,-0.5758475065231323,0.0180499292910099,0.1597961187362671,0.0,0.0,0.1282931566238403,-0.6134657263755798
-0.0394570343196392,0.2872296869754791,0.2096184194087982,-0.5659260153770447,0.0268957782536745,0.1769168674945831,0.0,0.0,0.3984584808349609,-0.6601302623748779
-0.0372961983084678,0.2749970257282257,0.2061502486467361,-0.543884813785553,0.0367103330790996,0.1962910145521164,0.0,0.0,0.0370285511016845,-0.2659937143325805
-0.0350650772452354,0.2630606293678283,0.2134717404842376,-0.5307719111442566,0.0462417528033256,0.1906281560659408,0.0,0.0,0.5697343349456787,-0.625334620475769
-0.0327250473201274,0.251594215631485,0.2231452763080597,-0.509985089302063,0.056972399353981,0.2146129161119461,0.0,0.0,-0.0772186517715454,-0.0829336643218994
-0.0302912704646587,0.2397668212652206,0.2327848225831985,-0.5260977745056152,0.0674555972218513,0.2096636295318603,0.0,0.0,0.7107346057891846,-0.5871509909629822
-0.0277348514646291,0.2282038480043411,0.2438435107469558,-0.514478862285614,0.0791260823607444,0.2334099113941192,0.0,0.0,0.6057746410369873,-0.5367932915687561
-0.0250182151794433,0.2171232551336288,0.2586591839790344,-0.4932073950767517,0.0920197144150734,0.2578722834587097,0.0,0.0,0.7537844181060791,-0.065346360206604
-0.0220989231020212,0.2063280493021011,0.2784793376922607,-0.4806671142578125,0.1053521558642387,0.266649067401886,0.0,0.0,0.184140920639038,-0.093980073928833
-0.0191469192504882,0.1959750056266784,0.2820459008216858,-0.4611129760742187,0.1184209510684013,0.2613758444786072,0.0,0.0,0.5125048160552979,-0.4644804000854492
-0.0161553379148244,0.1863008886575698,0.2861265540122986,-0.4310442805290222,0.131376713514328,0.259115606546402,0.0,0.0,-0.0043264031410217,-0.0927599072456359
-0.0130706783384084,0.1762662082910537,0.2957164645195007,-0.4471597969532013,0.1440894603729248,0.2542550563812256,0.0,0.0,0.4629985094070434,-0.8102989196777344
-0.0098978038877248,0.1662994772195816,0.3030186295509338,-0.4444045126438141,0.1583264321088791,0.2847392857074737,0.0,0.0,0.6812822818756104,-0.2667346596717834
-0.0067667006514966,0.1567274928092956,0.2993789911270141,-0.4269418716430664,0.172075092792511,0.2749735713005066,0.0,0.0,0.0936201810836792,-0.4737331867218017
-0.0035853385925292,0.1476535350084304,0.3044083416461944,-0.4049364924430847,0.185843214392662,0.2753620445728302,0.0,0.0,0.216860294342041,-0.7661802768707275
-0.0004673957882914,0.1388148367404937,0.2968177795410156,-0.3947747647762298,0.200890451669693,0.3009448051452636,0.0,0.0,0.1043187379837036,-0.7677251100540161
0.0024823187850415,0.1303580105304718,0.2788398861885071,-0.3781305849552154,0.2171723991632461,0.3256388306617737,0.0,0.0,0.1218587160110473,-0.3655587434768677
0.0054797171615064,0.122254878282547,0.2836182117462158,-0.3625940084457397,0.2334921956062317,0.3263957798480987,0.0,0.0,-0.1412187218666076,-0.6728063821792603
0.0085116382688283,0.1137770265340805,0.2859255075454712,-0.3796272575855255,0.2510516047477722,0.3511880040168762,0.0,0.0,0.6974430084228516,-0.4946697354316711
0.011361408047378,0.1060260832309722,0.2684041857719421,-0.3474122285842895,0.2679857313632965,0.3386823832988739,0.0,0.0,0.4248397350311279,-0.7529364228248596
0.0141087528318166,0.0985016673803329,0.2570011019706726,-0.3377688527107239,0.2861807942390442,0.3639011085033417,0.0,0.0,0.4260501861572265,-0.6913890838623047
0.0166411399841308,0.0912961065769195,0.2346373051404953,-0.3240144550800323,0.3053570091724396,0.3835245072841644,0.0,0.0,0.3616745471954345,0.2879011631011963
0.0190154071897268,0.0842933282256126,0.219727873802185,-0.3150646090507507,0.3237336575984955,0.3675329387187958,0.0,0.0,0.2283904552459716,0.0404351949691772
0.0213842391967773,0.0777289941906929,0.2191513031721115,-0.295827567577362,0.3422510921955108,0.3703489601612091,0.0,0.0,0.4817004203796386,0.3218638896942138
0.0237831119447946,0.0713009238243103,0.2222465276718139,-0.289997935295105,0.3608021140098572,0.3710205256938934,0.0,0.0,0.5175848007202148,0.1569385528564453
0.0261482242494821,0.0655677914619445,0.218605488538742,-0.2594221830368042,0.3797512054443359,0.3789819180965423,0.0,0.0,0.5594868659973145,0.5286562442779541
0.0283459667116403,0.0605102144181728,0.2032948732376098,-0.2292703092098236,0.3973315060138702,0.3516058027744293,0.0,0.0,-0.3292798995971679,0.2687963247299194
0.0306316372007131,0.0550929419696331,0.2124040424823761,-0.2453916221857071,0.4146996736526489,0.3473636507987976,0.0,0.0,0.6034681797027588,0.262343168258667
0.0328457839787006,0.0501329265534877,0.2052495926618576,-0.2252920567989349,0.4322014451026916,0.3500355780124664,0.0,0.0,0.5673167705535889,0.4189846515655517
0.0348160751163959,0.0458637811243534,0.1812022030353546,-0.1947048604488372,0.4494661688804626,0.345293790102005,0.0,1.0,0.9869272708892822,0.9967143535614014
0.0365043655037879,0.0433904267847538,0.1662791520357132,-0.1111195012927055,0.4510836899280548,0.0305638965219259,0.0,1.0,0.9012417793273926,0.9860851764678956
0.0379876121878623,0.0420636273920536,0.1619419604539871,-0.0546680055558681,0.4361100494861603,-0.2995863258838653,0.0,1.0,0.9606044292449952,0.6455053091049194
0.0389187820255756,0.041670735925436,0.1184702292084693,-0.0098445601761341,0.408609002828598,-0.5500888228416443,0.0,1.0,0.7694379091262817,-0.086133599281311
0.0394852645695209,0.0416353307664394,0.0839575678110122,0.0060278833843767,0.3793575465679168,-0.5850682258605957,0.0,1.0,0.5083856582641602,-0.2045841217041015
0.0398807525634765,0.0419247262179851,0.0655315220355987,0.0195190198719501,0.3518862724304199,-0.5494257211685181,0.0,1.0,0.2308565378189087,0.0807574987411499
0.0401551239192485,0.0424307696521282,0.0536004789173603,0.0286505948752164,0.3245045840740204,-0.5476340651512146,0.0,0.0,-0.9999812245368958,-0.1528376340866089
0.0405144691467285,0.0425831191241741,0.06253482401371,0.0124921649694442,0.2969195544719696,-0.5517020225524902,0.0,0.0,-0.9999638199806212,-0.0706306099891662
0.0409583076834678,0.0423821322619915,0.0713917464017868,-0.0036682551726698,0.269133985042572,-0.5557118654251099,0.0,0.0,-0.9998922944068908,-0.4894026517868042
0.0414856895804405,0.0418279506266117,0.0801647678017616,-0.0198306422680616,0.2411510348320007,-0.5596594214439392,0.0,0.0,-0.999852418899536,-0.6279816031455994
0.0420544631779193,0.0408979766070842,0.0835390985012054,-0.0371854417026042,0.2141139358282089,-0.5407423973083496,0.0,0.0,-0.9991635680198668,-0.6202407479286194
