x_pos,y_pos,x_vel,y_vel,angle,ang_vel,leg_1,leg_2,main_booster,lat_booster
-0.0016207695007324,1.4030226469039917,-0.1641562581062317,-0.3510049283504486,0.0018533505499362,0.0365662574768066,0.0,0.0,0.5287052051325367,0.9542126102047204
-0.0032116889487951,1.3951821327209473,-0.1591047197580337,-0.3484654128551483,0.0018601537449285,0.000136945338454,0.0,0.0,0.0622070044607543,0.8864486874330362
-0.0047316551208496,1.3871227502822876,-0.150268405675888,-0.3581953644752502,0.0001579853560542,-0.0340467691421508,0.0,0.0,0.6226186501673134,0.9734466910611642
-0.0064073563553392,1.3791941404342651,-0.1637327820062637,-0.352381557226181,-0.003630239283666,-0.0757716745138168,0.0,0.0,0.8716467632381808,0.6863209715710901
-0.0079692844301462,1.3717730045318604,-0.1514317095279693,-0.3298496305942535,-0.0083436965942382,-0.0942779183387756,0.0,0.0,0.4783592988774008,0.876480146284292
-0.0094210626557469,1.3644752502441406,-0.1388750672340393,-0.3243942856788635,-0.0145755922421813,-0.1246492862701416,0.0,0.0,-0.8229817761295448,-0.7676333744258962
-0.0110373497009277,1.3565770387649536,-0.1569439023733139,-0.3510764539241791,-0.0192051567137241,-0.0925999879837036,0.0,0.0,-0.1468792235604814,0.68025950358079
-0.0126891136169433,1.348077654838562,-0.1588277369737625,-0.3778488934040069,-0.0254894997924566,-0.1256981790065765,0.0,0.0,0.0629646199353222,-0.7149412567746443
-0.0144950868561863,1.3397942781448364,-0.1756925731897354,-0.3682441711425781,-0.0303363353013992,-0.0969457402825355,0.0,0.0,-0.2281393604162147,-0.6148102745038603
-0.016452694311738,1.3309149742126465,-0.1921263635158538,-0.394713819026947,-0.0339345261454582,-0.0719703361392021,0.0,0.0,0.2320477752441578,-0.7355498532352759
-0.0184844974428415,1.3220981359481812,-0.2011364996433258,-0.3919034898281097,-0.0359479710459709,-0.0402725264430046,0.0,0.0,0.9809915463648032,0.6233509215978671
-0.0204579345881938,1.3136200904846191,-0.1943588256835937,-0.3768800497055053,-0.0389098711311817,-0.0592433325946331,0.0,0.0,0.3305672957657823,-0.9565080545474258
-0.0224681850522756,1.3053865432739258,-0.200059488415718,-0.3659624457359314,-0.039854098111391,-0.0188861843198537,0.0,0.0,0.6253298870508235,0.7065431848762946
-0.0244394298642873,1.297060251235962,-0.1949529945850372,-0.3701173365116119,-0.0420078076422214,-0.0430780872702598,0.0,0.0,-0.7957990859505752,0.9958125042206726
-0.0264185909181833,1.28813636302948,-0.1933168023824691,-0.3967562913894653,-0.0465616099536418,-0.0910845920443534,0.0,0.0,-0.4339741377164108,0.6195966071901516
-0.0284455306828022,1.278599500656128,-0.1966604888439178,-0.4240588545799255,-0.0525318160653114,-0.1194148808717727,0.0,0.0,0.5885794465235843,0.6971676232572142
-0.03033447265625,1.2696856260299685,-0.1818197667598724,-0.3964346647262573,-0.0595400333404541,-0.1401771306991577,0.0,0.0,-0.948684790550936,0.8507731163292354
-0.0322463996708393,1.2601556777954102,-0.1820508688688278,-0.42393758893013,-0.0685988590121269,-0.1811928004026413,0.0,0.0,0.689137211442747,0.9848762429187238
-0.0340181365609169,1.251243233680725,-0.1662528365850448,-0.396647036075592,-0.079420730471611,-0.2164573222398758,0.0,0.0,-0.68907177085705,-0.7870954927577705
-0.0359659194946289,1.2417376041412354,-0.1857041716575622,-0.4229705929756164,-0.0884231775999069,-0.1800646930932998,0.0,0.0,-0.809701056373844,0.9372035674212228
-0.0379298217594623,1.2316265106201172,-0.185099571943283,-0.4500878155231476,-0.0996396094560623,-0.2243489474058151,0.0,0.0,-0.8822059396674788,-0.6668693914200281
-0.0400513634085655,1.2209186553955078,-0.2022374421358108,-0.4765912890434265,-0.1095064207911491,-0.197353646159172,0.0,0.0,0.7736503919109923,0.7851424802503764
-0.0420018211007118,1.2104454040527344,-0.1839204430580139,-0.4663262069225311,-0.1205809041857719,-0.22150918841362,0.0,0.0,0.1449828912619577,-0.6411791097423547
-0.0440295226871967,1.19968581199646,-0.1930638253688812,-0.4790155291557312,-0.1302521973848343,-0.1934432685375213,0.0,0.0,0.982483932009012,0.7822343698684069
-0.0461852066218853,1.1895004510879517,-0.2039353847503662,-0.4537415206432342,-0.1418559998273849,-0.232096865773201,0.0,0.0,-0.5336066399188606,0.8401769775135616
-0.0483990684151649,1.1786872148513794,-0.2085371762514114,-0.4818572998046875,-0.1546777337789535,-0.2564344406127929,0.0,0.0,0.6314518151414752,-0.6325348063568254
-0.0506539344787597,1.168351650238037,-0.213997483253479,-0.4605928063392639,-0.1661703139543533,-0.2298515290021896,0.0,0.0,-0.3668114861033371,-0.8825484027739251
-0.0530982986092567,1.1574456691741943,-0.2351640462875366,-0.4857779145240783,-0.1754537373781204,-0.1856682896614074,0.0,0.0,-0.0765985192514111,0.6458167273122989
-0.0556094162166118,1.1459336280822754,-0.2409058064222335,-0.5128881931304932,-0.1856947541236877,-0.2048202008008957,0.0,0.0,-0.9236897522301096,0.6828421139130291
-0.0581764206290245,1.1338040828704834,-0.2452582120895385,-0.5405667424201965,-0.1972059309482574,-0.2302233874797821,0.0,0.0,-0.3306228707545358,-0.8679741677067976
-0.0609141364693641,1.121103048324585,-0.2640780210494995,-0.5658118724822998,-0.2069664150476455,-0.1952098459005355,0.0,0.0,-0.495766243514012,0.7596056210404141
-0.063708022236824,1.107780933380127,-0.2684640288352966,-0.5936644077301025,-0.2180050164461136,-0.2207716405391693,0.0,0.0,-0.0673206287617118,-0.92410652413222
-0.0666885375976562,1.0938934087753296,-0.2892849445343017,-0.6185446977615356,-0.2268656194210052,-0.1772120893001556,0.0,0.0,0.7199188818207989,0.847586076045425
-0.0696989074349403,1.0799484252929688,-0.2905333042144775,-0.6214268803596497,-0.2375099062919616,-0.2128864228725433,0.0,0.0,-0.6400989453016035,0.7249594333513577
-0.0727584809064865,1.0653839111328125,-0.2940708994865417,-0.6492825150489807,-0.2495978772640228,-0.2417593002319336,0.0,0.0,-0.2749970490554907,0.8449645979154912
-0.0758568793535232,1.0501998662948608,-0.2963334918022156,-0.6771971583366394,-0.2633812427520752,-0.2756673693656921,0.0,0.0,0.0752281851446277,0.744658451662128
-0.0789474472403526,1.0348268747329712,-0.2941650748252868,-0.6859999895095825,-0.2786299884319305,-0.3049750030040741,0.0,0.0,-0.2295966584764801,0.9154418708341208
-0.082068920135498,1.0188300609588623,-0.2954746186733246,-0.7142419219017029,-0.2957867980003357,-0.343136191368103,0.0,0.0,-0.2960479570092795,0.7886512437933078
-0.0852387398481369,1.0022180080413818,-0.2990278601646423,-0.7420673966407776,-0.3143734633922577,-0.3717330992221832,0.0,0.0,-0.0497756165448171,-0.8650657261539898
-0.0885757431387901,0.9850391745567322,-0.3175151944160461,-0.7671109437942505,-0.3312173783779144,-0.3368774652481079,0.0,0.0,0.4250777894108397,0.8639869505684293
-0.0918324440717697,0.9682390093803406,-0.307843267917633,-0.750866174697876,-0.3498711884021759,-0.3730766773223877,0.0,0.0,0.4722319841384887,-0.8283446431159973
-0.0949801430106163,0.9514663815498352,-0.2988887131214142,-0.7494078874588013,-0.366606593132019,-0.3347080647945404,0.0,0.0,0.972533106803894,-0.8597995638847351
-0.0980460196733474,0.9345780611038208,-0.2927363514900207,-0.754202127456665,-0.3812723457813263,-0.2933159470558166,0.0,0.0,0.9433612823486328,-0.9619784951210022
-0.1009361296892166,0.917923629283905,-0.2773800194263458,-0.7433555126190186,-0.3936821520328522,-0.2481954097747802,0.0,0.0,0.9983067512512208,-0.9377242922782898
-0.1039157882332801,0.9012252688407898,-0.2881467938423157,-0.7449029088020325,-0.4042028784751892,-0.2104140967130661,0.0,0.0,0.9653609991073608,-0.950025200843811
-0.1068600639700889,0.8844735026359558,-0.2866039872169494,-0.7467729449272156,-0.412603884935379,-0.1680202335119247,0.0,0.0,0.9797533750534058,-0.9351084232330322
-0.1096893325448036,0.8678471446037292,-0.2771163880825043,-0.7406631708145142,-0.4188677072525024,-0.1252763271331787,0.0,0.0,0.946723699569702,-0.9060737490653992
-0.1124190315604209,0.8521060347557068,-0.2687407732009887,-0.7008670568466187,-0.423435240983963,-0.0913512632250785,0.0,0.0,0.8919887542724609,-0.7202461361885071
-0.115081787109375,0.8371387720108032,-0.2631687223911285,-0.6661450862884521,-0.4268063902854919,-0.0674230456352233,0.0,0.0,0.921268105506897,-0.7518531680107117
-0.1176824569702148,0.8224282264709473,-0.2584066390991211,-0.6543071866035461,-0.428611159324646,-0.0360955893993377,0.0,0.0,0.7865350246429443,-0.4525870680809021
-0.1199892982840538,0.8078612089157104,-0.2297445982694625,-0.6477117538452148,-0.4296324551105499,-0.0204259343445301,0.0,0.0,0.9580490589141846,-0.7708165645599365
-0.1221566200256347,0.793971061706543,-0.2171876430511474,-0.6172006130218506,-0.4291394054889679,0.0098610613495111,0.0,0.0,0.9780881404876708,-0.698326826095581
-0.1241283416748046,0.7801473140716553,-0.1993338465690612,-0.6137256622314453,-0.4267904758453369,0.0469783060252666,0.0,0.0,0.6674439907073975,-0.8230786323547363
-0.1259224861860275,0.766865611076355,-0.1832426488399505,-0.5891510248184204,-0.4226467311382293,0.0828747525811195,0.0,0.0,0.8830944299697876,-0.9258162379264832
-0.1274865120649337,0.7536681294441223,-0.1623591184616089,-0.5847889184951782,-0.4162066578865051,0.1288009285926818,0.0,0.0,0.9317539930343628,-0.721553385257721
-0.1290920227766037,0.7407292723655701,-0.1677172034978866,-0.5729695558547974,-0.4084844291210174,0.1544448286294937,0.0,0.0,0.8378674983978271,-0.1531010866165161
-0.1303499191999435,0.7283470630645752,-0.133493036031723,-0.5481224060058594,-0.400208979845047,0.1655089408159256,0.0,0.0,0.8730769157409668,-0.7321069836616516
-0.1313054114580154,0.7163569331169128,-0.1051277667284011,-0.5302259922027588,-0.3899688422679901,0.2048029154539108,0.0,0.0,0.6110477447509766,-0.8232730627059937
-0.1320371627807617,0.7048785090446472,-0.0845939442515373,-0.5070747137069702,-0.3778218030929565,0.24294114112854,0.0,0.0,-0.4745121598243713,-0.2702711820602417
-0.1328669488430023,0.6927997469902039,-0.0945092886686325,-0.5338367223739624,-0.3656040132045746,0.2443566024303436,0.0,0.0,-0.3275564908981323,-0.6965817213058472
-0.1338419020175933,0.6801418662071228,-0.1103903874754905,-0.5593405961990356,-0.3520121574401855,0.2718377709388733,0.0,0.0,0.2628499269485473,0.4945437908172607
-0.1347998678684234,0.6676785349845886,-0.1084826216101646,-0.5508751273155212,-0.3387035429477691,0.2661731243133545,0.0,0.0,0.3969353437423706,0.3159462213516235
-0.1356088668107986,0.6551818251609802,-0.0941736251115799,-0.5523489117622375,-0.3248403370380401,0.2772633731365204,0.0,0.0,-0.003637671470642,0.3232510089874267
-0.1365113258361816,0.6420854926109314,-0.1036625131964683,-0.5791150331497192,-0.3109056353569031,0.2786940336227417,0.0,0.0,-0.1200672388076782,0.4738414287567138
-0.1375062018632888,0.6283892393112183,-0.113018050789833,-0.6058814525604248,-0.2968994677066803,0.2801233232021332,0.0,0.0,0.7743213176727295,0.7331122159957886
-0.1384893357753753,0.615041971206665,-0.1102322489023208,-0.5908238887786865,-0.2846210300922394,0.2455686330795288,0.0,0.0,0.4296214580535888,0.7854070663452148
-0.1392728835344314,0.6021344065666199,-0.0888588726520538,-0.5716575980186462,-0.2738280892372131,0.2158585339784622,0.0,0.0,0.3024705648422241,0.3151607513427734
-0.1400195062160492,0.5889328718185425,-0.0855597704648971,-0.5847329497337341,-0.2626653909683227,0.2232546806335449,0.0,0.0,-0.2116965055465698,0.7871477603912354
-0.1407876908779144,0.5751141309738159,-0.0861980319023132,-0.6125174164772034,-0.2530893385410309,0.1915208250284195,0.0,0.0,0.9083976745605468,0.6314215660095215
-0.1415679007768631,0.561510443687439,-0.0859372168779373,-0.6032583117485046,-0.2450265139341354,0.1612564474344253,0.0,0.0,0.7809284925460815,0.490415096282959
-0.1423488557338714,0.5484036803245544,-0.085636481642723,-0.5812826156616211,-0.2373535186052322,0.1534597724676132,0.0,0.0,0.3574366569519043,0.4190102815628052
-0.1430642157793045,0.5354321599006653,-0.0792825892567634,-0.5752831697463989,-0.2294967919588089,0.1571349054574966,0.0,0.0,0.3565702438354492,0.4259239435195923
-0.1438014954328537,0.5229082703590393,-0.0810733437538147,-0.5554934144020081,-0.2220638245344162,0.1486592292785644,0.0,0.0,0.3522822856903076,0.7513751983642578
-0.1443851441144943,0.5104326009750366,-0.0643686801195144,-0.5535837411880493,-0.2159866988658905,0.1215424165129661,0.0,0.0,0.6299986839294434,-0.029891014099121
-0.144989401102066,0.4979313015937805,-0.0663568377494812,-0.5547599792480469,-0.2100011110305786,0.1197117120027542,0.0,0.0,0.4223179817199707,-0.1689884662628173
-0.1455458700656891,0.4852205514907837,-0.061898685991764,-0.5640436410903931,-0.2036843001842498,0.1263358294963836,0.0,0.0,0.8191379308700562,0.9078971147537231
-0.1460596024990081,0.4724383056163788,-0.0558215491473674,-0.5674972534179688,-0.1992058455944061,0.0895692929625511,0.0,0.0,0.7132121324539185,0.7952010631561279
-0.146417811512947,0.4602546989917755,-0.0387311540544033,-0.5411062240600586,-0.1962820142507553,0.0584763474762439,0.0,0.0,0.7060757875442505,0.5307803153991699
-0.146539881825447,0.4486755132675171,-0.0143543053418397,-0.5143468379974365,-0.1941265165805816,0.0431100688874721,0.0,0.0,0.4326026439666748,-0.8133173584938049
-0.1467468291521072,0.4375957548618316,-0.0243640523403882,-0.4919567108154297,-0.1904270648956298,0.0739891678094863,0.0,0.0,-0.5683956742286682,0.7023093700408936
-0.1469597816467285,0.4258946180343628,-0.0239161737263202,-0.5197173357009888,-0.1877913326025009,0.052714504301548,0.0,0.0,0.5913162231445312,-0.2717641592025757
-0.1470355987548828,0.4147025644779205,-0.0104306349530816,-0.4970637559890747,-0.1849308758974075,0.057209026068449,0.0,0.0,0.5106415748596191,0.1646240949630737
-0.1471441239118576,0.4037100970745086,-0.0133124990388751,-0.4882510304450989,-0.1824571341276168,0.0494748130440712,0.0,0.0,-0.1509519219398498,-0.6943881511688232
-0.1473443061113357,0.392134815454483,-0.0240454711019992,-0.5139659643173218,-0.1784234046936035,0.0806744545698165,0.0,0.0,0.5220596790313721,0.5802001953125
-0.147424504160881,0.3809026479721069,-0.0108909523114562,-0.498868465423584,-0.1755441278219223,0.0575854554772377,0.0,0.0,0.4715831279754638,-0.3611800074577331
-0.1473603248596191,0.369813472032547,0.0031540147028863,-0.4924665093421936,-0.1722742468118667,0.0653977170586586,0.0,0.0,0.8365967273712158,-0.1339566707611084
-0.1472220420837402,0.3586781024932861,0.0104132266715168,-0.4945143759250641,-0.1688548624515533,0.0683877393603324,0.0,0.0,0.8007051944732666,-0.5316444635391235
-0.1469573080539703,0.3475695252418518,0.0216711517423391,-0.493177205324173,-0.1640453338623047,0.0961902141571044,0.0,0.0,0.925695776939392,0.0908153057098388
-0.1464203894138336,0.3368022739887237,0.0480704978108406,-0.477933794260025,-0.1584227383136749,0.1124521940946579,0.0,0.0,0.6635279655456543,0.6311824321746826
-0.145621970295906,0.3259690999984741,0.0750985518097877,-0.4809780716896057,-0.1536935865879058,0.0945833921432495,0.0,0.0,0.4090887308120727,-0.0175667405128479
-0.1447246521711349,0.3154851496219635,0.0850100889801979,-0.4654728770256042,-0.1489748060703277,0.0943756029009819,0.0,0.0,-0.4504972100257873,0.0759806632995605
-0.1438159048557281,0.3043995499610901,0.0861393362283706,-0.4922274649143219,-0.1442479789257049,0.09453646838665,0.0,0.0,0.0354995727539062,-0.6322288513183594
-0.142791748046875,0.2933270931243896,0.0963036715984344,-0.4915300011634826,-0.1381521821022033,0.1219158768653869,0.0,0.0,0.4268934726715088,-0.2339342832565307
-0.1416198760271072,0.2820540964603424,0.1106624752283096,-0.5004317760467529,-0.1316533237695694,0.1299773156642913,0.0,0.0,0.0683470964431762,-0.7326018810272217
-0.1404730826616287,0.270686537027359,0.1067114472389221,-0.5045417547225952,-0.1237251758575439,0.1585633009672165,0.0,0.0,0.3250255584716797,0.2134673595428466
-0.1391402184963226,0.2597354650497436,0.1249963268637657,-0.4860544502735138,-0.1154904887080192,0.1646938025951385,0.0,0.0,0.3211373090744018,-0.0566517114639282
-0.1377351731061935,0.2488645911216735,0.132309228181839,-0.4825379550457001,-0.1073531284928321,0.1627474725246429,0.0,0.0,0.1913651227951049,0.4638725519180298
-0.1363147795200348,0.2382625639438629,0.134275883436203,-0.4706626832485199,-0.0996454209089279,0.1541541814804077,0.0,0.0,0.1641103029251098,0.2544467449188232
-0.1347366273403167,0.2277842909097671,0.1497758328914642,-0.4651902914047241,-0.0916720703244209,0.1594671905040741,0.0,0.0,0.4671626091003418,-0.0085124373435974
-0.1330924928188324,0.2177064716815948,0.1566005051136016,-0.4474405944347381,-0.0839399248361587,0.1546429097652435,0.0,0.0,-0.0766081809997558,0.0336710214614868
-0.13139209151268,0.2070276290178299,0.1622581928968429,-0.4741985201835632,-0.0762321799993515,0.154154971241951,0.0,0.0,0.5797119140625,0.6506195068359375
-0.129569724202156,0.1964545845985412,0.175846666097641,-0.4696011841297149,-0.0699047371745109,0.1265488564968109,0.0,0.0,0.8968950510025024,-0.3511955142021179
-0.1277686059474945,0.1863273531198501,0.1743664741516113,-0.4498423337936401,-0.0642270967364311,0.1135527342557907,0.0,0.0,0.6362122297286987,-0.1622347235679626
-0.1260154694318771,0.1763894408941269,0.1703032255172729,-0.4414812624454498,-0.0592716857790946,0.0991085618734359,0.0,0.0,0.673382043838501,-0.7398437261581421
-0.124089241027832,0.1669389754533767,0.1859075725078582,-0.4197684526443481,-0.0526410490274429,0.1326127648353576,0.0,0.0,0.6656860113143921,-0.9067628979682922
-0.122072696685791,0.1574369519948959,0.1930632889270782,-0.4220341742038727,-0.044143047183752,0.1699599176645279,0.0,0.0,0.3976762294769287,-0.883354127407074
-0.1198811531066894,0.1483035683631897,0.2086624205112457,-0.4056507349014282,-0.0337824188172817,0.2072126567363739,0.0,0.0,0.5455036163330078,-0.7271055579185486
-0.1176668182015419,0.1396682858467102,0.2095596343278885,-0.3835611343383789,-0.0220611244440078,0.234425812959671,0.0,0.0,0.3618323802947998,-0.7510611414909363
-0.1152830123901367,0.1314958482980728,0.2248471975326538,-0.3630737960338592,-0.0086997337639331,0.2672277390956878,0.0,0.0,-0.0300549864768981,-0.6688533425331116
-0.1128616333007812,0.1227248013019561,0.2274710834026336,-0.3898053169250488,0.0057769208215177,0.2895331382751465,0.0,0.0,0.680208683013916,0.004065990447998
-0.1103665381669998,0.1146000027656555,0.2349248379468917,-0.3612226843833923,0.0201715305447578,0.2878925800323486,0.0,0.0,0.622260570526123,-0.3432298302650451
-0.1077399253845214,0.107037603855133,0.2478633224964141,-0.3363715708255768,0.0347919352352619,0.2924081087112427,0.0,0.0,0.5426967144012451,-0.4740776419639587
-0.1049634963274002,0.0995218381285667,0.2625357210636139,-0.3344523310661316,0.049709029495716,0.2983419895172119,0.0,0.0,0.8750612735748291,-0.0455416440963745
-0.1022696495056152,0.092447817325592,0.2549893260002136,-0.314937025308609,0.063931256532669,0.2844449877738952,0.0,0.0,0.8189682960510254,-0.18450528383255
-0.0996607765555381,0.0856092572212219,0.2472269535064697,-0.3045744597911834,0.0774457827210426,0.2702907025814056,0.0,0.0,0.6850816011428833,-0.1436064839363098
-0.0970246344804763,0.0790284723043441,0.2501266002655029,-0.2932338118553161,0.0908034518361091,0.2671535909175873,0.0,0.0,0.7799434661865234,0.2619225978851318
-0.0943179130554199,0.0727103352546691,0.2571288049221039,-0.2816832959651947,0.1042340844869613,0.2686128318309784,0.0,0.0,0.8357148170471191,-0.1286156177520752
-0.091412641108036,0.0664113610982894,0.2763973176479339,-0.2809987962245941,0.118278369307518,0.280885636806488,0.0,0.0,0.8169268369674683,-0.4102509617805481
-0.0883926376700401,0.0606521219015121,0.2874431014060974,-0.2571818828582763,0.1327598392963409,0.289629727602005,0.0,0.0,0.8436458110809326,-0.7627106308937073
-0.0854242295026779,0.0556336008012294,0.2807794511318207,-0.2245526611804962,0.14876788854599,0.3201609849929809,0.0,0.0,0.5461171865463257,0.1069210767745971
