x_pos,y_pos,x_vel,y_vel,angle,ang_vel,leg_1,leg_2,main_booster,lat_booster
-0.0016378402942791,1.403459548950195,-0.1650099456310272,-0.3315853178501129,0.0011044373968616,0.0217370837926864,0.0,0.0,-0.4151389598846435,0.8466286659240723
-0.0033177374862134,1.3958529233932495,-0.1664920598268509,-0.3380693197250366,-0.0003792476200032,-0.0296759102493524,0.0,0.0,0.1440383195877075,-0.226213276386261
-0.0050187110900878,1.3885003328323364,-0.1682928502559662,-0.326779842376709,-0.002157931914553,-0.0355770103633403,0.0,0.0,-0.6728236079216003,0.5367496013641357
-0.0067986487410962,1.3809808492660522,-0.1745859086513519,-0.3342059850692749,-0.0055286255665123,-0.0674203783273696,0.0,0.0,-0.0758115053176879,-0.1746110320091247
-0.0086907390505075,1.3732967376708984,-0.1850505173206329,-0.3415400087833404,-0.0096371164545416,-0.0821773260831832,0.0,0.0,-0.5913122296333313,0.4930808544158935
-0.010694121941924,1.365447998046875,-0.1954335123300552,-0.3488758206367492,-0.014483518898487,-0.0969369411468505,0.0,0.0,-0.7337877154350281,-0.0751219987869262
-0.0128078460693359,1.357434630393982,-0.2057268321514129,-0.3562127351760864,-0.0200670082122087,-0.1116802468895912,0.0,0.0,-0.6797459125518799,0.3615823984146118
-0.0150309558957815,1.349256992340088,-0.2159226238727569,-0.3635506331920624,-0.0263869743794202,-0.1264109313488006,0.0,0.0,-0.4897759556770324,0.751481294631958
-0.0173043254762887,1.34092116355896,-0.2187253683805465,-0.3706551194190979,-0.0349008552730083,-0.1702936589717865,0.0,0.0,-0.892364501953125,0.6654285192489624
-0.0196322444826364,1.332423210144043,-0.2221215218305587,-0.3779657483100891,-0.0454654544591903,-0.2113116681575775,0.0,0.0,-0.8729990124702454,0.5637273788452148
-0.0220152847468853,1.3237595558166504,-0.2255978882312774,-0.385486900806427,-0.0580411255359649,-0.2515364587306976,0.0,0.0,-0.7515991926193237,0.0462989807128906
-0.0245026592165231,1.3149335384368896,-0.235297292470932,-0.3928371369838714,-0.0713496804237365,-0.2661955058574676,0.0,0.0,-0.4383369088172912,-0.572397768497467
-0.0271279327571392,1.3059524297714231,-0.2492616474628448,-0.3998493254184723,-0.0844994559884071,-0.2630192935466766,0.0,0.0,-0.4416967630386352,0.2774714231491089
-0.0298542976379394,1.2968093156814575,-0.2586538791656494,-0.4072030782699585,-0.0983816906809806,-0.2776701748371124,0.0,0.0,-0.7446206212043762,-0.8221129775047302
-0.0327288620173931,1.2875205278396606,-0.274017184972763,-0.4137758016586303,-0.1117398515343666,-0.2671876847743988,0.0,0.0,-0.7709700465202332,-0.0438736677169799
-0.0357008948922157,1.2780704498291016,-0.2830463945865631,-0.4211328327655792,-0.1258296966552734,-0.2818227708339691,0.0,0.0,-0.358660340309143,0.321469783782959
-0.0387682914733886,1.2684590816497805,-0.2918683290481567,-0.4284924268722534,-0.1406498849391937,-0.2964308261871338,0.0,0.0,-0.8037514686584473,-0.3573060035705566
-0.041928481310606,1.2586870193481443,-0.3004669547080993,-0.4358557760715484,-0.1562001556158065,-0.3110333383083343,0.0,0.0,-0.8474760055541992,-0.2625198364257812
-0.0451793670654296,1.2487547397613523,-0.3088244199752807,-0.4432225525379181,-0.1724800169467926,-0.3256268203258514,0.0,0.0,-0.7065220475196838,-0.9431506991386414
-0.0486010536551475,1.2386833429336548,-0.3273711800575256,-0.4493999779224396,-0.1873491555452346,-0.2974094748497009,0.0,0.0,-0.7026373744010925,-0.934041440486908
-0.052164077758789,1.2284741401672363,-0.3422842621803283,-0.4555638432502746,-0.2014679759740829,-0.282401829957962,0.0,0.0,-0.686170220375061,-0.0299385786056518
-0.0558091178536415,1.2181047201156616,-0.3498106300830841,-0.462931752204895,-0.2163160741329193,-0.2969887554645538,0.0,0.0,-0.7453700304031372,-0.8590535521507263
-0.0595850944519043,1.2075908184051514,-0.3635633587837219,-0.4693977236747741,-0.230537861585617,-0.2844612002372741,0.0,0.0,-0.8595414757728577,-0.9652926921844482
-0.0635036453604698,1.1969292163848877,-0.3788362443447113,-0.4759429395198822,-0.2437778264284134,-0.2648227214813232,0.0,0.0,-0.7976062893867493,-0.7166692018508911
-0.0675614327192306,1.1861340999603271,-0.3938416838645935,-0.4818114340305328,-0.2559570074081421,-0.2436051368713379,0.0,0.0,-0.5727875232696533,-0.5173373818397522
-0.0717394798994064,1.175179362297058,-0.4064504206180572,-0.4889073669910431,-0.2675640881061554,-0.2321413308382034,0.0,0.0,-0.6446782946586609,-0.2617743015289306
-0.0759818106889724,1.164063811302185,-0.4121930599212646,-0.496267706155777,-0.279901772737503,-0.2467539608478546,0.0,0.0,-0.8530486226081848,-0.6281553506851196
-0.0803405791521072,1.152819037437439,-0.4246863722801208,-0.5019527077674866,-0.2914130985736847,-0.2302267998456955,0.0,0.0,-0.8687293529510498,0.0189627408981323
-0.0847546607255935,1.141413927078247,-0.4295493066310882,-0.509314239025116,-0.3036551773548126,-0.244841381907463,0.0,0.0,-0.7961416840553284,-0.9775947332382202
-0.0892961472272872,1.129880428314209,-0.4436072707176208,-0.5148304104804993,-0.3145722150802612,-0.2183407843112945,0.0,0.0,-0.8331533670425415,-0.9159775972366332
-0.0939475074410438,1.118228793144226,-0.4556842744350433,-0.5199363827705383,-0.3243988156318664,-0.1965321004390716,0.0,0.0,-0.7534389495849609,0.1462064981460571
-0.0986394882202148,1.1064163446426392,-0.4590813517570495,-0.527296781539917,-0.3349547982215881,-0.2111198008060455,0.0,0.0,-0.8903432488441467,-0.33571457862854
-0.1033668518066406,1.094443678855896,-0.461958646774292,-0.5346589684486389,-0.3462391197681427,-0.2256862372159958,0.0,0.0,-0.8910724520683289,-0.1246464252471923
-0.1081240624189376,1.082310914993286,-0.4643036425113678,-0.5420228838920593,-0.3582503199577331,-0.2402240931987762,0.0,0.0,-0.6788843274116516,-0.8154000639915466
-0.1129637733101844,1.0700527429580688,-0.4734505116939544,-0.5474750995635986,-0.3693555891513824,-0.222105860710144,0.0,0.0,-0.8350617289543152,-0.1903369426727295
-0.1178222671151161,1.0576344728469849,-0.4747022092342376,-0.5548399090766907,-0.3811836540699005,-0.236560434103012,0.0,0.0,-0.6003819704055786,-0.1530464887619018
-0.1226939186453819,1.0450568199157717,-0.4754002094268799,-0.5622064471244812,-0.3937315046787262,-0.2509568333625793,0.0,0.0,-0.8501037359237671,0.3269078731536865
-0.1275731027126312,1.0323199033737185,-0.4755430817604065,-0.5695750117301941,-0.4069956541061401,-0.265282392501831,0.0,0.0,-0.3173128366470337,-0.7503356337547302
-0.1325093209743499,1.0194684267044067,-0.4822099804878235,-0.5745082497596741,-0.4193054139614105,-0.2461952716112136,0.0,0.0,-0.63236004114151,-0.7631663680076599
-0.1374938040971756,1.006493091583252,-0.4878255724906921,-0.5798753499984741,-0.430811196565628,-0.2301150560379028,0.0,0.0,-0.3086028099060058,-0.4663572311401367
-0.1424690186977386,0.9933586120605468,-0.4863200187683105,-0.5872433185577393,-0.4430181384086609,-0.2441390454769134,0.0,0.0,0.1797394752502441,-0.3972475528717041
-0.1471897065639495,0.980514645576477,-0.4606679081916809,-0.5744985342025757,-0.4555117785930633,-0.2498729228973388,0.0,0.0,0.3932684659957886,-0.716934859752655
-0.1517451256513595,0.9678377509117126,-0.4450611174106598,-0.566889226436615,-0.4670674204826355,-0.2311127930879593,0.0,0.0,-0.7151363492012024,-0.5413194298744202
-0.1563074141740799,0.9550240635871888,-0.4460428655147552,-0.5729529857635498,-0.4783550798892975,-0.2257534563541412,0.0,0.0,-0.042681336402893,-0.6992670893669128
-0.1608941107988357,0.9420840740203856,-0.4493306577205658,-0.5783712863922119,-0.4887548983097076,-0.2079962939023971,0.0,0.0,-0.4435317516326904,-0.622302234172821
-0.1654875725507736,0.9290103316307068,-0.4505476951599121,-0.5841986536979675,-0.4986105561256408,-0.1971134096384048,0.0,0.0,-0.1934427618980407,-0.4817155599594116
-0.1700414717197418,0.9157771468162536,-0.4460671842098236,-0.591564953327179,-0.5091094970703125,-0.2099793404340744,0.0,0.0,-0.1018564105033874,-0.5019116997718811
-0.1745901107788086,0.9024227261543274,-0.4461529850959778,-0.5967978239059448,-0.5189705491065979,-0.1972197890281677,0.0,0.0,0.3397108316421509,-0.767443835735321
-0.1789279878139495,0.8898810148239136,-0.4258975386619568,-0.5604351758956909,-0.5279484987258911,-0.1795589923858642,0.0,0.0,0.5233497619628906,-0.2624369859695434
-0.1829939782619476,0.877801775932312,-0.3981618881225586,-0.5401666164398193,-0.5376128554344177,-0.1932868510484695,0.0,0.0,0.8305127620697021,-0.8618084192276001
-0.1865871399641037,0.8662945628166199,-0.3522824645042419,-0.5142530798912048,-0.545723557472229,-0.1622143238782882,0.0,0.0,0.3733487129211426,-0.8070744276046753
-0.18990059196949,0.8555075526237488,-0.3252954185009002,-0.481893241405487,-0.5527200698852539,-0.139929711818695,0.0,0.0,0.5031640529632568,-0.4274337887763977
-0.1928537338972091,0.8449978232383728,-0.2892299294471741,-0.4696216285228729,-0.5597909092903137,-0.1414174139499664,0.0,0.0,0.147475004196167,-0.7154349684715271
-0.195488840341568,0.8350792527198792,-0.2583299279212951,-0.4430039525032043,-0.5658305883407593,-0.1207931414246559,0.0,0.0,0.6289064884185791,-0.9412195682525636
-0.1977204382419586,0.8255313038825989,-0.2194579839706421,-0.4259286522865295,-0.5701656937599182,-0.0867019444704055,0.0,0.0,0.4008510112762451,-0.9229214787483216
-0.199803739786148,0.8164558410644531,-0.205873891711235,-0.4044094383716583,-0.5730493068695068,-0.0576724521815776,0.0,0.0,0.7832252979278564,-0.9469308257102966
-0.2013092041015625,0.8082779049873352,-0.1495991796255111,-0.3638732135295868,-0.574164867401123,-0.0223116539418697,0.0,0.0,0.8224763870239258,-0.9654894471168518
-0.2022522389888763,0.8008012175559998,-0.094979241490364,-0.3320066332817077,-0.5733720064163208,0.015857096761465,0.0,0.0,0.8335857391357422,-0.5824181437492371
-0.2025809735059738,0.7942833304405212,-0.034499742090702,-0.288981020450592,-0.5714576840400696,0.0382867716252803,0.0,0.0,-0.5251395106315613,-0.9460715651512146
-0.2028939723968505,0.7876771092414856,-0.0346068143844604,-0.2921973466873169,-0.5675783753395081,0.0775863155722618,0.0,0.0,0.1844450235366821,-0.9424801468849182
-0.2030083239078521,0.781261682510376,-0.0162128377705812,-0.2831077873706817,-0.5619937181472778,0.1116935983300209,0.0,0.0,-0.1500436663627624,-0.989566445350647
-0.2031100690364837,0.7747598886489868,-0.0168826896697282,-0.2861817479133606,-0.5541936755180359,0.1560012698173523,0.0,0.0,-0.1548845171928405,-0.966937243938446
-0.2031750679016113,0.7681404948234558,-0.0144493225961923,-0.2909392416477203,-0.544981062412262,0.1842522919178009,0.0,0.0,-0.5138446688652039,-0.889818012714386
-0.203205868601799,0.7614114880561829,-0.0125137325376272,-0.2952970862388611,-0.5341313481330872,0.2169937193393707,0.0,0.0,-0.4304583072662353,-0.9383578896522522
-0.2032089680433273,0.7545693516731262,-0.0113838668912649,-0.2997847199440002,-0.5214724540710449,0.2531783282756805,0.0,0.0,-0.6275813579559326,-0.8150122761726379
-0.2031843215227127,0.7476226687431335,-0.010429092682898,-0.3038708865642547,-0.5068397521972656,0.292653888463974,0.0,0.0,-0.575892448425293,-0.7785157561302185
-0.2031120806932449,0.7405649423599243,-0.0071424907073378,-0.3084531724452972,-0.4906773865222931,0.3232470750808716,0.0,0.0,-0.7857016921043396,-0.8142340779304504
-0.2029941529035568,0.7333759069442749,-0.0039923298172652,-0.3139918446540832,-0.4730806052684784,0.3519357740879059,0.0,0.0,-0.1947748661041259,-0.7196051478385925
-0.2028226852416992,0.726069986820221,-0.0001098863649531,-0.3189420998096466,-0.4540228545665741,0.3811542391777038,0.0,0.0,-0.4422087669372558,-0.0097097158432006
-0.2025511711835861,0.7186030149459839,0.0096880849450826,-0.3263009190559387,-0.4349202811717987,0.3820515275001526,0.0,0.0,-0.4898789525032043,0.2370105981826782
-0.2021785229444503,0.7109751105308533,0.0195656828582286,-0.3336588442325592,-0.4157354831695556,0.383696049451828,0.0,0.0,-0.558605432510376,0.0819612741470336
-0.2017038315534591,0.7031860947608948,0.0295160412788391,-0.3410161435604095,-0.3964319229125976,0.3860711455345154,0.0,0.0,-0.6519473791122437,0.4924451112747192
-0.2011260539293289,0.6952360272407532,0.0395328216254711,-0.3483730554580688,-0.3769741058349609,0.3891565799713135,0.0,0.0,-0.7752346992492676,0.6112666130065918
-0.2003941535949707,0.6870943903923035,0.0559481456875801,-0.3574027121067047,-0.3587404191493988,0.3646735548973083,0.0,0.0,-0.8950533866882324,-0.1184940338134765
-0.1995576918125152,0.6787911653518677,0.0660830363631248,-0.3647553622722626,-0.3402848541736603,0.3691112101078033,0.0,0.0,-0.9742178320884703,0.3502480983734131
-0.1986159384250641,0.6703259348869324,0.0762679427862167,-0.3721083402633667,-0.3215756714344024,0.374184250831604,0.0,0.0,-0.9920713305473328,0.7802133560180664
-0.1975143402814865,0.6616640686988831,0.0933044478297233,-0.381337970495224,-0.3040999174118042,0.3495153784751892,0.0,0.0,-0.982366979122162,0.6805791854858398
-0.1962545365095138,0.6528214812278748,0.110062301158905,-0.3897578120231628,-0.2876710891723633,0.3285762965679168,0.0,0.0,-0.9940990209579468,0.168689489364624
-0.1948875486850738,0.6438162922859192,0.1203743666410446,-0.3971045911312103,-0.2709018290042877,0.3353851735591888,0.0,0.0,-0.9650687575340272,0.3678940534591675
-0.1934126913547516,0.6346484422683716,0.1307195723056793,-0.4044522643089294,-0.253766268491745,0.3427113890647888,0.0,0.0,-0.9946410059928894,0.5042695999145508
-0.1918002068996429,0.62530118227005,0.1448150277137756,-0.4126833081245422,-0.2370451092720031,0.3344234824180603,0.0,0.0,-0.9923697710037231,0.5294082164764404
-0.1900349557399749,0.6157799959182739,0.1607449650764465,-0.4207053780555725,-0.2210461795330047,0.3199785649776459,0.0,0.0,-0.999608278274536,0.8566265106201172
-0.1881056725978851,0.6060770153999329,0.1780754327774047,-0.4290890991687774,-0.2060471773147583,0.2999804615974426,0.0,0.0,-0.998041331768036,0.6236934661865234
-0.1860228478908538,0.5961994528770447,0.1940707862377166,-0.4370869398117065,-0.1917309761047363,0.2863240838050842,0.0,0.0,-0.994894564151764,0.6908018589019775
-0.183777242898941,0.586146354675293,0.2111832797527313,-0.4451299607753753,-0.1782978922128677,0.2686617970466614,0.0,0.0,-0.9996377825737,0.449582576751709
-0.1814216673374176,0.5759295225143433,0.2216650247573852,-0.4524707794189453,-0.164373442530632,0.2784891128540039,0.0,0.0,-0.9995092153549194,0.0232034921646118
-0.1789555549621582,0.5655491352081299,0.2321588993072509,-0.4598130881786346,-0.1499414592981338,0.2886396646499634,0.0,0.0,-0.99982488155365,-0.237781286239624
-0.1763791143894195,0.5550056099891663,0.2426625043153762,-0.4671570658683777,-0.1349869519472122,0.299090027809143,0.0,0.0,-0.9999859929084778,0.6172506809234619
-0.1736315786838531,0.5442866086959839,0.2607303857803345,-0.47519451379776,-0.1210308223962783,0.2791226506233215,0.0,0.0,-0.9989618062973022,0.4092423915863037
-0.1707731187343597,0.5334043502807617,0.2712472379207611,-0.4825384020805359,-0.1065253540873527,0.2901091575622558,0.0,0.0,-0.9999035596847534,0.2931681871414184
-0.1678036749362945,0.5223590731620789,0.2817669808864593,-0.4898841977119446,-0.091458685696125,0.3013334274291992,0.0,0.0,-0.999780774116516,0.8516016006469727
-0.1646519601345062,0.5111477375030518,0.3011808693408966,-0.4974873661994934,-0.077602170407772,0.2771301567554474,0.0,0.0,-0.9997840523719788,0.4827637672424316
-0.1613890677690506,0.4997733831405639,0.3117003142833709,-0.5048328638076782,-0.0631632283329963,0.2887786626815796,0.0,0.0,-0.99955552816391,0.535236120223999
-0.157965749502182,0.4882258474826813,0.3283852338790893,-0.5126913189888,-0.0493777282536029,0.2757101356983185,0.0,0.0,-0.9997202157974244,0.5274578332901001
-0.154393196105957,0.4765111804008484,0.3436653614044189,-0.5202622413635254,-0.0359500050544738,0.2685545682907104,0.0,0.0,-0.9987817406654358,-0.6398010849952698
-0.1507526338100433,0.4646438658237457,0.3487292826175689,-0.5271382331848145,-0.0208189357072114,0.3026209473609924,0.0,0.0,-0.9987831115722656,0.2528944015502929
-0.1470009833574295,0.4526146352291107,0.3592209219932556,-0.5344895720481873,-0.0050720321014523,0.3149381577968597,0.0,0.0,-0.9928674101829528,0.003529667854309
-0.143138125538826,0.4404237270355224,0.3697000741958618,-0.5418433547019958,0.0112975239753723,0.3273912668228149,0.0,0.0,-0.9921172857284546,0.4934972524642944
-0.1391643583774566,0.4280716180801391,0.3801645636558532,-0.5491998195648193,0.0282960217446088,0.3399699926376343,0.0,0.0,-0.9408450126647948,-0.1515454053878784
-0.1350796669721603,0.4155588150024414,0.3906120955944061,-0.5565588474273682,0.0459292419254779,0.3526646792888641,0.0,0.0,-0.8241162300109863,-0.0116001963615417
-0.1308844536542892,0.4028856158256531,0.4010404050350189,-0.5639206767082214,0.0642025768756866,0.3654666244983673,0.0,0.0,-0.8170483112335205,-0.3002208471298218
-0.1265788078308105,0.3900525569915771,0.4114470481872558,-0.5712853670120239,0.0831209793686866,0.3783678412437439,0.0,0.0,-0.78817218542099,-0.2840538024902344
-0.122163102030754,0.3770600855350494,0.4218296110630035,-0.57865309715271,0.1026890277862548,0.3913610577583313,0.0,0.0,-0.7254170179367065,-0.7902726531028748
-0.1177153587341308,0.3638955950736999,0.4224406778812408,-0.5867729187011719,0.1248812973499298,0.4438454210758209,0.0,0.0,0.2133482694625854,-0.1551078557968139
-0.1131467819213867,0.3513740301132202,0.4335537552833557,-0.5586283206939697,0.1480911076068878,0.464196503162384,0.0,0.0,0.3189761638641357,0.5992987155914307
-0.1084122657775878,0.3391498923301697,0.4506595730781555,-0.5457172989845276,0.1708708852529525,0.4555955529212951,0.0,0.0,0.2499284744262695,0.4176318645477295
-0.1035593971610069,0.3276506662368774,0.4614154696464538,-0.5139980912208557,0.1948231905698776,0.4790463447570801,0.0,0.0,0.6093089580535889,0.2153844833374023
-0.0987670868635177,0.3171018362045288,0.4549243450164795,-0.4722228646278381,0.2193406820297241,0.490349531173706,0.0,0.0,-0.079373300075531,0.7878704071044922
-0.0937937721610069,0.3064312934875488,0.4744247794151306,-0.477816641330719,0.2425599843263626,0.4643862247467041,0.0,0.0,0.5660440921783447,0.8898245096206665
-0.0886986702680587,0.296459287405014,0.487725019454956,-0.4469503164291382,0.2647638320922851,0.4440774321556091,0.0,0.0,0.2335419654846191,0.6161969900131226
-0.0836169272661209,0.2872359156608581,0.4870970249176025,-0.4138831794261932,0.2863816618919372,0.4323568344116211,0.0,0.0,0.4409343004226684,0.2881230115890503
-0.0785728469491005,0.2788671255111694,0.4825662970542907,-0.3763923645019531,0.3089240193367004,0.4508472979068756,0.0,0.0,0.5500108003616333,0.7119463682174683
-0.0734214782714843,0.2710171341896057,0.49404376745224,-0.3535292446613312,0.3308573067188263,0.4386658072471618,0.0,0.0,0.4609901905059814,0.3096365928649902
-0.0684458762407302,0.2637342512607574,0.476448118686676,-0.3286772966384887,0.3529748618602752,0.4423511624336242,0.0,0.0,0.7948002815246582,0.2390528917312622
-0.0636910423636436,0.2570104300975799,0.4544959962368011,-0.3041495382785797,0.3751341104507446,0.4431850910186767,0.0,0.0,0.6187136173248291,0.3560769557952881
-0.0590558052062988,0.2508904933929443,0.442168653011322,-0.2777724862098694,0.3978843986988067,0.4550054967403412,0.0,0.0,0.6527312994003296,0.3336836099624634
-0.0545019134879112,0.2453687041997909,0.4334807395935058,-0.2517315447330475,0.4214452505111694,0.4712171554565429,0.0,0.0,0.800337553024292,0.6245983839035034
-0.0498222336173057,0.2403474003076553,0.4465047419071197,-0.2297649383544922,0.4447857141494751,0.4668094217777252,0.0,0.0,0.694840669631958,0.3242999315261841
-0.0452548041939735,0.2361863255500793,0.4344682693481445,-0.192217081785202,0.4692825675010681,0.4899365901947021,0.0,0.0,-0.132530927658081,0.5087885856628418
-0.0405537597835063,0.2319039404392242,0.4484727382659912,-0.1978391706943512,0.4933567345142364,0.4814830720424652,0.0,0.0,0.1464173793792724,0.6323604583740234
