x_pos,y_pos,x_vel,y_vel,angle,ang_vel,leg_1,leg_2,main_booster,lat_booster
-0.0015229225391522,1.4035120010375977,-0.1549969613552093,-0.3292508721351623,0.0024288611020892,0.0479607619345188,0.0,0.0,0.625705369337781,0.6952969729742762
-0.0029361725319176,1.3966925144195557,-0.1431225836277008,-0.3030947148799896,0.0041947164572775,0.0353212095797061,0.0,0.0,-0.2391405454923487,0.91984230049287
-0.0042614936828613,1.3897535800933838,-0.1327036470174789,-0.3083909451961517,0.0043704584240913,0.0035154533106833,0.0,0.0,-0.524644616339786,-0.8549001207098427
-0.0056679723784327,1.3826990127563477,-0.1434958279132843,-0.3135457634925842,0.0071905157528817,0.0564060807228088,0.0,0.0,-0.776568909798802,0.8891984817632214
-0.006990909576416,1.3755359649658203,-0.1335974037647247,-0.3183722496032715,0.0084785670042037,0.0257632583379745,0.0,0.0,-0.2068426154140277,-0.7154977688822897
-0.0083592412993311,1.368258714675903,-0.139837771654129,-0.3234501481056213,0.0114521048963069,0.0594763569533824,0.0,0.0,0.6871158826134036,-0.9827955341458308
-0.0098402025178074,1.3617520332336426,-0.1536038517951965,-0.2892340719699859,0.0169063750654459,0.1090950369834899,0.0,0.0,0.7280234251738051,-0.9312507869973732
-0.011234569363296,1.3561537265777588,-0.1476733833551406,-0.2489284873008728,0.0250477790832519,0.1628430187702179,0.0,0.0,0.8544236699781018,-0.8019525970560668
-0.0127345081418752,1.351858377456665,-0.1603336930274963,-0.1911092102527618,0.0352797619998455,0.2046588212251663,0.0,0.0,0.5971028831299916,-0.6104018204838901
-0.0143126491457223,1.348505973815918,-0.169898584485054,-0.1493169218301773,0.0472346320748329,0.2391192466020584,0.0,0.0,-0.8940863993280219,-0.9661286427789844
-0.0159612651914358,1.3450398445129397,-0.1790917366743087,-0.1545599848031997,0.0613251104950904,0.2818351089954376,0.0,0.0,-0.2467685761271261,-0.9966183997884658
-0.0176849365234375,1.3414565324783323,-0.188824251294136,-0.1600207835435867,0.0776316300034523,0.3261605203151703,0.0,0.0,-0.98525781564645,0.7082428521113844
-0.0193477626889944,1.3377758264541626,-0.1814484298229217,-0.1644438952207565,0.092672199010849,0.3008391261100769,0.0,0.0,0.9491659338070216,-0.6586632846333119
-0.0210208892822265,1.334611177444458,-0.1844363361597061,-0.1418016105890274,0.1096792891621589,0.340173065662384,0.0,0.0,-0.3589463506611559,0.6241417857862143
-0.0226422306150198,1.3313543796539309,-0.178072914481163,-0.1459931284189224,0.1255420744419098,0.3172846436500549,0.0,0.0,-0.1082948393011975,-0.8587925713090776
-0.0243263244628906,1.3279690742492676,-0.1860863417387008,-0.1520423740148544,0.1431733816862106,0.3526585698127746,0.0,0.0,0.5251524600854585,0.6896095927395905
-0.0259411819279193,1.325697660446167,-0.1783585101366043,-0.1026618033647537,0.1600388288497924,0.3373400270938873,0.0,0.0,0.008509703895845,0.6536714462175096
-0.0274530407041311,1.3236867189407349,-0.1671156138181686,-0.0911617949604988,0.1760014146566391,0.3192809522151947,0.0,0.0,0.1567039283215108,0.8736255878862506
-0.0289292335510253,1.322443962097168,-0.1620539724826812,-0.057008471339941,0.1905148327350616,0.2902947068214416,0.0,0.0,-0.8438018928141984,-0.9497752832072506
-0.0304999351501464,1.3210678100585938,-0.1738320291042328,-0.063407078385353,0.2074221074581146,0.3381755650043487,0.0,0.0,-0.4765213100373995,-0.8370605779771717
-0.0321343429386615,1.3195734024047852,-0.1816515922546386,-0.0690688267350196,0.2258477360010147,0.3685453534126282,0.0,0.0,0.0581436541583522,-0.6276148362237428
-0.0338844284415245,1.3183687925338743,-0.1945535391569137,-0.056652370840311,0.245712324976921,0.3973281383514404,0.0,0.0,-0.029120042335859,0.9427295391588932
-0.035560131072998,1.31708824634552,-0.1848791241645813,-0.0599108524620533,0.2633904218673706,0.353593647480011,0.0,0.0,0.44169300970477,-0.6391477807525396
-0.0373035445809364,1.3160935640335083,-0.1930466145277023,-0.0476813875138759,0.2825914919376373,0.3840562105178833,0.0,0.0,-0.8689463403253486,-0.6982389265159059
-0.0391272529959678,1.314965009689331,-0.202723428606987,-0.0542364194989204,0.3035919368267059,0.420045793056488,0.0,0.0,0.97752082673819,0.9674347133513432
-0.0413261428475379,1.314867377281189,-0.2379336059093475,-0.0082223275676369,0.3223027288913727,0.3742167353630066,0.0,0.0,0.0454688319176681,-0.8713277445720022
-0.0437494292855262,1.3152897357940674,-0.2619379162788391,0.0142817646265029,0.3427655100822449,0.4092563688755035,0.0,0.0,0.2266454214835997,-0.9462129135158228
-0.0465737357735633,1.3163857460021973,-0.3036344051361084,0.0435009412467479,0.3650687336921692,0.4460644125938415,0.0,0.0,0.5933017135273007,-0.9904698488716406
-0.0498896613717079,1.31831157207489,-0.3542921245098114,0.0796198025345802,0.389162540435791,0.4818759858608246,0.0,0.0,0.047702754374014,0.7896556991367736
-0.0532964691519737,1.320583701133728,-0.361524224281311,0.0951246172189712,0.411494642496109,0.4466422498226166,0.0,0.0,0.3140760051585289,-0.7376051023440073
-0.0570304878056049,1.323657751083374,-0.3953090310096741,0.1300621926784515,0.4352003633975982,0.4741136133670807,0.0,0.0,0.2527874562263057,-0.9468894558695746
-0.0610509887337684,1.326982021331787,-0.4253235757350921,0.1403257101774215,0.4606672823429107,0.5093384981155396,0.0,0.0,-0.2046151466934054,0.9595581808836532
-0.065035343170166,1.3302510976791382,-0.4196363389492035,0.1380858570337295,0.4841556251049042,0.469767153263092,0.0,0.0,0.818891001361183,-0.774957241840694
-0.069343090057373,1.3338381052017212,-0.4527918398380279,0.1514884829521179,0.5088673233985901,0.4942326545715332,0.0,0.0,0.461227471294539,-0.874530800622087
-0.0739870071411132,1.3380086421966553,-0.4874939918518066,0.1765221953392028,0.5351458191871643,0.5255703330039978,0.0,0.0,-0.3385123374830052,-0.9038680278249772
-0.0787130370736122,1.3420262336730957,-0.4966420531272888,0.1687822490930557,0.5629521012306213,0.5561261773109436,0.0,0.0,-0.6109102907927377,0.9332937508143916
-0.0833993926644325,1.3459882736206057,-0.4903729856014251,0.1667236238718032,0.5885048508644104,0.5110565423965454,0.0,0.0,0.1126036066774789,0.9544066265890592
-0.0883069038391113,1.3505744934082031,-0.5100806951522827,0.1950356662273407,0.6116028428077698,0.4619613587856293,0.0,0.0,0.2124188091950081,-0.8861818508970307
-0.0936777144670486,1.355730652809143,-0.557317852973938,0.2194796055555343,0.6361884474754333,0.4917126297950744,0.0,0.0,0.5398215590048463,0.7749791372391491
-0.099334716796875,1.361540675163269,-0.5839018225669861,0.2490709125995636,0.6587031483650208,0.4502945840358734,0.0,0.0,0.0170141401241528,0.7410506513399645
-0.1053226441144943,1.3677958250045776,-0.6150450110435486,0.2694704234600067,0.6791214942932129,0.4083686470985412,0.0,0.0,-0.9925326108932496,0.9985346794128418
-0.1112572699785232,1.3740242719650269,-0.6070230603218079,0.269406795501709,0.6964322328567505,0.3462150394916534,0.0,0.0,-0.9800432324409484,0.990707278251648
-0.1171382889151573,1.380216121673584,-0.5991572141647339,0.2689396739006042,0.7107369899749756,0.2860954403877258,0.0,0.0,-0.995123028755188,0.9994924068450928
-0.1229690536856651,1.3863788843154907,-0.5916630029678345,0.2689290940761566,0.7219629883766174,0.2245195806026458,0.0,0.0,-0.9947178959846495,0.9998916387557985
-0.1287589073181152,1.3924882411956787,-0.5855439901351929,0.2676457166671753,0.7306185960769653,0.1731127500534057,0.0,0.0,-0.9918014407157898,0.9997469186782836
-0.1345003098249435,1.3985564708709717,-0.5784659385681152,0.2671016454696655,0.7363618016242981,0.1148644685745239,0.0,0.0,-0.9997633695602416,0.9974780082702636
-0.140194222331047,1.4045885801315308,-0.5714526772499084,0.2668504118919372,0.7391161918640137,0.0550873354077339,0.0,0.0,-0.9987750053405762,0.9851627349853516
-0.1458647698163986,1.4105734825134275,-0.5673419237136841,0.2658161520957947,0.7394996285438538,0.0076687834225595,0.0,0.0,-0.9982803463935852,0.9977049827575684
-0.1515123397111892,1.4165074825286863,-0.5633001923561096,0.2646213173866272,0.7375547289848328,-0.0388978756964206,0.0,0.0,-0.9771910905838012,0.9402087926864624
-0.1571239531040191,1.42239248752594,-0.5577506422996521,0.2636169493198395,0.7330036759376526,-0.0910214036703109,0.0,0.0,-0.9991382956504822,0.9525537490844728
-0.1626850068569183,1.428251028060913,-0.5502349138259888,0.2638821601867676,0.7252278327941895,-0.1555174142122268,0.0,0.0,-0.9959276914596558,0.8253271579742432
-0.1682225167751312,1.434053897857666,-0.5461022853851318,0.2623846530914306,0.7151730060577393,-0.2010959684848785,0.0,0.0,-0.994706690311432,0.1433557271957397
-0.1737769097089767,1.4397398233413696,-0.5472496747970581,0.2574136853218078,0.704497218132019,-0.2135161459445953,0.0,0.0,-0.9696567058563232,0.7872240543365479
-0.1793049871921539,1.4453742504119873,-0.5426641702651978,0.2560912668704986,0.691430389881134,-0.26133593916893,0.0,0.0,-0.997089982032776,-0.1459043025970459
-0.184849739074707,1.450892448425293,-0.5437239408493042,0.2511156499385834,0.6777263879776001,-0.2740814983844757,0.0,0.0,-0.990117371082306,-0.4548013210296631
-0.19041109085083,1.4562948942184448,-0.5447374582290649,0.2461385875940323,0.6633778214454651,-0.2869717180728912,0.0,0.0,-0.999786138534546,0.6950597763061523
-0.1959423124790191,1.4616445302963257,-0.5396600961685181,0.2446685433387756,0.6466084718704224,-0.3353877067565918,0.0,0.0,-0.99815571308136,0.6142815351486206
-0.2014441937208175,1.4669346809387207,-0.5346695780754089,0.2427919059991836,0.6275317072868347,-0.3815349340438843,0.0,0.0,-0.9953590035438538,-0.3598837852478027
-0.206962302327156,1.472111463546753,-0.5355185866355896,0.2378012984991073,0.6077921390533447,-0.3947916328907013,0.0,0.0,-0.9998906254768372,-0.3266189098358154
-0.2124961912631988,1.477174997329712,-0.5363101363182068,0.2328079044818878,0.5873844623565674,-0.4081531167030334,0.0,0.0,-0.9956600069999696,-0.3943247199058532
-0.2180455178022384,1.4821258783340454,-0.5370413661003113,0.2278116047382354,0.5663039088249207,-0.4216113984584808,0.0,0.0,-0.9953153133392334,-0.5953589081764221
-0.2236563712358474,1.4869232177734375,-0.5436502695083618,0.2204570323228836,0.5460270643234253,-0.4055366516113281,0.0,0.0,-0.9973517060279846,0.3713899850845337
-0.2292814254760742,1.4916081428527832,-0.5442572236061096,0.2154587209224701,0.5250685811042786,-0.4191696047782898,0.0,0.0,-0.9989838004112244,-0.6105303168296814
-0.234959989786148,1.4961475133895874,-0.5498746633529663,0.2085421681404113,0.504667341709137,-0.4080255925655365,0.0,0.0,-0.9950241446495056,-0.7653563022613525
-0.2407010495662689,1.5005266666412354,-0.5567401051521301,0.2008985579013824,0.4851807653903961,-0.3897320926189422,0.0,0.0,-0.9975413084030152,-0.4797011613845825
-0.2464541494846344,1.5047938823699951,-0.5571415424346924,0.1958988755941391,0.46500164270401,-0.4035823941230774,0.0,0.0,-0.9966410994529724,-0.6329227089881897
-0.252263605594635,1.5089235305786133,-0.5631106495857239,0.1893753409385681,0.4453945457935333,-0.3921421468257904,0.0,0.0,-0.9933938384056092,-0.5278375148773193
-0.2581139206886291,1.512912631034851,-0.5672706365585327,0.1828179061412811,0.4260489642620086,-0.386911392211914,0.0,0.0,-0.9993879795074464,-0.4368350505828857
-0.2639739513397217,1.5167900323867798,-0.5674417614936829,0.1778150349855423,0.4060023427009582,-0.4009328484535217,0.0,0.0,-0.996101975440979,-0.8832239508628845
-0.2699155211448669,1.5205049514770508,-0.5767547488212585,0.1699784398078918,0.3873719573020935,-0.3726079761981964,0.0,0.0,-0.9997142553329468,-0.0607953667640686
-0.275865226984024,1.5241081714630127,-0.5767616033554077,0.1649752110242843,0.3680357933044433,-0.3867233395576477,0.0,0.0,-0.9955606460571288,-0.6112997531890869
-0.2818648815155029,1.527576565742493,-0.5820873975753784,0.1586336195468902,0.3491834998130798,-0.3770466446876526,0.0,0.0,-0.9860174655914308,-0.5950116515159607
-0.2879257798194885,1.530910611152649,-0.5888155102729797,0.1522684246301651,0.3310945630073547,-0.3617795407772064,0.0,0.0,-0.9828843474388124,-0.4566738605499267
-0.2939919829368591,1.5341334342956543,-0.5885597467422485,0.1472631990909576,0.3122941851615906,-0.3760078549385071,0.0,0.0,-0.9989798069000244,-0.6519094705581665
-0.3001131415367126,1.5372154712677002,-0.5946172475814819,0.1406381279230117,0.294189453125,-0.3620953559875488,0.0,0.0,-0.99459308385849,-0.2361292839050293
-0.3062378466129303,1.5401865243911743,-0.5941776633262634,0.1356305181980133,0.2753703594207763,-0.3763819336891174,0.0,0.0,-0.96611487865448,-0.2971326112747192
-0.3123652040958404,1.5430471897125244,-0.5936434268951416,0.1306195855140686,0.2558357715606689,-0.3906920552253723,0.0,0.0,-0.9923387169837952,0.0483369827270507
-0.3184942603111267,1.5457983016967771,-0.5930137038230896,0.1256051659584045,0.2355846613645553,-0.405022531747818,0.0,0.0,-0.9991694092750548,-0.518020749092102
-0.3246594071388244,1.5484323501586914,-0.5967063307762146,0.1201164424419403,0.2155179381370544,-0.4013344645500183,0.0,0.0,-0.9780895709991456,-0.3203577995300293
-0.3308243751525879,1.550957202911377,-0.595885157585144,0.115097664296627,0.1947330236434936,-0.4156982004642486,0.0,0.0,-0.9852119088172911,-0.317996084690094
-0.3369881510734558,1.5533738136291504,-0.5949674844741821,0.1100751087069511,0.17322938144207,-0.4300731718540191,0.0,0.0,-0.9768891334533693,-0.4832143187522888
-0.3431498110294342,1.5556825399398804,-0.593953549861908,0.1050486341118812,0.1510065644979477,-0.444456398487091,0.0,0.0,-0.9813618659973145,-0.6064178347587585
-0.3493637442588806,1.5578707456588743,-0.5997990369796753,0.0993102043867111,0.1294815987348556,-0.4304993748664856,0.0,0.0,-0.9422163367271424,-0.2915761470794678
-0.3555734157562256,1.5599517822265625,-0.5985952615737915,0.0942807644605636,0.1072370037436485,-0.444892406463623,0.0,0.0,-0.979308009147644,0.3359447717666626
-0.3617779612541199,1.561926007270813,-0.5972970724105835,0.0892472490668296,0.0842728093266487,-0.4592841267585754,0.0,0.0,-0.7214837670326233,-0.4066061973571777
-0.3679762780666351,1.5637942552566528,-0.5959059000015259,0.0842095389962196,0.0605892688035965,-0.4736711382865906,0.0,0.0,-0.9003461599349976,0.6358680725097656
-0.374114990234375,1.5655559301376345,-0.5878469944000244,0.0791544839739799,0.0348725765943527,-0.514333963394165,0.0,0.0,-0.6599558591842651,0.714381217956543
-0.3801800608634949,1.5672128200531006,-0.5780799984931946,0.0740602687001228,0.006798340473324,-0.5614850521087646,0.0,0.0,-0.9638676643371582,-0.6290541291236877
-0.3862735331058502,1.5687670707702637,-0.5811392068862915,0.0689667984843254,-0.0210477448999881,-0.5569217801094055,0.0,0.0,-0.9697721600532532,-0.893933117389679
-0.3924111425876617,1.5702139139175415,-0.586223304271698,0.0636925846338272,-0.0482443310320377,-0.5439319014549255,0.0,0.0,-0.7966641187667847,-0.6650592088699341
-0.3985902667045593,1.5715670585632324,-0.5910373330116272,0.059058129787445,-0.0748196095228195,-0.531505823135376,0.0,0.0,-0.9684475660324096,-0.097788393497467
-0.4047569632530212,1.5728179216384888,-0.5891273617744446,0.0539957024157047,-0.1021089851856231,-0.5457879304885864,0.0,0.0,-0.6611357927322388,-0.1207874417304992
-0.4109101891517639,1.5739675760269165,-0.5871391296386719,0.0489285513758659,-0.1301108449697494,-0.5600375533103943,0.0,0.0,-0.7485341429710388,-0.5250670313835144
-0.4170836508274078,1.5750174522399902,-0.5894275307655334,0.0439886450767517,-0.1579527556896209,-0.5568385124206543,0.0,0.0,-0.4860141277313232,-0.3347600698471069
-0.4232415556907654,1.5759668350219729,-0.5872905850410461,0.0389160849153995,-0.1865033209323883,-0.5710116624832153,0.0,0.0,-0.3455492258071899,-0.6703870892524719
-0.4294266700744629,1.5768364667892456,-0.5906088948249817,0.034896295517683,-0.2145987451076507,-0.5619088411331177,0.0,0.0,-0.718024492263794,-0.8073474764823914
-0.4356589913368225,1.5776264667510986,-0.5964769124984741,0.0309901814907789,-0.2417106181383133,-0.5422374606132507,0.0,0.0,-0.7359737157821655,-0.8760776519775391
-0.4419527947902679,1.5783525705337524,-0.6042043566703796,0.0279382728040218,-0.2673830091953277,-0.5134474039077759,0.0,0.0,-0.7365963459014893,-0.8251502513885498
-0.4482805728912353,1.5790033340454102,-0.6084886789321899,0.0242839995771646,-0.2923203110694885,-0.498745858669281,0.0,0.0,-0.4915391206741333,-0.831434965133667
-0.4546557366847992,1.5795881748199463,-0.614519476890564,0.0212025176733732,-0.3161067962646484,-0.4757297933101654,0.0,0.0,-0.6437246203422546,-0.8805533051490784
-0.4610841870307922,1.5801130533218384,-0.6213205456733704,0.0184698067605495,-0.3385355770587921,-0.4485757946968078,0.0,0.0,-0.7889735102653503,-0.7270843386650085
-0.4675484597682953,1.5805619955062866,-0.6258857846260071,0.0149758849292993,-0.3601053357124328,-0.4313951432704925,0.0,0.0,-0.798929750919342,-0.8683715462684631
-0.4740673005580902,1.5809509754180908,-0.6328678131103516,0.0123763559386134,-0.3802284598350525,-0.4024627804756164,0.0,0.0,-0.5619735717773438,-0.852397084236145
-0.4806423187255859,1.581279993057251,-0.640056312084198,0.0098652858287096,-0.3988371193408966,-0.3721731305122375,0.0,0.0,-0.3915497064590454,-0.7697179317474365
-0.4872395396232605,1.5815372467041016,-0.6430073380470276,0.0066365385428071,-0.4168022274971008,-0.3593021035194397,0.0,0.0,-0.1213866472244262,-0.8776916265487671
-0.4938724040985107,1.5817201137542725,-0.6475900411605835,0.0033929874189198,-0.4338107407093048,-0.3401710093021393,0.0,0.0,-0.1530190706253051,-0.9367274045944214
-0.5005303621292114,1.581839084625244,-0.6509687304496765,0.0006234588799998,-0.4499920606613159,-0.3236263394355774,0.0,0.0,0.1192598342895507,-0.9058680534362792
-0.5070136785507202,1.5826271772384644,-0.6347562074661255,0.0305808465927839,-0.4649278223514557,-0.2987159490585327,0.0,0.0,0.2663135528564453,-0.944442868232727
-0.513128399848938,1.584161400794983,-0.5992351174354553,0.0640309378504753,-0.4784831702709198,-0.2711061537265777,0.0,0.0,-0.2920724749565124,-0.9566428065299988
-0.51927649974823,1.5856341123580933,-0.6036534309387207,0.0615469068288803,-0.4909270703792572,-0.2488772571086883,0.0,0.0,0.2294859886169433,-0.9103100895881652
-0.5251785516738892,1.5878664255142212,-0.5802622437477112,0.0956315472722053,-0.5020782351493835,-0.2230237424373626,0.0,0.0,-0.0793905854225158,-0.8556037545204163
-0.5311053991317749,1.5900413990020752,-0.5837061405181885,0.0933470502495765,-0.5122218728065491,-0.2028732001781463,0.0,0.0,0.0132761001586914,-0.8913484215736389
-0.5368798971176147,1.592481017112732,-0.5696014165878296,0.1054527461528778,-0.5211303234100342,-0.1781690716743469,0.0,0.0,-0.114311397075653,-0.9081706404685974
-0.5427020192146301,1.59487783908844,-0.5758910775184631,0.1040896400809288,-0.5283312797546387,-0.144020527601242,0.0,0.0,-0.2615491151809692,-0.7002781629562378
-0.548555850982666,1.5972152948379517,-0.5801383256912231,0.1018306761980056,-0.5343329310417175,-0.1200346574187278,0.0,0.0,-0.3237150907516479,-0.3903437852859497
-0.5543832778930664,1.5994447469711304,-0.577000081539154,0.0968040153384208,-0.5409254431724548,-0.1318501085042953,0.0,0.0,-0.3681663274765014,-0.6591818928718567
-0.5602264404296875,1.6016029119491575,-0.5792597532272339,0.0938844978809356,-0.546757698059082,-0.1166453957557678,0.0,0.0,-0.1818811297416687,-0.7184741497039795
-0.5660823583602905,1.603681564331055,-0.5810847878456116,0.090548999607563,-0.5519705414772034,-0.1042568460106849,0.0,0.0,-0.1535388827323913,-0.8302224278450012
-0.571955680847168,1.605697751045227,-0.5836477875709534,0.0880837887525558,-0.5562502145767212,-0.0855928733944892,0.0,0.0,0.1445540189743042,-0.668662965297699
-0.5775316953659058,1.608348369598389,-0.554702639579773,0.1166012585163116,-0.5596157908439636,-0.0673115402460098,0.0,0.0,-0.5383235812187195,-0.6905878782272339
-0.5831233263015747,1.61092209815979,-0.5569410920143127,0.1134624183177948,-0.5622060894966125,-0.0518063083291053,0.0,0.0,-0.4494659900665283,-0.3176762461662292
