x_pos,y_pos,x_vel,y_vel,angle,ang_vel,leg_1,leg_2,main_booster,lat_booster
-0.0015687942504882,1.4029433727264404,-0.1585690230131149,-0.3545234799385071,0.0015097564319148,0.0297628976404666,0.0,0.0,0.1235953295946663,-0.6376872514966505
-0.0031937598250806,1.3947761058807373,-0.1650270819664001,-0.3629949986934662,0.0040144422091543,0.050099141895771,0.0,0.0,-0.5361868481869747,0.611488609209137
-0.0048045157454907,1.3859230279922483,-0.1618321239948272,-0.3934734463691711,0.0047558574005961,0.0148297492414712,0.0,0.0,0.9951442522610884,0.852962956339525
-0.0065522193908691,1.3772902488708496,-0.1731724143028259,-0.3836693465709686,0.0031720413826406,-0.0316792950034141,0.0,0.0,-0.9041450347904672,0.7827308832710852
-0.0082686422392725,1.3679794073104858,-0.1678611189126968,-0.4138208329677582,-0.0005680209724232,-0.0748085603117942,0.0,0.0,-0.3820991744327735,0.9746661363825644
-0.0099337575957179,1.3579860925674438,-0.1600584089756012,-0.4441578090190887,-0.0069484701380133,-0.1276204735040664,0.0,0.0,0.6868528198632151,0.7572376894010859
-0.0116025926545262,1.3481967449188232,-0.1585877686738968,-0.4351497888565063,-0.0151496948674321,-0.1640397012233734,0.0,0.0,-0.3461542623471103,-0.8339382113789144
-0.0133623126894235,1.3377301692962646,-0.1686628460884094,-0.4652641415596008,-0.0223712604492902,-0.1444447040557861,0.0,0.0,-0.0569804300480203,0.6314385864610857
-0.0151141164824366,1.3265889883041382,-0.1663662493228912,-0.4953239560127258,-0.03107719309628,-0.1741349399089813,0.0,0.0,0.7014513589496634,0.8277276308218817
-0.0168182365596294,1.3158916234970093,-0.1597014367580413,-0.4756939709186554,-0.041676115244627,-0.2119981944561004,0.0,0.0,0.3208559778318609,-0.6782111669430759
-0.0185188297182321,1.3052256107330322,-0.1605943888425827,-0.4743293523788452,-0.0510412715375423,-0.1873203366994857,0.0,0.0,0.2030187282343207,0.8222742043251182
-0.0201147086918354,1.2944450378417969,-0.148296058177948,-0.4795523583889007,-0.0622257739305496,-0.223710298538208,0.0,0.0,0.212575801778813,0.9384161304023289
-0.0215310100466012,1.28374183177948,-0.1282817274332046,-0.4763118922710418,-0.0754530504345893,-0.2645696997642517,0.0,0.0,0.4310086337955503,0.9367528777258964
-0.0228197090327739,1.272795557975769,-0.1135028451681137,-0.4873474240303039,-0.0906976386904716,-0.3049201369285583,0.0,0.0,-0.1506906751511219,0.853273317211658
-0.0240610130131244,1.26116943359375,-0.1064700931310653,-0.5178803205490112,-0.1082473993301391,-0.3510274291038513,0.0,0.0,-0.7120271822682198,0.8449409825178801
-0.0252596847712993,1.2488446235656738,-0.100029245018959,-0.5493314862251282,-0.1279937773942947,-0.394963651895523,0.0,0.0,-0.7758410344953433,0.8779708989724351
-0.0264068599790334,1.2358386516571045,-0.0925808921456337,-0.580096960067749,-0.1500808745622635,-0.4417825639247894,0.0,0.0,0.3155108090931846,-0.9090687417442012
-0.0274848937988281,1.2225793600082395,-0.0874620303511619,-0.5914785265922546,-0.1704390347003936,-0.4072000086307525,0.0,0.0,0.8065627940720661,0.8478372617216354
-0.0282635688781738,1.2099037170410156,-0.0559664480388164,-0.5660216808319092,-0.1924409717321396,-0.4400790631771087,0.0,0.0,-0.1695964709967246,-0.7417670980336151
-0.0291378982365131,1.1965715885162354,-0.0671409592032432,-0.5953034162521362,-0.2129185646772384,-0.409588098526001,0.0,0.0,-0.824919783012596,-0.6542599124745654
-0.0300809852778911,1.1825814247131348,-0.0749735161662101,-0.6246861219406128,-0.2325076758861541,-0.3918178081512451,0.0,0.0,-0.2462375681637045,0.849474524958717
-0.030986975878477,1.1678876876831057,-0.0695013105869293,-0.656527578830719,-0.2539835274219513,-0.429555594921112,0.0,0.0,0.1065439289486327,-0.948109199933284
-0.031801413744688,1.1530358791351318,-0.062206245958805,-0.6635257601737976,-0.2736760973930359,-0.3938873410224914,0.0,0.0,-0.3368745362368284,0.995098502007684
-0.0325599685311317,1.1374627351760864,-0.0544250980019569,-0.696306049823761,-0.2957403361797333,-0.4413245618343353,0.0,0.0,-0.9364960804919278,0.8213594673117124
-0.0332954414188861,1.1211957931518557,-0.0509539954364299,-0.7277446389198303,-0.3191709816455841,-0.4686550199985504,0.0,0.0,-0.0628999285167868,0.7917305273619057
-0.0340133681893348,1.1042165756225586,-0.0480961799621582,-0.7600526809692383,-0.343902051448822,-0.4946209490299225,0.0,0.0,-0.1326756563908797,0.9981164705787672
-0.0346779823303222,1.0865305662155151,-0.0409722924232482,-0.7923569083213806,-0.3707489669322967,-0.5369383096694946,0.0,0.0,-0.4379679256892683,-0.6457769769552651
-0.0354196541011333,1.0682120323181152,-0.0504120700061321,-0.8205217123031616,-0.3960194289684295,-0.505409300327301,0.0,0.0,-0.5285341637615992,0.8082112099740553
-0.0361335761845111,1.049198031425476,-0.0466561168432235,-0.8521879315376282,-0.4226220250129699,-0.5320518016815186,0.0,0.0,-0.6573245985963037,0.8875575673044928
-0.0368055328726768,1.029468059539795,-0.0411068014800548,-0.8849782943725586,-0.4510233998298645,-0.568027675151825,0.0,0.0,-0.6902289755627191,-0.8549133353634205
-0.0375498756766319,1.0091168880462646,-0.0502732023596763,-0.912531554698944,-0.4776785969734192,-0.5331036448478699,0.0,0.0,-0.0461487099391395,-0.9364177536523428
-0.0383852943778038,0.98814457654953,-0.0617067515850067,-0.939849019050598,-0.5021020770072937,-0.4884691834449768,0.0,0.0,0.7053581044569837,-0.6464425395227269
-0.0389608368277549,0.9676936864852904,-0.0370410569012165,-0.9166206121444702,-0.5253225564956665,-0.4644096791744232,0.0,0.0,-0.0708198193796068,-0.6335875474650293
-0.0395996086299419,0.9466033577919006,-0.0449832752346992,-0.9448209404945374,-0.547012448310852,-0.4337978363037109,0.0,0.0,0.2245933068271097,-0.6425438212506949
-0.0400406830012798,0.9254618287086488,-0.0267021022737026,-0.9468432068824768,-0.5672417879104614,-0.4045867323875427,0.0,0.0,0.2449090521401549,0.8152540687615236
-0.0401185974478721,0.9043056964874268,0.0107731102034449,-0.9483278393745422,-0.5891085267066956,-0.4373350739479065,0.0,0.0,0.4515918930844085,-0.6175131090865695
-0.0400469787418842,0.8830299973487854,0.0243047699332237,-0.9533826112747192,-0.6095978021621704,-0.4097850322723388,0.0,0.0,-0.0911903667349105,-0.6885279704207286
-0.0400244705379009,0.8611238598823547,0.0179238803684711,-0.9810338616371156,-0.62856525182724,-0.3793494999408722,0.0,0.0,0.8369522089625263,0.8526586025288885
-0.039441205561161,0.8396679162979126,0.0752055794000625,-0.9619375467300416,-0.6493145823478699,-0.4149882793426513,0.0,0.0,0.7405264895509791,0.7677876640177553
-0.0384043678641319,0.8182170987129211,0.1214714869856834,-0.962560772895813,-0.6715290546417236,-0.4442899227142334,0.0,0.0,0.1678743785926599,0.6092457897147514
-0.0370574966073036,0.7967736124992371,0.1531641781330108,-0.9630375504493712,-0.6950197815895081,-0.4698151051998138,0.0,0.0,-0.3470359444618225,-0.9718571305274964
-0.0357621200382709,0.7747086882591248,0.1462087482213974,-0.9901260137557985,-0.7166352868080139,-0.4323101043701172,0.0,0.0,-0.1861847043037414,-0.992749571800232
-0.0345245376229286,0.7520202994346619,0.138621836900711,-1.0171551704406738,-0.7362377047538757,-0.3920467793941498,0.0,0.0,-0.2332196235656738,-0.9895899295806884
-0.0333387367427349,0.7287151217460632,0.1316709518432617,-1.0438216924667358,-0.7538044452667236,-0.3513350188732147,0.0,0.0,-0.0759022831916809,-0.9680454730987548
-0.0322195068001747,0.7048029899597168,0.1229753345251083,-1.0697762966156006,-0.7688716650009155,-0.3013442158699035,0.0,0.0,0.0203422307968139,-0.9718037247657776
-0.0309935566037893,0.680467426776886,0.1318061500787735,-1.0875869989395142,-0.7815913558006287,-0.254393994808197,0.0,0.0,0.2976181507110595,-0.9770449995994568
-0.0295391082763671,0.6558404564857483,0.1528226882219314,-1.0994518995285034,-0.791893482208252,-0.2060428857803344,0.0,0.0,-0.1058073043823242,-0.973358988761902
-0.0281435959041118,0.6306326985359192,0.1448258459568023,-1.1239278316497805,-0.799332857131958,-0.1487874090671539,0.0,0.0,0.1672967672348022,-0.986467182636261
-0.0264756195247173,0.6055304408073425,0.1702446937561035,-1.1180331707000732,-0.8042232990264893,-0.0978084877133369,0.0,0.0,-0.2195534110069275,-0.979657769203186
-0.0248636249452829,0.5798268914222717,0.1628500372171402,-1.1435260772705078,-0.8065704107284546,-0.046940878033638,0.0,0.0,0.1507760286331176,-0.9733589291572572
-0.0229347236454486,0.5538056492805481,0.192852035164833,-1.1564687490463257,-0.8065158724784851,0.0010902557987719,0.0,0.0,0.0848689079284668,-0.9675114154815674
-0.0207350738346576,0.5277363061904907,0.2181697785854339,-1.157390594482422,-0.8039574027061462,0.0511694140732288,0.0,0.0,0.086951732635498,-0.963738739490509
-0.018317986279726,0.5012718439102173,0.2382313013076782,-1.173800349235535,-0.7990177273750305,0.0987938418984413,0.0,0.0,0.2569417953491211,-0.942231297492981
-0.015507698059082,0.4748394191265106,0.2758003771305084,-1.1712195873260498,-0.7916540503501892,0.147273302078247,0.0,0.0,0.5952417850494385,-0.8976495862007141
-0.0122963907197117,0.4481196701526642,0.3141103684902191,-1.182842493057251,-0.7818228006362915,0.1966246664524078,0.0,0.0,0.619708776473999,-0.6531301736831665
-0.0088646886870265,0.4213673174381256,0.3349522948265075,-1.183605432510376,-0.7704379558563232,0.2276958525180816,0.0,0.0,0.7525763511657715,-0.6465553641319275
-0.0047948835417628,0.3947864770889282,0.3971943259239197,-1.1751220226287842,-0.7570632696151733,0.2674934566020965,0.0,0.0,0.7161154747009277,-0.9399067163467408
-0.0001728057832224,0.3682000637054443,0.4503751397132873,-1.1742688417434692,-0.7411007881164551,0.3192492723464966,0.0,0.0,0.905210018157959,-0.9692671298980712
0.0051169395446777,0.3419697284698486,0.5149856805801392,-1.157406449317932,-0.7225292325019836,0.3714313507080078,0.0,0.0,0.8438602685928345,-0.9894899725914
0.0108698848634958,0.316222071647644,0.5592309236526489,-1.1350727081298828,-0.701558530330658,0.4194136559963226,0.0,0.0,0.8498787879943848,-0.9933890104293824
0.0168855674564838,0.290276825428009,0.5831865668296814,-1.1429917812347412,-0.6780250072479248,0.4706707000732422,0.0,0.0,0.8969177007675171,-0.9993122220039368
0.0232582092285156,0.264792263507843,0.6166637539863586,-1.1218469142913818,-0.6521465182304382,0.5175691843032837,0.0,0.0,0.9441754817962646,-0.9991017580032348
0.0300764087587595,0.2392791658639907,0.6585747003555298,-1.122396469116211,-0.6235561966896057,0.5718060731887817,0.0,0.0,0.9730193614959716,-0.9999715089797974
0.0372963920235633,0.2140253335237503,0.6961566209793091,-1.1103603839874268,-0.5924375057220459,0.6223737001419067,0.0,0.0,0.8912935256958008,-0.9988420009613036
0.0447259917855262,0.1887213140726089,0.7144548892974854,-1.1122444868087769,-0.5588535070419312,0.6716803312301636,0.0,0.0,0.854198694229126,-0.9986352920532228
0.0523234382271766,0.16377654671669,0.7286520004272461,-1.0961531400680542,-0.5230235457420349,0.71659916639328,0.0,0.0,0.5162782669067383,-0.9992669820785522
0.0602827072143554,0.1392367631196975,0.7619935274124146,-1.0781265497207642,-0.4847250282764435,0.765970766544342,0.0,0.0,0.4455310106277466,-0.9988697171211244
0.0683755874633789,0.1143583133816719,0.7724165320396423,-1.093331217765808,-0.4439808130264282,0.8148847818374634,0.0,0.0,0.41425621509552,-0.999405026435852
0.0767538100481033,0.0898516476154327,0.7979642748832703,-1.077170968055725,-0.4008046984672546,0.8635227084159851,0.0,0.0,0.385430097579956,-0.9999089241027832
0.0851443260908126,0.0653299689292907,0.7962394952774048,-1.0784419775009155,-0.3552892804145813,0.910309672355652,0.0,0.0,0.7439277172088623,-0.997613787651062
0.0936237350106239,0.0412596091628074,0.8022345304489136,-1.059226393699646,-0.3075391352176666,0.9550033807754515,0.0,0.0,0.8920472860336304,-0.9902280569076538
0.1022968292236328,0.0175754874944686,0.8185593485832214,-1.0430995225906372,-0.2573918104171753,1.0029479265213013,1.0,0.0,0.134303331375122,-0.8128427863121033
0.1108273491263389,-0.004565002862364,0.7855238914489746,-0.9741162061691284,-0.188564047217369,1.3772494792938232,1.0,0.0,0.9999058246612548,-0.7518861293792725
0.1198026686906814,-0.0257433671504259,0.8058261871337891,-0.9322063326835632,-0.0981680676341056,1.80650007724762,1.0,1.0,1.0,0.9999966621398926
0.1288954764604568,-0.0427921302616596,0.6862589120864868,-2.639928453618268e-08,0.000235181491007,1.5491946214751806e-07,1.0,1.0,1.0,0.9999966621398926
