x_pos,y_pos,x_vel,y_vel,angle,ang_vel,leg_1,leg_2,main_booster,lat_booster
-0.0016063690418377,1.40339457988739,-0.162945806980133,-0.3344734013080597,0.0020643924362957,0.0407445654273033,0.0,0.0,0.1285160779953003,0.8488194942474365
-0.0031894682906568,1.3961308002471924,-0.1589232981204986,-0.3228300213813782,0.0026666277553886,0.0120467832311987,0.0,0.0,-0.1782868504524231,0.1111763715744018
-0.0048569678328931,1.388636589050293,-0.1676046848297119,-0.3330802321434021,0.0035144784487783,0.0169583354145288,0.0,0.0,-0.4023106098175049,0.8291606903076172
-0.0065568923018872,1.38090980052948,-0.1697745621204376,-0.3434094488620758,0.0032953673508018,-0.0043823719024658,0.0,0.0,-0.0151959657669067,-0.0536301136016845
-0.0083420751616358,1.372952938079834,-0.1785552352666854,-0.3536324203014374,0.0033310274593532,0.0007129859295673,0.0,0.0,0.4493670463562011,0.7803351879119873
-0.0100187305361032,1.365480899810791,-0.1666264981031417,-0.332095742225647,0.0023044366389513,-0.0205339882522821,0.0,0.0,-0.1728640794754028,0.925116777420044
-0.0117113115265965,1.357778787612915,-0.1666936576366424,-0.3423109650611877,-0.0002231679100077,-0.0505568459630012,0.0,0.0,-0.8244776725769043,0.7959120273590088
-0.0134118078276515,1.3498493432998655,-0.1657755970954895,-0.3524300158023834,-0.0044514494948089,-0.0845736265182495,0.0,0.0,0.1979860067367553,0.6280906200408936
-0.0151561740785837,1.342606782913208,-0.1691665351390838,-0.3219140470027923,-0.0096721444278955,-0.1044232696294784,0.0,0.0,-0.248731791973114,0.1318080425262451
-0.0169872287660837,1.3351343870162964,-0.1780994087457656,-0.3321461081504822,-0.0146221406757831,-0.0990088954567909,0.0,0.0,-0.6069215536117554,-0.0166800618171691
-0.0189050678163766,1.32743239402771,-0.1870527565479278,-0.3423676788806915,-0.0192997679114341,-0.093560978770256,0.0,0.0,-0.2980443239212036,0.4371697902679443
-0.0209097862243652,1.31950044631958,-0.1960219889879226,-0.3525913655757904,-0.023702872917056,-0.0880700200796127,0.0,0.0,-0.0802778005599975,0.0799020528793335
-0.0230014808475971,1.3113386631011963,-0.2050029337406158,-0.3628154695034027,-0.0278298798948526,-0.0825475677847862,0.0,0.0,-0.1994611024856567,0.8950934410095215
-0.0251018516719341,1.3029356002807615,-0.2041410207748413,-0.3735930323600769,-0.0336589515209198,-0.1165919303894043,0.0,0.0,-0.7888236045837402,0.8500654697418213
-0.0272063259035348,1.2943075895309448,-0.202731966972351,-0.3836598098278045,-0.0412885881960392,-0.1526066958904266,0.0,0.0,-0.8555006384849548,0.9246416091918944
-0.0293117519468069,1.2854341268539429,-0.2009327858686447,-0.3946676850318908,-0.0508086048066616,-0.1904177814722061,0.0,0.0,-0.7638406753540039,0.8038622140884399
-0.0314258560538291,1.2763352394104004,-0.2001030445098877,-0.4048128128051758,-0.0620071589946746,-0.223991110920906,0.0,0.0,-0.5930875539779663,0.8618290424346924
-0.0335429199039936,1.2669930458068848,-0.19855497777462,-0.4158069491386413,-0.0750430300831794,-0.2607409060001373,0.0,0.0,-0.695305347442627,-0.0479456186294555
-0.0357464775443077,1.2574225664138794,-0.2074937522411346,-0.4260433912277221,-0.087797150015831,-0.2551056742668152,0.0,0.0,-0.6114922165870667,0.7786591053009033
-0.0379832275211811,1.2476168870925903,-0.2097604572772979,-0.4366869032382965,-0.1016131415963172,-0.2763448059558868,0.0,0.0,-0.5443498492240906,0.8105542659759521
-0.0402282699942588,1.2375775575637815,-0.2089327126741409,-0.4473221600055694,-0.1171023324131965,-0.3098119795322418,0.0,0.0,-0.891010046005249,-0.2757710218429565
-0.0425589568912982,1.2273107767105105,-0.2178043127059936,-0.4575651586055755,-0.1323111951351165,-0.3042044639587402,0.0,0.0,-0.5608639717102051,-0.2358858585357666
-0.0449750907719135,1.2168164253234863,-0.2266492545604705,-0.4678076505661011,-0.1472418308258056,-0.2986396849155426,0.0,0.0,-0.4503780007362366,-0.5867778062820435
-0.0475173965096473,1.206096649169922,-0.2406187951564788,-0.4778330028057098,-0.1608618646860122,-0.2724250853061676,0.0,0.0,-0.7739532589912415,0.4318963289260864
-0.050144575536251,1.1951488256454468,-0.2494007050991058,-0.4880720674991607,-0.1742071956396103,-0.2669304311275482,0.0,0.0,-0.5095049142837524,-0.7970235347747803
-0.0529353134334087,1.1839755773544312,-0.268023818731308,-0.4979287087917328,-0.1852935999631881,-0.2217280864715576,0.0,0.0,-0.0273540616035461,0.4930535554885864
-0.0558104515075683,1.172573208808899,-0.2767567336559295,-0.5081560015678406,-0.1961116641759872,-0.2163611650466919,0.0,0.0,-0.6466326117515564,-0.0663849711418151
-0.0587697029113769,1.1609416007995603,-0.2854406535625458,-0.5183826088905334,-0.2066644430160522,-0.2110552489757537,0.0,0.0,-0.5213180780410767,0.8059788942337036
-0.0617626197636127,1.1490720510482788,-0.2878434658050537,-0.5291765928268433,-0.2182198017835617,-0.2311073839664459,0.0,0.0,0.2346433401107788,-0.6807648539543152
-0.0648295432329177,1.137527585029602,-0.2968567907810211,-0.5145747065544128,-0.2281729727983474,-0.1990635097026825,0.0,0.0,-0.4518389701843261,-0.2879869341850281
-0.0679787620902061,1.12575364112854,-0.3053681850433349,-0.5247992277145386,-0.237871378660202,-0.1939682066440582,0.0,0.0,-0.0984749794006347,-0.4439672231674194
-0.0712098106741905,1.1137499809265137,-0.3138134181499481,-0.5350232720375061,-0.2473189532756805,-0.1889518201351165,0.0,0.0,0.4297689199447632,-0.0008967518806457
-0.0744214057922363,1.1025521755218506,-0.3118064999580383,-0.4992941915988922,-0.2568504810333252,-0.1906304061412811,0.0,0.0,-0.7716435194015503,-0.4997299909591675
-0.0777134895324707,1.0911245346069336,-0.3201062381267547,-0.5095176696777344,-0.2661397159099579,-0.1857849657535553,0.0,0.0,-0.6845163702964783,0.1042684316635131
-0.0810853019356727,1.0794670581817627,-0.3283263742923736,-0.519740641117096,-0.2751912474632263,-0.1810312867164611,0.0,0.0,-0.6700148582458496,0.3834877014160156
-0.0845358818769455,1.0675798654556274,-0.3364621996879577,-0.5299631953239441,-0.2840098738670349,-0.1763732433319091,0.0,0.0,-0.5814070701599121,0.0461816787719726
-0.0880644768476486,1.0554628372192385,-0.3445089757442474,-0.5401855111122131,-0.2926005721092224,-0.1718146502971649,0.0,0.0,-0.6771237254142761,-0.5085347294807434
-0.091705322265625,1.043135643005371,-0.3569188416004181,-0.5493305921554565,-0.2999964654445648,-0.1479176729917526,0.0,0.0,-0.5097537636756897,0.3815391063690185
-0.0954224616289138,1.030578374862671,-0.364772766828537,-0.5595508813858032,-0.3071749210357666,-0.1435690075159073,0.0,0.0,-0.4724031686782837,0.201279878616333
-0.0992149338126182,1.017790913581848,-0.3725233078002929,-0.5697709321975708,-0.3141413927078247,-0.1393302977085113,0.0,0.0,0.0622035264968872,0.2818759679794311
-0.1029922515153884,1.0055192708969116,-0.3709185123443603,-0.5469032526016235,-0.3212192058563232,-0.1415562927722931,0.0,0.0,-0.2285390496253967,0.5488474369049072
-0.1067935973405838,0.9929916858673096,-0.3722385168075561,-0.5585587620735168,-0.3294477164745331,-0.1645701229572296,0.0,0.0,0.0037245750427246,0.1071498394012451
-0.110549546778202,0.9804757237434388,-0.3681622743606567,-0.5579747557640076,-0.3372086882591247,-0.155219480395317,0.0,0.0,0.042886734008789,0.5923492908477783
-0.1141558662056922,0.9681431651115416,-0.3523285686969757,-0.5500837564468384,-0.3459046483039856,-0.1739191263914108,0.0,0.0,0.6613743305206299,0.2677701711654663
-0.1177700012922287,0.9560192823410034,-0.353113442659378,-0.5408521890640259,-0.3546075522899627,-0.1740578711032867,0.0,0.0,-0.5911085605621338,0.6332063674926758
-0.1214035972952842,0.9436318874359132,-0.3539393842220306,-0.5529114007949829,-0.3645407557487488,-0.1986642330884933,0.0,0.0,0.7351737022399902,0.4312885999679565
-0.1248769760131836,0.9316383600234984,-0.3383913040161133,-0.5353533625602722,-0.3740083575248718,-0.1893520057201385,0.0,0.0,-0.3661094903945923,0.609473466873169
-0.1283781081438064,0.919399917125702,-0.3403957784175873,-0.5465056896209717,-0.3843258321285248,-0.206349641084671,0.0,0.0,-0.0748134851455688,0.3542537689208984
-0.1319432258605957,0.90693199634552,-0.3469988703727722,-0.5567302703857422,-0.3944873213768005,-0.2032293379306793,0.0,0.0,-0.5265130400657654,0.8214008808135986
-0.135514348745346,0.8941966891288757,-0.3462381362915039,-0.5690704584121704,-0.4061402082443237,-0.233057901263237,0.0,0.0,-0.4478219747543335,0.3518350124359131
-0.1391466110944748,0.8812324404716492,-0.3525350093841553,-0.5792974829673767,-0.4176506400108337,-0.2302089184522628,0.0,0.0,0.1727160215377807,0.3480780124664306
-0.1426636725664138,0.8687806725502014,-0.3410201668739319,-0.5566065311431885,-0.4292146265506744,-0.2312798798084259,0.0,0.0,-0.0774263739585876,0.4914364814758301
-0.1462386101484298,0.8561000227928162,-0.3469922244548797,-0.5668336153030396,-0.4406499862670898,-0.2287068367004394,0.0,0.0,-0.018322467803955,-0.510202944278717
-0.1499046385288238,0.8432198762893677,-0.3572258353233337,-0.5754364728927612,-0.4508993327617645,-0.2049867361783981,0.0,0.0,0.1496118307113647,0.434812068939209
-0.1533842980861663,0.8305003046989441,-0.3391757607460022,-0.5681754946708679,-0.4605543315410614,-0.1930999904870987,0.0,0.0,0.755949854850769,-0.025463581085205
-0.1567853987216949,0.8182920813560486,-0.3310412168502807,-0.5456239581108093,-0.4705712497234344,-0.2003384381532669,0.0,0.0,0.8889791965484619,-0.2312074899673462
-0.15972900390625,0.8069996237754822,-0.2858663499355316,-0.504800021648407,-0.4799899756908417,-0.1883745938539505,0.0,0.0,0.7209199666976929,-0.6535452604293823
-0.162304401397705,0.7963420152664185,-0.2507254481315613,-0.4760536849498749,-0.487587422132492,-0.1519490778446197,0.0,0.0,0.8856686353683472,-0.7526277303695679
-0.1644551306962967,0.7866827845573425,-0.2099736034870147,-0.4311163127422333,-0.493304431438446,-0.1143396943807601,0.0,0.0,0.8828780651092529,-0.9711634516716005
-0.1663771569728851,0.7781062722206116,-0.1888849437236786,-0.3823751807212829,-0.4970249235630035,-0.0744100883603096,0.0,0.0,0.9240541458129884,-0.8235353231430054
-0.1681397408246994,0.7698612213134766,-0.1746675074100494,-0.3670271039009094,-0.4988176822662353,-0.0358558781445026,0.0,0.0,0.9720780849456788,-0.4085450172424316
-0.1696496903896331,0.7625744938850403,-0.1489681154489517,-0.3245921730995178,-0.501096248626709,-0.0455717332661151,0.0,0.0,0.9807087182998656,-0.7891265153884888
-0.1708163321018219,0.7558000087738037,-0.1164840459823608,-0.3011588454246521,-0.5013079047203064,-0.0042329067364335,0.0,0.0,0.8783897161483765,-0.8265590667724609
-0.1717176437377929,0.7497382164001465,-0.0915934816002845,-0.2688759565353393,-0.4996625483036041,0.0329077541828155,0.0,0.0,0.8705631494522095,-0.9216882586479188
-0.1724954545497894,0.7440825700759888,-0.081025518476963,-0.2501849234104156,-0.4960182607173919,0.0728858262300491,0.0,0.0,0.8366432189941406,-0.7800591588020325
-0.1731812506914138,0.7392148375511169,-0.0730707198381424,-0.2147368937730789,-0.4909841120243072,0.1006825938820838,0.0,0.0,0.9471094608306884,-0.7048035264015198
-0.1734465658664703,0.7354780435562134,-0.0324676670134067,-0.1639735698699951,-0.4843515753746032,0.1326505094766616,0.0,0.0,0.04945969581604,-0.9388578534126282
-0.1736702919006347,0.7317566871643066,-0.0300889071077108,-0.1627186834812164,-0.4757570922374725,0.1718896329402923,0.0,0.0,0.0294491052627563,-0.9634578824043274
-0.1737250387668609,0.7285629510879517,-0.0150912953540682,-0.1386763602495193,-0.4651096761226654,0.2129485607147216,0.0,0.0,-0.4956865310668945,-0.8058825731277466
-0.1738733351230621,0.7251867651939392,-0.0262890607118606,-0.1462748795747757,-0.4524936079978943,0.2523210644721985,0.0,0.0,0.1075115203857421,-0.8005936145782471
-0.1739677488803863,0.7222856879234314,-0.0225003454834222,-0.1247751638293266,-0.4382127821445465,0.2856162786483764,0.0,0.0,-0.5300761461257935,-0.6005520820617676
-0.1741256713867187,0.7191867828369141,-0.0300444308668375,-0.1333633810281753,-0.4227306842803955,0.3096420466899872,0.0,0.0,-0.1978040933609008,0.0535056591033935
-0.1743053495883941,0.7158605456352234,-0.0323102176189422,-0.1436025947332382,-0.4072405099868774,0.3098033368587494,0.0,0.0,-0.3852671384811401,0.0343073606491088
-0.1745047569274902,0.7123074531555176,-0.034397043287754,-0.1538421213626861,-0.3917464911937713,0.3098802268505096,0.0,0.0,-0.3348696231842041,-0.0082154870033264
-0.1747223883867263,0.7085273265838623,-0.0363083630800247,-0.1640818864107132,-0.3762526214122772,0.309877336025238,0.0,0.0,-0.2896121144294739,0.6311478614807129
-0.1749070137739181,0.7044832706451416,-0.0317177437245845,-0.1763081699609756,-0.3622176349163055,0.2806997299194336,0.0,0.0,-0.7313272953033447,0.5855140686035156
-0.1750673353672027,0.7001828551292419,-0.0282691977918148,-0.1880904585123062,-0.3493369221687317,0.2576145231723785,0.0,0.0,-0.8747519254684448,0.2592886686325073
-0.1752413809299469,0.695654571056366,-0.0296749807894229,-0.198325052857399,-0.3364667594432831,0.2574033141136169,0.0,0.0,-0.8707293272018433,0.7918031215667725
-0.1753590553998947,0.6908708214759827,-0.022335298359394,-0.2101897895336151,-0.3254365622997284,0.2206041067838668,0.0,0.0,-0.9256706237792968,-0.0100858211517333
-0.1754874289035797,0.6858586072921753,-0.0234279446303844,-0.2204211205244064,-0.3144225776195526,0.2202796638011932,0.0,0.0,-0.8794678449630737,0.4062322378158569
-0.1756250411272049,0.6806179285049438,-0.0243727751076221,-0.2306525111198425,-0.3034272491931915,0.2199064493179321,0.0,0.0,-0.882424533367157,-0.0253118276596069
-0.175770565867424,0.6751489043235779,-0.0251752883195877,-0.2408839166164398,-0.2924527525901794,0.2194901406764984,0.0,0.0,-0.7936902046203613,0.4205214977264404
-0.1759225875139236,0.6694516539573669,-0.0258412025868892,-0.2511153817176819,-0.281500905752182,0.219036728143692,0.0,0.0,-0.9856985211372375,0.1931909322738647
-0.1760798394680023,0.6635259985923767,-0.0263764318078756,-0.2613468766212463,-0.2705732882022857,0.2185522019863128,0.0,0.0,-0.9244532585144044,0.7543919086456299
-0.1761843711137771,0.657352089881897,-0.0196403004229068,-0.2727223038673401,-0.2611657679080963,0.1881503015756607,0.0,0.0,-0.9674049615859984,-0.0854676365852356
-0.17629174888134,0.6509495377540588,-0.0199315920472145,-0.282951295375824,-0.2517846524715423,0.1876225471496582,0.0,0.0,-0.8496935367584229,-0.0148171186447143
-0.1764009445905685,0.6443182826042175,-0.0201109908521175,-0.2931802868843078,-0.2424305230379104,0.1870822459459304,0.0,0.0,-0.8585541248321533,0.120309829711914
-0.1765110939741134,0.6374582648277283,-0.020185001194477,-0.3034092485904693,-0.2331037372350692,0.1865357756614685,0.0,0.0,-0.9498043060302734,0.4868860244750976
-0.1766208708286285,0.6303693652153015,-0.0201602540910244,-0.3136381208896637,-0.2238042652606964,0.1859895884990692,0.0,0.0,-0.9909655451774596,-0.1495270133018493
-0.176729679107666,0.6230517029762268,-0.0200434569269418,-0.3238669335842132,-0.2145317643880844,0.1854501217603683,0.0,0.0,-0.8840857744216919,0.0992274284362793
-0.1768364906311035,0.6155051589012146,-0.0198414046317338,-0.3340956568717956,-0.2052855640649795,0.1849239766597747,0.0,0.0,-0.9782406687736512,0.4909570217132568
-0.1769405305385589,0.6077299118041992,-0.019560944288969,-0.344324380159378,-0.1960646957159042,0.1844176203012466,0.0,0.0,-0.9713957905769348,-0.1628080010414123
-0.1770411431789398,0.5997259020805359,-0.0192089863121509,-0.3545530140399933,-0.186867818236351,0.1839377284049987,0.0,0.0,-0.8648138642311096,0.8800185918807983
-0.1770591735839843,0.5914611220359802,-0.0088797770440578,-0.366449773311615,-0.17976114153862,0.142133742570877,0.0,0.0,-0.9369717836380004,0.5485625267028809
-0.1770338118076324,0.5829548239707947,-0.0035306517966091,-0.3773368895053863,-0.1736799031496048,0.1216248050332069,0.0,0.0,-0.2520011663436889,0.2553365230560303
-0.1770032942295074,0.5742190480232239,-0.0030049446504563,-0.3875614404678345,-0.1676166653633117,0.1212647929787635,0.0,0.0,-0.9615415930747986,0.2355684041976928
-0.1769672334194183,0.565253734588623,-0.0024356869980692,-0.3977859616279602,-0.1615687906742096,0.1209577098488807,0.0,0.0,-0.9828652143478394,0.388342022895813
-0.1769251823425293,0.5560590624809265,-0.0018298592185601,-0.4080103933811188,-0.1555332839488983,0.1207100972533226,0.0,0.0,-0.813908040523529,-0.5157960653305054
-0.1769108772277832,0.5466456413269043,-0.0054967505857348,-0.4176680445671081,-0.1486224681138992,0.1382167637348175,0.0,0.0,-0.9650139808654784,0.5468167066574097
-0.1768507063388824,0.53699791431427,9.336973744211718e-05,-0.4282077252864837,-0.1427114903926849,0.1182194724678993,0.0,0.0,-0.919888973236084,-0.0326402187347412
-0.1767837554216385,0.5271206498146057,0.0007672442588955,-0.4384318888187408,-0.1368020176887512,0.1181893944740295,0.0,0.0,-0.9100053310394288,0.4014701843261719
-0.1767099350690841,0.5170139670372009,0.0014499999815598,-0.4486560523509979,-0.1308897882699966,0.1182446107268333,0.0,0.0,-0.9919764399528505,-0.8685320019721985
-0.1767102181911468,0.5066948533058167,-0.0080654518678784,-0.4579459726810455,-0.1228988617658615,0.159818559885025,0.0,0.0,-0.992571234703064,0.89029860496521
-0.1766513884067535,0.4961346387863159,-0.0008198252180591,-0.4688028693199157,-0.1162299737334251,0.133377805352211,0.0,0.0,-0.9617218375205994,0.9727566242218018
-0.1764952689409256,0.4853348731994629,0.0111758569255471,-0.4796518683433532,-0.1118240803480148,0.0881176739931106,0.0,0.0,-0.9589439034461976,0.5525280237197876
-0.176284983754158,0.4742923974990845,0.0177992694079875,-0.4905375242233276,-0.1086119189858436,0.0642432570457458,0.0,0.0,-0.8605467677116394,0.477426528930664
-0.1760681122541427,0.4630200862884521,0.0184256844222545,-0.5007594227790833,-0.1053710877895355,0.0648165941238403,0.0,0.0,-0.1424033045768737,-0.6141195893287659
-0.1758946478366851,0.4515309333801269,0.0127618415281176,-0.5103116631507874,-0.1008223369717598,0.0909748971462249,0.0,0.0,-0.4601076245307922,0.4648997783660888
-0.1757151633501052,0.4398120641708374,0.0133196040987968,-0.5205342769622803,-0.0962325781583786,0.0917953848838806,0.0,0.0,-0.316386342048645,0.720119833946228
-0.1754660606384277,0.4278541803359985,0.0218539834022521,-0.5312701463699341,-0.093212604522705,0.0603995807468891,0.0,0.0,0.6369256973266602,0.5600996017456055
-0.1750997602939605,0.4168749451637268,0.0346789397299289,-0.4878459870815277,-0.0912724137306213,0.0388036295771598,0.0,0.0,0.6069852113723755,0.7153720855712891
-0.1745376586914062,0.4067996442317962,0.0554982498288154,-0.4477480947971344,-0.0905651673674583,0.014144567772746,0.0,0.0,-0.5658097863197327,0.3873234987258911
-0.1739713698625564,0.3964942395687103,0.0558450035750865,-0.4579688310623169,-0.0897892117500305,0.0155196171253919,0.0,0.0,-0.3978163003921509,-0.5320216417312622
-0.1734519004821777,0.3859665393829345,0.0497992597520351,-0.4677694141864776,-0.0876611769199371,0.0425605103373527,0.0,0.0,-0.4528777599334717,0.4003291130065918
-0.1729295700788498,0.3752088546752929,0.0500052459537982,-0.477990448474884,-0.0854492336511612,0.0442389249801635,0.0,0.0,0.3216935396194458,0.1826261281967163
-0.1723836958408355,0.3648973107337951,0.052346795797348,-0.458162784576416,-0.0832252502441406,0.0444798544049263,0.0,0.0,-0.6039756536483765,0.9330766201019288
-0.1717596054077148,0.3543444275856018,0.0620127022266387,-0.4689956605434418,-0.082841046154499,0.0076840096153318,0.0,0.0,0.7528209686279297,0.3421437740325928
-0.1709652841091156,0.3441145420074463,0.0782862976193428,-0.454597920179367,-0.0817080363631248,0.0226603187620639,0.0,0.0,-0.0841934084892273,0.6884899139404297
-0.1701079308986663,0.3336499333381653,0.0860805064439773,-0.4651148915290832,-0.0820513889193534,-0.0068671228364109,0.0,0.0,0.3837162256240845,0.6583763360977173
-0.1691210716962814,0.3239621520042419,0.1001970022916793,-0.4306493997573852,-0.0835373029112815,-0.0297184493392705,0.0,0.0,0.5900871753692627,-0.6779787540435791
