x_pos,y_pos,x_vel,y_vel,angle,ang_vel,leg_1,leg_2,main_booster,lat_booster
-0.0015017508994787,1.4033620357513428,-0.1522876918315887,-0.3359149396419525,0.0018952218815684,0.0373950079083442,0.0,0.0,0.4619961140970279,-0.6187978694944034
-0.0029881477821618,1.396174073219299,-0.1520061045885086,-0.3194741904735565,0.0052230069413781,0.0665626376867294,0.0,0.0,-0.5657097375380982,-0.6690199030652051
-0.0045083044096827,1.3887181282043457,-0.156562864780426,-0.3314022719860077,0.0097243227064609,0.0900341421365737,0.0,0.0,-0.3862052392062434,-0.8146959640531644
-0.006105232052505,1.3809962272644043,-0.1663505882024765,-0.3432498276233673,0.0163031220436096,0.1315880268812179,0.0,0.0,0.6301889298616803,0.8528412470931293
-0.0075117112137377,1.3739850521087646,-0.1459981948137283,-0.3116653561592102,0.021594263613224,0.1058327779173851,0.0,0.0,0.4339117385162063,0.8331370634521471
-0.0087437629699707,1.3674240112304688,-0.1272372305393219,-0.2916671335697174,0.0255880635231733,0.0798830464482307,0.0,0.0,-0.6112759015134037,-0.539135096872262
-0.0100418087095022,1.3605992794036863,-0.135125458240509,-0.3034293353557586,0.0308499801903963,0.1052478551864624,0.0,0.0,-0.5712873326333574,0.52079224683688
-0.0113180158659815,1.3535162210464478,-0.1317958086729049,-0.3148940205574035,0.034988772124052,0.082783356308937,0.0,0.0,0.2078599394766711,0.9771963609106148
-0.012585163116455,1.347102165222168,-0.1291112452745437,-0.2851259410381317,0.0373565256595611,0.0473594777286052,0.0,0.0,-0.1510490831593087,-0.5933958297352686
-0.0139417648315429,1.340426683425903,-0.139419138431549,-0.2967807650566101,0.0410751700401306,0.0743798613548278,0.0,0.0,0.9396980286546036,0.9983954448779484
-0.0151850702241063,1.334547758102417,-0.126468688249588,-0.2613493204116821,0.0431877709925174,0.0422559864819049,0.0,0.0,-0.9051582683353008,0.6201426242026096
-0.0164288524538278,1.3284084796905518,-0.125316709280014,-0.272882878780365,0.044108934700489,0.0184252634644508,0.0,0.0,-0.8743463091734969,0.5267575799301742
-0.0176833160221576,1.3220129013061523,-0.1252817213535308,-0.284238338470459,0.0439449734985828,-0.0032797765452414,0.0,0.0,0.6830724890681723,0.5596477510601756
-0.0189007762819528,1.3158998489379885,-0.120845079421997,-0.2716613113880157,0.0430660657584667,-0.0175800304859876,0.0,0.0,0.6280907816373036,-0.9045240912584428
-0.0201408378779888,1.310756802558899,-0.1253727078437805,-0.2286227643489837,0.0444088689982891,0.0268585141748189,0.0,0.0,-0.298140586283848,-0.7312386289078308
-0.0215048789978027,1.3053395748138428,-0.139160931110382,-0.2408526390790939,0.0471359752118587,0.0545471422374248,0.0,0.0,0.2089175097018345,0.8014812140778474
-0.0228020660579204,1.3006198406219482,-0.1311807632446289,-0.2098074406385421,0.0485795550048351,0.0288744606077671,0.0,0.0,-0.7572230595454728,0.5534498810221984
-0.0241312980651855,1.295637130737305,-0.1332178711891174,-0.2214701920747757,0.0488689951598644,0.0057891765609383,0.0,0.0,-0.2492448527174842,-0.6828411367780356
-0.0255962368100881,1.2903950214385986,-0.1481482088565826,-0.233031079173088,0.0505022034049034,0.0326675102114677,0.0,0.0,0.8648577352581253,0.6625605704545416
-0.027233313769102,1.285844087600708,-0.1639904826879501,-0.2022758573293686,0.0507782623171806,0.0055213728919625,0.0,0.0,-0.5454174679108863,-0.8325283959113093
-0.0290203094482421,1.2810328006744385,-0.1805080473423004,-0.2138994485139846,0.0525713078677654,0.0358640067279338,0.0,0.0,0.01504070674798,0.9255987334631834
-0.0308409687131643,1.2763675451278689,-0.1822335422039032,-0.2073447704315185,0.0527368150651454,0.0033105923794209,0.0,0.0,-0.1562628049132344,-0.7582892834793264
-0.032812975347042,1.271435260772705,-0.1987804472446441,-0.2192678898572921,0.0543045774102211,0.0313581526279449,0.0,0.0,0.3953496197142607,-0.9299693252636624
-0.0349122993648052,1.266624927520752,-0.2136610448360443,-0.2139328569173813,0.0580030865967273,0.0739768221974372,0.0,0.0,-0.4091421524377225,0.5633603682720615
-0.0370877273380756,1.2615571022033691,-0.2206354141235351,-0.2253690809011459,0.061066098511219,0.061265580356121,0.0,0.0,0.2475845937262035,-0.5935740700361213
-0.0395754799246788,1.2569892406463623,-0.2530656456947326,-0.2031926065683365,0.0653120726346969,0.0849193707108497,0.0,0.0,-0.0193767087060336,-0.6016957438295237
-0.0422253608703613,1.252158761024475,-0.270713746547699,-0.2149499505758285,0.0709734335541725,0.1132272034883499,0.0,0.0,-0.2137579971248939,0.5361121849173425
-0.0449593551456928,1.2470755577087402,-0.278503954410553,-0.2261729389429092,0.0760245323181152,0.1010218113660812,0.0,0.0,-0.4308218218146136,0.8077673209108205
-0.047762680798769,1.241742730140686,-0.2843919992446899,-0.2372255027294159,0.0800414457917213,0.0803384929895401,0.0,0.0,0.9601432458171976,-0.7245497134293062
-0.05081682279706,1.2370002269744873,-0.3110917210578918,-0.2110938280820846,0.0856658890843391,0.1124886721372604,0.0,0.0,-0.8995109436274509,-0.9930308962076312
-0.0540698990225791,1.2319974899291992,-0.3331429064273834,-0.2228100448846817,0.0934327617287635,0.1553374379873275,0.0,0.0,-0.9703015685081482,0.9861912727355956
-0.0573789589107036,1.226737141609192,-0.3372389674186706,-0.2342039495706558,0.0997191444039344,0.1257274746894836,0.0,0.0,-0.9315179586410522,0.9851269721984864
-0.06074695661664,1.2212343215942385,-0.3416644930839538,-0.2449024766683578,0.1045367568731308,0.0963523015379905,0.0,0.0,-0.9831734895706176,0.9946956634521484
-0.0641711205244064,1.2154717445373535,-0.3457125723361969,-0.2563543021678924,0.1078134998679161,0.0655350536108017,0.0,0.0,-0.8567568063735962,0.9958430528640748
-0.0676428824663162,1.2094619274139404,-0.3486438393592834,-0.2671997249126434,0.1092787608504295,0.0293052829802036,0.0,0.0,-0.7769883275032043,0.9703214168548584
-0.0711654648184776,1.203210473060608,-0.3519522547721863,-0.2778217196464538,0.1089761778712272,-0.0060518360696733,0.0,0.0,-0.8286279439926147,0.9589173793792723
-0.0747453719377517,1.1967037916183472,-0.3560873568058014,-0.2890432178974151,0.1070747375488281,-0.0380285754799842,0.0,0.0,-0.8885887265205383,0.980621099472046
-0.0783748626708984,1.1899559497833252,-0.3591622710227966,-0.299637109041214,0.1033190265297889,-0.0751142054796218,0.0,0.0,-0.7641209959983826,0.9340624809265136
-0.0820680633187294,1.1829673051834106,-0.3640096485614776,-0.3102481067180633,0.0980459973216056,-0.1054603829979896,0.0,0.0,-0.767602801322937,0.5434937477111816
-0.0858490914106369,1.1757243871688845,-0.3718675971031189,-0.3215157389640808,0.0918651223182678,-0.1236176490783691,0.0,0.0,-0.8945803046226501,0.9236814975738524
-0.0897040367126464,1.1682358980178833,-0.3779473006725311,-0.3323774039745331,0.0843929275870323,-0.1494441777467727,0.0,0.0,-0.7224985957145691,0.9580378532409668
-0.0936017036437988,1.1604955196380615,-0.3801235556602478,-0.3434982299804687,0.0748461559414863,-0.1909357011318206,0.0,0.0,-0.9045242071151732,0.976344347000122
-0.0975438132882118,1.152493953704834,-0.3825111985206604,-0.3550872504711151,0.0632675737142562,-0.2315712869167328,0.0,0.0,-0.8495055437088013,0.9850435256958008
-0.1015302687883377,1.144238829612732,-0.3848528265953064,-0.3663716316223144,0.0496272109448909,-0.2728073894977569,0.0,0.0,-0.9256190657615662,0.9081158638000488
-0.105584904551506,1.1357182264328003,-0.3901881873607635,-0.3782508969306946,0.0345240384340286,-0.3020636141300201,0.0,0.0,-0.9501780271530152,0.6035839319229126
-0.1097241416573524,1.1269352436065674,-0.3975398540496826,-0.3900583386421203,0.0183478407561779,-0.3235238194465637,0.0,0.0,-0.9582542181015016,0.9098374843597412
-0.1139204055070877,1.1178909540176392,-0.4014374315738678,-0.4018429517745971,0.0003955972497351,-0.3590448796749115,0.0,0.0,-0.9672011733055116,0.9875752925872804
-0.1181898117065429,1.1085994243621826,-0.4073482155799866,-0.4130592346191406,-0.0189399812370538,-0.3867119550704956,0.0,0.0,-0.9521302580833436,0.8911740779876709
-0.1225410476326942,1.0990570783615112,-0.4143582284450531,-0.4244905710220337,-0.0394454859197139,-0.4101101756095886,0.0,0.0,-0.9444013237953186,0.890670657157898
-0.1269616186618805,1.0892516374588013,-0.4197847247123718,-0.4365264177322387,-0.0614524036645889,-0.4401388764381408,0.0,0.0,-0.9899364709854126,0.8419538736343384
-0.1314370185136795,1.0791828632354736,-0.4234247803688049,-0.4486626088619232,-0.0853291451930999,-0.4775350689888,0.0,0.0,-0.9647259712219238,0.5073261260986328
-0.1360135972499847,1.0688581466674805,-0.4328601956367492,-0.4604806900024414,-0.1099170446395874,-0.4917581677436828,0.0,0.0,-0.9632579684257508,-0.0869179964065551
-0.1407275199890136,1.0582785606384275,-0.4468735754489898,-0.4721921384334564,-0.1343068778514862,-0.4877966940402984,0.0,0.0,-0.8841670751571655,-0.4515098333358764
-0.1455790549516677,1.047443985939026,-0.4609026312828064,-0.4839023053646087,-0.1585030108690261,-0.4839226603507995,0.0,0.0,-0.8177537322044373,0.6791223287582397
-0.150502398610115,1.0363363027572632,-0.466663122177124,-0.4966087937355041,-0.1842073649168014,-0.5140873193740845,0.0,0.0,-0.7483727335929871,-0.5445898175239563
-0.1556124687194824,1.0249853134155271,-0.4869065284729004,-0.5076642632484436,-0.2084633857011795,-0.4851205348968506,0.0,0.0,-0.6883500814437866,0.5420222282409668
-0.1608109474182129,1.013368844985962,-0.4948074221611023,-0.5200142860412598,-0.2337976545095443,-0.5066854953765869,0.0,0.0,-0.8011289238929749,-0.8092309236526489
-0.1661944389343261,1.001517653465271,-0.5148488283157349,-0.5306271314620972,-0.257698655128479,-0.4780197143554687,0.0,0.0,-0.4089494943618774,-0.3698090314865112
-0.1717154532670974,0.9894108176231384,-0.5289130210876465,-0.5423329472541809,-0.2814334034919739,-0.4746953845024109,0.0,0.0,0.3317666053771972,-0.8424386978149414
-0.17732734978199,0.978024125099182,-0.5399245023727417,-0.5103285312652588,-0.3033599853515625,-0.4385313987731933,0.0,0.0,-0.0019893050193786,-0.2406332492828369
-0.1830769479274749,0.9663804769515992,-0.5539804100990295,-0.5220261812210083,-0.3251340985298157,-0.4354820251464844,0.0,0.0,0.4487829208374023,0.0774203538894653
-0.1888509690761566,0.955396294593811,-0.5563210248947144,-0.4930807054042816,-0.3471697866916656,-0.4407138228416443,0.0,0.0,-0.0878776907920837,-0.1932796239852905
-0.1947623193264007,0.9441551566123962,-0.570360541343689,-0.5047780871391296,-0.3690678477287292,-0.4379619657993316,0.0,0.0,0.7127969264984131,0.0633195638656616
-0.2005591392517089,0.9335326552391052,-0.5592898726463318,-0.4775243699550628,-0.3907233476638794,-0.433109700679779,0.0,0.0,0.5028762817382812,-0.7815604209899902
-0.2064052075147628,0.9231831431388856,-0.5660207867622375,-0.4652066230773926,-0.4106390476226806,-0.3983142971992492,0.0,0.0,0.6336648464202881,-0.4702050685882568
-0.2122673988342285,0.9134528040885924,-0.5673763751983643,-0.4380698204040527,-0.4310080707073211,-0.4073805809020996,0.0,0.0,0.0582667589187622,-0.7971470355987549
-0.2180771827697754,0.9042484760284424,-0.5639364123344421,-0.4144189059734344,-0.4495972394943237,-0.3717832267284393,0.0,0.0,0.677837610244751,-0.4608778953552246
-0.2238199263811111,0.8951321244239807,-0.5578137636184692,-0.4105749428272247,-0.4677053391933441,-0.362162172794342,0.0,0.0,0.477257490158081,-0.6703885197639465
-0.2293760776519775,0.8868026733398438,-0.5407055616378784,-0.3753078281879425,-0.4842620491981506,-0.3311348557472229,0.0,0.0,0.2881276607513428,-0.1741816401481628
-0.2349621802568435,0.8787547945976257,-0.543591320514679,-0.3630425631999969,-0.5010804533958435,-0.3363677859306335,0.0,0.0,0.38121497631073,-0.539710521697998
-0.2405220568180084,0.8712841868400574,-0.5420132875442505,-0.3372124135494232,-0.516869306564331,-0.3157759308815002,0.0,0.0,0.5488616228103638,-0.1737191677093505
-0.2459047734737396,0.8642931580543518,-0.5245961546897888,-0.3159816861152649,-0.5324647426605225,-0.3119086325168609,0.0,0.0,0.3726916313171386,-0.2457126975059509
-0.2511594891548157,0.8580304980278015,-0.5115261077880859,-0.2839052081108093,-0.5485039949417114,-0.3207849860191345,0.0,0.0,0.3914391994476318,-0.2701666951179504
-0.2562432289123535,0.8520821928977966,-0.4948528409004211,-0.2699685394763946,-0.5642144680023193,-0.3142089247703552,0.0,0.0,0.802558422088623,-0.0778296589851379
-0.2612649500370025,0.8464443683624268,-0.4886668622493744,-0.2563603818416595,-0.5800610184669495,-0.3169305324554443,0.0,0.0,0.798771858215332,0.2332898378372192
-0.2661653459072113,0.8409296274185181,-0.4769831597805023,-0.2508835196495056,-0.595539391040802,-0.3095676600933075,0.0,0.0,0.9678964614868164,-0.5479714870452881
-0.2710433900356293,0.8357219696044922,-0.4757851660251617,-0.2369633018970489,-0.6099411845207214,-0.2880353331565857,0.0,0.0,0.9537973403930664,-0.3771532773971557
-0.2755258977413177,0.8314157128334045,-0.4363175332546234,-0.1970224231481552,-0.6243790984153748,-0.2887582182884216,0.0,0.0,0.8861250877380371,-0.3694678544998169
-0.2795228958129883,0.8279024958610535,-0.3882310390472412,-0.1617218852043151,-0.6383923888206482,-0.2802659273147583,0.0,0.0,0.8479561805725098,-0.4296443462371826
-0.2832081913948059,0.8253424763679504,-0.3567099869251251,-0.1197027191519737,-0.652991533279419,-0.2919827699661255,0.0,0.0,0.9597084522247314,-0.2505204677581787
-0.2869080901145935,0.8231306076049805,-0.3577319085597992,-0.1046518981456756,-0.6683127880096436,-0.3064250648021698,0.0,0.0,0.9378490447998048,-0.6803781390190125
-0.2901630997657776,0.8217564821243286,-0.3146363794803619,-0.0668573305010795,-0.6820331811904907,-0.2744070589542389,0.0,0.0,0.8283731937408447,-0.805006742477417
-0.2932901382446289,0.8210381865501404,-0.3031525015830993,-0.0371492467820644,-0.6942312121391296,-0.2439601421356201,0.0,0.0,0.9081056118011476,-0.7896707653999329
-0.2961440086364746,0.8210885524749756,-0.2771517932415008,-0.0023685900960117,-0.7048492431640625,-0.2123593837022781,0.0,0.0,0.7832322120666504,-0.659980833530426
-0.298685222864151,0.8218058347702026,-0.2470351159572601,0.0278259515762329,-0.7140713930130005,-0.1844424307346344,0.0,0.0,0.3385006189346313,-0.7801422476768494
-0.3010308742523193,0.8227774500846863,-0.2288658320903778,0.0398670509457588,-0.7215321660041809,-0.1492160409688949,0.0,0.0,0.2396824359893798,-0.6415262222290039
-0.3033586144447326,0.8238016963005066,-0.2281654179096222,0.0427980944514274,-0.7276029586791992,-0.1214174255728721,0.0,0.0,0.399669885635376,-0.4524758458137512
-0.3055261075496673,0.824867844581604,-0.2124076336622238,0.0447905398905277,-0.7333629727363586,-0.1152002960443496,0.0,0.0,0.1019008159637451,-0.4425663352012634
-0.3074899315834045,0.8259983658790588,-0.1923512816429138,0.0478117056190967,-0.7387261986732483,-0.1072646155953407,0.0,0.0,0.1641156673431396,-0.5223969221115112
-0.3093413710594177,0.8271044492721558,-0.1820933520793914,0.0473002381622791,-0.742809534072876,-0.081666275858879,0.0,0.0,0.4096769094467163,-0.5307539701461792
-0.3109126687049866,0.8287066221237183,-0.1549170315265655,0.069849245250225,-0.7457791566848755,-0.0593917369842529,0.0,0.0,-0.0054309964179992,-0.3049565553665161
-0.312603622674942,0.8300470113754272,-0.1668356508016586,0.0581819377839565,-0.748817503452301,-0.0607670731842517,0.0,0.0,-0.1955458521842956,-0.1492862105369568
-0.3144124448299408,0.8311259150505066,-0.1785786002874374,0.0465143918991088,-0.7519280910491943,-0.0622123479843139,0.0,0.0,-0.0597442984580993,-0.3229702711105346
-0.3163373470306396,0.8319429755210876,-0.1901350319385528,0.0348466150462627,-0.7551143169403076,-0.0637245625257492,0.0,0.0,-0.084240972995758,-0.611901581287384
-0.3184144496917724,0.8325499892234802,-0.2063989639282226,0.0261496193706989,-0.7568951845169067,-0.0356168709695339,0.0,0.0,0.0925154685974121,-0.7392175197601318
-0.3202025890350342,0.8335162997245789,-0.1786884516477584,0.0428731627762317,-0.7570621967315674,-0.0033402219414711,0.0,0.0,0.6953854560852051,-0.3315404653549194
-0.3217168748378753,0.8348825573921204,-0.1511605679988861,0.0605493336915969,-0.7574246525764465,-0.0072485678829252,0.0,0.0,-0.2132954001426696,0.0797587633132934
-0.3233386874198913,0.8359870314598083,-0.1618533730506897,0.0488814376294612,-0.7578745484352112,-0.0089976741001009,0.0,0.0,0.5985584259033203,-0.055754005908966
-0.3245403170585632,0.8374788165092468,-0.1200548186898231,0.0662278458476066,-0.7580251693725586,-0.0030125700868666,0.0,0.0,-0.3057971000671386,0.0453177690505981
-0.3258445858955383,0.838708758354187,-0.1302415281534195,0.0545596443116664,-0.7582685351371765,-0.0048678913153707,0.0,0.0,-0.1051023602485656,-0.1438132524490356
-0.3272486329078674,0.8396773338317871,-0.1401556134223938,0.0428912974894046,-0.7586072683334351,-0.0067746704444289,0.0,0.0,-0.3163320422172546,-0.3335328698158264
-0.3287497162818908,0.8403844237327576,-0.1497838795185089,0.0312227942049503,-0.7590438723564148,-0.0087321689352393,0.0,0.0,0.0296363830566406,0.1018129587173461
-0.330139547586441,0.8413130044937134,-0.1383447647094726,0.0408610105514526,-0.7599171996116638,-0.0174659676849842,0.0,0.0,-0.1157031655311584,-0.4296819567680359
-0.331620305776596,0.8419800400733948,-0.1473615914583206,0.0291921719908714,-0.7608934044837952,-0.0195237267762422,0.0,0.0,-0.1080492138862609,-0.6506081819534302
-0.3332168459892273,0.8424310684204102,-0.159744530916214,0.0201025586575269,-0.7607676982879639,0.0025139327626675,0.0,0.0,0.2577095031738281,-0.0493163466453552
-0.334670215845108,0.8428775668144226,-0.1455059498548507,0.0199502371251583,-0.76053386926651,0.0046769301407039,0.0,0.0,0.0110164880752563,-0.18399178981781
-0.3358182311058044,0.8434780836105347,-0.1151956766843795,0.026941018179059,-0.7599998116493225,0.0106813386082649,0.0,0.0,0.4104859828948974,0.2133480310440063
-0.336601197719574,0.8445578217506409,-0.0785395354032516,0.0481401607394218,-0.7596688270568848,0.0066198357380926,0.0,0.0,-0.0828006267547607,-0.6407750844955444
-0.3374814093112945,0.8454203009605408,-0.0889937952160835,0.0389471128582954,-0.7583451867103577,0.0264724548906087,0.0,0.0,0.1692174673080444,0.2339245080947876
-0.3381099104881286,0.8464124798774719,-0.0639242231845855,0.044769886881113,-0.7568894028663635,0.0291158761829137,0.0,0.0,-0.1896265745162964,-0.4369630813598633
-0.33880415558815,0.8471431732177734,-0.0704048573970794,0.0331000052392482,-0.7555534839630127,0.0267181247472763,0.0,0.0,-0.5411763787269592,0.3247997760772705
-0.3395599722862243,0.8476127982139587,-0.0764792338013649,0.0214300137013196,-0.754339873790741,0.0242720060050487,0.0,0.0,-0.2581703662872314,-0.3874839544296264
-0.3403733372688293,0.8478211164474487,-0.0821386501193046,0.0097599131986498,-0.7532510161399841,0.0217772666364908,0.0,0.0,0.4319934844970703,-0.5892846584320068
-0.3409900665283203,0.8485199213027954,-0.0631931945681572,0.0320122949779033,-0.7511935234069824,0.0411494933068752,0.0,0.0,-0.2824783325195312,-0.0732879638671875
-0.3416557908058166,0.8489576578140259,-0.0680009201169014,0.0203417669981718,-0.7492656707763672,0.0385575592517852,0.0,0.0,-0.330765426158905,-0.0565114021301269
-0.3423662185668945,0.8491341471672058,-0.0723737627267837,0.0086711514741182,-0.7474698424339294,0.0359170772135257,0.0,0.0,-0.0951737165451049,-0.4779316186904907
-0.3431169390678406,0.8490495085716248,-0.0763074159622192,-0.0029995590448379,-0.7458084225654602,0.0332279913127422,0.0,0.0,-0.4061117172241211,0.119571566581726
-0.3439036011695862,0.8487037420272827,-0.0797987729310989,-0.0146703664213418,-0.74428391456604,0.0304903052747249,0.0,0.0,-0.1849697828292846,-0.4771526455879211
-0.3447217047214508,0.8480969071388245,-0.0828459709882736,-0.0263412706553936,-0.74289870262146,0.0277041886001825,0.0,0.0,-0.4653089046478271,-0.5914321541786194
-0.3455964028835296,0.8472772240638733,-0.0893511921167373,-0.0352800674736499,-0.7403814196586609,0.0503462627530097,0.0,0.0,-0.4140833616256714,-0.3183462023735046
