x_pos,y_pos,x_vel,y_vel,angle,ang_vel,leg_1,leg_2,main_booster,lat_booster
-0.0015838623512536,1.4030466079711914,-0.1604529917240142,-0.3499378561973572,0.0018497860291972,0.0364955812692642,0.0,0.0,-0.1820371150970459,0.8610672950744629
-0.0031532286666333,1.3946142196655271,-0.1569378525018692,-0.3747726082801819,0.0018410111078992,-0.0001749921793816,0.0,0.0,0.1906567811965942,0.51226806640625
-0.0046349526382982,1.38603675365448,-0.1474053114652633,-0.3812196552753448,0.0010939886560663,-0.0149419633671641,0.0,0.0,-0.1370073556900024,0.6185283660888672
-0.0061326026916503,1.3768792152404783,-0.1480494290590286,-0.4070004224777221,-0.000599583145231,-0.0338744595646858,0.0,0.0,0.3429044485092163,0.4885377883911133
-0.0075779915787279,1.367938756942749,-0.1433673948049545,-0.3973534703254699,-0.0017557179089635,-0.0231250878423452,0.0,0.0,-0.0146777033805847,0.816580057144165
-0.0089950561523437,1.3584188222885132,-0.1385776102542877,-0.4231111705303192,-0.0048616216517984,-0.0621239133179187,0.0,0.0,0.0344789028167724,0.8124675750732422
-0.010411262512207,1.3488634824752808,-0.1368764340877533,-0.4247110188007355,-0.0095486519858241,-0.0937493816018104,0.0,0.0,0.4290797710418701,0.8690185546875
-0.0116529464721679,1.339569091796875,-0.1179151311516761,-0.4131321907043457,-0.0157334972172975,-0.123708389699459,0.0,0.0,-0.3209325075149536,-0.650423526763916
-0.0129895210266113,1.3297054767608645,-0.1287634968757629,-0.4384444653987884,-0.0205722153186798,-0.0967833548784256,0.0,0.0,0.208202838897705,0.5639258623123169
-0.0143111227080225,1.3200631141662598,-0.1261661946773529,-0.4286431968212127,-0.0265001207590103,-0.1185688599944114,0.0,0.0,0.3300061225891113,-0.0730828046798706
-0.0155872348695993,1.310557842254639,-0.1219849959015846,-0.4225635528564453,-0.0320696048438549,-0.1113998889923095,0.0,0.0,-0.3579591512680053,0.3152508735656738
-0.0168968196958303,1.300475001335144,-0.1253497302532196,-0.4482561647891998,-0.0376128032803535,-0.1108739152550697,0.0,0.0,-0.2616391181945801,0.3081556558609009
-0.0182361602783203,1.2898147106170654,-0.1283672899007797,-0.4739440381526947,-0.0431309714913368,-0.1103732362389564,0.0,0.0,-0.393061101436615,0.1293433904647827
-0.0196019168943166,1.2785766124725342,-0.1310231387615203,-0.4996332824230194,-0.0486262552440166,-0.1099159270524978,0.0,0.0,0.5465638637542725,-0.3601928949356079
-0.0208208076655864,1.2679076194763184,-0.1169870942831039,-0.4743441343307495,-0.0534787662327289,-0.0970591232180595,0.0,0.0,-0.4628466963768005,0.3619093894958496
-0.0220584869384765,1.2566606998443604,-0.1188807487487793,-0.5000432133674622,-0.0583135150372982,-0.0967038124799728,0.0,0.0,-0.2452714443206787,-0.837086021900177
-0.0233613010495901,1.2448503971099854,-0.1267194002866745,-0.5250477194786072,-0.0618476495146751,-0.0706888362765312,0.0,0.0,-0.5596614480018616,-0.4086203575134277
-0.0246748924255371,1.2324622869491575,-0.1278078109025955,-0.550736665725708,-0.0653693079948425,-0.0704394802451133,0.0,0.0,0.848224401473999,-0.5286083817481995
-0.0258627887815237,1.2208380699157717,-0.1166447848081588,-0.5167243480682373,-0.0674893707036972,-0.0424046665430069,0.0,0.0,-0.4464438557624817,-0.0347595810890197
-0.027053166180849,1.208635687828064,-0.1169034019112587,-0.5424232482910156,-0.0696028769016265,-0.0422739349305629,0.0,0.0,-0.3398623466491699,-0.7266793847084045
-0.0282866470515728,1.195865511894226,-0.1223793253302574,-0.5676079988479614,-0.0705710053443908,-0.019364234060049,0.0,0.0,0.201689600944519,-0.4207689166069031
-0.0294832233339548,1.1829980611801147,-0.1187175884842872,-0.5719323754310608,-0.071498617529869,-0.0185537599027156,0.0,0.0,-0.0961676836013794,-0.5728754997253418
-0.030705165117979,1.1695555448532104,-0.1221696585416793,-0.5974465012550354,-0.0715335607528686,-0.000698878953699,0.0,0.0,-0.5784210562705994,-0.6185575723648071
-0.0319567695260047,1.1555328369140625,-0.1262061893939972,-0.6231788992881775,-0.0704870596528053,0.020931914448738,0.0,0.0,-0.1231934428215026,-0.2307377457618713
-0.0331902503967285,1.140932321548462,-0.1243975386023521,-0.6488668322563171,-0.0694488361477851,0.0207661874592304,0.0,0.0,-0.540566086769104,0.4933817386627197
-0.0344027504324913,1.1257323026657104,-0.1222934275865554,-0.6755062937736511,-0.0684213489294052,0.0205499958246946,0.0,0.0,-0.6569275856018066,-0.400833249092102
-0.0355895049870014,1.1099544763565063,-0.1197058707475662,-0.7011921405792236,-0.0674075633287429,0.0202755518257617,0.0,0.0,-0.211867094039917,0.1038131713867187
-0.0367468819022178,1.09359872341156,-0.1167502850294113,-0.7268781065940857,-0.0664102509617805,0.0199463795870542,0.0,0.0,0.8343145847320557,-0.3827806711196899
-0.0379589088261127,1.0779666900634766,-0.1215110272169113,-0.6947456002235413,-0.0661022737622261,0.0061595765873789,0.0,0.0,0.4415509700775146,0.0347641706466674
-0.0391247756779193,1.062395095825195,-0.1167967095971107,-0.6920545101165771,-0.0659007057547569,0.0040311804041266,0.0,0.0,0.0270098447799682,0.2194007635116577
-0.0402050986886024,1.047032356262207,-0.1082570329308509,-0.6827792525291443,-0.0656694024801254,0.0046259476803243,0.0,0.0,-0.494807481765747,0.2043582201004028
-0.0412428863346576,1.0310916900634766,-0.103987917304039,-0.7084651589393616,-0.0654644444584846,0.0040991208516061,0.0,0.0,0.4076793193817138,-0.3248662948608398
-0.0422609336674213,1.0156023502349854,-0.1016540899872779,-0.6884220838546753,-0.0656134784221649,-0.002980756573379,0.0,0.0,-0.1613285541534423,-0.5322908759117126
-0.0432777404785156,0.9995348453521729,-0.1026846766471862,-0.7140670418739319,-0.0646224096417427,0.0198211576789617,0.0,0.0,0.53485107421875,0.3042464256286621
-0.0441914573311805,0.9837601780891418,-0.092409148812294,-0.7010497450828552,-0.0635940134525299,0.0205680187791585,0.0,0.0,0.1214287281036377,-0.1449196934700012
-0.0450074188411235,0.9681750535964966,-0.0826635211706161,-0.6926290392875671,-0.0625429227948188,0.0210217926651239,0.0,0.0,-0.3593333959579468,-0.3145700693130493
-0.0457686409354209,0.9520121216773988,-0.0771388560533523,-0.718315064907074,-0.0615279302000999,0.0202997457236051,0.0,0.0,0.0660126209259033,0.2709343433380127
-0.0464180931448936,0.9360042810440063,-0.0660543292760849,-0.711415708065033,-0.0604370646178722,0.0218173135071992,0.0,0.0,-0.4643287062644958,0.0732500553131103
-0.0470088943839073,0.9194185137748718,-0.0601415336132049,-0.7371017932891846,-0.0593854337930679,0.0210327338427305,0.0,0.0,-0.2454221844673156,0.3563919067382812
-0.0475391373038291,0.9022549390792848,-0.0540565624833107,-0.7627878189086914,-0.0583744421601295,0.0202199257910251,0.0,0.0,-0.1858714818954467,0.0307186841964721
-0.0480075851082801,0.8845134377479553,-0.0478129312396049,-0.7884738445281982,-0.0574053972959518,0.0193808078765869,0.0,0.0,0.2772457599639892,-0.0239883065223693
-0.0482939705252647,0.866791844367981,-0.0300205051898956,-0.7875716090202332,-0.0560381971299648,0.0273440517485141,0.0,0.0,-0.0586271286010742,-0.1733742952346801
-0.0485155098140239,0.8484925627708435,-0.0234968401491642,-0.8132577538490295,-0.0547153241932392,0.0264575816690921,0.0,0.0,0.0136048793792724,-0.0554050207138061
-0.0485925674438476,0.8300960659980774,-0.0092782210558652,-0.8175666928291321,-0.0531560406088829,0.0311853978782892,0.0,0.0,0.3679256439208984,0.0897853374481201
-0.0486230850219726,0.8114895224571228,-0.0044255889952182,-0.8269067406654358,-0.051798827946186,0.0271444115787744,0.0,0.0,0.1619957685470581,0.4197413921356201
-0.0485409721732139,0.7926546931266785,0.0067303022369742,-0.8370521664619446,-0.0503394342958927,0.029187748208642,0.0,0.0,0.1148188114166259,0.2064728736877441
-0.0483335480093956,0.7736907005310059,0.0191242489963769,-0.8427921533584595,-0.0487377569079399,0.032033234834671,0.0,0.0,0.4589612483978271,0.8297930955886841
-0.0480658523738384,0.755264163017273,0.027031073346734,-0.8189653158187866,-0.0489856451749801,-0.0049575422890484,0.0,0.0,-0.3736740946769714,-0.5641444325447083
-0.0477815642952919,0.7362688183784485,0.0273421555757522,-0.8442071080207825,-0.0479125119745731,0.021462608128786,0.0,0.0,0.0169976949691772,0.88250732421875
-0.0473566055297851,0.7171580195426941,0.0432344451546669,-0.8493872284889221,-0.0486447401344776,-0.0146445054560899,0.0,0.0,-0.123522400856018,-0.2973610162734985
-0.0468596443533897,0.6974694728851318,0.0504947081208229,-0.875073254108429,-0.0494279228150844,-0.0156637001782655,0.0,0.0,0.2350983619689941,-0.3779464960098266
-0.0463056564331054,0.6780313849449158,0.0564401745796203,-0.8639530539512634,-0.050461821258068,-0.0206780284643173,0.0,0.0,0.2498238086700439,-0.6517387628555298
-0.0456212051212787,0.658512532711029,0.0680833831429481,-0.8674948811531067,-0.0501045137643814,0.0071461154147982,0.0,0.0,-0.4105857610702514,-0.2886045575141907
-0.0448630340397357,0.6384156942367554,0.0755085498094558,-0.8931808471679688,-0.0497997812926769,0.0060945195145905,0.0,0.0,0.2904936075210571,-0.6994673013687134
-0.0439372062683105,0.6183034181594849,0.090727150440216,-0.8938204050064087,-0.0479627847671508,0.0367399379611015,0.0,0.0,0.7564125061035156,-0.4783996343612671
-0.0430142395198345,0.5983710289001465,0.0909716710448265,-0.8858396410942078,-0.0466491989791393,0.0262717064470052,0.0,0.0,0.664649486541748,-0.686724841594696
-0.0419297218322753,0.5790669322013855,0.105560302734375,-0.8578701615333557,-0.0437973141670227,0.0570378676056861,0.0,0.0,0.4546189308166504,-0.8278273940086365
-0.0406729690730571,0.560073733329773,0.1209971457719802,-0.844011127948761,-0.0391676016151905,0.092594064772129,0.0,0.0,0.6496191024780273,-0.7614625096321106
-0.039286233484745,0.5417418479919434,0.1323436200618744,-0.8146001100540161,-0.0329195670783519,0.1249608993530273,0.0,0.0,-0.1808196306228637,-0.4968459606170654
-0.0378236770629882,0.5228325128555298,0.1399883478879928,-0.840289294719696,-0.0267264563590288,0.1238621622323989,0.0,0.0,0.3266067504882812,-0.5646550059318542
-0.0362768173217773,0.5037868618965149,0.1472345292568206,-0.8463584780693054,-0.0193713828921318,0.1471016108989715,0.0,0.0,0.9750750064849854,-0.575665295124054
-0.0348101630806922,0.4854297041893005,0.1384696662425995,-0.8157905340194702,-0.0112907690927386,0.1616123616695404,0.0,0.0,0.9187147617340088,-0.1694233417510986
-0.0331168174743652,0.4673939645290375,0.1605367362499237,-0.8015458583831787,-0.0026024053804576,0.1737669855356216,0.0,0.0,0.8658349514007568,-0.2762074470520019
-0.031318187713623,0.4498195648193359,0.1709912717342376,-0.7810938358306885,0.0061530321836471,0.1751089245080948,0.0,0.0,0.8055018186569214,-0.2279465198516845
-999.0,0.4323254823684692,0.1792908757925033,-0.7775790095329285,0.014891792088747,0.1747752279043197,0.0,0.0,0.9003486633300781,-0.4381197690963745
-0.0276307109743356,0.4152707755565643,0.1724793165922165,-0.7580897808074951,0.0229154527187347,0.1604732573032379,0.0,0.0,0.9203662872314452,-0.3677266836166382
-0.0257452018558979,0.3991315364837646,0.1803642809391021,-0.7174452543258667,0.0309979598969221,0.1616501957178115,0.0,0.0,0.2500877380371094,-0.0778945684432983
-0.0237270351499319,0.3827499449253082,0.1933922916650772,-0.7282692790031433,0.0393110923469066,0.166262537240982,0.0,0.0,0.5723360776901245,-0.2779704332351684
-0.0216376297175884,0.3670105338096618,0.2004594355821609,-0.6997749209403992,0.0476863794028759,0.1675057411193847,0.0,0.0,0.4001641273498535,-0.0272335410118103
-0.0195694919675588,0.3512894213199615,0.1987726986408233,-0.698993980884552,0.0556358210742473,0.1589888483285904,0.0,0.0,0.8096613883972168,-0.529506504535675
-0.0176136009395122,0.3360918164253235,0.1868468523025512,-0.6757976412773132,0.0642769634723663,0.1728226989507675,0.0,0.0,0.8271100521087646,0.435002326965332
-0.0155901908874511,0.3213507533073425,0.1934981942176818,-0.6555608510971069,0.0730183646082878,0.1748283356428146,0.0,0.0,0.8404381275177002,0.3928470611572265
-0.0137008670717477,0.3074243664741516,0.1808370053768158,-0.6193656325340271,0.0810388028621673,0.1604089587926864,0.0,0.0,0.2329733371734619,-0.0922462940216064
-0.0117138866335153,0.2935718595981598,0.1904052644968032,-0.616137683391571,0.0892557725310325,0.1643391996622085,0.0,0.0,0.8044413328170776,0.1627478599548339
-0.0097237583249807,0.2797755002975464,0.1909536719322204,-0.6136742234230042,0.0972452238202095,0.1597888022661209,0.0,0.0,0.8197605609893799,-0.1366217136383056
-0.0076159476302564,0.2659474611282348,0.2024378478527069,-0.615145742893219,0.1055239662528038,0.1655748933553695,0.0,0.0,0.9614195823669434,-0.1430109143257141
-0.005509948823601,0.2521374523639679,0.2024953663349151,-0.6143723726272583,0.1135720163583755,0.1609609127044677,0.0,0.0,0.9763785600662231,0.0358037948608398
-0.0034434318076819,0.2391627132892608,0.198655217885971,-0.5772848129272461,0.1215166449546814,0.1588926017284393,0.0,0.0,0.8294944763183594,-0.1113418340682983
-0.0013205527793616,0.2269719690084457,0.20395228266716,-0.5425132513046265,0.1298141926527023,0.1659509539604187,0.0,0.0,0.8708953857421875,-0.0866613388061523
0.0006345749134197,0.2155560553073883,0.187822088599205,-0.5080645680427551,0.1374668180942535,0.1530527770519256,0.0,0.0,0.0803357362747192,0.0811165571212768
0.002554130507633,0.2038672119379043,0.1847237050533294,-0.52018803358078,0.144671157002449,0.1440866589546203,0.0,0.0,0.689579963684082,0.1398978233337402
0.0044758794829249,0.1928098499774933,0.1848177015781402,-0.4921679496765136,0.1520094275474548,0.146765798330307,0.0,0.0,0.0942106246948242,-0.3401656150817871
0.0063513754867017,0.1817250996828079,0.1805762946605682,-0.4933854043483734,0.1589805036783218,0.1394219100475311,0.0,0.0,0.6266155242919922,-0.1331990957260131
0.0081458091735839,0.1710384041070938,0.1727817952632904,-0.4756883382797241,0.1656452715396881,0.1332951039075851,0.0,0.0,0.7284227609634399,0.2418030500411987
0.0098851202055811,0.1608535200357437,0.1673877537250518,-0.4534048736095428,0.1721955835819244,0.1310063302516937,0.0,0.0,0.7760001420974731,0.0139577388763427
0.0116872787475585,0.1510395556688308,0.173312246799469,-0.4369943737983703,0.1791230738162994,0.1385499536991119,0.0,0.0,0.6104497909545898,-0.8106225728988647
0.0134709356352686,0.1411226093769073,0.1698491871356964,-0.4418010711669922,0.1876677274703979,0.1708929240703582,0.0,0.0,0.4957692623138428,-0.4954079389572143
0.0153466220945119,0.1311893612146377,0.1787357628345489,-0.4426203668117523,0.1965447813272476,0.177540972828865,0.0,0.0,0.3291010856628418,-0.6101768016815186
0.0172904022037982,0.121378906071186,0.1841539740562439,-0.4374096095561981,0.2068396359682083,0.2058970183134079,0.0,0.0,0.7595946788787842,-0.0212535262107849
0.0193703658878803,0.1116542220115661,0.1971815526485443,-0.4337594211101532,0.2177655696868896,0.2185183763504028,0.0,0.0,0.8902339935302734,-0.4275171756744385
0.021335506811738,0.1026097387075424,0.1858022361993789,-0.4035936594009399,0.2286059558391571,0.2168076336383819,0.0,0.0,0.4921740293502807,-0.4530360698699951
0.0232496261596679,0.0939991325139999,0.1806513369083404,-0.3843997120857239,0.2395203560590744,0.2182881534099578,0.0,0.0,0.7460861206054688,-0.3390059471130371
0.0252011306583881,0.0858862027525901,0.1838796585798263,-0.3624511361122131,0.2509886920452118,0.2293663471937179,0.0,0.0,0.3584744930267334,0.2146193981170654
0.0272429473698139,0.0776178464293479,0.1926189959049224,-0.3695039749145508,0.2627859711647033,0.2359460890293121,0.0,0.0,0.6900802850723267,-0.0617006421089172
0.0291739460080862,0.0695067718625068,0.1818715929985046,-0.362550139427185,0.2742803394794464,0.2298872768878936,0.0,0.0,0.3853712081909179,0.004834771156311
0.0310535430908203,0.0618927329778671,0.1765012294054031,-0.3405947983264923,0.2860490679740906,0.2353739738464355,0.0,0.0,0.5463395118713379,-0.1843628883361816
0.0328378677368164,0.0544596537947654,0.1671667993068695,-0.3326117098331451,0.2976632714271545,0.2322842329740524,0.0,0.0,0.8753128051757812,0.1413648128509521
0.0342981331050396,0.0476828180253505,0.1354823857545852,-0.3033881485462188,0.308570921421051,0.218153029680252,0.0,0.0,0.8495211601257324,0.650497555732727
0.0357447639107704,0.0415198914706707,0.1352305263280868,-0.2759428322315216,0.318356454372406,0.195710688829422,0.0,0.0,0.7725515365600586,0.0655573606491088
0.0369603149592876,0.0358998402953147,0.1124493107199668,-0.2518095970153808,0.3278239965438843,0.1893511265516281,0.0,0.0,0.7890514135360718,0.2371766567230224
0.0378988273441791,0.0319022759795188,0.1023444682359695,-0.1757356524467468,0.3190664052963257,-0.1750164031982422,0.0,1.0,0.9936752319335938,0.704013466835022
0.0385710708796978,0.0290667153894901,0.0948752239346504,-0.1202026307582855,0.2904463708400726,-0.5723994970321655,0.0,1.0,0.9670112133026124,-0.5679125785827637
0.038782499730587,0.0271932464092969,0.0606888346374034,-0.0759079828858375,0.2498949766159057,-0.8110597729682922,0.0,1.0,0.7786645889282227,-0.685652494430542
0.038606833666563,0.0256872028112411,0.0255663208663463,-0.0601850673556327,0.2061162441968917,-0.8756113052368164,0.0,1.0,0.4821513891220093,-0.6584872007369995
0.0383845344185829,0.0245538093149662,0.0179248247295618,-0.045279536396265,0.1657744646072387,-0.8068357706069946,0.0,0.0,-0.99639892578125,-0.4778728485107422
0.0382349006831646,0.0228637307882308,0.0255086068063974,-0.0711002573370933,0.125383123755455,-0.8078282475471497,0.0,0.0,-0.970566749572754,-0.7899547815322876
0.0381105430424213,0.0206137523055076,0.0270867850631475,-0.0971490293741226,0.0861370936036109,-0.7849218845367432,0.0,0.0,-0.2971454262733459,-0.9372043013572692
0.0379819869995117,0.0178029388189315,0.0249049719423055,-0.1231744587421417,0.0487775430083274,-0.747191846370697,0.0,0.0,0.81884765625,-0.9608168005943298
0.0379792228341102,0.0158594474196434,0.0354035906493663,-0.0855936482548713,0.0135461157187819,-0.7046297192573547,0.0,0.0,0.6237704753875732,-0.9598273634910583
0.0380505546927452,0.0142082069069147,0.0408380404114723,-0.0734187811613082,-0.01972465403378,-0.6654159426689148,0.0,0.0,0.295297622680664,-0.8414297103881836
0.0381344780325889,0.0129635902121663,0.0404458530247211,-0.0560400336980819,-0.0513800978660583,-0.6331098675727844,0.0,0.0,0.3103635311126709,-0.9273186326026917
0.0383055694401264,0.0120988460257649,0.0472583249211311,-0.0397350378334522,-0.0812050029635429,-0.5964986085891724,0.0,0.0,0.4863426685333252,-0.9166643023490906
0.0385916717350482,0.0112782334908843,0.0568089000880718,-0.0382397510111331,-0.1091662943363189,-0.5592259168624878,0.0,0.0,0.1232005357742309,-0.9078712463378906
0.0389112457633018,0.0113016935065388,0.0395080931484699,0.0004416531592141,-0.1165874078869819,-0.1483086049556732,1.0,0.0,-0.4165979623794555,-0.3322172164916992
0.0393282882869243,0.0113993976265192,0.0323201529681682,0.0050265663303434,-0.1072061359882354,0.1877088248729705,1.0,0.0,-0.9182064533233644,-0.5919061303138733
0.0396856293082237,0.0109110213816165,0.0257303472608327,-0.0210211668163537,-0.0972766876220703,0.1985940486192703,1.0,0.0,-0.8273431062698364,-0.6590701937675476
0.0399932861328125,0.009852085262537,0.0194860734045505,-0.046364139765501,-0.0860898718237876,0.223735973238945,1.0,0.0,-0.6479214429855347,-0.5786634087562561
0.0402708053588867,0.0082607483491301,0.0143980234861373,-0.0700118541717529,-0.0728742107748985,0.2643135786056518,1.0,0.0,-0.3943549394607544,-0.277646005153656
0.0405660644173622,0.0062287067994475,0.0126554872840642,-0.0895744711160659,-0.0561816953122615,0.3338500261306762,1.0,0.0,-0.2619428038597107,0.2353596687316894
0.0408790595829486,0.0037520264741033,0.0109846945852041,-0.1094371899962425,-0.0361063107848167,0.4015074372291565,1.0,0.0,0.2594598531723022,0.070298433303833
0.0412542335689067,0.0010917043546214,0.0160136260092258,-0.1178551390767097,-0.0148777961730957,0.4245702624320984,1.0,0.0,0.295513391494751,-0.0611374974250793
