x_pos,y_pos,x_vel,y_vel,angle,ang_vel,leg_1,leg_2,main_booster,lat_booster
-0.0015488624339923,1.403012752532959,-0.1577676832675933,-0.3514391779899597,0.0025756771210581,0.0508680455386638,0.0,0.0,0.4350809900456813,-0.5379303088761526
-0.0031179427169263,1.3951153755187988,-0.1614395827054977,-0.351006418466568,0.0070616258308291,0.0897282883524894,0.0,0.0,-0.1899997583337083,0.6263674853862192
-0.00465230923146,1.3866020441055298,-0.1572299301624298,-0.3783919513225555,0.010817396454513,0.0751223862171173,0.0,0.0,-0.8121113487699716,0.9005675576543929
-0.0061551094986498,1.3774752616882324,-0.1534289568662643,-0.4056631028652191,0.01392856054008,0.0622290261089801,0.0,0.0,0.083029157693127,0.8260964492735221
-0.007525825407356,1.3683841228485107,-0.1394195407629013,-0.4040761590003967,0.0162458829581737,0.0463507696986198,0.0,0.0,0.048898127564255,0.9845943963168672
-0.0087452884763479,1.3592013120651243,-0.1230877414345741,-0.4081319272518158,0.0173738487064838,0.0225613452494144,0.0,0.0,0.7226420822519248,-0.8596451949666437
-0.0100943567231297,1.3503077030181885,-0.1385002732276916,-0.3953153491020202,0.0209413021802902,0.0713556781411171,0.0,0.0,-0.6175475580159513,-0.7098695246334082
-0.0115106580778956,1.340803623199463,-0.1471069008111953,-0.422493577003479,0.0263512525707483,0.1082089096307754,0.0,0.0,0.6525768668599736,0.9258530982452922
-0.0129153253510594,1.331955909729004,-0.1448502838611602,-0.3933141827583313,0.0306909773498773,0.086802065372467,0.0,0.0,-0.3588319244629521,-0.8723823221524633
-0.0144141195341944,1.322499394416809,-0.1568167507648468,-0.4204515516757965,0.0375481210649013,0.1371555924415588,0.0,0.0,-0.5924967019950547,0.959257122632772
-0.0158521644771099,1.312437653541565,-0.1493224203586578,-0.4473396837711334,0.0430165566504001,0.1093785911798477,0.0,0.0,-0.8721791737989055,0.763553831799067
-0.0172481536865234,1.3017675876617432,-0.144215777516365,-0.4743616282939911,0.0475808195769786,0.091293416917324,0.0,0.0,0.8332479715800727,-0.9236937071455932
-0.01861915551126,1.2916609048843384,-0.1446421146392822,-0.4494503736495971,0.055050142109394,0.149400383234024,0.0,0.0,-0.4687206007565503,0.6243879705069014
-0.0199604034423828,1.2809420824050903,-0.1410704851150512,-0.4766622185707092,0.0619233101606369,0.1374758630990982,0.0,0.0,-0.3042675187523234,-0.6136068642985393
-0.0213643070310354,1.2696160078048706,-0.1490577161312103,-0.5037647485733032,0.070514477789402,0.1718389391899109,0.0,0.0,0.9642836013969588,0.5348197877751777
-0.0226382259279489,1.2582212686538696,-0.1362096220254898,-0.5068624019622803,0.0792482197284698,0.1746906340122223,0.0,0.0,-0.8182209962843261,0.5219286799535066
-0.0238873474299907,1.2462286949157717,-0.1332225501537323,-0.5334623456001282,0.0874895602464675,0.1648419797420501,0.0,0.0,0.6114505078241039,-0.532431039804545
-0.0250869747251272,1.2341821193695068,-0.130520224571228,-0.5360543727874756,0.0979761481285095,0.2097507268190384,0.0,0.0,0.2063805382069401,-0.6345975121347298
-0.0263408664613962,1.2224116325378418,-0.1381187438964843,-0.5240127444267273,0.110632948577404,0.2531588971614837,0.0,0.0,-0.1282370565155792,-0.909316039761931
-0.0277008060365915,1.2100194692611694,-0.1515717804431915,-0.5520007014274597,0.1261246353387832,0.3098616003990173,0.0,0.0,0.1766718150645814,0.9460932240887244
-0.0289743430912494,1.1978574991226196,-0.1417948454618454,-0.5418155789375305,0.1405291557312011,0.2881163656711578,0.0,0.0,-0.9113801315622084,0.7246134700856535
-0.0302149765193462,1.1850959062576294,-0.1377834975719452,-0.5685358643531799,0.1542398929595947,0.2742394804954529,0.0,0.0,0.7676379533051629,-0.890265727027405
-0.0314874649047851,1.1726086139678955,-0.1437579691410064,-0.5567837953567505,0.1707714349031448,0.3306606113910675,0.0,0.0,-0.5685266256542394,-0.7757268536124744
-0.0328378677368164,1.1594927310943604,-0.1536301076412201,-0.5851669311523438,0.1894557625055313,0.3737199008464813,0.0,0.0,0.5463679743729337,-0.7158713299272415
-0.0345265381038188,1.146604299545288,-0.1893222033977508,-0.575565755367279,0.2100713104009628,0.4123477935791015,0.0,0.0,0.2814743836651034,-0.8943154125346607
-0.0365486145019531,1.1338342428207395,-0.2250420600175857,-0.5709646940231323,0.233167827129364,0.461930364370346,0.0,0.0,0.1142326402916478,0.7972618746552684
-0.0386457443237304,1.1212043762207031,-0.2316040694713592,-0.5649510025978088,0.2554259896278381,0.4451631605625152,0.0,0.0,-0.8223680908196056,0.9450942170220802
-0.0407133102416992,1.1080032587051392,-0.2277948558330536,-0.5905342102050781,0.2769486606121063,0.4304540753364563,0.0,0.0,-0.4310522860649974,0.6274910405477333
-0.0427695289254188,1.09421968460083,-0.226308986544609,-0.6166645288467407,0.2982368469238281,0.4257637858390808,0.0,0.0,0.024192188983297,0.8882656517650412
-0.0448866859078407,1.080287218093872,-0.2312617301940918,-0.6233623623847961,0.3184888660907745,0.4050402641296386,0.0,0.0,0.0458829311463608,-0.5476532363459345
-0.0472260490059852,1.0665072202682495,-0.255172848701477,-0.6172720789909363,0.3406328558921814,0.4428797364234924,0.0,0.0,-0.709338903427124,0.9884183406829834
-0.0495249740779399,1.05215322971344,-0.2500175535678863,-0.6428560614585876,0.3617790639400482,0.4229248464107513,0.0,0.0,-0.6501121520996094,0.9983279705047609
-0.0517873764038085,1.037240982055664,-0.2452338635921478,-0.6676904559135437,0.381898432970047,0.4023872315883636,0.0,0.0,-0.5672506093978882,0.995518684387207
-0.0540065765380859,1.0217561721801758,-0.2397711277008056,-0.6931078433990479,0.4009442925453186,0.3809178173542022,0.0,0.0,-0.4637911915779114,0.981574773788452
-0.0561774261295795,1.0057158470153809,-0.2335326969623565,-0.7176563739776611,0.4186480939388275,0.3540753722190857,0.0,0.0,-0.4628996849060058,0.967815637588501
-0.0583021156489849,0.989125430583954,-0.2275681793689727,-0.741911768913269,0.435014009475708,0.3273180425167084,0.0,0.0,-0.2215704917907714,0.9817724227905272
-0.0603814125061035,0.9719727635383606,-0.2218153923749923,-0.7667254209518433,0.4501680433750152,0.3030809462070465,0.0,0.0,-0.2365120649337768,0.9701111316680908
-0.0624127388000488,0.9542741775512696,-0.2156044244766235,-0.7906825542449951,0.4638881683349609,0.2744024395942688,0.0,0.0,-0.2305577397346496,0.996778964996338
-0.0644042044878006,0.936029016971588,-0.2104050666093826,-0.8147069215774536,0.4763658046722412,0.2495524883270263,0.0,0.0,-0.3803824186325073,0.984365940093994
-0.0663454979658126,0.9172346591949464,-0.2040382325649261,-0.8387508988380432,0.4873958528041839,0.2206009626388549,0.0,0.0,0.1289820671081543,0.9903295040130616
-0.0685675591230392,0.898540198802948,-0.2308424711227417,-0.833946943283081,0.4970718920230865,0.193520650267601,0.0,0.0,-0.2616329193115234,0.924462914466858
-0.0707323104143142,0.8792999386787415,-0.2236166447401046,-0.8577290773391724,0.5051049590110779,0.160661444067955,0.0,0.0,-0.2987648248672485,0.9756910800933838
-0.0728352516889572,0.8595077991485596,-0.2159163057804107,-0.8817340135574341,0.5114552974700928,0.1270062327384948,0.0,0.0,-0.3535005450248718,0.7732584476470947
-0.0748948082327842,0.8391590714454651,-0.210484504699707,-0.9060904383659364,0.5165873169898987,0.1026402711868286,0.0,0.0,0.2336695194244384,0.9394819736480712
-0.077043816447258,0.8185088038444519,-0.2182685583829879,-0.9190745949745178,0.5204152464866638,0.0765587240457534,0.0,0.0,0.0546225309371948,0.9285945892333984
-0.0792194381356239,0.7976008653640747,-0.2197730839252472,-0.9300963878631592,0.5229383707046509,0.0504628717899322,0.0,0.0,0.1883952617645263,0.9289264678955078
-0.0814625769853591,0.7765913605690002,-0.2253845185041427,-0.93416029214859,0.5241537094116211,0.024306571111083,0.0,0.0,0.3849896192550659,0.9883780479431152
-0.0841015800833702,0.7558676600456238,-0.263632208108902,-0.9209511280059814,0.5238483548164368,-0.0061075612902641,0.0,0.0,0.1684365272521972,0.9511101245880128
-0.0870676040649414,0.7352403998374939,-0.29510298371315,-0.9161860346794128,0.5221453309059143,-0.0340599007904529,0.0,0.0,0.0536909103393554,0.9427690505981444
-0.0901577025651931,0.714468240737915,-0.3063031435012817,-0.9221781492233276,0.5190623998641968,-0.0616583451628685,0.0,0.0,0.0607684850692749,0.7772984504699707
-0.0932965278625488,0.6936899423599243,-0.3102659583091736,-0.922105610370636,0.5149564743041992,-0.0821190774440765,0.0,0.0,-0.2660927772521972,0.8209648132324219
-0.0963976830244064,0.6723515391349792,-0.3056053519248962,-0.9466807246208192,0.5098415613174438,-0.1022977083921432,0.0,0.0,-0.2945694923400879,0.9652738571166992
-0.0994293242692947,0.6504660248756409,-0.2969828844070434,-0.9704105854034424,0.5028750896453857,-0.1393294036388397,0.0,0.0,0.0171301364898681,0.9558956623077391
-0.1026415824890136,0.628681480884552,-0.3137027621269226,-0.9654606580734252,0.4944054186344147,-0.1693925410509109,0.0,0.0,-0.3046680688858032,0.976960301399231
-0.1057765036821365,0.6063540577888489,-0.3040805459022522,-0.9889834523200988,0.4838804602622986,-0.2104990035295486,0.0,0.0,-0.0748394131660461,0.9176428318023682
-0.1088629737496376,0.5834580063819885,-0.2981665134429931,-1.0139775276184082,0.4722210168838501,-0.2331890761852264,0.0,0.0,0.3060470819473266,0.8853855133056641
-0.1121063232421875,0.5609089136123657,-0.3125458359718323,-0.9982280731201172,0.4592029154300689,-0.2603619992733001,0.0,0.0,0.5779533386230469,0.918292760848999
-0.1154427528381347,0.5387687087059021,-0.3205719590187073,-0.9797704219818116,0.4448568224906921,-0.28692227602005,0.0,0.0,0.3761093616485595,0.9539543390274048
-0.1189476996660232,0.5170535445213318,-0.3359076380729675,-0.9605627655982972,0.4289475977420807,-0.3181842267513275,0.0,0.0,0.490230917930603,0.7332079410552979
-0.1227675452828407,0.4956931173801422,-0.3660828769207001,-0.9446009397506714,0.411749005317688,-0.3439717292785644,0.0,0.0,0.3878848552703857,0.6904478073120117
-0.1266171485185623,0.4742099046707153,-0.3679813742637634,-0.9499799609184264,0.3935413956642151,-0.3641519844532013,0.0,0.0,0.8073678016662598,0.8373574018478394
-0.130811408162117,0.453156441450119,-0.4007846415042877,-0.9306774139404296,0.3736821413040161,-0.3971858322620392,0.0,0.0,0.6760103702545166,0.4596461057662964
-0.135077953338623,0.4322985112667084,-0.4086694121360779,-0.9224337935447692,0.3546707034111023,-0.3802288174629211,0.0,0.0,0.7814116477966309,0.6461026668548584
-0.1394969969987869,0.4118059873580932,-0.4228034913539886,-0.90619158744812,0.3346298336982727,-0.4008172154426574,0.0,0.0,0.8286232948303223,0.4900990724563598
-0.1440483033657074,0.3913404643535614,-0.4361200332641601,-0.9052971601486206,0.3148237466812134,-0.3961222767829895,0.0,0.0,0.9150509834289552,-0.0982077121734619
-0.1489415168762207,0.371179461479187,-0.4697034358978271,-0.8919153213500977,0.2945103347301483,-0.4062680602073669,0.0,0.0,0.8653583526611328,-0.0750724077224731
-0.1540842056274414,0.3518098592758178,-0.4947486519813537,-0.8570471405982971,0.2744264602661133,-0.4016779065132141,0.0,0.0,0.7400749921798706,0.1720430850982666
-0.1592180281877517,0.3323138356208801,-0.4942235946655273,-0.8630138635635376,0.2548204660415649,-0.3921199440956116,0.0,0.0,0.8025339841842651,-0.429552674293518
-0.1645478308200836,0.3135742843151092,-0.513893723487854,-0.8296719789505005,0.2353890240192413,-0.3886290192604065,0.0,0.0,0.8618292808532715,-0.6822834014892578
-0.1701539009809494,0.2949439287185669,-0.5425117611885071,-0.8252265453338623,0.2170592099428177,-0.3665959239006042,0.0,0.0,0.9681565761566162,-0.7587089538574219
-0.1760958731174469,0.2768328785896301,-0.5772303938865662,-0.8025322556495667,0.1999396979808807,-0.3423908650875091,0.0,0.0,0.9199991226196288,-0.6970146298408508
-0.1821842193603515,0.2591730654239654,-0.5932217836380005,-0.7828467488288879,0.1842326819896698,-0.3141407370567322,0.0,0.0,0.8191177845001221,-0.5414424538612366
-0.1886196136474609,0.2422282248735427,-0.6284266710281372,-0.7512919902801514,0.1690645366907119,-0.3033626675605774,0.0,0.0,0.0729908943176269,-0.0590946674346923
-0.1950558722019195,0.2252409756183624,-0.6285277009010315,-0.7533390522003174,0.1539594829082489,-0.302101194858551,0.0,0.0,0.1883081197738647,-0.2080289721488952
-0.2015431821346283,0.2080561071634292,-0.6332896947860718,-0.762247622013092,0.1385475695133209,-0.3082378506660461,0.0,0.0,0.327176570892334,0.0150477886199951
-0.2079956978559494,0.1906615048646927,-0.6297994256019592,-0.7717304825782776,0.1231577172875404,-0.3077971935272217,0.0,0.0,0.7606813907623291,-0.1288216114044189
-0.2145087271928787,0.173190176486969,-0.6353908777236938,-0.7752646207809448,0.1073467582464218,-0.3162193894386291,0.0,0.0,0.9653534889221193,0.1384716033935547
-0.2211146801710128,0.1565157771110534,-0.6443123817443848,-0.7399947643280029,0.0911909118294715,-0.3231171071529388,0.0,0.0,0.8879454135894775,0.0843881368637085
-0.2276958525180816,0.1406377404928207,-0.6419031023979187,-0.7047826647758484,0.0751272663474083,-0.3212729096412658,0.0,0.0,0.9837510585784912,-0.1363632678985595
-0.2344659864902496,0.1256039887666702,-0.6597791314125061,-0.6673901081085205,0.058079145848751,-0.3409624397754669,0.0,0.0,0.982792854309082,-0.3984191417694092
-0.2413945645093917,0.1105440706014633,-0.6744931936264038,-0.66871577501297,0.0399227514863014,-0.3631277978420257,0.0,0.0,0.995313286781311,-0.6491885781288147
-0.2483406513929367,0.0963131263852119,-0.6772482395172119,-0.632112443447113,0.0227782502770423,-0.3428900241851806,0.0,0.0,0.99790358543396,-0.6002296209335327
-0.2554600834846496,0.0825115516781807,-0.6949678659439087,-0.6132237911224365,0.0060182479210197,-0.3352001309394836,0.0,0.0,0.9980075359344482,-0.6906565427780151
-0.2626895308494568,0.0693333223462104,-0.7067009806632996,-0.5857136249542236,-0.0100177666172385,-0.3207201957702636,0.0,0.0,0.9986748695373536,-0.689529538154602
-0.2699593901634216,0.0568201392889022,-0.7115959525108337,-0.5563172101974487,-0.0252127405256032,-0.3038996160030365,0.0,1.0,0.958794116973877,0.9963498115539552
-0.2766546607017517,0.0458311662077903,-0.6411458253860474,-0.4906243979930877,-0.0593012608587741,-0.6892167329788208,0.0,1.0,0.9555535316467284,0.6431319713592529
-0.2833631038665771,0.0354794822633266,-0.6152492761611938,-0.4631831049919128,-0.1139293015003204,-1.0920003652572632,0.0,1.0,0.689967155456543,-0.7739697694778442
-0.2899839878082275,0.0257957074791193,-0.5902220010757446,-0.4374822974205017,-0.1854492872953415,-1.4301434755325315,1.0,1.0,0.9834518432617188,-0.6970790028572083
-0.2960744500160217,0.0175718404352664,-0.5403856039047241,-0.3757289350032806,-0.2539806365966797,-1.369465947151184,1.0,1.0,0.9621143341064452,-0.8077093362808228
-0.3015812039375305,0.0103795146569609,-0.4873426854610443,-0.3320557475090027,-0.319130390882492,-1.302969217300415,1.0,0.0,0.999929428100586,-0.9870964884757996
-0.3045559823513031,0.00927394349128,-0.2393014729022979,0.050382237881422,-0.3056392967700958,9.692282532114405e-08,1.0,0.0,0.999929428100586,-0.9870964884757996
