x_pos,y_pos,x_vel,y_vel,angle,ang_vel,leg_1,leg_2,main_booster,lat_booster
-0.0015557289589196,1.4029277563095093,-0.1583265513181686,-0.3552098274230957,0.0024782516993582,0.048938613384962,0.0,0.0,-0.5271796538050542,-0.7074857065930344
-0.0031937598250806,1.394258737564087,-0.1682313829660415,-0.3853058516979217,0.0068525830283761,0.08749570697546,0.0,0.0,0.9604569129060916,0.968122642389988
-0.0046145441010594,1.3856074810028076,-0.1455893218517303,-0.3845219314098358,0.0103226555511355,0.069408044219017,0.0,0.0,-0.0484621578875372,0.6387078286971601
-0.0060252188704907,1.376258134841919,-0.1442228853702545,-0.4155496954917907,0.0134490150958299,0.0625328719615936,0.0,0.0,0.8327465677833665,0.7500602052031381
-0.0072603225708007,1.3673043251037598,-0.1262184977531433,-0.3979781568050384,0.0161245875060558,0.0535162389278411,0.0,0.0,0.2552431644882449,-0.955925530477827
-0.0084847453981637,1.3582725524902344,-0.1277879774570465,-0.4014748632907867,0.0214211270213127,0.1059403643012046,0.0,0.0,-0.1123929982745695,-0.8390355070592757
-0.0098055843263864,1.3485429286956787,-0.139848381280899,-0.4325608313083648,0.0290945693850517,0.1534830629825592,0.0,0.0,0.5046212260733889,0.8486790971480525
-0.0109516140073537,1.3390129804611206,-0.1215594261884689,-0.4236960113048553,0.035967756062746,0.1374764293432235,0.0,0.0,0.0003396283365986,0.9434821771237052
-0.0120772365480661,1.3295607566833496,-0.1182785630226135,-0.4202535450458526,0.0416163876652717,0.1129833683371543,0.0,0.0,-0.6812285849483581,-0.9390028766159252
-0.0133028980344533,1.3194139003753662,-0.1307954788208007,-0.4512178599834442,0.0497645698487758,0.1629784554243087,0.0,0.0,-0.7168779839466597,-0.6012758720595148
-0.0145942689850926,1.3085695505142212,-0.1390226185321808,-0.4823320806026459,0.0595620088279247,0.1959666013717651,0.0,0.0,0.0741313252648283,0.732840261401291
-0.015819739550352,1.2975527048110962,-0.1316590905189514,-0.4900184869766235,0.0685736611485481,0.1802497506141662,0.0,0.0,0.5486489822140179,-0.8433679301339408
-0.0170441623777151,1.2868340015411377,-0.1340463459491729,-0.4769600927829742,0.0800869092345237,0.2302862405776977,0.0,0.0,-0.6174829834771951,0.738098967848361
-0.018226146697998,1.2754217386245728,-0.1287657618522644,-0.5078107118606567,0.0905697494745254,0.2096755802631378,0.0,0.0,-0.0246025310265101,-0.7484622333348782
-0.0194755550473928,1.2633168697357178,-0.1372338086366653,-0.5387794971466064,0.1027842015027999,0.2443111687898636,0.0,0.0,0.4425820046207378,0.8332122115300176
-0.020599365234375,1.2509223222732544,-0.1237406134605407,-0.5516863465309143,0.114074982702732,0.2258361577987671,0.0,0.0,0.933625861621538,-0.7379116617274446
-0.0217424388974905,1.2393544912338257,-0.1281121522188186,-0.5152353048324585,0.1278248578310012,0.2750223278999328,0.0,0.0,0.0711257608946986,0.98976782562161
-0.022747803479433,1.2274823188781738,-0.1128687113523483,-0.5287588834762573,0.1401295363903045,0.2461157739162445,0.0,0.0,-0.1387771359171945,0.9687659045861052
-0.0236846916377544,1.2149438858032229,-0.1042923182249069,-0.5582951903343201,0.1507318168878555,0.2120650708675384,0.0,0.0,0.6869664178426562,0.9846750856222316
-0.0247405059635639,1.202564358711243,-0.1146347150206565,-0.5511401295661926,0.1597785204648971,0.1809501498937606,0.0,0.0,-0.9999935665270354,-0.6163501194301431
-0.0258514396846294,1.189485788345337,-0.1216020956635475,-0.5824353694915771,0.170312613248825,0.2107008248567581,0.0,0.0,-0.7607088157384116,0.8583439495235199
-0.0269095413386821,1.1757256984710691,-0.1150608509778976,-0.6126431226730347,0.1795987486839294,0.1857393980026245,0.0,0.0,-0.6407400806960803,-0.8138546564627059
-0.02803211286664,1.1612569093704224,-0.1232407838106155,-0.6444241404533386,0.1906513720750808,0.2210721671581268,0.0,0.0,-0.0737245538788546,-0.7026721883028337
-0.0292160995304584,1.1460729837417605,-0.1310587078332901,-0.6765269637107849,0.2034221589565277,0.2554379999637604,0.0,0.0,0.3943002288863948,-0.7372524852590747
-0.030711269006133,1.130937576293945,-0.1638702452182769,-0.6747167706489563,0.2179146856069564,0.289876639842987,0.0,0.0,-0.3207762076262306,0.834445547167757
-0.0321680083870887,1.1151089668273926,-0.1591524928808212,-0.7055438160896301,0.2315600514411926,0.2729077339172363,0.0,0.0,-0.5685824979981593,0.6228086851294632
-0.0335888862609863,1.0986080169677734,-0.1546745002269745,-0.7354039549827576,0.2443478256464004,0.2557557821273803,0.0,0.0,0.5232166558469682,0.989523347495381
-0.0352638252079486,1.0825095176696775,-0.1783410757780075,-0.7173305153846741,0.2553921937942505,0.2208870947360992,0.0,0.0,-0.2528664923844934,-0.8936393767837083
-0.0370331779122352,1.06569242477417,-0.190237820148468,-0.7498073577880859,0.2689931392669678,0.2720191180706024,0.0,0.0,-0.0133659373283792,-0.94131538399813
-0.0388852134346962,1.0481486320495603,-0.2007267922163009,-0.7826544642448425,0.2849113643169403,0.3183641135692596,0.0,0.0,0.9332171396014814,-0.6680350764746608
-0.0410541519522666,1.0313342809677124,-0.2340001314878463,-0.7507494688034058,0.3025531470775604,0.3528361916542053,0.0,0.0,0.7975894572188604,-0.8636159274289193
-0.0435266494750976,1.0144344568252563,-0.2660811245441437,-0.7551363706588745,0.3220834136009216,0.3906054198741913,0.0,0.0,0.9488692232163998,-0.75210024357004
-0.0464641563594341,0.99811851978302,-0.3139529824256897,-0.7297869324684143,0.3431646227836609,0.421624481678009,0.0,0.0,-0.431272973819377,-0.6352935112289618
-0.0494602210819721,0.9810798168182372,-0.3212314248085022,-0.7625944018363953,0.3659277558326721,0.4552625119686126,0.0,0.0,-0.1501418679238562,0.7386119694721428
-0.0524081215262413,0.9633851051330566,-0.314967930316925,-0.7917368412017822,0.3873379826545715,0.4282044470310211,0.0,0.0,-0.6891464264176284,-0.6632224079161462
-0.0554107651114463,0.9449767470359802,-0.3216657936573028,-0.8241411447525024,0.4102496206760406,0.4582326412200928,0.0,0.0,-0.6604676411950592,-0.909975256697708
-0.0584870353341102,0.9258310198783876,-0.3307647705078125,-0.8578444719314575,0.4352869093418121,0.5007456541061401,0.0,0.0,-0.4370441328889405,0.6432482792764503
-0.0615222938358783,0.906034767627716,-0.3252163827419281,-0.8867433071136475,0.4590157270431518,0.474577248096466,0.0,0.0,-0.3865581990847884,0.8122176082915216
-0.0645125359296798,0.8855962157249451,-0.3191164135932922,-0.9151574969291688,0.4812370240688324,0.4444254338741302,0.0,0.0,-0.6657144723598356,-0.7986930444213071
-0.0675612464547157,0.8644275069236755,-0.3261861801147461,-0.9484503269195556,0.5051206946372986,0.4776734709739685,0.0,0.0,0.5441717170436413,0.760866826584172
-0.0710135474801063,0.8434923887252808,-0.3647338151931762,-0.9378041625022888,0.5272458791732788,0.4425052106380462,0.0,0.0,-0.5780715942382812,0.9891012907028198
-0.074388787150383,0.8219339847564697,-0.3546008467674255,-0.9649075865745544,0.5468522310256958,0.3921255469322204,0.0,0.0,-0.3786893486976623,0.9944415092468262
-0.0776865035295486,0.7997437715530396,-0.3445352613925934,-0.9923275709152222,0.5639930963516235,0.3428181707859039,0.0,0.0,-0.3325715661048889,0.9828580617904664
-0.0809106826782226,0.7769292593002319,-0.334907591342926,-1.019320368766785,0.5786380767822266,0.2928990423679352,0.0,0.0,-0.4813408851623535,0.9875245094299316
-0.0840724930167198,0.7534685730934143,-0.3268284797668457,-1.047385811805725,0.5912482738494873,0.2522035241127014,0.0,0.0,-0.3223388195037842,0.997204065322876
-0.0871623009443283,0.7293736338615417,-0.3175511062145233,-1.0747569799423218,0.6014605164527893,0.2042444497346878,0.0,0.0,-0.4513866901397705,0.9874749183654784
-0.09018125385046,0.7046493887901306,-0.3083433508872986,-1.1018319129943848,0.6092042922973633,0.1548751294612884,0.0,0.0,-0.0076672434806823,0.979722261428833
-0.0931538566946983,0.6792894005775452,-0.3021126687526703,-1.1293766498565674,0.6150505542755127,0.1169250458478927,0.0,0.0,-0.2181392908096313,0.909926176071167
-0.096084788441658,0.6532858610153198,-0.296484887599945,-1.1573195457458496,0.6191652417182922,0.082294076681137,0.0,0.0,0.3821614980697632,0.8040328025817871
-0.0992267578840255,0.6271390914916992,-0.3159689307212829,-1.162915825843811,0.6213148236274719,0.0429921485483646,0.0,0.0,-0.1134734153747558,0.3810802698135376
-0.1023681610822677,0.600294291973114,-0.3157258629798889,-1.1938626766204834,0.623234212398529,0.0383872613310813,0.0,0.0,0.4649828672409057,0.2419240474700927
-0.1059316620230674,0.5735018849372864,-0.3575275540351867,-1.1913388967514038,0.6246647238731384,0.0286106672137975,0.0,0.0,0.3308110237121582,-0.5466086268424988
-0.1096592918038368,0.5464909672737122,-0.3748502135276794,-1.2014909982681274,0.6272038221359253,0.0507810041308403,0.0,0.0,0.2731934785842895,-0.3055089712142944
-0.1137449294328689,0.5195299983024597,-0.4104058742523193,-1.19916033744812,0.6294596195220947,0.0451159849762916,0.0,0.0,-0.1937777400016784,-0.5987148284912109
-0.1178568825125694,0.4918374717235565,-0.4135913252830505,-1.2319444417953491,0.6323832869529724,0.0584737434983253,0.0,0.0,0.1068251132965087,-0.6411396861076355
-0.1222515106201171,0.4637177586555481,-0.4426530003547668,-1.2513307332992554,0.636296808719635,0.0782706588506698,0.0,0.0,-0.6851868033409119,-0.7008678317070007
-0.1266846656799316,0.4348632097244262,-0.4472581744194031,-1.2843730449676514,0.6411347985267639,0.0967599228024482,0.0,0.0,-0.8112665414810181,-0.3963466882705688
-0.1311170607805252,0.4053093194961548,-0.4468640387058258,-1.3153140544891355,0.6456058025360107,0.0894195288419723,0.0,0.0,-0.804028332233429,-0.4587541818618774
-0.1355486810207367,0.3750560879707336,-0.4464637637138366,-1.3462539911270142,0.6496940851211548,0.0817652270197868,0.0,0.0,-0.8833349943161011,-0.8229254484176636
-0.1400398313999176,0.344043880701065,-0.4536964893341064,-1.380659103393555,0.6553940773010254,0.1139997690916061,0.0,0.0,-0.9284468293190002,-0.8376868963241577
-0.1445744484663009,0.3122722208499908,-0.4590478539466858,-1.4149549007415771,0.6623692512512207,0.1395039409399032,0.0,0.0,-0.9194128513336182,-0.8399978876113892
-0.1491703987121582,0.2797346115112304,-0.4665175974369049,-1.449739694595337,0.6710556149482727,0.1737270057201385,0.0,0.0,-0.8916486501693726,-0.9076786041259766
-0.1538091599941253,0.2464440166950225,-0.4716543555259704,-1.483737230300903,0.6808906197547913,0.196699246764183,0.0,0.0,-0.7556032538414001,-0.8618282079696655
-0.1584985703229904,0.2123946994543075,-0.4777301847934723,-1.5180931091308594,0.6920941472053528,0.2240708768367767,0.0,0.0,-0.3172723054885864,-0.4756693243980407
-0.1631887406110763,0.1776462942361831,-0.4773595929145813,-1.5490343570709229,0.7028384208679199,0.2148859798908233,0.0,0.0,-0.5489619374275208,0.1222189664840698
-0.167879581451416,0.1421983540058136,-0.4770084321498871,-1.5799740552902222,0.7131134867668152,0.2055012732744217,0.0,0.0,-0.5961580872535706,0.5412611961364746
-0.1725417077541351,0.1060976833105087,-0.4727323055267334,-1.6082648038864136,0.7216576337814331,0.1708830893039703,0.0,0.0,-0.5948363542556763,0.1210005283355712
-0.1772049963474273,0.0692968443036079,-0.4724318385124206,-1.639200210571289,0.7297145128250122,0.1611379235982895,0.0,1.0,0.9761714935302734,0.9986305236816406
-0.1769845932722091,0.0629987344145774,-0.0807735547423362,-0.3946964144706726,0.8372364044189453,2.036507368087769,0.0,1.0,-0.9841391444206238,-0.3502098321914673
-0.1760715544223785,0.0642533600330352,-0.0041560479439795,-0.0558165460824966,0.9844932556152344,2.890803337097168,0.0,1.0,-0.9999133944511414,-0.9200081825256348
-0.1754881888628006,0.0656511858105659,-0.0089680701494216,-0.0921864658594131,1.135944128036499,2.92441463470459,0.0,0.0,-0.9999202489852904,0.6198134422302246
-0.1750075370073318,0.0651543736457824,-0.003458211896941,-0.1202960759401321,1.280173420906067,2.877953052520752,0.0,1.0,-0.9998716711997986,-0.850752055644989
-0.1747497618198394,0.0639307796955108,-0.0042108814232051,-0.1582559794187545,1.4269325733184814,2.9250588417053223,0.0,1.0,-0.9999170899391174,-0.8532077670097351
-0.1746839582920074,0.0618907324969768,-0.0026654563844203,-0.193776398897171,1.575080633163452,2.9606995582580566,0.0,0.0,-0.9997409582138062,0.5259333848953247
-0.1747893393039703,0.0591279827058315,-0.000548263953533,-0.2207796275615692,1.7207229137420654,2.9161019325256348,0.0,0.0,-0.9996597170829772,0.6694893836975098
-0.1750774383544922,0.0556971877813339,0.0017062313854694,-0.2467647492885589,1.8637677431106567,2.8638358116149902,0.0,0.0,-0.9994616508483888,0.614940881729126
-0.1755405366420745,0.0515441261231899,0.0031667822040617,-0.2736519873142242,2.004636526107788,2.820167064666748,0.0,0.0,-0.9986259341239928,0.3784618377685547
-0.1761568039655685,0.0465722419321537,0.0057238843291997,-0.3040986359119415,2.1447737216949463,2.8054797649383545,0.0,0.0,-0.997978150844574,-0.0620880722999572
-0.1769123077392578,0.0407522767782211,0.0080910865217447,-0.3343177735805511,2.2841756343841557,2.790733814239502,0.0,0.0,-0.996176779270172,-0.311356782913208
-0.1777905523777008,0.0340593419969081,0.0102207856252789,-0.3643279075622558,2.422839879989624,2.7759451866149902,0.0,0.0,-0.9885938763618468,-0.641991913318634
-0.1787280142307281,0.0264285653829574,0.0185000132769346,-0.3968781232833862,2.562885284423828,2.8035197257995605,0.0,0.0,-0.9856594800949096,-0.7795703411102295
-0.1797114312648773,0.0178252551704645,0.0256757829338312,-0.429367184638977,2.7037718296051025,2.8203787803649902,0.0,0.0,-0.9597874283790588,-0.9086806178092957
-0.1806898117065429,0.0082277748733758,0.0362665876746177,-0.4617959856986999,2.8461291790008545,2.8498692512512207,0.0,0.0,-0.9542811512947084,-0.9630919098854064
-0.1820878982543945,0.0007888650870881,0.0295540578663349,-0.3559390008449554,3.0176289081573486,3.4341602325439453,0.0,0.0,-0.9542811512947084,-0.9630919098854064
