x_pos,y_pos,x_vel,y_vel,angle,ang_vel,leg_1,leg_2,main_booster,lat_booster
-0.001533031463623,1.4035003185272217,-0.1551729142665863,-0.3297808468341827,0.0016694434452801,0.0329246968030929,0.0,0.0,-0.8363713354994149,-0.609849706569118
-0.0031196593772619,1.395975947380066,-0.1613074243068695,-0.3344215750694275,0.0042851390317082,0.0523194596171379,0.0,0.0,0.7859426432680843,0.8385309144966453
-0.0044929506257176,1.38897705078125,-0.1385074853897094,-0.3110640943050384,0.0054502193816006,0.0233035031706094,0.0,0.0,-0.0205078151344848,-0.6687543985395388
-0.0059388158842921,1.3818509578704834,-0.147249087691307,-0.3167290389537811,0.0080774519592523,0.0525495111942291,0.0,0.0,0.3645255526383082,0.9804727844750072
-0.0071987151168286,1.3754138946533203,-0.1266587525606155,-0.2860983908176422,0.0087324557825922,0.0131015432998538,0.0,0.0,0.4467679352912626,0.8867146157877557
-0.0082668308168649,1.3695669174194336,-0.1057403460144996,-0.2598577439785003,0.0076782703399658,-0.0210857763886451,0.0,0.0,-0.2869103473181305,-0.8106833870321926
-0.0094109531491994,1.3635947704315186,-0.1148868948221206,-0.2654331922531128,0.0081541649997234,0.0095188403502106,0.0,0.0,0.6236065785779212,0.930846548855886
-0.0103318216279149,1.3584574460983276,-0.0908091887831687,-0.2283167988061905,0.0068899653851985,-0.0252864398062229,0.0,0.0,0.7980375624806042,0.6257131184896734
-0.0112337116152048,1.3545689582824707,-0.0874762311577797,-0.1728171408176422,0.0042063347063958,-0.0536779649555683,0.0,0.0,0.0486391272759907,-0.6405569621808311
-0.0121985431760549,1.3512510061264038,-0.0948986262083053,-0.1474591940641403,0.0026444636750966,-0.0312402211129665,0.0,0.0,-0.954692041300692,0.6212992533856033
-0.0131174083799123,1.3478094339370728,-0.0887264609336853,-0.1529579162597656,-0.0004760140145663,-0.0624152719974517,0.0,0.0,0.3458157201711227,0.7150512918663994
-0.0139253614470362,1.3448874950408936,-0.0761623308062553,-0.1298688501119613,-0.0050605316646397,-0.0916987210512161,0.0,0.0,0.2585169151553983,0.7439195219956148
-0.0145699502900242,1.342643141746521,-0.058329589664936,-0.0997774973511695,-0.0111267371103167,-0.121335245668888,0.0,0.0,-0.9631973497983966,-0.9016423018463344
-0.0152875902131199,1.340267539024353,-0.0670698285102844,-0.1056297272443771,-0.0157707072794437,-0.0928879380226135,0.0,0.0,0.6347632858568195,0.8414283308613894
-0.0157809257507324,1.3389947414398191,-0.0430443361401557,-0.0566450208425521,-0.0219814591109752,-0.1242261752486229,0.0,0.0,0.1416232510993151,0.8395791495047908
-0.0161257740110158,1.3378913402557373,-0.0264076627790927,-0.049186073243618,-0.0299722217023372,-0.1598300486803054,0.0,0.0,0.5815193380502492,-0.6601278862529729
-0.01636428758502,1.337895393371582,-0.0172470435500144,3.910156010533683e-05,-0.0365019328892231,-0.1306059658527374,0.0,0.0,-0.264390946944915,0.8519836186090359
-0.0165299419313669,1.3377641439437866,-0.0076731219887733,-0.0060797953046858,-0.0452987700700759,-0.1759527027606964,0.0,0.0,0.919690818292434,-0.9200051121137268
-0.0166111942380666,1.3389121294021606,-0.0011458892840892,0.0507977493107318,-0.0522076860070228,-0.1381909549236297,0.0,0.0,0.295832056323259,0.7483684080351365
-0.0166914947330951,1.340601921081543,0.0007324306643567,0.074775330722332,-0.0608811415731906,-0.1734846085309982,0.0,0.0,0.6797605713455044,0.9701683093030432
-0.0165126807987689,1.3432998657226562,0.0285581946372985,0.1194467693567276,-0.0714655220508575,-0.2117067873477935,0.0,0.0,-0.5823136602175407,-0.9817143918920972
-0.0164201743900775,1.3458772897720337,0.0181856267154216,0.1141063272953033,-0.080319844186306,-0.1771020889282226,0.0,0.0,-0.9869261189116336,0.9800393441895991
-0.016243839636445,1.3483192920684814,0.0291309412568807,0.1078788265585899,-0.0917333588004112,-0.2282906323671341,0.0,0.0,-0.3724932773365861,0.8557648645148708
-0.0160029418766498,1.3506193161010742,0.0376915261149406,0.1013340801000595,-0.1052394956350326,-0.2701467275619507,0.0,0.0,-0.3731119612062936,-0.7990405437144951
-0.0158494003117084,1.3528118133544922,0.0271439459174871,0.0965681970119476,-0.1169654205441474,-0.23453950881958,0.0,0.0,-0.3274707003799784,-0.6052919610548133
-0.0157664306461811,1.3548738956451416,0.0187685545533895,0.0907967835664749,-0.1273839175701141,-0.2083697021007537,0.0,0.0,0.2125854459769582,0.6228629998709604
-0.0155737875029444,1.3576009273529053,0.0311649180948734,0.1201357394456863,-0.1392356753349304,-0.2370348870754242,0.0,0.0,-0.429969026574315,0.7649056319936649
-0.0153437610715627,1.360203742980957,0.0362775884568691,0.1143923550844192,-0.1524786204099655,-0.2648590207099914,0.0,0.0,-0.6554847841060596,0.7834893997658277
-0.0150753976777195,1.3626806735992432,0.0415161624550819,0.1085136905312538,-0.1671457439661026,-0.2933429181575775,0.0,0.0,-0.4595567481292169,0.7165294467418352
-0.0147634502500295,1.3650203943252563,0.0474076829850673,0.1020842865109443,-0.1834012120962143,-0.3251095414161682,0.0,0.0,0.0175529998284127,-0.7880997862260258
-0.0144134517759084,1.3680305480957031,0.0497983507812023,0.131887286901474,-0.198268860578537,-0.2973530888557434,0.0,0.0,-0.832435979318634,-0.7856281718259099
-0.0141427991911768,1.3709356784820557,0.0402503721415996,0.1272941082715988,-0.2115621715784073,-0.2658662796020508,0.0,0.0,-0.3142487493408574,-0.9034843519076236
-0.0139603614807128,1.3737528324127195,0.0295440349727869,0.1235444694757461,-0.2229885309934616,-0.2285269796848297,0.0,0.0,-0.1822054494542366,-0.703122951979963
-0.0138489725068211,1.3764617443084717,0.0210728663951158,0.1188627928495407,-0.2330610901117324,-0.2014513313770294,0.0,0.0,0.976062157945178,0.6902974684633973
-0.0135009763762354,1.3801186084747314,0.0462360642850399,0.1606750339269638,-0.2446808218955993,-0.2323949337005615,0.0,0.0,-0.9521506032447666,-0.6103944055697926
-0.0132078174501657,1.3836746215820312,0.0397615954279899,0.1562779247760772,-0.255310982465744,-0.2126034945249557,0.0,0.0,-0.4218749619126052,-0.8219237011820539
-0.0129910465329885,1.3871300220489502,0.0306062642484903,0.1519889682531356,-0.2644212245941162,-0.1822046935558319,0.0,0.0,0.6984423489212066,0.9856195538842956
-0.0124608995392918,1.3915555477142334,0.0640027299523353,0.1946662068367004,-0.2756767868995666,-0.2251115143299102,0.0,0.0,0.4128000435355285,-0.7681073243788904
-0.0118375774472951,1.396947145462036,0.0720261484384536,0.2377663105726242,-0.2856333255767822,-0.1991308778524398,0.0,0.0,0.7161151313990537,-0.7926533398438875
-0.0110754016786813,1.4031386375427246,0.0844874233007431,0.2735399305820465,-0.2941325604915619,-0.1699844747781753,0.0,0.0,-0.4124580288009105,-0.7726058644426761
-0.0103904725983738,1.4092446565628052,0.0751333981752395,0.2700238227844238,-0.3009901940822601,-0.1371524780988693,0.0,0.0,-0.868800163269043,-0.8550821542739868
-0.009767341427505,1.415249586105347,0.0678180828690528,0.2657386660575866,-0.3066809773445129,-0.1138155460357666,0.0,0.0,-0.7965232133865356,-0.9145407676696776
-0.0092141153290867,1.4211492538452148,0.0595278963446617,0.2613068521022796,-0.3110352456569671,-0.0870854780077934,0.0,0.0,-0.7842968702316284,-0.7931448817253113
-0.0087209697812795,1.426947832107544,0.0524106435477733,0.2570449411869049,-0.3142566978931427,-0.0644297376275062,0.0,0.0,-0.6906257271766663,-0.8738135695457458
-0.0083101270720362,1.4326472282409668,0.0425694175064563,0.2529813349246979,-0.3158029913902282,-0.0309259705245494,0.0,0.0,-0.721730649471283,-0.7474287748336792
-0.0079627986997365,1.4382412433624268,0.0350816845893859,0.2485448867082595,-0.3161652386188507,-0.0072449455037713,0.0,0.0,-0.6779234409332275,-0.6565855145454407
-0.0076704979874193,1.4437298774719238,0.0286297835409641,0.2440738379955291,-0.3155437707901001,0.0124295512214303,0.0,0.0,-0.6352201700210571,-0.6313444972038269
-0.0074428557418286,1.4491289854049685,0.0208925865590572,0.2403660416603088,-0.3136031329631805,0.0388121381402015,0.0,0.0,-0.5509532690048218,-0.1679890751838684
-0.0072253225371241,1.454404592514038,0.020097391679883,0.2348314225673675,-0.3118782043457031,0.0344984270632267,0.0,0.0,-0.7243505716323853,-0.518692135810852
-0.0070582390762865,1.4595749378204346,0.0142006697133183,0.2303248047828674,-0.3092761039733886,0.0520419478416442,0.0,0.0,-0.3523305654525757,-0.7245796918869019
-0.0069423676468431,1.4646413326263428,0.0081902612000703,0.2258945107460022,-0.3057649135589599,0.0702238008379936,0.0,0.0,-0.7767855525016785,-0.6741370558738708
-0.0068908692337572,1.4696149826049805,0.0005068191094323,0.2220226824283599,-0.300959974527359,0.0960986167192459,0.0,0.0,-0.514601469039917,-0.1833299398422241
-0.0068490030243992,1.4744653701782229,-0.0002610296360217,0.2164867520332336,-0.2963693737983703,0.0918119996786117,0.0,0.0,-0.3454524278640747,-0.4345625638961792
-0.0068167685531079,1.4791924953460691,-0.0010200452525168,0.2109510898590088,-0.2919925153255462,0.0875371918082237,0.0,0.0,-0.6076449155807495,-0.5095273852348328
-0.0068233488127589,1.4838074445724487,-0.0054542780853807,0.2060649693012237,-0.2870514094829559,0.0988220423460006,0.0,0.0,-0.5543257594108582,-0.5486674308776855
-0.0068877218291163,1.4883183240890503,-0.0122964847832918,0.201617032289505,-0.2810340225696563,0.1203479990363121,0.0,0.0,-0.694331705570221,0.0131196975708007
-0.0069614411331713,1.4927059412002563,-0.0130245657637715,0.1960804611444473,-0.2752279341220855,0.1161213740706443,0.0,0.0,-0.3463260531425476,-0.3769056797027588
-0.0070443153381347,1.496970295906067,-0.0137400720268487,0.1905442029237747,-0.2696321606636047,0.1119154244661331,0.0,0.0,-0.5940715074539185,-0.4054427146911621
-0.0071360589936375,1.501111388206482,-0.0144418878480792,0.1850082725286483,-0.2642455399036407,0.1077325791120529,0.0,0.0,-0.7403507828712463,-0.3413273692131042
-0.0072365761734545,1.5051292181015017,-0.0151288034394383,0.1794726252555847,-0.2590667605400085,0.1035753637552261,0.0,0.0,-0.593705415725708,-0.0426945686340332
-0.0073459623381495,1.509023666381836,-0.0157995261251926,0.1739372760057449,-0.2540944516658783,0.0994463711977005,0.0,0.0,-0.8498833179473877,-0.454123318195343
-0.0074636461213231,1.5127944946289062,-0.0164526626467704,0.1684022098779678,-0.2493270337581634,0.0953483507037162,0.0,0.0,-0.8405140042304993,0.2222979068756103
-0.0075897215865552,1.5164421796798706,-0.0170867349952459,0.1628674119710922,-0.2447628378868103,0.0912842378020286,0.0,0.0,-0.5827811360359192,-0.4012804627418518
-0.0077238082885742,1.5199662446975708,-0.0177001822739839,0.1573328822851181,-0.2403999865055084,0.0872570648789405,0.0,0.0,-0.813471794128418,-0.3972448110580444
-0.0078657148405909,1.5233666896820068,-0.0182913430035114,0.1517985761165619,-0.236236497759819,0.0832699760794639,0.0,0.0,-0.5872981548309326,0.5274312496185303
-0.0079831127077341,1.526632308959961,-0.0148071916773915,0.1456280499696731,-0.2331152409315109,0.0624248012900352,0.0,0.0,-0.7772616744041443,-0.3711012601852417
-0.0081076622009277,1.529774188995361,-0.0153483571484684,0.1400947421789169,-0.2301888316869735,0.0585283711552619,0.0,0.0,-0.8989169001579285,-0.2765733003616333
-0.0082392692565917,1.5327924489974976,-0.015861876308918,0.134561613202095,-0.2274546921253204,0.0546826906502246,0.0,0.0,-0.9109764695167542,-0.6239444613456726
-0.0084222797304391,1.5357099771499634,-0.0220046378672122,0.1302312761545181,-0.2237034291028976,0.0750253051519393,0.0,0.0,-0.8445653319358826,-0.7521026730537415
-0.0086790081113576,1.538523554801941,-0.0309280715882778,0.1258330643177032,-0.218389555811882,0.106277510523796,0.0,0.0,-0.6320965886116028,-0.3222203254699707
-0.0089417453855276,1.5412135124206543,-0.0313478074967861,0.1202986687421798,-0.2132591158151626,0.1026088446378707,0.0,0.0,-0.895197868347168,-0.1753934025764465
-0.0092100147157907,1.543779969215393,-0.0317322239279747,0.1147645860910415,-0.2083086818456649,0.0990082621574401,0.0,0.0,-0.8897659778594971,0.2277958393096923
-0.0094834323972463,1.5462228059768677,-0.0320794805884361,0.1092307716608047,-0.2035346627235412,0.095480665564537,0.0,0.0,-0.5154426693916321,-0.5730214715003967
-0.0098005291074514,1.548554301261902,-0.0372814759612083,0.104370541870594,-0.1979218870401382,0.1122555509209632,0.0,0.0,-0.8089920878410339,-0.4493488669395447
-0.0101219173520803,1.5507619380950928,-0.037549577653408,0.0988364219665527,-0.1924774050712585,0.1088896989822387,0.0,0.0,-0.7500565052032471,-0.7514358162879944
-0.0104998592287302,1.5528535842895508,-0.0443744473159313,0.0938000306487083,-0.1858638226985931,0.1322716474533081,0.0,0.0,-0.9052947163581848,-0.3384478092193603
-0.0108810421079397,1.5548217296600342,-0.0445575937628746,0.0882652252912521,-0.1794093251228332,0.12909035384655,0.0,0.0,-0.7542540431022644,-0.4285507202148437
-0.0112651828676462,1.5566662549972534,-0.0446963310241699,0.0827307552099227,-0.1731087863445282,0.1260107159614563,0.0,0.0,-0.6327821612358093,-0.1069965362548828
-0.0116517068818211,1.5583875179290771,-0.0447898060083389,0.0771965906023979,-0.1669568121433258,0.1230392009019851,0.0,0.0,-0.8883039355278015,-0.4857339859008789
-0.0120400432497262,1.5599850416183472,-0.0448374412953853,0.0716627314686775,-0.1609476655721664,0.1201825588941574,0.0,0.0,-0.8483259081840515,-0.1186602711677551
-0.0124297142028808,1.5614588260650637,-0.0448389239609241,0.0661291554570198,-0.155075266957283,0.1174477562308311,0.0,0.0,-0.8551815152168274,0.0284310579299926
-0.0128202438354492,1.5628089904785156,-0.0447942093014717,0.0605958625674247,-0.1493331640958786,0.1148420125246048,0.0,0.0,-0.4799510836601257,-0.5428156852722168
-0.0132605554535985,1.564046859741211,-0.0509315207600593,0.0556854605674743,-0.1424461752176284,0.13773974776268,0.0,0.0,-0.9013801217079164,0.0505751371383667
-0.0137004852294921,1.5651609897613523,-0.0507957525551319,0.0501513928174972,-0.1356754750013351,0.1354139149188995,0.0,0.0,-0.9266085624694824,-0.697509229183197
-0.0141951562836766,1.566166639328003,-0.0575826577842235,0.045411329716444,-0.1275904029607772,0.1617012470960617,0.0,0.0,-0.7907273769378662,-0.1242958307266235
-0.014688491821289,1.5670489072799685,-0.0573590025305748,0.0398760661482811,-0.119606152176857,0.1596850901842117,0.0,0.0,-0.7647899985313416,-0.0037173628807067
-0.0151801109313964,0.0,-0.0570929870009422,0.0343410857021808,-0.1117143929004669,0.1578351408243179,0.0,0.0,-0.8502092957496643,-0.3056902885437011
-0.0156692508608102,1.5684430599212646,-0.0567860677838325,0.0288063623011112,-0.103906475007534,0.1561585962772369,0.0,0.0,-0.7645758390426636,0.1731407642364502
-0.01615571975708,1.5689549446105957,-0.0564398765563964,0.0232718791812658,-0.0961733385920524,0.154662624001503,0.0,0.0,-0.8601200580596924,0.074363112449646
-0.016638945788145,1.5693432092666626,-0.0560561642050743,0.0177376139909029,-0.0885056555271148,0.1533538550138473,0.0,0.0,-0.847662091255188,0.3583768606185913
-0.0171184539794921,1.5696079730987549,-0.0556368045508861,0.0122035397216677,-0.0808937177062034,0.1522387266159057,0.0,0.0,-0.8839183449745178,0.138252854347229
-0.017593765631318,1.569749116897583,-0.055183719843626,0.006669636350125,-0.0733275562524795,0.1513230949640274,0.0,0.0,-0.7455379962921143,-0.3624311685562134
-0.0180646888911724,1.569766879081726,-0.0546988733112812,0.0011358808260411,-0.0657969340682029,0.1506122946739196,0.0,0.0,-0.8323829770088196,-0.6211622357368469
-0.0185718536376953,1.5696585178375244,-0.0593365021049976,-0.0044625042937695,-0.0572634413838386,0.1706697642803192,0.0,0.0,-0.7867058515548706,0.7651641368865967
-0.019018555060029,1.5694196224212646,-0.0518786422908306,-0.0103591000661253,-0.0501348637044429,0.1425716131925583,0.0,0.0,-0.7999776005744934,-0.060125708580017
-0.0194594375789165,1.5690569877624512,-0.0513102225959301,-0.0158921238034963,-0.0430098511278629,0.1425003707408905,0.0,0.0,-0.7921440601348877,0.3351560831069946
-0.0198944099247455,1.568570613861084,-0.0507177785038948,-0.0214251019060611,-0.0358774438500404,0.1426480710506439,0.0,0.0,-0.6254652738571167,0.8108086585998535
-0.0202719680964946,1.5679651498794556,-0.0437018536031246,-0.0267817769199609,-0.0300053544342517,0.1174420341849327,0.0,0.0,-0.6964543461799622,-0.2644229531288147
-0.020642852410674,1.5672357082366943,-0.0430666245520114,-0.0323133468627929,-0.0241037886589765,0.1180311292409896,0.0,0.0,-0.786615788936615,0.3285436630249023
-0.0210067741572856,1.5663822889328003,-0.0424125492572784,-0.0378449410200119,-0.0181617569178342,0.118840716779232,0.0,0.0,-0.540059506893158,0.7515769004821777
-0.021312141790986,1.5654088258743286,-0.0352978073060512,-0.0432147532701492,-0.0134573420509696,0.0940884426236152,0.0,0.0,-0.5336444973945618,0.6294640302658081
-0.0215621944516897,1.5643081665039062,-0.0286206398159265,-0.0488922372460365,-0.0098908422514796,0.0713299363851547,0.0,0.0,-0.675178587436676,0.1160637140274047
-0.0218045227229595,1.563083291053772,-0.0279188901185989,-0.0544219985604286,-0.0062513756565749,0.0727893710136413,0.0,0.0,-0.5998319387435913,-0.3991442918777466
-0.0220389366149902,1.561733961105347,-0.0272039212286472,-0.0599518194794654,-0.0025284430012106,0.0744585394859314,0.0,0.0,-0.5024177432060242,0.5476105213165283
-0.0222140308469533,1.560263752937317,-0.0200821608304977,-0.0653485432267189,7.690247912250925e-06,0.0507225506007671,0.0,0.0,-0.5241699814796448,-0.5182686448097229
-0.0224175453186035,1.5586644411087036,-0.0239659771323204,-0.071079134941101,0.003573089139536,0.0713081210851669,0.0,0.0,-0.3647432923316955,0.1983428001403808
-0.0226125717163085,1.556941032409668,-0.0232179705053567,-0.0766089931130409,0.0072518708184361,0.073575384914875,0.0,0.0,-0.0486528873443603,-0.1478431224822998
-0.0227986332029104,1.5550934076309204,-0.0224608741700649,-0.0821389481425285,0.0110533451661467,0.0760295838117599,0.0,0.0,-0.1150548458099365,0.2701008319854736
-0.0229757316410541,1.55312180519104,-0.0216955170035362,-0.0876690372824668,0.0149865290150046,0.0786636620759964,0.0,0.0,0.1074335575103759,0.8177511692047119
-0.0230255126953125,1.551611304283142,-0.0074819759465754,-0.0671577155590057,0.0174642857164144,0.049555018544197,0.0,0.0,-0.2024213075637817,0.0616959333419799
-0.0230659488588571,1.549976468086243,-0.0067023099400103,-0.0726872012019157,0.0200906172394752,0.0525267198681831,0.0,0.0,-0.2364774942398071,-0.221401572227478
-0.0230968482792377,1.548217535018921,-0.005916457157582,-0.0782167986035347,0.0228733941912651,0.0556555613875389,0.0,0.0,-0.2618265151977539,-0.3416651487350464
-0.0231182090938091,1.5463343858718872,-0.0051249885000288,-0.0837465226650238,0.0258200746029615,0.0589337162673473,0.0,0.0,-0.4668484926223755,-0.2760497331619262
-0.0231299400329589,1.5443270206451416,-0.0043284194543957,-0.0892763659358024,0.0289377346634864,0.062353242188692,0.0,0.0,-0.3276019096374511,0.2068884372711181
-0.0231319423764944,1.5421953201293943,-0.0035272217355668,-0.0948063805699348,0.0322330519556999,0.0659063011407852,0.0,0.0,-0.4686449766159057,0.626397967338562
-0.0230761524289846,1.539941430091858,0.0032735026907175,-0.1002236977219581,0.0345109142363071,0.045557152479887,0.0,0.0,-0.4700027704238891,0.1017751693725586
-0.0230103489011526,1.5375632047653198,0.0040826862677931,-0.1057534366846084,0.0369786284863948,0.0493543222546577,0.0,0.0,-0.5222920179367065,0.3525547981262207
-0.0229344367980957,1.535061001777649,0.0048953243531286,-0.1112833097577095,0.0396417416632175,0.053262323141098,0.0,0.0,0.0241414308547973,0.3886253833770752
-0.0228047370910644,1.5330734252929688,0.0097869513556361,-0.0884256586432457,0.0427848920226097,0.0628631561994552,0.0,0.0,0.1426374912261963,0.552554726600647
-0.0226260181516408,1.5318071842193604,0.0155667392536997,-0.0563522689044475,0.0450677424669265,0.0456568524241447,0.0,0.0,-0.60186767578125,0.2556941509246826
-0.0224370006471872,1.530416488647461,0.0163879059255123,-0.0618822611868381,0.0475605577230453,0.0498560070991516,0.0,0.0,-0.2651510238647461,0.2273221015930175
