x_pos,y_pos,x_vel,y_vel,angle,ang_vel,leg_1,leg_2,main_booster,lat_booster
-0.0015196800231933,1.403459548950195,-0.1544414460659027,-0.3315882086753845,0.0022078747861087,0.0435856021940708,0.0,0.0,0.0045073208419488,0.6654570830611687
-0.0029479027725756,1.3962745666503906,-0.1441520601511001,-0.3193304240703583,0.0035218782722949,0.0262834392488002,0.0,0.0,0.2906120328951309,0.855356074464906
-0.0041868211701512,1.3893921375274658,-0.1240801215171814,-0.3058846890926361,0.0037097169551998,0.0037571187131106,0.0,0.0,-0.1756726124223608,0.826801168476121
-0.0053695677779614,1.3823421001434326,-0.1175737604498863,-0.3133320808410644,0.0030245597008615,-0.0137045513838529,0.0,0.0,-0.5180366252287327,-0.6932681405951859
-0.0065910341218113,1.3751291036605835,-0.1229932904243469,-0.3205823898315429,0.0038589269388467,0.0166888944804668,0.0,0.0,0.3683377535347467,-0.9581130335584924
-0.0077548027038574,1.368424654006958,-0.1196999698877334,-0.2979854643344879,0.0071420818567276,0.065669372677803,0.0,0.0,0.0440486065000489,-0.6950493150218322
-0.0089882854372262,1.3621021509170532,-0.1284901201725006,-0.2810425758361816,0.0122249303385615,0.1016662120819091,0.0,0.0,0.4151110649845504,0.9113073923706944
-0.0100072864443063,1.3564523458480835,-0.1058178693056106,-0.2511349618434906,0.0161077678203582,0.0776640027761459,0.0,0.0,-0.211107681053797,-0.8283676141412311
-0.0110889431089162,1.3506454229354858,-0.1142289787530899,-0.2581686079502105,0.0221065394580364,0.1199864149093627,0.0,0.0,0.951536356851451,0.7738377705646355
-0.0121258739382028,1.345967411994934,-0.1086479797959327,-0.2079929560422897,0.0270103625953197,0.0980849489569664,0.0,0.0,-0.2661087735522625,-0.9007198642887676
-0.0132197383791208,1.3411229848861694,-0.1163371950387954,-0.2154530137777328,0.0338877588510513,0.137560486793518,0.0,0.0,-0.464897540235893,0.5251813781200421
-0.0142635349184274,1.336115479469299,-0.1106033772230148,-0.222707599401474,0.0400433726608753,0.1231233105063438,0.0,0.0,-0.9565529423865348,-0.7128697089580822
-0.0153477666899561,1.3309448957443235,-0.1162012219429016,-0.2300357222557068,0.0477501712739467,0.1541503965854644,0.0,0.0,0.3299023734589374,0.6703571337159886
-0.0163270942866802,1.326040267944336,-0.1049441695213317,-0.2182168513536453,0.0546793788671493,0.1385968774557113,0.0,0.0,0.8795905519827545,0.5683633621181619
-0.0171387679874897,1.3223998546600342,-0.0879625901579856,-0.1620606929063797,0.0614140182733535,0.1347048580646515,0.0,0.0,-0.2560168542111549,-0.8607929550704094
-0.0180016513913869,1.318579912185669,-0.0949484780430793,-0.1701482832431793,0.0699912160634994,0.1715596616268158,0.0,0.0,-0.171451384483867,-0.614870615581244
-0.0188986770808696,1.314599871635437,-0.0997420772910118,-0.177391231060028,0.0799497216939926,0.1991878449916839,0.0,0.0,-0.6552182508737743,-0.7021280754345289
-0.0198339466005563,1.3104456663131714,-0.1050832420587539,-0.1852882951498031,0.091416522860527,0.2293566912412643,0.0,0.0,-0.1869810293239548,-0.5760893963807057
-0.0208041183650493,1.3061290979385376,-0.109967216849327,-0.192692145705223,0.1042825058102607,0.2573428153991699,0.0,0.0,0.8146359073093687,-0.9767136791449054
-0.0220107082277536,1.3025500774383545,-0.1358322203159332,-0.1601994037628173,0.1193787530064582,0.3019518554210663,0.0,0.0,0.6107697505351255,0.6166164712332816
-0.0231195446103811,1.2999382019042969,-0.125562846660614,-0.1173187866806984,0.1340007781982422,0.2924667000770569,0.0,0.0,0.2555743077456862,-0.5220446844616903
-0.0243010520935058,1.297655701637268,-0.1343084424734115,-0.1029771566390991,0.1501246988773346,0.3225077986717224,0.0,0.0,0.9128745431156856,0.9980277940977786
-0.0253303535282611,1.2962007522583008,-0.1177523732185363,-0.0662234649062156,0.1649581640958786,0.296696126461029,0.0,0.0,-0.8404199924919369,-0.9205423164308044
-0.0264187809079885,1.2945590019226074,-0.1256967633962631,-0.0749280974268913,0.1818621605634689,0.338109940290451,0.0,0.0,-0.361596284235097,-0.7621435310142006
-0.0275780670344829,1.2927391529083252,-0.1350145787000656,-0.0833335816860199,0.2010860294103622,0.3845118880271911,0.0,0.0,-0.906438765783343,-0.5997530878759031
-0.028789710253477,1.2907249927520752,-0.1421176046133041,-0.0924973338842392,0.2222376316785812,0.4230318963527679,0.0,0.0,-0.6691282801276754,-0.8644981896120967
-0.0300654415041208,1.288536548614502,-0.15056012570858,-0.100897878408432,0.2455477118492126,0.4662017226219177,0.0,0.0,0.7232543838803953,0.6183379670208518
-0.0316441543400287,1.2874140739440918,-0.1795602589845657,-0.0536692552268505,0.2676747441291809,0.4425407350063324,0.0,0.0,-0.343091227956684,0.8002764817297774
-0.0331739410758018,1.2861599922180176,-0.1737070083618164,-0.059673011302948,0.2889553606510162,0.425612062215805,0.0,0.0,0.2228531151164783,-0.730885600887615
-0.0348755829036235,1.2852330207824707,-0.1925968825817108,-0.0458201915025711,0.3121307492256164,0.4635078012943268,0.0,0.0,-0.3217722863557901,-0.600395847291738
-0.0366202369332313,1.2841352224349976,-0.1982664912939071,-0.0541069954633712,0.3369100391864776,0.4955865442752838,0.0,0.0,-0.8600004315376282,0.99963116645813
-0.0382970795035362,1.2829099893569946,-0.1900009661912918,-0.059842113405466,0.360338032245636,0.4685598313808441,0.0,0.0,-0.8487211465835571,0.993464469909668
-0.0399113669991493,1.2815724611282349,-0.1822729408740997,-0.0648428723216056,0.3824150860309601,0.4415411949157715,0.0,0.0,-0.7383692860603333,0.9962822198867798
-0.0414564125239849,1.2801083326339722,-0.1738617867231369,-0.0704011097550392,0.4030855298042297,0.4134087562561035,0.0,0.0,-0.9284695982933044,0.9838507175445556
-0.0429271683096885,1.2785346508026123,-0.1647043377161026,-0.0750735700130462,0.422078400850296,0.3798576295375824,0.0,0.0,-0.9210612773895264,0.993537187576294
-0.0443246848881244,1.27685809135437,-0.155654102563858,-0.0793704465031623,0.439348965883255,0.3454113602638244,0.0,0.0,-0.9475095868110656,0.997962474822998
-0.0456506721675396,1.2750654220581057,-0.1469534933567047,-0.0842588320374488,0.4550483822822571,0.3139891326427459,0.0,0.0,-0.8611728549003601,0.9990174770355223
-0.0469020828604698,1.2731740474700928,-0.1377244293689727,-0.088226743042469,0.4689241647720337,0.2775156795978546,0.0,0.0,-0.9078360199928284,0.998826026916504
-0.0480893142521381,1.271181583404541,-0.1298109740018844,-0.0923552140593528,0.4812310934066772,0.2461379319429397,0.0,0.0,-0.9714243412017822,0.7326912879943848
-0.0492210388183593,1.269070386886597,-0.1231144070625305,-0.0973275080323219,0.4923252463340759,0.2218832522630691,0.0,0.0,-0.8035889863967896,0.9713134765625
-0.0502978339791297,1.2668492794036863,-0.1164050251245498,-0.1018630936741828,0.5021205544471741,0.195907786488533,0.0,0.0,-0.702044665813446,0.9938340187072754
-0.0512892715632915,1.264532208442688,-0.1059316769242286,-0.1054885387420654,0.5097845196723938,0.1532796323299408,0.0,0.0,-0.8593330383300781,0.9686570167541504
-0.0521976463496685,1.2621080875396729,-0.0958589687943458,-0.1096211895346641,0.5154751539230347,0.1138123050332069,0.0,0.0,-0.7284901738166809,0.9713082313537598
-0.0530256256461143,1.2595853805541992,-0.0860432535409927,-0.1133542880415916,0.5191575884819031,0.0736481696367263,0.0,0.0,-0.8576687574386597,0.9093255996704102
-0.0537897124886512,1.2569401264190674,-0.0784067511558532,-0.1183342859148979,0.5214391350746155,0.045631106942892,0.0,0.0,-0.8488475680351257,0.9041757583618164
-0.0544818863272666,1.2541810274124146,-0.0697500705718994,-0.1228278949856758,0.522045910358429,0.0121357711032032,0.0,0.0,-0.8562524914741516,0.9547353982925416
-0.0550983436405658,1.2513163089752195,-0.0605526939034462,-0.1269043385982513,0.5207998156547546,-0.0249213613569736,0.0,0.0,-0.9086272120475768,0.5652363300323486
-0.0556830391287803,1.2483209371566772,-0.0568261817097663,-0.13250432908535,0.5189315676689148,-0.0373647436499595,0.0,0.0,-0.9791383743286132,0.4410736560821533
-0.0562649741768837,1.245162844657898,-0.0568651556968688,-0.1398554742336273,0.5174185633659363,-0.030260344967246,0.0,0.0,-0.8407623767852783,0.7501647472381592
-0.0567944534122943,1.241882085800171,-0.0505758747458457,-0.1449159979820251,0.5147249698638916,-0.053871601819992,0.0,0.0,-0.9380032420158386,0.5789363384246826
-0.0572726242244243,1.238479733467102,-0.0444023348391056,-0.1499328166246414,0.5108563899993896,-0.0773721784353256,0.0,0.0,-0.9525206685066224,0.546043872833252
-0.0577159896492958,1.2349461317062378,-0.0402720868587493,-0.1555413156747818,0.5062723159790039,-0.0916815772652626,0.0,0.0,-0.9958584904670716,-0.1839507222175598
-0.0581568703055381,1.2312498092651367,-0.0403071343898773,-0.1628922820091247,0.5020149350166321,-0.0851481780409812,0.0,0.0,-0.995206654071808,0.448498010635376
-0.0585952773690223,1.2273905277252195,-0.0403415709733963,-0.1702425926923751,0.4980761706829071,-0.0787755101919174,0.0,0.0,-0.9787829518318176,0.0941246747970581
-0.0590313896536827,1.223368525505066,-0.0403753221035003,-0.1775923073291778,0.494447648525238,-0.0725708976387977,0.0,0.0,-0.9402069449424744,0.3077683448791504
-0.0594651214778423,1.219183325767517,-0.0404083207249641,-0.1849414408206939,0.4911205470561981,-0.0665416494011879,0.0,0.0,-0.9791913628578186,0.4269005060195923
-0.0598966591060161,1.2148351669311523,-0.0404404960572719,-0.1922899633646011,0.4880858063697815,-0.0606950595974922,0.0,0.0,-0.995593011379242,0.5671186447143555
-0.0602786056697368,1.2103641033172607,-0.0344207622110843,-0.1973800957202911,0.4838635325431824,-0.0844453424215316,0.0,0.0,-0.967184841632843,0.1614910364151001
-0.0606585517525672,1.2057299613952637,-0.0344505198299884,-0.2047282010316848,0.4799142479896545,-0.0789855048060417,0.0,0.0,-0.9956883192062378,0.271674633026123
-0.0610364899039268,1.2009323835372925,-0.0344793461263179,-0.2120756655931472,0.4762277603149414,-0.0737295523285865,0.0,0.0,-0.9990628361701964,0.5516366958618164
-0.0613693222403526,1.1959996223449707,-0.0290722288191318,-0.2177929431200027,0.4715442061424255,-0.0936711654067039,0.0,0.0,-0.998475193977356,0.1114177703857421
-0.0617004409432411,1.1909034252166748,-0.0290984362363815,-0.2251399010419845,0.46710205078125,-0.0888428092002868,0.0,0.0,-0.9960340857505798,0.1509876251220703
-0.0620298385620117,1.1856437921524048,-0.029123593121767,-0.232486218214035,0.4628901481628418,-0.0842376053333282,0.0,0.0,-0.997702956199646,-0.2954936623573303
-0.062357522547245,1.180220603942871,-0.0291476398706436,-0.2398318648338318,0.4588970839977264,-0.0798613280057907,0.0,0.0,-0.9998009204864502,0.3521664142608642
-0.0626836791634559,1.1746336221694946,-0.0291705187410116,-0.2471768856048584,0.4551111161708832,-0.0757193118333816,0.0,0.0,-0.9983996748924256,0.5968033075332642
-0.0629751235246658,1.168907880783081,-0.0249678008258342,-0.2531262636184692,0.4505287408828735,-0.0916472226381301,0.0,0.0,-0.9903958439826964,0.726710319519043
-0.0632146820425987,1.1630644798278809,-0.0184961520135402,-0.2579588294029236,0.4445455074310303,-0.1196639984846115,0.0,0.0,-0.9996664524078368,-0.0908188819885253
-0.0634530037641525,1.157057523727417,-0.0185139998793602,-0.2653037905693054,0.4387329518795013,-0.1162515506148338,0.0,0.0,-0.998976469039917,0.235696792602539
-0.063690185546875,1.1508865356445312,-0.0185306072235107,-0.2726481258869171,0.4330784678459167,-0.1130895763635635,0.0,0.0,-0.9994843006134032,0.1089930534362793
-0.063926413655281,1.1445517539978027,-0.0185459367930889,-0.2799917757511139,0.4275694191455841,-0.1101806983351707,0.0,0.0,-0.998059868812561,0.5007474422454834
-0.0641320198774337,1.1380757093429563,-0.0147781819105148,-0.286083847284317,0.4213078618049621,-0.1252312511205673,0.0,0.0,-0.9998144507408142,0.6169109344482422
-0.0642908066511154,1.1314680576324463,-0.0089394440874457,-0.2916225492954254,0.4138180911540985,-0.1497956663370132,0.0,0.0,-0.9996431469917296,0.3159250020980835
-0.0644488334655761,1.1246967315673828,-0.008949332870543,-0.2989665269851684,0.4064353406429291,-0.1476547420024871,0.0,0.0,-0.9992088079452516,0.7377959489822388
-0.0645466819405555,1.117799997329712,-0.0013995154295116,-0.3041411638259887,0.3974324762821197,-0.1800565868616104,0.0,0.0,-0.9987502694129944,0.63770592212677
-0.0645993202924728,1.110762596130371,0.0042397566139698,-0.3101464509963989,0.3872728943824768,-0.2031914740800857,0.0,0.0,-0.995270609855652,0.3994519710540771
-0.0646518692374229,1.1035617589950562,0.0042363028042018,-0.317492663860321,0.3771820366382599,-0.2018176764249801,0.0,0.0,-0.9983479976654052,0.3268841505050659
-0.0647042244672775,1.096197247505188,0.0042341100051999,-0.3248384594917297,0.3671472072601318,-0.2006967514753341,0.0,0.0,-0.9993988871574402,0.7660789489746094
-0.0647029876708984,1.0887078046798706,0.0110760675743222,-0.330099493265152,0.3555940091609955,-0.2310644835233688,0.0,0.0,-0.9976515769958496,0.894294261932373
-0.0646294578909874,1.081105351448059,0.0203108098357915,-0.3347375988960266,0.3419820368289947,-0.272239625453949,0.0,0.0,-0.9994573593139648,0.4204788208007812
-0.0645563155412674,1.0733401775360107,0.0203161090612411,-0.3420888185501098,0.3283891677856445,-0.2718571722507477,0.0,0.0,-0.9996803402900696,0.7736563682556152
-0.0644366294145584,1.065428376197815,0.0262064728885889,-0.3484780192375183,0.3135711252689361,-0.2963606715202331,0.0,0.0,-0.9806582927703856,0.4165420532226562
-0.0643175095319747,1.0573540925979614,0.0262153297662735,-0.3558314740657806,0.2987485826015472,-0.2964501976966858,0.0,0.0,-0.9809615612030028,0.5161123275756836
-0.0641669258475303,1.0491325855255127,0.0303022358566522,-0.3623495995998382,0.2830369770526886,-0.3142323195934295,0.0,0.0,-0.9752212762832642,0.4316221475601196
-0.0640171021223068,1.0407490730285645,0.030314028263092,-0.3697048723697662,0.2672983407974243,-0.3147730231285095,0.0,0.0,-0.9747586846351624,0.5067856311798096
-0.0638311356306076,1.0322219133377075,0.035040970891714,-0.3760802447795868,0.250513345003128,-0.3356992900371551,0.0,0.0,-0.7885412573814392,-0.4033173322677612
-0.0636461228132247,1.0235329866409302,0.0350555777549743,-0.3834381401538849,0.2336800247430801,-0.3366668820381164,0.0,0.0,-0.7468418478965759,-0.3027240633964538
-0.0634622573852539,1.0146825313568115,0.035070925951004,-0.3907961845397949,0.2167880982160568,-0.3378387093544006,0.0,0.0,-0.9118412733078004,-0.7928476929664612
-0.0633301734924316,1.0056475400924685,0.0286638289690017,-0.3993619382381439,0.2011821717023849,-0.3121183812618255,0.0,0.0,-0.9269523620605468,0.2536787986755371
-0.0631992369890213,0.9964505434036256,0.0286794304847717,-0.4067167043685913,0.1854982078075409,-0.3136792778968811,0.0,0.0,-0.877695620059967,-0.7814585566520691
-0.0631153136491775,0.987072229385376,0.0229067746549844,-0.4150671064853668,0.1709359437227249,-0.2912451028823852,0.0,0.0,-0.8710448741912842,-0.9730806350708008
-0.0631098747253418,0.9775181412696838,0.0132305473089218,-0.423215240240097,0.1582414805889129,-0.2538896799087524,0.0,0.0,-0.939282774925232,-0.4491400718688965
-0.0631055831909179,0.967800796031952,0.0132464589551091,-0.4305633008480072,0.1454424560070037,-0.2559804022312164,0.0,0.0,-0.9460939168930054,-0.4763158559799194
-0.0631025284528732,0.9579204320907592,0.0132631985470652,-0.4379116296768188,0.132530853152275,-0.258232057094574,0.0,0.0,-0.9085721969604492,-0.5842886567115784
-0.0631382018327713,0.947863221168518,0.0085462406277656,-0.4459566175937652,0.1204736828804016,-0.2411436289548874,0.0,0.0,-0.8642111420631409,-0.5334149599075317
-0.0632205978035926,0.9376326203346252,0.0028587402775883,-0.4538322985172272,0.1094472557306289,-0.2205286920070648,0.0,0.0,-0.8466190099716187,-0.4717466831207275
-0.0633042305707931,0.9272385239601136,0.002876924816519,-0.4611772894859314,0.098286285996437,-0.2232193946838379,0.0,0.0,-0.976715624332428,-0.8703559637069702
-0.0634604468941688,0.91666978597641,-0.00603619357571,-0.4691234230995178,0.0887866467237472,-0.1899929940700531,0.0,0.0,-0.989066481590271,-0.9422907829284668
-0.063708022236824,0.9059332013130188,-0.0173134598881006,-0.4767523407936096,0.0814025476574897,-0.1476817429065704,0.0,0.0,-0.913135290145874,-0.5868239998817444
-0.0639968886971473,0.8950302600860596,-0.0222782772034406,-0.4842310845851898,0.0748643949627876,-0.1307629644870758,0.0,0.0,-0.8851739764213562,-0.5932163000106812
-0.0643383041024208,0.8839611411094666,-0.0286757983267307,-0.4916992783546448,0.0694528296589851,-0.1082314103841781,0.0,0.0,-0.9955967664718628,0.7563319206237793
-0.0646300315856933,0.8727380633354187,-0.0222169663757085,-0.4984963834285736,0.0625770166516304,-0.1375160664319992,0.0,0.0,-0.9851626753807068,-0.9922037124633788
-0.0650047287344932,0.861339271068573,-0.0324213057756423,-0.5064099431037903,0.0575901083648204,-0.0997383370995521,0.0,0.0,-0.987476885318756,0.4895427227020263
-0.0653808563947677,0.8497757315635681,-0.0323997884988784,-0.5137472748756409,0.0524302646517753,-0.1031967625021934,0.0,0.0,-0.99263733625412,0.0360233783721923
-0.0657586082816124,0.8380471467971802,-0.032377753406763,-0.5210848450660706,0.0470934472978115,-0.1067366227507591,0.0,0.0,-0.9807669520378112,0.2020491361618042
-0.0661380738019943,0.8261539936065674,-0.0323552414774894,-0.5284225940704346,0.0415758937597274,-0.1103511676192283,0.0,0.0,-0.97501939535141,-0.3690724372863769
-0.0665190666913986,0.8140959143638611,-0.0323322974145412,-0.5357607007026672,0.0358742587268352,-0.1140326708555221,0.0,0.0,-0.95424085855484,-0.4363529682159424
-0.0669017806649208,0.8018732070922852,-0.0323089696466922,-0.5430989861488342,0.0299853608012199,-0.1177781373262405,0.0,0.0,-0.9983470439910888,-0.6981167793273926
-0.0673437118530273,0.7894891500473022,-0.0394888147711753,-0.5503233671188354,0.025347102433443,-0.0927651673555374,0.0,0.0,-0.9134848713874816,-0.8723846077919006
-0.0678400993347168,0.7769481539726257,-0.0460894033312797,-0.55732262134552,0.0218393392860889,-0.0701553672552108,0.0,0.0,-0.953537106513977,-0.4377734661102295
-0.0683382004499435,0.7642421722412109,-0.0460652410984039,-0.5646594166755676,0.018136927857995,-0.0740480199456214,0.0,0.0,-0.9715172648429872,0.0040595531463623
-0.0688382163643837,0.7513713240623474,-0.0460408367216587,-0.5719964504241943,0.0142380381003022,-0.0779778808355331,0.0,0.0,-0.9678687453269958,0.0816454887390136
-0.0693398490548133,0.7383356094360352,-0.0460162311792373,-0.5793335437774658,0.0101410830393433,-0.0819390937685966,0.0,0.0,-0.9850890636444092,0.9520676136016846
-0.0697577446699142,0.7251316905021667,-0.0352698378264904,-0.5868093371391296,0.0036982791498303,-0.1288560628890991,0.0,0.0,-0.9826464653015136,-0.8777912259101868
-0.0702610984444618,0.7117642760276794,-0.0457315519452095,-0.5941080451011658,-0.0008448306471109,-0.0908621177077293,0.0,0.0,-0.8644274473190308,-0.6070446372032166
-0.0708244293928146,0.6982303857803345,-0.0530191659927368,-0.6015128493309021,-0.0041245711036026,-0.0655947178602218,0.0,0.0,-0.9962806105613708,0.1521046161651611
-0.0713896751403808,0.6845315098762512,-0.0529941320419311,-0.6088498830795288,-0.0076058092527091,-0.0696248933672905,0.0,0.0,-0.867013692855835,-0.3208109140396118
-0.0719566345214843,0.6706677079200745,-0.0529690608382225,-0.6161871552467346,-0.0112887378782033,-0.0736586898565292,0.0,0.0,-0.9611265063285828,0.4526994228363037
-0.0725255012512207,0.6566392779350281,-0.052944004535675,-0.62352454662323,-0.015173272229731,-0.0776907801628112,0.0,0.0,-0.942000925540924,-0.6820845603942871
-0.0731412917375564,0.6424498558044434,-0.0585917420685291,-0.6306697726249695,-0.018122037872672,-0.0589754655957222,0.0,0.0,-0.8487361073493958,-0.1875361204147339
-0.0737587958574295,0.6280956864356995,-0.0585667863488197,-0.6380069851875305,-0.0212714839726686,-0.0629887729883194,0.0,0.0,-0.9653894901275636,-0.6191504001617432
-0.07442207634449,0.6135709881782532,-0.0640483051538467,-0.6455724835395813,-0.023520104587078,-0.0449723936617374,0.0,0.0,-0.9534952044487,0.4284074306488037
