x_pos,y_pos,x_vel,y_vel,angle,ang_vel,leg_1,leg_2,main_booster,lat_booster
-0.0015687942504882,1.4030349254608154,-0.1587725728750229,-0.3504573702812195,0.0016934730811044,0.0334000363945961,0.0,0.0,-0.8791873554234708,-0.9775199031243303
-0.003253364469856,1.3945783376693726,-0.1718084663152694,-0.375858336687088,0.0050056953914463,0.066251553595066,0.0,0.0,0.2711422189047026,-0.9562101091356878
-0.0049407007172703,1.3859913349151611,-0.1739679276943206,-0.3816679716110229,0.0101820481941103,0.1035365089774131,0.0,0.0,0.7556335875227553,-0.630217362437749
-0.0068648336455225,1.3776066303253174,-0.198438674211502,-0.3727135062217712,0.0161457918584346,0.1192858219146728,0.0,0.0,0.2425796288815744,0.7093258481503033
-0.0086774826049804,1.36937415599823,-0.1859510540962219,-0.3659451603889465,0.0207774452865123,0.0926416516304016,0.0,0.0,0.9214978007359352,0.6204863249421302
-0.0103290555998682,1.3615052700042725,-0.1689937263727188,-0.3497805595397949,0.0245763231068849,0.0759846419095993,0.0,0.0,-0.0393085863222628,-0.7841423596348255
-0.012089729309082,1.3530447483062744,-0.1814537346363067,-0.3761247992515564,0.0299009662121534,0.1065024882555008,0.0,0.0,0.9397990404002574,0.8102692797440577
-0.0136633869260549,1.3451476097106934,-0.1614888459444046,-0.3510746359825134,0.0339778698980808,0.0815455615520477,0.0,0.0,-0.5767874780780717,-0.7879387718804383
-0.0153455734252929,1.336666226387024,-0.1738676875829696,-0.3770916759967804,0.0395703241229057,0.111859455704689,0.0,0.0,-0.6452828114498725,-0.8602114010042339
-0.0171406753361225,1.3275970220565796,-0.1868127584457397,-0.4032832086086273,0.0467961616814136,0.1445299088954925,0.0,0.0,-0.509608658338699,-0.9061547707145612
-0.0190418250858783,1.3179352283477783,-0.1989094316959381,-0.4297050833702087,0.0554933920502662,0.1739606708288192,0.0,0.0,-0.3824481950155072,0.8199763719131603
-0.0209157951176166,1.3076890707015991,-0.1942823231220245,-0.4556582570075989,0.0623096339404583,0.1363372802734375,0.0,0.0,-0.3213006961780953,0.9158208345282376
-0.0227471347898244,1.2968664169311523,-0.187719315290451,-0.4812039732933044,0.0668566823005676,0.0909490138292312,0.0,0.0,0.2048975480699668,0.601976911370824
-0.0245369914919137,1.285846710205078,-0.1824139058589935,-0.4899238348007202,0.0702569112181663,0.0680105909705162,0.0,0.0,-0.7406193401390058,0.7369104299245546
-0.0262999534606933,1.2742522954940796,-0.1778594851493835,-0.5153762102127075,0.0717992857098579,0.0308502577245235,0.0,0.0,-0.8028516566906021,0.6346357089034462
-0.028047751635313,1.262067198753357,-0.174791619181633,-0.541557252407074,0.0718089342117309,0.0001927696721395,0.0,0.0,-0.8577228477902539,-0.8771505258507712
-0.0298933982849121,1.249297022819519,-0.1858841031789779,-0.567631721496582,0.0731200575828552,0.0262250304222106,0.0,0.0,-0.0948723412782368,-0.9093004873067756
-0.0318370833992958,1.2359232902526855,-0.1970615833997726,-0.5945183038711548,0.0757761150598526,0.0531262084841728,0.0,0.0,-0.0314915049694863,0.6301283608393136
-0.0337674133479595,1.2219723463058472,-0.1942080408334732,-0.6200969815254211,0.0769428238272667,0.0233363918960094,0.0,0.0,-0.5505415330401291,-0.9085209186324196
-0.0358223915100097,1.2074222564697266,-0.208714872598648,-0.6468471884727478,0.0801313146948814,0.0637752711772918,0.0,0.0,-0.8095065054621751,-0.6862106776190027
-0.0379637703299522,1.1922821998596191,-0.2184093445539474,-0.6731196641921997,0.0843691602349281,0.0847644060850143,0.0,0.0,-0.0560053688543489,0.884966530322614
-0.0400771126151084,1.1765568256378174,-0.2137741297483444,-0.6990481019020081,0.0867922231554985,0.0484656691551208,0.0,0.0,0.7800127614415957,0.938165770811932
-0.0420549400150775,1.161146879196167,-0.198587492108345,-0.684928834438324,0.0875800773501396,0.0157589353621006,0.0,0.0,0.9343112978626872,0.8769564134018475
-0.0439484603703022,1.1457045078277588,-0.1885486990213394,-0.6862820982933044,0.0867893695831298,-0.0158156994730234,0.0,0.0,0.7820042607531361,-0.707837316629969
-0.0461662299931049,1.1306828260421753,-0.2220126837491989,-0.6676450371742249,0.0870228111743927,0.0046688853763043,0.0,0.0,-0.07768686885926,-0.8760857028184743
-0.0485111251473426,1.1150435209274292,-0.2368980348110199,-0.6952246427536011,0.0894181355834007,0.0479062534868717,0.0,0.0,-0.5766016944654546,-0.7026657791707511
-0.0509531982243061,1.0988116264343262,-0.2480239421129226,-0.7216489315032959,0.0932020545005798,0.0756785869598388,0.0,0.0,0.8420861088708886,-0.826756006534433
-0.0537473671138286,1.0833418369293213,-0.2845805585384369,-0.6878778338432312,0.0983162075281143,0.1022831425070762,0.0,0.0,0.772801164278232,-0.92151639723229
-0.0568925850093364,1.0684974193572998,-0.3212858140468597,-0.6602067351341248,0.1050198599696159,0.1340732127428054,0.0,0.0,-0.6319617624569593,0.7715418725175011
-0.0600201599299907,1.053070306777954,-0.3180174231529236,-0.686027467250824,0.1102471947669982,0.1045466288924217,0.0,0.0,0.5106471656831246,0.863659425941042
-0.0631872192025184,1.0382322072982788,-0.3202633261680603,-0.6597410440444946,0.1137836277484893,0.0707285925745964,0.0,0.0,-0.086972676439752,0.7950438540402098
-0.066339686512947,1.0228091478347778,-0.3174294531345367,-0.6856319308280945,0.1159534156322479,0.0433955676853656,0.0,0.0,-0.3377333284253034,-0.6561346089542107
-0.0695910453796386,1.006792664527893,-0.3288252055644989,-0.7121371030807495,0.1196247860789299,0.0734275132417678,0.0,0.0,0.7521514533407052,-0.690159104169688
-0.073053739964962,0.9907273650169371,-0.3512048125267029,-0.7144176959991455,0.1245270520448684,0.0980456322431564,0.0,0.0,-0.2023498721781511,0.8619262995977598
-0.0764860138297081,0.9740874767303468,-0.3463891148567199,-0.7398180365562439,0.127680703997612,0.0630727484822273,0.0,0.0,0.6999978784703427,-0.8013485452544666
-0.08009834587574,0.958013951778412,-0.3660697340965271,-0.7148018479347229,0.1324916332960128,0.0962184965610504,0.0,0.0,-0.5344361675666744,0.9511218877405838
-0.0836765319108963,0.9413605332374572,-0.360848993062973,-0.7404282689094543,0.1355108767747879,0.0603849999606609,0.0,0.0,0.2163405904592308,0.7109450620364833
-0.0872807502746582,0.9249736070632936,-0.3620935976505279,-0.7284582853317261,0.1371715813875198,0.0332139395177364,0.0,0.0,0.4560366014291721,-0.8024598884583378
-0.0911248177289962,0.9090884923934937,-0.3876499235630035,-0.7063056230545044,0.1404020935297012,0.0646101385354995,0.0,0.0,0.5025214051736344,0.7038903879833525
-0.0949985533952713,0.8934535384178162,-0.3892824053764343,-0.695068895816803,0.1423054933547973,0.0380680486559867,0.0,0.0,0.7096997400376721,0.6120033196445739
-0.0990915298461914,0.8784154653549194,-0.4097089171409607,-0.6683967113494873,0.142717033624649,0.0082308733835816,0.0,0.0,-0.8445926308631897,0.968447208404541
-0.1031265258789062,0.8628053069114685,-0.4016033709049225,-0.6935998201370239,0.1408261060714721,-0.0378184095025062,0.0,0.0,-0.926980197429657,0.9918705224990844
-0.1071028709411621,0.8466141819953918,-0.3934625387191772,-0.7192180156707764,0.136668175458908,-0.0831586867570877,0.0,0.0,-0.9173447489738464,0.997710108757019
-0.1110195145010948,0.8298507332801819,-0.385190337896347,-0.7444665431976318,0.1302192211151123,-0.1289792209863662,0.0,0.0,-0.9884219765663148,0.997394561767578
-0.1148926764726638,0.812501072883606,-0.378995805978775,-0.7703972458839417,0.1219487488269805,-0.165409654378891,0.0,0.0,-0.9892101883888244,0.9994027614593506
-0.1187096610665321,0.7945683002471924,-0.3712530732154846,-0.7961918115615845,0.1115661635994911,-0.2076519727706909,0.0,0.0,-0.9817475080490112,0.9985331296920776
-0.1224677115678787,0.7760567665100098,-0.3631698787212372,-0.8218371272087097,0.0990224480628967,-0.2508742809295654,0.0,0.0,-0.847908616065979,0.9993507862091064
-0.1261891424655914,0.7569783329963684,-0.3578763306140899,-0.8470489382743835,0.0848846361041069,-0.2827560305595398,0.0,0.0,-0.3344049453735351,0.9978573322296144
-0.1298747062683105,0.7373296618461609,-0.3527464270591736,-0.872444212436676,0.0692238584160804,-0.3132160305976867,0.0,0.0,0.6464252471923828,0.9980053901672364
-0.1335638016462326,0.7178565859794617,-0.351064383983612,-0.8647385835647583,0.0515780411660671,-0.3529165685176849,0.0,0.0,0.5624768733978271,0.9955154657363892
-0.1370696127414703,0.6986253261566162,-0.3309025466442108,-0.8541606068611145,0.0321350842714309,-0.3888593316078186,0.0,0.0,0.4060235023498535,0.9993352890014648
-0.1405932456254959,0.6797577738761902,-0.3306454718112945,-0.8382338285446167,0.0106940204277634,-0.4288215637207031,0.0,0.0,0.9087567329406738,0.9971561431884766
-0.1439208984375,0.6610755324363708,-0.3092884123325348,-0.8303154110908508,-0.0124796936288475,-0.4634743630886078,0.0,0.0,0.967510461807251,0.9975059032440186
-0.1471695005893707,0.6432439684867859,-0.2994173765182495,-0.7929167151451111,-0.0376052260398864,-0.502510666847229,0.0,0.0,0.4823572635650635,0.9347254037857056
-0.1501898765563964,0.6254711151123047,-0.2749246060848236,-0.7907970547676086,-0.0644095093011856,-0.5360861420631409,0.0,0.0,0.88326096534729,0.9776852130889891
-0.1532314270734787,0.6079229116439819,-0.2749393880367279,-0.7814269661903381,-0.0933350622653961,-0.5785112380981445,0.0,0.0,0.8414534330368042,0.9196652173995972
-0.1560108214616775,0.5911054611206055,-0.2471874952316284,-0.7496410012245178,-0.1238730400800705,-0.6107598543167114,0.0,0.0,0.8981754779815674,0.1181955337524414
-0.1585442572832107,0.5748345255851746,-0.2234429866075515,-0.7259058356285095,-0.1536604017019271,-0.595747709274292,0.0,0.0,0.9881839752197266,-0.0578688979148864
-0.1608416587114334,0.5594334006309509,-0.2004192322492599,-0.6877842545509338,-0.1830173134803772,-0.5871383547782898,0.0,0.0,0.9286496639251708,-0.7897970080375671
-0.1631301939487457,0.5448566675186157,-0.2010556161403656,-0.6515269875526428,-0.2109845131635666,-0.5593441724777222,0.0,0.0,0.8169429302215576,-0.5745053291320801
-0.1653197258710861,0.5302876830101013,-0.1926286071538925,-0.6514855623245239,-0.2376286834478378,-0.5328835248947144,0.0,0.0,0.7114121913909912,-0.6617022156715393
-0.1674956381320953,0.5162586569786072,-0.1924978047609329,-0.6277653574943542,-0.2631872296333313,-0.5111711621284485,0.0,0.0,0.9141935110092164,-0.983604907989502
-0.1694332063198089,0.5024813413619995,-0.1710148304700851,-0.6165778040885925,-0.2865008115768432,-0.4662718772888183,0.0,0.0,0.7779767513275146,-0.9929111003875732
-0.1712254583835601,0.489092469215393,-0.1586332768201828,-0.5992510914802551,-0.307759016752243,-0.4251642823219299,0.0,0.0,0.8586626052856445,-0.9976379871368408
-0.1729399710893631,0.4757880568504333,-0.1529439836740493,-0.5953481197357178,-0.3269825279712677,-0.3844701647758484,0.0,0.0,0.970517873764038,-0.9983358383178712
-0.1746472418308258,0.4630169570446014,-0.1540298908948898,-0.5714810490608215,-0.3444369733333587,-0.3490883708000183,0.0,0.0,0.9279985427856444,-0.9953080415725708
-0.176049992442131,0.4511060714721679,-0.1256567537784576,-0.5329465270042419,-0.3598065972328186,-0.3073927760124206,0.0,0.0,0.975033402442932,-0.9864946603775024
-0.1772895753383636,0.4390714764595032,-0.1114749908447265,-0.5380553007125854,-0.3730005621910095,-0.263879120349884,0.0,0.0,0.9852960109710692,-0.978826642036438
-0.1781750619411468,0.4279150664806366,-0.0780743509531021,-0.4986151456832886,-0.3841234743595123,-0.2224587500095367,0.0,0.0,0.964348077774048,-0.9742511510849
-0.1790192574262619,0.4170616865158081,-0.0756591707468032,-0.4847585558891296,-0.3934668302536011,-0.1868664920330047,0.0,0.0,0.9122753143310548,-0.9962299466133118
-0.1797244101762771,0.4068222343921661,-0.063526265323162,-0.4570385217666626,-0.4009487926959991,-0.1496393680572509,0.0,0.0,0.9460409879684448,-0.9960647821426392
-0.1801574677228927,0.3970301151275635,-0.0382929369807243,-0.4366320967674255,-0.4063332378864288,-0.1076888069510459,0.0,0.0,0.9410090446472168,-0.9930399060249328
-0.1803994178771972,0.3881717920303345,-0.020838500931859,-0.3946685791015625,-0.4099381566047668,-0.0720984637737274,0.0,0.0,0.8806860446929932,-0.9897671341896056
-0.1803418099880218,0.3796192705631256,0.0071047833189368,-0.3805069625377655,-0.4113903343677521,-0.029043648391962,0.0,0.0,0.6383860111236572,-0.9954725503921508
-0.1802128851413726,0.3710728883743286,0.0124051319435238,-0.3796974718570709,-0.410866916179657,0.0104683628305792,0.0,0.0,0.3508350849151611,-0.9768377542495728
-0.1799660623073578,0.3623006343841553,0.0223379489034414,-0.3891993165016174,-0.4083459675312042,0.0504188127815723,0.0,0.0,-0.2648556232452392,-0.9507184028625488
-0.1797667443752288,0.3529772758483886,0.0157130919396877,-0.4131609499454498,-0.4038101434707641,0.090717002749443,0.0,0.0,0.2155990600585937,-0.886935830116272
-0.1793780326843261,0.34392249584198,0.0329657718539238,-0.4007686972618103,-0.3974800407886505,0.1266020387411117,0.0,0.0,-0.2163999676704406,-0.9288254976272584
-0.1790155470371246,0.3343241214752197,0.0288011040538549,-0.4245326220989227,-0.3895255327224731,0.1590905487537384,0.0,0.0,-0.3601584434509277,-0.7615938186645508
-0.1786862313747406,0.3241848051548004,0.0237655565142631,-0.4481562077999115,-0.3797522187232971,0.1954663693904876,0.0,0.0,0.0864539146423339,-0.8053485155105591
-0.1783969849348068,0.3138433694839477,0.0182457454502582,-0.4568206369876861,-0.3684262931346893,0.2265183627605438,0.0,0.0,-0.2575182914733886,-0.7160449028015137
-0.1781225204467773,0.3029486536979675,0.0154640944674611,-0.4811785817146301,-0.3557819724082947,0.2528865933418274,0.0,0.0,-0.2334834337234497,-0.4688005447387695
-0.1778147667646408,0.2914666533470154,0.0188043750822544,-0.5073983073234558,-0.3432047069072723,0.2515455484390259,0.0,0.0,0.5239648818969727,-0.1537010669708252
-0.1773101836442947,0.280305951833725,0.0387238375842571,-0.4932858645915985,-0.3309319913387298,0.2454544752836227,0.0,0.0,-0.00315523147583,-0.6677365303039551
-0.1768207550048828,0.2685873508453369,0.0358850955963134,-0.5178959965705872,-0.3173376619815826,0.2718873023986816,0.0,0.0,0.3710777759552002,-0.5003837943077087
-0.17610864341259,0.2569520473480224,0.0570193007588386,-0.5140835642814636,-0.3026133775711059,0.2944855093955993,0.0,0.0,0.5357323884963989,0.1574083566665649
-0.1752446144819259,0.2451760172843933,0.0721178650856018,-0.5204770565032959,-0.287868469953537,0.2948982417583465,0.0,0.0,0.4661709070205688,0.4489750862121582
-0.174163818359375,0.2332924008369445,0.0934539288282394,-0.5253458619117737,-0.2728275060653686,0.3008193969726562,0.0,0.0,0.8395915031433105,0.5727896690368652
-0.1726628243923187,0.2216515392065048,0.1361597925424575,-0.5148337483406067,-0.2585617303848266,0.2853157520294189,0.0,0.0,0.433214783668518,-0.4816776514053345
-0.1709201782941818,0.2098738551139831,0.1598180830478668,-0.5209717750549316,-0.2438280284404754,0.2946741580963135,0.0,0.0,0.1041562557220459,0.0661995410919189
-999.0,0.1982418596744537,0.1754000782966613,-0.5146564245223999,-0.2292065024375915,0.2924301624298095,0.0,0.0,0.6077941656112671,-0.4281332492828369
-0.1668891906738281,0.1870913058519363,0.1988195031881332,-0.4933903515338897,-0.2145436555147171,0.2932569980621338,0.0,0.0,-0.0582775473594665,-0.480465829372406
-0.1647177636623382,0.1753542572259903,0.2027066648006439,-0.5196149945259094,-0.1999817788600921,0.2912376224994659,0.0,0.0,0.6441686153411865,-0.5113844871520996
-0.1623785942792892,0.1634832918643951,0.2182434350252151,-0.5255550146102905,-0.1842081099748611,0.3154734969139099,0.0,0.0,0.6878788471221924,-0.8268911242485046
-0.1600278913974762,0.1518256962299347,0.2178898304700851,-0.516074001789093,-0.166987732052803,0.3444074988365173,0.0,0.0,0.7761554718017578,0.047701358795166
-0.1573941260576248,0.1409319937229156,0.2458420991897583,-0.4822901487350464,-0.1494566798210144,0.3506213128566742,0.0,0.0,0.8602299690246582,-0.2071775794029235
-0.1546514481306076,0.130409225821495,0.2569183707237243,-0.4660289883613586,-0.1321599781513214,0.3459340929985046,0.0,0.0,0.9098672866821288,-0.8809403777122498
-0.151973158121109,0.1207218021154403,0.2490859776735305,-0.4290017485618591,-0.1135170012712478,0.3728596866130829,0.0,0.0,0.6514067649841309,-0.6878539323806763
-0.1491355895996093,0.1114859208464622,0.2635024487972259,-0.4090656340122223,-0.09341461956501,0.402047723531723,0.0,0.0,0.6995763778686523,-0.5599015355110168
-0.1462886780500412,0.1028373315930366,0.2635489106178283,-0.3831934332847595,-0.0724715366959571,0.4188618063926697,0.0,0.0,0.7317719459533691,-0.4152165055274963
-0.1434313803911209,0.094788558781147,0.2650834023952484,-0.3568487167358398,-0.052053153514862,0.4083678126335144,0.0,0.0,0.6759541034698486,-0.5850844383239746
-0.1405811309814453,0.0869165956974029,0.2633735835552215,-0.3492515981197357,-0.0306653622537851,0.4277559220790863,0.0,0.0,0.897014856338501,-0.4205490350723266
-0.1378035545349121,0.0795024707913398,0.2568573951721191,-0.3292201161384582,-0.0100253215059638,0.4128004908561706,0.0,0.0,0.9454830884933472,0.0553253889083862
-0.1351567208766937,0.0724318847060203,0.244730144739151,-0.3142338693141937,0.0096649182960391,0.3938049674034118,0.0,0.0,0.9220175743103028,0.3175729513168335
-0.1323546469211578,0.0660327076911926,0.2598238587379455,-0.2846649289131164,0.0297928266227245,0.4025583267211914,0.0,0.0,0.947274684906006,0.388606309890747
-0.1294529885053634,0.0597044080495834,0.2695844769477844,-0.2817871272563934,0.0501209758222103,0.4065630435943603,0.0,0.0,0.9453431367874146,0.569094181060791
-0.1263298094272613,0.0541590303182601,0.2925112843513489,-0.2472393363714218,0.0696969255805015,0.3915193378925323,0.0,0.0,0.8048478364944458,-0.024325668811798
-0.1232503876090049,0.0492949336767196,0.2884196043014526,-0.2172066420316696,0.0890197157859802,0.3864559531211853,0.0,0.0,0.7772772312164307,-0.3230795860290527
-0.1200596839189529,0.0452398620545864,0.2990166544914245,-0.1815355867147445,0.1089132502675056,0.3978708684444427,0.0,0.0,0.4962329864501953,0.5080695152282715
-0.1167720779776573,0.0414014421403408,0.3097112774848938,-0.1720941364765167,0.1278437972068786,0.3786114454269409,0.0,0.0,0.5665924549102783,0.0710963010787963
-0.1135499030351638,0.0381283611059188,0.3034034967422485,-0.1471907496452331,0.146600991487503,0.3751437067985534,0.0,0.0,0.0540868043899536,0.151403546333313
-0.1103224754333496,0.0350242219865322,0.3039262890815735,-0.1399246007204055,0.1653942167758941,0.3758645355701446,0.0,0.0,0.0474144220352172,0.4196401834487915
-0.1070524230599403,0.0317773930728435,0.308159738779068,-0.1465093046426773,0.1842796802520752,0.377709686756134,0.0,0.0,0.0337457656860351,0.1110899448394775
-0.103888414800167,0.028494581580162,0.2981196045875549,-0.1482776254415512,0.2026663124561309,0.3677329421043396,0.0,0.0,-0.0151847004890441,-0.1859151721000671
-0.1006843596696853,0.0246260501444339,0.3023400902748108,-0.1745082736015319,0.2209073007106781,0.3648198544979095,0.0,0.0,0.131216287612915,-0.0384042859077453
-0.097750186920166,0.0213466025888919,0.2944912016391754,-0.1455879062414169,0.2198435068130493,-0.021240048110485,0.0,1.0,0.0478451251983642,0.5283467769622803
-0.0950731262564659,0.0185628272593021,0.2888871133327484,-0.1207164153456687,0.1984650939702987,-0.4275798201560974,0.0,1.0,-0.4962759017944336,-0.7548452019691467
-0.0926449745893478,0.0156686156988143,0.2794168591499328,-0.1241577789187431,0.1616891622543335,-0.7355784773826599,0.0,1.0,0.5393190383911133,-0.9492616653442384
-0.0904013663530349,0.0134129142388701,0.2678633332252502,-0.0961217060685157,0.1182424426078796,-0.8690255880355835,0.0,1.0,0.5132664442062378,-0.9021682143211364
-0.0882630348205566,0.0116550298407673,0.254171073436737,-0.0754243358969688,0.078211173415184,-0.8006256818771362,0.0,1.0,0.6959261894226074,-0.9229220747947692
-0.0861502662301063,0.009796330705285,0.2497826516628265,-0.081036739051342,0.0401333682239055,-0.7615563869476318,0.0,0.0,-0.642447292804718,-0.9974533319473268
