x_pos,y_pos,x_vel,y_vel,angle,ang_vel,leg_1,leg_2,main_booster,lat_booster
-0.0014571190113201,1.4029334783554075,-0.1471128761768341,-0.3549595475196838,0.001250407192856,0.0246272534132003,0.0,0.0,-0.2548096136392201,0.3140756330390766
-0.002852439880371,1.3942790031433103,-0.1402716487646103,-0.3846406936645508,0.001983334776014,0.0146606434136629,0.0,0.0,-0.8248475648976943,0.5110776329877964
-0.0041418075561523,1.384929656982422,-0.1279219090938568,-0.4155303835868835,0.0009893884416669,-0.0198809672147035,0.0,0.0,-0.3417046005320174,0.1188163218853278
-0.0053791999816894,1.3748891353607178,-0.1222349256277084,-0.446243017911911,-0.0005032517365179,-0.0298553463071584,0.0,0.0,0.4310363392356033,-0.2085088644416426
-0.0064582824707031,1.3650048971176147,-0.1064161658287048,-0.4393001198768616,-0.0019671143963932,-0.0292801521718502,0.0,0.0,0.8280225366975533,0.2999240592586815
-0.0073432922363281,1.355330467224121,-0.0872316136956214,-0.4299732148647308,-0.0032174296211451,-0.0250086188316345,0.0,0.0,-0.4033154784208979,0.6129841886425507
-0.0081464769318699,1.3449649810791016,-0.0773510560393333,-0.4606989920139313,-0.0061535709537565,-0.0587284564971923,0.0,0.0,0.5598979293935709,0.7048543419458236
-0.0087058069184422,1.3348252773284912,-0.0513676516711711,-0.4506822228431701,-0.0106798140332102,-0.0905329957604408,0.0,0.0,-0.911507975644595,0.9254676098518588
-0.0091699603945016,1.3240036964416504,-0.0394815616309642,-0.4810177683830261,-0.0175280272960662,-0.1369768381118774,0.0,0.0,0.3615397731670775,0.8869781170179574
-0.0095361713320016,1.3133938312530518,-0.0273910257965326,-0.4716809689998626,-0.0266626980155706,-0.1827103197574615,0.0,0.0,-0.6395898428866684,0.4115524637675786
-0.009890079498291,1.302094340324402,-0.0256284680217504,-0.5024047493934631,-0.0363291725516319,-0.1933468878269195,0.0,0.0,-0.6707928585101839,-0.8405931030890256
-0.0102962497621774,1.2901066541671753,-0.0317898206412792,-0.5330182909965515,-0.0450598448514938,-0.1746293008327484,0.0,0.0,-0.4038965788372544,-0.1670834257897757
-0.0107018472626805,1.2774293422698977,-0.0312048904597759,-0.563735842704773,-0.0543283969163894,-0.1853881180286407,0.0,0.0,0.1062219273141393,0.966468984791694
-0.0109693529084324,1.2643996477127075,-0.0149040147662162,-0.579569399356842,-0.066056840121746,-0.2345903813838958,0.0,0.0,0.1142413194829534,0.4963073290774937
-0.0111161228269338,1.2515039443969729,-0.0027595318388193,-0.5737088322639465,-0.0778763666749,-0.2364117801189422,0.0,0.0,-0.6038895111676408,-0.6965420456219582
-0.0113249775022268,1.2379165887832642,-0.0095671415328979,-0.6045083403587341,-0.0891075953841209,-0.2246448695659637,0.0,0.0,0.0484851828383663,0.287556071176423
-0.0114208217710256,1.2244399785995483,0.0018613189458847,-0.5996741652488708,-0.1004704982042312,-0.2272789180278778,0.0,0.0,0.264678304153978,0.6469844047166159
-0.0113448146730661,1.2106719017028809,0.0206702817231416,-0.6128489375114441,-0.1134587228298187,-0.2597877979278564,0.0,0.0,-0.2002882165825639,-0.5287818191694974
-0.0113361356779932,1.1962265968322754,0.0135593954473733,-0.6430267095565796,-0.1261033117771148,-0.2529146075248718,0.0,0.0,0.4201248013793361,0.3368707055836325
-0.0113734249025583,1.1818305253982544,0.0098234256729483,-0.6410254836082458,-0.139614850282669,-0.2702552378177643,0.0,0.0,-0.0204890391154533,-0.5745763943045926
-0.011488914489746,1.1667582988739014,0.0016096613835543,-0.671163022518158,-0.1527616679668426,-0.2629598081111908,0.0,0.0,0.8731448408747569,0.2739633806854379
-0.0115629192441701,1.151739239692688,0.006203903350979,-0.6689678430557251,-0.1663889288902282,-0.2725697457790375,0.0,0.0,0.960613451244806,0.4514045229615344
-0.0114306453615427,1.1369502544403076,0.0266241524368524,-0.658848762512207,-0.1798408180475235,-0.2690617740154266,0.0,0.0,-0.9870008248479376,0.1314352523081107
-0.0113557819277048,1.1214736700057983,0.0214127860963344,-0.6895898580551147,-0.1938337683677673,-0.2798843383789062,0.0,0.0,0.2475315571219085,0.9510500837157332
-0.0112970350310206,1.106042981147766,0.0222199447453022,-0.6880328059196472,-0.2103205770254135,-0.3297658562660217,0.0,0.0,-0.9237775415523996,-0.4955170707275331
-0.0113065717741847,1.0899052619934082,0.0158755555748939,-0.7197158932685852,-0.2273465692996978,-0.340519368648529,0.0,0.0,0.572969494340412,-0.2041482921575862
-0.0112262722104787,1.0740917921066284,0.025320503860712,-0.7055865526199341,-0.2448958903551101,-0.3509864807128906,0.0,0.0,0.8267032711401079,-0.4811563290281756
-0.0111379623413085,1.058973789215088,0.0272288117557764,-0.6750868558883667,-0.2636533081531524,-0.3751481473445892,0.0,0.0,-0.5993330766815594,0.89161390659928
-0.0110714910551905,1.0431574583053589,0.0268417950719594,-0.7067239284515381,-0.2843571305274963,-0.4140767455101013,0.0,0.0,-0.8796689525178933,-0.8863581608479744
-0.0111547466367483,1.026684284210205,0.0104824779555201,-0.7359169721603394,-0.3037410378456116,-0.3876779675483703,0.0,0.0,0.3149014164835619,0.0847327334236074
-0.0111048696562647,1.0104851722717283,0.0241267047822475,-0.7240865230560303,-0.3235945403575897,-0.3970702588558197,0.0,0.0,0.2897728681564331,-0.9950219988822936
-0.0111744878813624,0.994154155254364,0.0106461653485894,-0.7298671007156372,-0.3419794738292694,-0.3676988780498504,0.0,0.0,-0.3641514778137207,-0.9958741068840028
-0.0114144328981637,0.9771921038627625,-0.0081909745931625,-0.7577088475227356,-0.3585728406906128,-0.3318670094013214,0.0,0.0,-0.8896697163581848,-0.9678463339805604
-0.0118265151977539,0.9595808386802672,-0.0270609315484762,-0.7863317728042603,-0.3735165894031524,-0.2988755106925964,0.0,0.0,-0.8975429534912109,-0.9136396646499634
-0.0123968124389648,0.9413236379623412,-0.0441916920244693,-0.8148452043533325,-0.3871653378009796,-0.2729748487472534,0.0,0.0,-0.5889108777046204,-0.9919789433479308
-0.0131312366575002,0.9224299788475036,-0.0620410665869712,-0.8428713083267212,-0.3993564546108246,-0.2438217103481292,0.0,0.0,-0.3968023657798767,-0.9408830404281616
-0.0140364645048975,0.9028900861740112,-0.0805539637804031,-0.8712754845619202,-0.4100596308708191,-0.2140635997056961,0.0,0.0,-0.33696448802948,-0.975379467010498
-0.0151060102507472,0.882713258266449,-0.0982834249734878,-0.8992895483970642,-0.4193954467773437,-0.1867167502641677,0.0,0.0,-0.3064749240875244,-0.9677805304527284
-0.0163486488163471,0.8619083762168884,-0.1171402111649513,-0.926802933216095,-0.4271120429039001,-0.1543317139148712,0.0,0.0,0.0204912424087524,-0.9879268407821656
-0.0175909996032714,0.8409647941589355,-0.1185172200202941,-0.932574987411499,-0.4333235323429107,-0.1242296248674392,0.0,0.0,0.1062362194061279,-0.9751864075660706
-0.0188645366579294,0.8201522827148438,-0.1230635046958923,-0.9263260960578918,-0.4379988312721252,-0.0935056805610656,0.0,0.0,0.1115186214447021,-0.9725365042686462
-0.0200766567140817,0.799114465713501,-0.1182565465569496,-0.9359441995620728,-0.441215455532074,-0.0643321946263313,0.0,0.0,-0.2374677658081054,-0.9804101586341858
-0.0214591026306152,0.7774202227592468,-0.136371836066246,-0.964780569076538,-0.443265438079834,-0.0409995168447494,0.0,0.0,0.5848116874694824,-0.9957729578018188
-0.0227078441530466,0.7557040452957153,-0.1244953274726867,-0.965283215045929,-0.4436746537685394,-0.0081845168024301,0.0,0.0,-0.0653238892555236,-0.9706717133522034
-0.0241447445005178,0.7333418726921082,-0.1447951793670654,-0.9935244917869568,-0.4424690008163452,0.0241131968796253,0.0,0.0,0.6217938661575317,-0.9947959184646606
-0.0255810730159282,0.7107445001602173,-0.1461883187294006,-1.0035167932510376,-0.4396816492080688,0.0557469017803669,0.0,0.0,0.977414608001709,-0.9909542798995972
-0.0269019119441509,0.6881785988807678,-0.1361693888902664,-1.0016584396362305,-0.4352354705333709,0.0889235809445381,0.0,0.0,0.9785372018814088,-0.9914352297782898
-0.0281188003718853,0.6664361357688904,-0.1269849985837936,-0.9647029638290404,-0.4294732511043548,0.1152447685599327,0.0,0.0,0.971106767654419,-0.9740948677062988
-0.0292854309082031,0.6454532146453857,-0.1231154575943946,-0.9306218028068542,-0.4224830865859985,0.139803260564804,0.0,0.0,0.8670367002487183,-0.969835102558136
-0.0304268840700387,0.6246299743652344,-0.1219455376267433,-0.923163652420044,-0.4140442013740539,0.1687777936458587,0.0,0.0,0.7603225708007812,-0.930480182170868
-0.031351089477539,0.6038960814476013,-0.1018004417419433,-0.9187870621681212,-0.4039487242698669,0.2019087374210357,0.0,0.0,0.9509228467941284,-0.9536174535751344
-0.0321866050362587,0.5837695598602295,-0.094227410852909,-0.8915130496025085,-0.392514705657959,0.2286803424358368,0.0,0.0,0.7517333030700684,-0.8737097978591919
-0.0329054817557334,0.5635710954666138,-0.0840164124965667,-0.8944176435470581,-0.379589170217514,0.2585106790065765,0.0,0.0,0.9671924114227296,-0.7845536470413208
-0.033441923558712,0.5440483689308167,-0.0668993517756462,-0.8642164468765259,-0.3655417263507843,0.2809489071369171,0.0,0.0,0.9683957099914552,-0.6936019062995911
-0.0337623581290245,0.5245780348777771,-0.0466731041669845,-0.861691415309906,-0.3501133918762207,0.3085667192935943,0.0,0.0,0.9671845436096193,-0.7766470909118652
-0.0341832153499126,0.5053044557571411,-0.057568572461605,-0.8529183268547058,-0.3338774442672729,0.3247187733650207,0.0,0.0,0.9155700206756592,-0.6012503504753113
-0.0343535430729389,0.486626386642456,-0.0336201600730419,-0.8263943195343018,-0.3165976107120514,0.3455975651741028,0.0,0.0,0.8370490074157715,0.1935518980026245
-0.0342637076973915,0.4682607650756836,-0.0079094562679529,-0.8126643300056458,-0.2991086542606354,0.349779337644577,0.0,0.0,0.7475299835205078,0.0381641387939453
-0.0339613929390907,0.4504233598709106,0.0133931338787078,-0.7894085049629211,-0.2817511856555938,0.3471496105194092,0.0,0.0,0.7176141738891602,-0.1006438732147216
-0.0336276069283485,0.4331105947494507,0.0172833353281021,-0.7664384245872498,-0.2652531564235687,0.3299605548381805,0.0,0.0,0.7269992828369141,-0.1021834015846252
-0.0332606323063373,0.4156513512134552,0.0207673590630292,-0.7731665968894958,-0.248996689915657,0.3251298069953918,0.0,0.0,0.8207159042358398,-0.3557947874069214
-0.0329304710030555,0.3986704647541046,0.0180176459252834,-0.7522314786911011,-0.2337359935045242,0.3052143454551697,0.0,0.0,0.8509440422058105,-0.231673002243042
-0.0324515327811241,0.3818005919456482,0.0326757282018661,-0.7474271059036255,-0.2183151692152023,0.3084161579608917,0.0,0.0,0.9386669397354126,-0.4523956775665283
-0.0319100394845008,0.365288496017456,0.0392381288111209,-0.731731653213501,-0.2032413333654403,0.301476389169693,0.0,0.0,0.8484923839569092,0.1516735553741455
-0.0313892364501953,0.3487459123134613,0.0375263206660747,-0.7332940697669983,-0.188596561551094,0.2928952574729919,0.0,0.0,0.9587717056274414,-0.4438045620918274
-0.0310010910034179,0.3325897753238678,0.0253546349704265,-0.7163922786712646,-0.1750943809747696,0.2700438797473907,0.0,0.0,0.9895761013031006,-0.0211273431777954
-0.0305276867002248,0.3172616958618164,0.03418555483222,-0.679751992225647,-0.161930039525032,0.2632870078086853,0.0,0.0,0.9705439805984496,0.494415283203125
-0.0300210956484079,0.3017385900020599,0.0374899059534072,-0.6885334849357605,-0.1487636268138885,0.2633282542228699,0.0,0.0,0.947418451309204,-0.5536877512931824
-0.0294936187565326,0.2870291471481323,0.038776509463787,-0.6524176001548767,-0.134832352399826,0.2786255180835724,0.0,0.0,0.9672507047653198,-0.0250977873802185
-0.0291201584041118,0.2724922895431518,0.0242985356599092,-0.6449540853500366,-0.1218551993370056,0.2595432698726654,0.0,0.0,0.8956401348114014,0.4207684993743896
-0.028875445947051,0.2584432363510132,0.0123404581099748,-0.623455822467804,-0.1097927391529083,0.2412492334842682,0.0,0.0,0.8619070053100586,0.6035573482513428
-0.0285873413085937,0.2447384148836136,0.0181872211396694,-0.6083542108535767,-0.0992534011602401,0.2107867300510406,0.0,0.0,0.9162797927856444,0.451542854309082
-0.0284684188663959,0.2318289130926132,0.0023757866583764,-0.5731512904167175,-0.0898137837648391,0.1887921392917633,0.0,0.0,0.9203567504882812,0.7528232336044312
-0.0282545089721679,0.2192122340202331,0.0135611426085233,-0.5602896809577942,-0.0820605978369712,0.155063658952713,0.0,0.0,0.6738457679748535,0.1774381399154663
-0.0281585697084665,0.2065023481845855,0.0023213601671159,-0.564500629901886,-0.0748521834611892,0.1441681981086731,0.0,0.0,0.9348478317260742,0.6234889030456543
-0.0280159004032611,0.1936502754688263,0.0083936024457216,-0.5709207653999329,-0.0690338164567947,0.1163674443960189,0.0,0.0,0.9674530029296876,0.454066514968872
-0.027997588738799,0.1807168126106262,-0.0035137527156621,-0.5745850205421448,-0.0637511387467384,0.1056535840034484,0.0,0.0,0.9953694343566896,0.761603832244873
-0.0279827117919921,0.168529137969017,-0.001945391530171,-0.5415316224098206,-0.060356430709362,0.0678940340876579,0.0,0.0,0.9584347009658812,0.2182940244674682
-0.0279277805238962,0.1570903360843658,0.001944777322933,-0.5082553625106812,-0.0568554922938346,0.0700189173221588,0.0,0.0,0.9205894470214844,0.1752852201461792
-0.028061294928193,0.1463949084281921,-0.0159588493406772,-0.475254088640213,-0.0542744137346744,0.0516216456890106,0.0,0.0,0.8629113435745239,0.3561559915542602
-0.0284312255680561,0.1355801671743393,-0.0386226437985897,-0.4805984497070312,-0.0526675060391426,0.0321382619440555,0.0,0.0,0.9560407400131226,0.8706191778182983
-0.0287405010312795,0.125474750995636,-0.0306215770542621,-0.4491388499736786,-0.0529679432511329,-0.0060087484307587,0.0,0.0,0.9595706462860109,-0.16740483045578
-0.0292424205690622,0.1157106459140777,-0.0490610226988792,-0.4340003728866577,-0.054085899144411,-0.0223590917885303,0.0,0.0,0.944443702697754,0.4726600646972656
-0.0298730842769145,0.106455884873867,-0.0613996386528015,-0.4113824963569641,-0.0557432994246482,-0.033147819340229,0.0,0.0,0.9288671016693116,0.5573123693466187
-0.0305353160947561,0.0977335572242736,-0.06315528601408,-0.3877752721309662,-0.0587711334228515,-0.0605564527213573,0.0,0.0,0.942209005355835,0.1282641887664795
-0.031159782782197,0.0893357396125793,-0.0596713796257972,-0.373349130153656,-0.0615212135016918,-0.0550015084445476,0.0,0.0,0.8737330436706543,0.1050251722335815
-0.0318370833992958,0.0808259844779968,-0.0648942068219184,-0.3783311247825622,-0.0643192529678344,-0.0559609159827232,0.0,0.0,0.9288949966430664,0.3778332471847534
-0.032477855682373,0.0723187327384948,-0.0616104900836944,-0.3782075941562652,-0.066763550043106,-0.04888566583395,0.0,0.0,0.986015796661377,-0.0709737539291381
-0.032996654510498,0.0641304105520248,-0.0501167066395282,-0.3640047311782837,-0.0685108304023742,-0.0349454395473003,0.0,0.0,0.9963922500610352,-0.4236572980880737
-0.0334135070443153,0.0559470988810062,-0.0406028404831886,-0.3637489974498749,-0.0695728957653045,-0.0212415121495723,0.0,0.0,0.9830968379974364,0.4553756713867187
-0.0338712707161903,0.0484231822192668,-0.0446002483367919,-0.3344551026821136,-0.0707323923707008,-0.0231899619102478,0.0,0.0,0.9921197891235352,0.4132806062698364
-0.0343221649527549,0.0415728911757469,-0.0440557971596717,-0.3045064508914947,-0.0717566162347793,-0.0204845033586025,0.0,0.0,0.8937399387359619,0.7647804021835327
-0.034596063196659,0.0351553298532962,-0.0251560602337121,-0.2853319048881531,-0.0739656537771225,-0.0441808924078941,0.0,0.0,0.8233127593994141,0.2542129755020141
-0.0348235145211219,0.0285735465586185,-0.0210590306669473,-0.2926107943058014,-0.0756381079554557,-0.0334490835666656,0.0,0.0,0.9151396751403807,0.6070458889007568
-0.0351127609610557,0.0221839528530836,-0.025882476940751,-0.2841388583183288,-0.0786444023251533,-0.0601259097456932,0.0,0.0,0.9774622917175292,0.7027057409286499
-0.0352431312203407,0.0166367143392562,-0.0089592346921563,-0.2467647641897201,-0.0826941356062889,-0.0809942409396171,0.0,0.0,0.8978590965270996,0.4009351730346679
-0.0354312881827354,0.0113792987540364,-0.0147142466157674,-0.2338957786560058,-0.086755447089672,-0.0812262147665023,0.0,0.0,0.7531160116195679,0.3793513774871826
-0.0357606895267963,0.0067096804268658,-0.0283587779849767,-0.2078131139278412,-0.091285191476345,-0.0905949845910072,1.0,0.0,0.7223289012908936,0.5730761289596558
-0.0358386039733886,0.0029342388734221,-0.01390041410923,-0.1678176969289779,-0.0839897394180297,0.147541657090187,1.0,0.0,0.7452864646911621,0.2188525199890136
-0.0357891097664833,0.0002195215201936,-0.0182070843875408,-0.1195299699902534,-0.0610163621604442,0.4595324099063873,1.0,0.0,0.3417824506759643,0.0359435081481933
-0.0356984138488769,-0.0018687391420826,-0.0249668564647436,-0.09178077429533,-0.0273287817835807,0.6738216280937195,1.0,0.0,0.6172645092010498,0.9534268379211426
-0.035521887242794,-0.0037584446836262,-0.0186658687889575,-0.0837267562747001,0.00856429990381,0.7179295420646667,1.0,1.0,0.6650347709655762,0.955836057662964
-0.0354886054992675,-0.004863693844527,-0.0157640017569065,-0.0495991222560405,0.0262445900589227,0.3521321415901184,1.0,1.0,0.2458744049072265,0.9985127449035645
-0.035643957555294,-0.0053024673834443,-0.0152784828096628,-0.0195149276405572,0.0259865820407867,-0.0051772026345133,1.0,1.0,-0.6874309182167053,0.8829919099807739
-0.0357102379202842,-0.0054907584562897,0.0011960762785747,-0.0082635348662734,0.018276022747159,-0.1542036980390548,1.0,1.0,0.055387258529663,-0.0035186409950256
-0.0357297882437706,-0.0050794505514204,0.0046777231618762,0.0183392539620399,0.011737517081201,-0.1307678520679474,1.0,1.0,-0.6062861680984497,-0.3963855504989624
-0.035702608525753,-0.0044196271337568,0.0054334891028702,0.0293403230607509,0.009055689908564,-0.0536446757614612,1.0,1.0,-0.4664430618286133,0.1525951623916626
-0.0356369987130165,-0.0035304927732795,0.0060639143921434,0.0395113453269004,0.009538622573018,0.0096493773162364,1.0,1.0,-0.6488811373710632,0.2093735933303833
-0.0355587974190712,-0.0024640823248773,0.0062658912502229,0.0473844036459922,0.0110622802749276,0.0304628815501928,1.0,1.0,-0.7828041315078735,0.4670807123184204
-0.0355772972106933,-0.0016107106348499,0.004640647675842,0.0379615947604179,0.0046532717533409,-0.1281834542751312,1.0,1.0,-0.3289303779602051,-0.471848726272583
-0.0355847366154193,-0.0008847975987009,0.0048236874863505,0.0322688929736614,-0.0008438767399638,-0.1099459081888198,1.0,1.0,-0.5329769849777222,-0.382073163986206
-0.0355362892150878,-0.000760450377129,0.005815502256155,0.0055261584930121,-0.0018104260088875,-0.0193281043320894,1.0,1.0,-0.5706021189689636,0.1959433555603027
-0.0355179794132709,-0.0007634544163011,0.0018711906159296,-0.0001380414760205,-0.0018323968397453,-0.000428702449426,1.0,1.0,-0.5419906377792358,-0.1696975827217102
-0.0355254188179969,-0.0007643842836841,-0.0007608194136992,-4.1400486225029454e-05,-0.0018207770772278,0.0002281677152495,1.0,1.0,-0.8297224640846252,-0.079575777053833
-0.0355363860726356,-0.0007643127464689,-0.0011064157588407,-2.0062142880306053e-07,-0.0018041500588878,0.0003253114991821,1.0,1.0,-0.6447363495826721,0.2306957244873047
-0.0355410575866699,-0.0007643127464689,-0.0004730157961603,3.201706277877747e-08,-0.0017970638582482,0.000139033247251,1.0,1.0,-0.6530431509017944,0.2546355724334717
-0.0355405807495117,-0.0007643127464689,5.220734601607546e-05,2.7882590458716553e-08,-0.0017978862160816,-1.536224954179488e-05,1.0,1.0,-0.7473957538604736,0.2263954877853393
-0.0355386734008789,-0.0007643127464689,0.0001880692143458,1.0217639356824293e-07,-0.0018007787875831,-5.525742380996235e-05,1.0,1.0,-0.7439853549003601,-0.0011449456214904
-0.0355376228690147,-0.0007643127464689,0.0001055056927725,5.700993099821972e-08,-0.0018024061573669,-3.101604670519009e-05,1.0,1.0,-0.7351709604263306,-0.0007874965667724
-0.0355375297367572,-0.0007643127464689,7.469393949577352e-06,1.5062663338838431e-09,-0.0018025464378297,-2.2539106794283725e-06,1.0,1.0,-0.6821327805519104,0.1285761594772339
