x_pos,y_pos,x_vel,y_vel,angle,ang_vel,leg_1,leg_2,main_booster,lat_booster
-0.0015050887595862,1.4033315181732178,-0.1528249680995941,-0.3372785449028015,0.0020703712943941,0.0408630706369876,0.0,0.0,-0.1978574220861748,-0.9676034827788328
-0.0030640601180493,1.39546799659729,-0.1600160002708435,-0.3495007157325744,0.0061476225964725,0.0815533250570297,0.0,0.0,-0.6316065040653538,-0.923357207989024
-0.0046664238907396,1.3873038291931152,-0.1661120504140854,-0.3628807961940765,0.0119557697325944,0.1161738783121109,0.0,0.0,-0.421819485752176,-0.964746882016322
-0.0063492776826024,1.3788427114486694,-0.1767875701189041,-0.3761457204818725,0.020359082147479,0.1680817902088165,0.0,0.0,0.963707508198266,-0.8456628025979557
-0.0079395296052098,1.3712576627731323,-0.1699074208736419,-0.3372910916805267,0.0311221182346344,0.2152805626392364,0.0,0.0,-0.721194702053851,0.7114659729575721
-0.0094564436003565,1.3633832931518557,-0.1611305475234985,-0.3502041101455688,0.0404670499265193,0.1869156211614608,0.0,0.0,-0.001676663344394,-0.7694211765275638
-0.0110340118408203,1.3552135229110718,-0.1691039502620697,-0.3634472191333771,0.0517059341073036,0.2247979640960693,0.0,0.0,0.9408834136694462,0.8529393881270362
-0.0123924259096384,1.3479135036468506,-0.1462210565805435,-0.3248358070850372,0.0619832947850227,0.2055664807558059,0.0,0.0,0.073566098882704,-0.794595558442068
-0.0138594629243016,1.3411381244659424,-0.1589750200510025,-0.3016794919967651,0.0741415992379188,0.2431882321834564,0.0,0.0,0.8309726395131818,-0.9889344782171798
-0.0154707906767725,1.3352738618850708,-0.1756772845983505,-0.2614165246486664,0.088570736348629,0.2886088490486145,0.0,0.0,-0.5047965625665036,0.6685103568184569
-0.0170302391052246,1.3291277885437012,-0.1692720502614975,-0.274003803730011,0.1017950251698494,0.2645102739334106,0.0,0.0,-0.6772173278987095,-0.7662218245273353
-0.0186532028019428,1.3226821422576904,-0.1772627830505371,-0.2875673174858093,0.1166787296533584,0.2977012097835541,0.0,0.0,0.5099089733253013,-0.9427457710857208
-0.0203033443540334,1.3169147968292236,-0.1823183894157409,-0.2577634453773498,0.1339060366153717,0.3445783257484436,0.0,0.0,0.2394748500485484,-0.7793744879306896
-0.0220064166933298,1.3112475872039795,-0.189492717385292,-0.2537127435207367,0.1530683487653732,0.3832812011241913,0.0,0.0,-0.430312069462303,-0.8845002606086356
-0.0237808227539062,1.3052901029586792,-0.1982352435588836,-0.2670556008815765,0.1738899648189544,0.4164702296257019,0.0,0.0,0.0518488068407523,0.9799278844942744
-0.0254480354487895,1.2993552684783936,-0.185764878988266,-0.2661119997501373,0.1930425614118576,0.3830870985984802,0.0,0.0,0.1089653103377956,-0.9332758531513632
-0.0272133834660053,1.2939996719360352,-0.1976890861988067,-0.2409222722053527,0.214377149939537,0.4267303943634033,0.0,0.0,0.6133825652674896,0.6043720029567291
-0.0288864132016897,1.288951754570007,-0.1878299415111541,-0.2274624407291412,0.2351758331060409,0.4160118997097015,0.0,0.0,-0.3576010412421635,0.6377657525379353
-0.0305296890437603,1.2836430072784424,-0.183575838804245,-0.2391379475593567,0.2547882795333862,0.3922846615314483,0.0,0.0,-0.0517171244547873,0.7073929615717153
-0.0321537032723426,1.2780646085739136,-0.1806522607803344,-0.2512026131153106,0.273473173379898,0.3737311661243438,0.0,0.0,0.9856686854603758,0.7089459272777354
-0.0338391289114952,1.273598074913025,-0.1859994530677795,-0.2018799930810928,0.2914367914199829,0.3593059182167053,0.0,0.0,-0.0659585358389169,0.7101996854774008
-0.0354997627437114,1.2688636779785156,-0.1823150515556335,-0.2137550562620163,0.3082404732704162,0.3361038863658905,0.0,0.0,0.504961700550701,-0.7132506782956344
-0.0372722633183002,1.2645831108093262,-0.195321187376976,-0.1941966712474823,0.3270391225814819,0.3760068416595459,0.0,0.0,-0.1675962351660251,-0.8869983029215187
-0.0391349792480468,1.259976148605347,-0.2060489356517791,-0.2093605101108551,0.3477503955364227,0.4142622053623199,0.0,0.0,0.3196212650369381,0.9082018742570832
-0.0412643440067768,1.2557793855667114,-0.2310080528259277,-0.1910068839788437,0.3668089210987091,0.381205141544342,0.0,0.0,-0.0397442507051082,0.6992046184135756
-0.0433871261775493,1.251300811767578,-0.2294854670763015,-0.2035648673772812,0.3850718736648559,0.3652590811252594,0.0,0.0,0.1947364645393849,0.7088641666615128
-0.0456911101937294,1.2473020553588867,-0.2464017421007156,-0.1821449249982834,0.4021656215190887,0.3418751358985901,0.0,0.0,0.791605513540623,0.922223533534062
-0.048464585095644,1.2442089319229126,-0.2915028631687164,-0.1415585875511169,0.4173882603645324,0.3044535517692566,0.0,0.0,-0.9205246688673252,0.9268169986128888
-0.0512275695800781,1.2408684492111206,-0.2892175316810608,-0.1523509323596954,0.4313809275627136,0.2798534035682678,0.0,0.0,0.8962214846585692,0.7412772777054608
-0.0542348846793174,1.23801851272583,-0.3123673796653747,-0.130282774567604,0.4440591931343078,0.2535651326179504,0.0,0.0,0.4876574910900488,0.8649699428310318
-0.057535458356142,1.2359760999679563,-0.3402311205863952,-0.0940451696515083,0.4552177786827087,0.2231717109680175,0.0,0.0,0.2362180173053891,0.853187042665459
-0.0610203742980957,1.234080791473389,-0.3572284579277038,-0.0871162191033363,0.4648314714431762,0.1922741383314132,0.0,0.0,0.4226153943874582,0.6123968395921559
-0.0648856163024902,1.232805609703064,-0.3941555917263031,-0.0592503361403942,0.4732648730278015,0.1686684191226959,0.0,0.0,-0.9029796416239508,0.6002997989546622
-0.0687550529837608,1.231263518333435,-0.3937655091285705,-0.0708862543106079,0.4808367788791656,0.1514387130737304,0.0,0.0,-0.8465641675110267,-0.938909543581786
-0.0727323517203331,1.229382872581482,-0.4064683020114898,-0.0866505280137062,0.4905739724636078,0.194743737578392,0.0,0.0,-0.7070685626537438,0.9018320756867348
-0.0766926780343055,1.2272688150405884,-0.4031733572483063,-0.0965262353420257,0.4985851347446441,0.1602235436439514,0.0,0.0,-0.6671242800204098,0.9049731888416996
-0.0806372612714767,1.2249082326889038,-0.4001626372337341,-0.1070038229227066,0.5050091743469238,0.1284807175397873,0.0,0.0,0.87943881862888,0.84034698567089
-0.0849496871232986,0.0,-0.4356161057949066,-0.0650698244571685,0.5099581480026245,0.0989778861403465,0.0,0.0,-0.8442122034299628,-0.7257680290938752
-0.0893634781241417,0.0,-0.4473706781864166,-0.0802959203720092,0.5167399644851685,0.1356368064880371,0.0,0.0,-0.0966168697840283,-0.9924111399236462
-0.0938885658979415,1.2196240425109863,-0.4604054987430572,-0.0963835343718528,0.5257219076156616,0.179639458656311,0.0,0.0,0.4374640186752554,-0.9941417286992072
-0.0989630669355392,1.217980146408081,-0.5172483921051025,-0.0768928304314613,0.5369313359260559,0.2241885215044021,0.0,0.0,-0.9975976943969728,0.9605634212493896
-0.1040068641304969,1.2161129713058472,-0.5121424794197083,-0.0860930681228637,0.54585862159729,0.1785456091165542,0.0,0.0,-0.9941469430923462,0.9913079738616944
-0.1090179458260536,1.2140151262283323,-0.5068585276603699,-0.0955859050154686,0.5525132417678833,0.133092388510704,0.0,0.0,-0.9997335076332092,0.9691940546035768
-0.1140013709664344,1.2116930484771729,-0.5021255612373352,-0.1047676652669906,0.5569109916687012,0.0879549011588096,0.0,0.0,-0.9424225091934204,0.9925692081451416
-0.1189672499895095,1.2091262340545654,-0.4988018572330475,-0.115001767873764,0.559485673904419,0.0514937229454517,0.0,0.0,-0.9888878464698792,0.997234344482422
-0.123906709253788,1.2063251733779907,-0.494303286075592,-0.1246396750211715,0.5599032640457153,0.0083516435697674,0.0,0.0,-0.998422920703888,0.9970811605453492
-0.128819853067398,1.203295350074768,-0.4897621572017669,-0.1340087354183197,0.5580878257751465,-0.0363089218735694,0.0,0.0,-0.9949989318847656,0.9691728353500366
-0.1337330788373947,1.2000305652618408,-0.488375723361969,-0.1438775360584259,0.5546607375144958,-0.068541295826435,0.0,0.0,-0.9953412413597108,0.9891821146011353
-0.1386468857526779,1.1965281963348389,-0.4870465695858001,-0.1538836508989334,0.54964679479599,-0.1002785786986351,0.0,0.0,-0.9865612983703612,0.9970139265060424
-0.143544003367424,1.192789912223816,-0.4836581349372864,-0.163690984249115,0.5426441431045532,-0.1400525867938995,0.0,0.0,-0.963378608226776,0.9858016967773438
-0.1484081298112869,1.1888329982757568,-0.478100448846817,-0.1725527942180633,0.5330852270126343,-0.1911789327859878,0.0,0.0,-0.8226263523101807,0.970861554145813
-0.1532641351222992,1.1846420764923096,-0.475618302822113,-0.1823795884847641,0.5216765403747559,-0.2281737327575683,0.0,0.0,-0.967150628566742,0.9936510324478148
-0.1580875366926193,1.18022358417511,-0.4701012074947357,-0.1917501091957092,0.5077985525131226,-0.277559369802475,0.0,0.0,-0.960149109363556,0.943645715713501
-0.1628976762294769,1.1755763292312622,-0.4668899178504944,-0.2013931423425674,0.4918971657752991,-0.3180280923843384,0.0,0.0,-0.9861242175102234,0.9170820713043212
-0.1676768362522125,1.1706995964050293,-0.4614649713039398,-0.2109908461570739,0.4735709428787231,-0.3665245771408081,0.0,0.0,-0.953844428062439,0.637661337852478
-0.1724661886692047,0.0,-0.461296021938324,-0.2225314229726791,0.4540875554084778,-0.3896685540676117,0.0,0.0,-0.8735139966011047,0.2850650548934936
-0.1773037910461425,1.160131335258484,-0.465912401676178,-0.2355845719575882,0.4345536231994629,-0.3906780779361725,0.0,0.0,-0.9722936749458312,0.3883101940155029
-0.1821893751621246,1.1544140577316284,-0.4704791605472564,-0.248637706041336,0.4149549007415771,-0.3919746279716491,0.0,0.0,-0.9192843437194824,0.3594032526016235
-0.1871224343776703,1.1484079360961914,-0.4749921858310699,-0.2616909444332123,0.3952774703502655,-0.3935490846633911,0.0,0.0,-0.8980785608291626,0.2216358184814453
-0.1921024322509765,1.1421129703521729,-0.479447603225708,-0.2747443318367004,0.3755078911781311,-0.3953913748264313,0.0,0.0,-0.8544352650642395,0.3255460262298584
-0.1971287727355957,1.1355291604995728,-0.4838414192199707,-0.2877979874610901,0.3556333184242248,-0.3974908292293548,0.0,0.0,-0.8322607278823853,-0.0904772281646728
-0.2022009789943695,1.1286566257476809,-0.4881699979305267,-0.3008520007133484,0.3356415033340454,-0.3998362720012665,0.0,0.0,-0.6401166319847107,0.3053566217422485
-0.2073183059692382,1.1214958429336548,-0.4924295842647552,-0.3139065206050873,0.3155206739902496,-0.402416318655014,0.0,0.0,-0.6952410340309143,0.1627876758575439
-0.212480217218399,1.114046335220337,-0.4966166019439697,-0.3269615471363067,0.2952597141265869,-0.4052193164825439,0.0,0.0,-0.3238380551338196,-0.3918399810791015
-0.2176858484745025,1.1063083410263062,-0.5007275342941284,-0.3400171995162964,0.2748480439186096,-0.4082337021827698,0.0,0.0,-0.1212482452392578,0.5057144165039062
-0.2229041159152984,1.0982956886291504,-0.5009223222732544,-0.3523391187191009,0.2534608542919159,-0.4277439713478088,0.0,0.0,0.0035344362258911,0.2798490524291992
-0.2282824516296386,1.090754747390747,-0.5166999101638794,-0.3316429257392883,0.2319638580083847,-0.4299398958683014,0.0,0.0,-0.0110597014427185,0.77113938331604
-0.2336335629224777,1.082941651344299,-0.5119501948356628,-0.3437681198120117,0.2085284888744354,-0.4687073230743408,0.0,0.0,-0.4468243718147278,0.7223381996154785
-0.2389683723449707,1.0748693943023682,-0.5085004568099976,-0.3554380238056183,0.183381900191307,-0.5029321312904358,0.0,0.0,-0.6320736408233643,-0.1883855462074279
-0.2443430870771408,1.066512107849121,-0.5121773481369019,-0.3685136139392853,0.1580405384302139,-0.506827175617218,0.0,0.0,-0.5551888942718506,0.3243117332458496
-0.2497566640377044,1.0578696727752686,-0.515760064125061,-0.3815905749797821,0.1324970871210098,-0.5108692646026611,0.0,0.0,-0.3852245807647705,0.4303932189941406
-0.2552081048488617,1.0489424467086792,-0.5192460417747498,-0.3946689367294311,0.1067446395754814,-0.5150493383407593,0.0,0.0,-0.4810178875923157,0.6548165082931519
-0.2606564164161682,1.039744853973389,-0.5176015496253967,-0.4070618450641632,0.0797471478581428,-0.5399499535560608,0.0,0.0,-0.7542076110839844,0.8074705600738525
-0.2660689949989319,1.0302728414535522,-0.5119177103042603,-0.419669896364212,0.0507235489785671,-0.5804722905158997,0.0,0.0,-0.7986420392990112,0.943650722503662
-0.2714454233646393,1.0205175876617432,-0.506238579750061,-0.4327940642833709,0.0197018273174762,-0.6204350590705872,0.0,0.0,-0.8684782385826111,0.8271839618682861
-0.276782214641571,1.0104763507843018,-0.500162661075592,-0.4461695551872253,-0.0133819337934255,-0.6616758108139038,0.0,0.0,-0.8591974973678589,0.8942179679870605
-0.2820839881896972,1.0001472234725952,-0.4947268366813659,-0.4597596228122711,-0.0483875274658203,-0.7001127004623413,0.0,0.0,-0.908961057662964,0.4656428098678589
-0.2874162197113037,0.9895415902137756,-0.4975899755954742,-0.4728899002075195,-0.0836337804794311,-0.7049256563186646,0.0,0.0,-0.7369527816772461,0.7973760366439819
-0.292705625295639,0.9786593914031982,-0.4913622438907623,-0.4861691296100616,-0.1209224984049797,-0.7457749843597412,0.0,0.0,-0.4614919424057007,-0.3725175261497497
-0.298022449016571,0.9675034284591676,-0.4940118193626404,-0.4993143081665039,-0.1584599167108535,-0.7507489919662476,0.0,0.0,-0.6356571316719055,-0.6511005163192749
-0.303427517414093,0.9560804963111876,-0.5043808817863464,-0.5119299292564392,-0.1946703940629959,-0.7242102026939392,0.0,0.0,-0.8016102313995361,-0.249254822731018
-0.3088568747043609,0.9443824887275696,-0.5068110227584839,-0.5250691175460815,-0.2311375737190246,-0.7293440103530884,0.0,0.0,-0.3633224964141845,-0.7478443384170532
-0.3143761157989502,0.9324324131011964,-0.5175801515579224,-0.5368872880935669,-0.2661034166812897,-0.6993178129196167,0.0,0.0,-0.2090669274330139,-0.6043879389762878
-0.3199664950370788,0.9202281832695008,-0.526062548160553,-0.5487617254257202,-0.2999955117702484,-0.6778424978256226,0.0,0.0,-0.3933115005493164,-0.5109509825706482
-0.3256158232688904,0.9077669978141784,-0.5330501794815063,-0.5607568621635437,-0.3330919742584228,-0.6619296073913574,0.0,0.0,0.328933835029602,-0.7677639722824097
-0.3311134874820709,0.8956815600395203,-0.5195708870887756,-0.5444236397743225,-0.3647917211055755,-0.6339958906173706,0.0,0.0,0.5884754657745361,-0.9581971168518066
-0.3365601599216461,0.883794903755188,-0.5164321660995483,-0.5357741117477417,-0.394778847694397,-0.5997424125671387,0.0,0.0,0.6308567523956299,-0.9410213828086852
-0.3418456017971039,0.8721541166305542,-0.502314567565918,-0.5249132513999939,-0.4229827523231506,-0.5640783905982971,0.0,0.0,0.637462854385376,-0.7611468434333801
-0.3468226492404938,0.8609426021575928,-0.4732571542263031,-0.5058519840240479,-0.4495970010757446,-0.5322852730751038,0.0,0.0,0.9125807285308838,-0.8008232712745667
-0.3515159487724304,0.8499853014945984,-0.4467640817165375,-0.4944604337215423,-0.4744702875614166,-0.4974659085273742,0.0,0.0,0.8127720355987549,-0.1628759503364563
-0.3558518886566162,0.839847981929779,-0.4110300540924072,-0.4584812521934509,-0.4996562600135803,-0.5037194490432739,0.0,0.0,0.773807168006897,-0.8545159101486206
-0.3598344326019287,0.8305260539054871,-0.3773918151855469,-0.4220938384532928,-0.5232547521591187,-0.4719693660736084,0.0,0.0,0.9791605472564696,-0.7421483397483826
-0.3633388876914978,0.8218821883201599,-0.3313029408454895,-0.3917077183723449,-0.545198917388916,-0.4388834834098816,0.0,0.0,0.9373648166656494,-0.8734991550445557
-0.3666064143180847,0.8133876919746399,-0.3093878626823425,-0.3847083151340484,-0.5653515458106995,-0.403052806854248,0.0,0.0,0.9770442247390748,-0.9490761756896972
-0.3696793913841247,0.8054906725883484,-0.2915332615375519,-0.357768565416336,-0.5838828682899475,-0.370626151561737,0.0,0.0,0.9755685329437256,-0.7263950705528259
-0.3721457421779632,0.7985608577728271,-0.2323359549045562,-0.3143894076347351,-0.600883424282074,-0.3400114774703979,0.0,0.0,0.9342501163482666,-0.8376098275184631
-0.3743221759796142,0.7922477126121521,-0.2047219723463058,-0.2865775227546692,-0.6164284944534302,-0.3109012246131897,0.0,0.0,0.7198468446731567,-0.9010247588157654
-0.376198947429657,0.7868518233299255,-0.1760949790477752,-0.2453618496656417,-0.6305007338523865,-0.2814452052116394,0.0,0.0,0.9798648357391356,-0.9014341235160828
-0.3775519430637359,0.7821444869041443,-0.1253500878810882,-0.2141125053167343,-0.6427050828933716,-0.2440873831510543,0.0,0.0,0.8694493770599365,-0.949838638305664
-0.3785122334957123,0.7782987952232361,-0.0875306352972984,-0.1751946061849594,-0.6532230973243713,-0.210360050201416,0.0,0.0,0.7567737102508545,-0.9727890491485596
-0.3791292607784271,0.7752758860588074,-0.0546513125300407,-0.13798488676548,-0.6620189547538757,-0.1759171187877655,0.0,0.0,0.5401577949523926,-0.988111972808838
-0.3795485496520996,0.7726044058799744,-0.0363770648837089,-0.121634654700756,-0.6689764261245728,-0.1391495764255523,0.0,0.0,-0.3214122056961059,-0.9300950169563292
-0.3800391554832458,0.7697233557701111,-0.0452368445694446,-0.1300774365663528,-0.6737995743751526,-0.0964628905057907,0.0,0.0,-0.2158092856407165,-0.8543127775192261
-0.3805989623069763,0.7666275501251221,-0.0537764057517051,-0.1387662440538406,-0.6765844821929932,-0.0556978173553943,0.0,0.0,-0.7631954550743103,-0.7371810674667358
-0.3811966776847839,0.7632886171340942,-0.0583936385810375,-0.1491330116987228,-0.6783292293548584,-0.0348955318331718,0.0,0.0,-0.2743752598762512,-0.6320347785949707
-0.3818334937095642,0.7596963047981262,-0.0630420669913292,-0.1600030958652496,-0.679138720035553,-0.0161901209503412,0.0,0.0,-0.6044167876243591,-0.8967196941375732
-0.3825101852416992,0.7558683753013611,-0.0679830238223075,-0.1699660718441009,-0.6787426471710205,0.0079219797626137,0.0,0.0,0.2453104257583618,-0.9064179062843324
-0.3828878402709961,0.7525231242179871,-0.0394176095724105,-0.1477866321802139,-0.6766489148139954,0.0418744273483753,0.0,0.0,-0.0871145129203796,-0.4780923128128052
-0.3832663893699646,0.7488874793052673,-0.0392706096172332,-0.1608293652534485,-0.6748572587966919,0.0358330085873603,0.0,0.0,-0.0073363780975341,-0.9110910892486572
-0.3836933672428131,0.7450191378593445,-0.0452600084245204,-0.1705697327852249,-0.6716219186782837,0.0647065490484237,0.0,0.0,-0.6291316747665405,-0.8801058530807495
-0.3841704726219177,0.7409312725067139,-0.0516049079596996,-0.1796270757913589,-0.6667206287384033,0.0980266034603118,0.0,0.0,-0.4751122593879699,-0.6269553303718567
-0.3846790790557861,0.7365979552268982,-0.0555227473378181,-0.1901636868715286,-0.660876989364624,0.1168728098273277,0.0,0.0,-0.4338571429252624,-0.8191186189651489
-0.3852319717407226,0.7320217490196228,-0.0609696693718433,-0.2004614770412445,-0.6537907123565674,0.1417255401611328,0.0,0.0,-0.2129898071289062,-0.4973189234733581
-0.3857838213443756,0.727155327796936,-0.0606502667069435,-0.2135067731142044,-0.6470059752464294,0.1356952637434005,0.0,0.0,-0.2125623822212219,-0.4600898027420044
-0.3863344192504883,0.7219988703727722,-0.0603109821677207,-0.226551666855812,-0.6405223608016968,0.1296727210283279,0.0,0.0,0.5387427806854248,-0.5217675566673279
-0.3866196572780609,0.7172388434410095,-0.0344368740916252,-0.2086385041475296,-0.6332565546035767,0.1453169584274292,0.0,0.0,-0.1502567529678344,-0.899183988571167
-0.3869577944278717,0.7122466564178467,-0.0410439036786556,-0.2183646410703659,-0.6244240999221802,0.1766493171453476,0.0,0.0,-0.3312829136848449,-0.5682386159896851
-0.3873242437839508,0.706990659236908,-0.04447553306818,-0.2298725098371505,-0.6149349808692932,0.1897824853658676,0.0,0.0,0.3641527891159057,0.3948075771331787
-0.3872976303100586,0.7020670175552368,-0.0052773784846067,-0.2151264995336532,-0.6053725481033325,0.191248744726181,0.0,0.0,-0.1121427416801452,-0.5704288482666016
-0.3873022198677063,0.696894109249115,-0.0091921631246805,-0.2259090840816497,-0.5949182510375977,0.2090856581926345,0.0,0.0,-0.5117055773735046,-0.5109745860099792
-0.3873368203639984,0.6914570331573486,-0.0128322560340166,-0.2374680340290069,-0.5837860107421875,0.2226444035768509,0.0,0.0,-0.0056727528572082,-0.7721899747848511
