x_pos,y_pos,x_vel,y_vel,angle,ang_vel,leg_1,leg_2,main_booster,lat_booster
-0.0015175819862633,1.4035004377365112,-0.1540226191282272,-0.3297632932662964,0.0020246075000613,0.0399567112326622,0.0,0.0,-0.7740367010121587,-0.7028806197146067
-0.0030817985534667,1.3959763050079346,-0.159963771700859,-0.3344092071056366,0.0055251372978091,0.0700180828571319,0.0,0.0,0.1376950046303424,-0.7281023490001219
-0.0045982361771166,1.3887405395507812,-0.1570178568363189,-0.3216234445571899,0.010844450443983,0.1063960194587707,0.0,0.0,0.004857349579858,-0.6154765715373305
-0.0062483786605298,1.381832718849182,-0.1717725396156311,-0.3070789575576782,0.017530595883727,0.1337350755929947,0.0,0.0,0.7866197221972737,-0.9044219978006502
-0.0078292842954397,1.3758643865585327,-0.1672166287899017,-0.2653928101062774,0.0265495236963033,0.1803953945636749,0.0,0.0,0.094704536459546,-0.8136408839766482
-0.0093823429197072,1.370313286781311,-0.1663768887519836,-0.2469450086355209,0.037504855543375,0.2191270887851715,0.0,0.0,-0.1112992116088014,-0.8635473400704929
-0.0110116954892873,1.3646364212036133,-0.1760608255863189,-0.2526883482933044,0.0504922308027744,0.2597715258598327,0.0,0.0,-0.1404532999799053,-0.7895114159343172
-0.0126955984160304,1.358837008476257,-0.1829583495855331,-0.2583076059818268,0.0649144053459167,0.2884700894355774,0.0,0.0,-0.0781202117079253,-0.9164172205279756
-0.0144630428403615,1.3529199361801147,-0.1934226006269455,-0.2637950181961059,0.0814460441470146,0.33066326379776,0.0,0.0,0.0616628842877766,0.9475295889972412
-0.0162063594907522,1.347594976425171,-0.1893579065799713,-0.2375484108924865,0.0963533967733383,0.2981744408607483,0.0,0.0,-0.9018404495440976,0.7470178195660886
-0.0178957935422658,1.342159390449524,-0.1824950277805328,-0.2425218373537063,0.1098248064517974,0.2694533169269562,0.0,0.0,-0.4843685324467219,-0.8856478563162171
-0.0196606628596782,1.3365907669067385,-0.1918535530567169,-0.2486950457096099,0.1251110881567001,0.305753618478775,0.0,0.0,0.7822898010994592,0.6856204033916902
-0.0213315971195697,1.3320666551589966,-0.1816740334033966,-0.2023633867502212,0.1396581977605819,0.2909690141677856,0.0,0.0,-0.9105606979799116,-0.6242475559848735
-0.0230625160038471,1.327406883239746,-0.189016193151474,-0.2086705416440963,0.1555693000555038,0.3182512521743774,0.0,0.0,-0.2418951461875036,0.8203812298057974
-0.0247344970703125,1.3226536512374878,-0.1813261657953262,-0.212797001004219,0.1697126477956771,0.2828928828239441,0.0,0.0,0.3984754531514178,0.8122156682045775
-0.0263021476566791,1.3181846141815186,-0.1696353107690811,-0.2001508623361587,0.1826385557651519,0.2585417926311493,0.0,0.0,0.8758249100321289,0.6768697471861761
-0.0278502460569143,1.315094828605652,-0.1669796407222747,-0.138865664601326,0.1948869377374649,0.244990199804306,0.0,0.0,0.9820323842860696,-0.9397982895584562
-0.0293947216123342,1.312570571899414,-0.1690676510334015,-0.1141732111573219,0.2096376866102218,0.2950416803359985,0.0,0.0,-0.1891758595511397,-0.8939758994920858
-0.0310221668332815,1.3099159002304075,-0.1790556907653808,-0.1203765720129013,0.2261425554752349,0.3301270604133606,0.0,0.0,-0.1442122283896725,0.9817587953094103
-0.0326094627380371,1.3071634769439695,-0.1735427677631378,-0.1246794238686561,0.2411908954381942,0.3009942173957824,0.0,0.0,0.8844196160192515,0.7825924926272259
-0.034214686602354,1.3056237697601318,-0.1743235290050506,-0.070749931037426,0.2552555203437805,0.2813175916671753,0.0,0.0,-0.6936984229025143,-0.8770140850818141
-0.0359117500483989,1.3039332628250122,-0.185390442609787,-0.0779498592019081,0.2713141441345215,0.3212010264396667,0.0,0.0,0.6707094091236196,0.8799954923126934
-0.0375764854252338,1.3030035495758057,-0.1808342933654785,-0.0440482906997203,0.2860676944255829,0.2950970530509949,0.0,0.0,0.5947247421915427,0.8593195108472863
-0.0392162315547466,1.3024379014968872,-0.1769225895404815,-0.0277338549494743,0.2994467914104461,0.2676065564155578,0.0,0.0,-0.479599755292627,0.7417014834782536
-0.0408431068062782,1.3017728328704834,-0.1747255772352218,-0.0320806577801704,0.3119186758995056,0.2494601309299469,0.0,0.0,0.8086252399981313,0.8234232207436214
-0.0428381934762001,1.3020195960998535,-0.2098113745450973,0.0087224943563342,0.3226224482059479,0.2140750885009765,0.0,0.0,-0.4131139942543289,-0.9466997039216184
-0.0449353232979774,1.302115797996521,-0.2220454663038253,0.0014692828990519,0.3354851603507995,0.2572540938854217,0.0,0.0,-0.7449879752167212,-0.8481888439909443
-0.0471424087882041,1.302059531211853,-0.2352263480424881,-0.0059431004337966,0.3506918847560882,0.3041346669197082,0.0,0.0,-0.6138663261297008,0.9615984826914776
-0.0493278503417968,1.3019211292266846,-0.2317333221435547,-0.0094332201406359,0.3645842969417572,0.2778481245040893,0.0,0.0,0.9952597305394044,0.8951518513814831
-0.0517151840031147,1.3025065660476685,-0.2502923607826233,0.0230358652770519,0.3768243789672851,0.2448015213012695,0.0,0.0,-0.4187711671777212,-0.6370868784436396
-0.0541824325919151,1.3029512166976929,-0.2596262693405151,0.0162980165332555,0.3905607461929321,0.2747271060943603,0.0,0.0,0.8540951820329701,0.8035648303234189
-0.0568989738821983,1.3039345741271973,-0.2829862833023071,0.0405436344444751,0.40268474817276,0.2424795180559158,0.0,0.0,0.1199456967644596,-0.865977039290614
-0.0599871650338172,1.3054760694503784,-0.3219342827796936,0.0647251978516578,0.4168038368225097,0.2823818325996399,0.0,0.0,0.386899240913751,0.968792940629722
-0.0632164031267166,1.307313084602356,-0.3343033194541931,0.0782373994588851,0.4291132092475891,0.2461875677108764,0.0,0.0,0.0936945815644474,0.9446486346157648
-0.0665745735168457,1.3096511363983154,-0.3455159664154053,0.100918248295784,0.4396716356277466,0.2111680209636688,0.0,0.0,-0.6298184434197975,-0.8902366952718306
-0.0700305923819542,1.311830997467041,-0.357082337141037,0.0932240486145019,0.452235460281372,0.2512767314910888,0.0,0.0,-0.1007259071594395,0.8166670398909945
-0.0734652504324913,1.3139257431030271,-0.3536029756069183,0.0897881835699081,0.4633850455284118,0.2229915112257003,0.0,0.0,-0.8018182752918988,-0.903644488069266
-0.0769966095685958,1.3158615827560425,-0.3649802803993225,0.082028791308403,0.4765040576457977,0.2623803317546844,0.0,0.0,0.2848675931048783,0.8023338181572731
-0.0808417350053787,1.3185769319534302,-0.3949206471443176,0.1170580834150314,0.488096684217453,0.2318527698516845,0.0,0.0,-0.0651601260003833,-0.769644301011302
-0.0847733467817306,1.321131944656372,-0.4050498008728027,0.1092872768640518,0.501429557800293,0.2666559815406799,0.0,0.0,0.6840890297093107,0.6736139183002146
-0.0891815200448036,1.3245676755905151,-0.4512980878353119,0.1488179117441177,0.513274073600769,0.236890509724617,0.0,0.0,-0.9158347845077516,0.988722801208496
-0.0935431495308876,1.3279485702514648,-0.4445576071739197,0.1470808386802673,0.522790253162384,0.1903231590986251,0.0,0.0,-0.9545878767967224,0.9888324737548828
-0.0978588089346885,1.3312649726867676,-0.4379503726959228,0.1449356228113174,0.5300727486610413,0.1456504166126251,0.0,0.0,-0.98821359872818,0.9840068817138672
-0.1021318435668945,1.334525465965271,-0.4316891729831695,0.1431787014007568,0.5351032614707947,0.1006097942590713,0.0,0.0,-0.9764776825904846,0.9898176193237304
-0.1063736900687217,1.3377082347869873,-0.4270254671573639,0.1403299421072006,0.5383638143539429,0.0652108788490295,0.0,0.0,-0.9950199127197266,0.9802772998809814
-0.1105761528015136,1.3408228158950806,-0.4212895929813385,0.1380160897970199,0.5395641326904297,0.0240063108503818,0.0,0.0,-0.9633384943008424,0.9091299772262572
-0.1147444695234298,1.3438706398010254,-0.4161693155765533,0.1357190012931823,0.5388047695159912,-0.0151872830465435,0.0,0.0,-0.999130368232727,0.8950269222259521
-0.118901826441288,1.3468472957611084,-0.4138499796390533,0.1330455690622329,0.5366384983062744,-0.0433258153498172,0.0,0.0,-0.915317714214325,0.6444230079650879
-0.1230615600943565,1.3497360944747925,-0.4132880270481109,0.1294487565755844,0.5335462689399719,-0.0618442185223102,0.0,0.0,-0.966152548789978,0.8485840559005737
-0.1271994560956955,1.3525484800338743,-0.4097016751766205,0.1265982538461685,0.5288641452789307,-0.0936425030231475,0.0,0.0,-0.9988853931427002,0.4500510692596435
-0.1313709318637848,1.3552379608154297,-0.4131743013858795,0.1210795417428016,0.5243222117424011,-0.090838722884655,0.0,0.0,-0.9839304089546204,0.9149537086486816
-0.1355220824480056,1.3578585386276243,-0.409686267375946,0.1185434609651565,0.5181505084037781,-0.123434267938137,0.0,0.0,-0.998711347579956,0.4471063613891601
-0.1397060453891754,1.3603562116622925,-0.4130775332450866,0.1130241453647613,0.5121075510978699,-0.1208591908216476,0.0,0.0,-0.9989703297615052,0.8235704898834229
-0.1438689231872558,1.3627854585647583,-0.4094924926757812,0.1104902774095535,0.5044247508049011,-0.1536565124988556,0.0,0.0,-0.9887083768844604,0.6272107362747192
-0.1480098664760589,1.3651344776153564,-0.4059012830257416,0.1073850840330123,0.495210736989975,-0.1842804104089737,0.0,0.0,-0.9834021925926208,0.6329207420349121
-0.1521449983119964,1.3673884868621826,-0.4043967723846435,0.1034305319190025,0.4849902689456939,-0.2044094353914261,0.0,0.0,-0.9994189143180848,0.071789264678955
-0.1563116014003753,1.3695203065872192,-0.4075849056243896,0.0979074910283088,0.4748755097389221,-0.2022946178913116,0.0,0.0,-0.9990288615226746,0.4768439531326294
-0.1605091989040374,1.3715299367904663,-0.4107158184051513,0.092384859919548,0.4648607671260834,-0.2002947777509689,0.0,0.0,-0.9998182654380798,0.8863980770111084
-0.1646704673767089,1.3734781742095947,-0.4052020609378814,0.0901869386434555,0.4528402388095855,-0.2404105961322784,0.0,0.0,-0.9995734095573424,0.3114910125732422
-0.1688615828752517,1.3753044605255127,-0.4082073271274566,0.0846616476774215,0.4409083724021911,-0.2386375963687896,0.0,0.0,-0.9976574778556824,0.4054934978485107
-0.1730818748474121,1.377009034156799,-0.4111469388008117,0.079136736690998,0.4290595352649688,-0.236977145075798,0.0,0.0,-0.990789532661438,0.159691572189331
-0.177330881357193,1.3785916566848757,-0.4140182435512543,0.0736121833324432,0.4172881245613098,-0.235428050160408,0.0,0.0,-0.996561586856842,0.6689202785491943
-0.1815495491027832,1.380089521408081,-0.4094476103782654,0.0701843500137329,0.4039182364940643,-0.2673977613449096,0.0,0.0,-0.9967751502990724,-0.785707414150238
-0.1858502328395843,1.3814319372177124,-0.4191031455993652,0.0627388060092926,0.3921760320663452,-0.2348447144031524,0.0,0.0,-0.9941948056221008,-0.0281789302825927
-0.1901773512363433,1.3826521635055542,-0.4217545986175537,0.0572150126099586,0.380495011806488,-0.2336203157901764,0.0,0.0,-0.9974724650382996,0.8064782619476318
-0.1944836676120758,1.3837790489196775,-0.4184269309043884,0.053287036716938,0.3675488531589508,-0.2589240670204162,0.0,0.0,-0.9096471667289734,0.3164782524108886
-0.1988150626420974,1.3847843408584597,-0.420919269323349,0.0477612428367137,0.3546535670757293,-0.2579057514667511,0.0,0.0,-0.9898840188980104,0.4492037296295166
-0.2031707316637039,1.3856678009033203,-0.4233298897743225,0.042235679924488,0.3418042063713074,-0.2569872736930847,0.0,0.0,-0.9984980225563048,-0.3268778324127197
-0.2075498551130294,1.3864295482635498,-0.4256569445133209,0.0367103368043899,0.3289958834648132,-0.2561662793159485,0.0,0.0,-0.9999106526374816,-0.2550449967384338
-0.2119515389204025,1.387069582939148,-0.4278988242149353,0.031185183674097,0.3162238895893097,-0.2554399073123932,0.0,0.0,-0.9954001903533936,-0.0347929596900939
-0.2163750231266021,1.3875876665115356,-0.4300540387630462,0.0256602000445127,0.303483635187149,-0.2548054754734039,0.0,0.0,-0.9999043345451356,0.5535249710083008
-0.2207758873701095,1.3880058526992798,-0.4266255497932434,0.0213312674313783,0.2895852327346802,-0.2779679000377655,0.0,0.0,-0.9959016442298888,-0.1198486685752868
-0.2251968830823898,0.0,-0.4286027550697326,0.0158040449023246,0.275709867477417,-0.2775072157382965,0.0,0.0,-0.9514134526252748,0.3455393314361572
-0.2296370565891266,1.3884775638580322,-0.4304900169372558,0.0102769313380122,0.2618534564971924,-0.2771289944648742,0.0,0.0,-0.999560296535492,0.182611346244812
-0.2340955734252929,1.38853120803833,-0.4322865903377533,0.0047499034553766,0.2480119615793228,-0.2768298983573913,0.0,0.0,-0.9967471957206726,0.0189166069030761
-0.2385714948177337,1.3884634971618652,-0.4339919686317444,-0.0007770506781525,0.2341816276311874,-0.2766065597534179,0.0,0.0,-0.9811691641807556,-0.4652596116065979
-0.2430639266967773,1.388274073600769,-0.4356057047843933,-0.0063039534725248,0.2203588783740997,-0.2764553725719452,0.0,0.0,-0.943629503250122,-0.697648286819458
-0.2476274073123932,1.387950778007507,-0.4440747201442718,-0.0125810569152235,0.2079596817493438,-0.2479840517044067,0.0,0.0,-0.9373615980148317,-0.2305641770362854
-0.2522055208683014,1.3875055313110352,-0.4455060064792633,-0.0181048512458801,0.195561334490776,-0.247967392206192,0.0,0.0,-0.3593013882637024,-0.1965548992156982
-0.2567973732948303,1.3869383335113523,-0.4468456208705902,-0.0236286278814077,0.1831607371568679,-0.2480118572711944,0.0,0.0,-0.7568844556808472,0.3156614303588867
-0.2614019811153412,1.3862491846084597,-0.4480940401554107,-0.0291523970663547,0.170755073428154,-0.2481135874986648,0.0,0.0,-0.9102864861488342,0.0046213865280151
-0.2660185694694519,1.3854379653930664,-0.4492518901824951,-0.0346761718392372,0.158341646194458,-0.2482687532901764,0.0,0.0,-0.9644588232040404,-0.0614162683486938
-0.270646184682846,1.3845046758651731,-0.4503199458122253,-0.0401999689638614,0.1459179818630218,-0.2484733760356903,0.0,0.0,-0.8274980783462524,0.0750483274459838
-0.2752839028835296,1.3834493160247805,-0.4512993395328522,-0.0457237884402275,0.133481815457344,-0.248723417520523,0.0,0.0,-0.5189588069915771,0.4734289646148681
-0.2799309194087982,1.3822720050811768,-0.4521912634372711,-0.0512476488947868,0.121031068265438,-0.2490148991346359,0.0,0.0,-0.6801366209983826,0.0849684476852417
-0.2845863401889801,1.3809728622436523,-0.4529971182346344,-0.0567715615034103,0.1085638701915741,-0.2493437826633453,0.0,0.0,-0.8712813258171082,0.8508987426757812
-0.2891791760921478,1.379555106163025,-0.4449275135993957,-0.0620316080749034,0.094317689538002,-0.2849237322807312,0.0,0.0,-0.9334840774536132,0.6813403367996216
-0.2937165796756744,1.3780200481414795,-0.4377609193325043,-0.0672901645302772,0.0784863904118537,-0.3166260123252868,0.0,0.0,-0.9584583044052124,-0.2347407937049865
-0.298259973526001,1.3763642311096191,-0.4383181035518646,-0.0728221461176872,0.0626344084739685,-0.3170397281646728,0.0,0.0,-0.9498491287231444,0.8215227127075195
-0.3027283251285553,1.374589443206787,-0.4287443161010742,-0.0782145485281944,0.0447481758892536,-0.3577247262001037,0.0,0.0,-0.973850965499878,0.0678372383117675
-0.307201087474823,1.3726950883865356,-0.4291470050811767,-0.0837524384260177,0.0268395002931356,-0.3581738770008087,0.0,0.0,-0.9374639987945556,0.9422979354858398
-0.3115992546081543,1.3706916570663452,-0.4196547567844391,-0.088796742260456,0.0069364588707685,-0.3980608582496643,0.0,0.0,-0.9648917317390442,-0.2670859098434448
-0.3160002827644348,1.3685696125030518,-0.4199136793613434,-0.0943411290645599,-0.0129899587482213,-0.3985284268856048,0.0,0.0,-0.92637300491333,-0.4673476815223694
-0.3204033374786377,1.3663287162780762,-0.4201051592826843,-0.0998856350779533,-0.0329399816691875,-0.3990005254745483,0.0,0.0,-0.8079484701156616,-0.759370744228363
-0.3248732089996338,1.363969802856445,-0.4284307360649109,-0.1053467839956283,-0.0512716360390186,-0.3666331171989441,0.0,0.0,-0.9289809465408324,-0.037036657333374
-0.3293438553810119,1.3614914417266846,-0.4284961819648742,-0.110886238515377,-0.069626860320568,-0.3671044707298279,0.0,0.0,-0.9264065027236938,0.6290528774261475
-0.333766758441925,1.3588886260986328,-0.4225139021873474,-0.1167140007019043,-0.0892093777656555,-0.3916505873203277,0.0,0.0,-0.915246605873108,0.8749947547912598
-0.3381338119506836,1.356167912483215,-0.4155530035495758,-0.1223129481077194,-0.1101952642202377,-0.4197178781032562,0.0,0.0,-0.8803991079330444,-0.194459319114685
-0.3424996435642242,1.353329062461853,-0.415455162525177,-0.1278610974550247,-0.1312027722597122,-0.4201500415802002,0.0,0.0,-0.9433382153511048,0.8015522956848145
-0.3468058109283447,1.3503669500350952,-0.4080690741539001,-0.1337860524654388,-0.1536870747804641,-0.4496859610080719,0.0,0.0,-0.9329922795295716,-0.2857638597488403
-0.3511095643043518,1.34728741645813,-0.4078812003135681,-0.1393394768238067,-0.1761906594038009,-0.4500721096992492,0.0,0.0,-0.8737250566482544,0.2320755720138549
-0.3554102778434753,1.344090700149536,-0.4076535701751709,-0.1448928415775299,-0.1987121850252151,-0.4504309594631195,0.0,0.0,-0.5911851525306702,0.0118966102600097
-0.3597075343132019,1.3407766819000244,-0.4073901772499084,-0.1504461020231247,-0.2212501168251037,-0.450758695602417,0.0,0.0,-0.3124750852584839,-0.7635668516159058
-0.3640747666358948,1.3373678922653198,-0.416368305683136,-0.1546870321035385,-0.2418820410966873,-0.4126386642456054,0.0,0.0,-0.9181804060935974,0.1369425058364868
-0.3684377670288086,1.3338404893875122,-0.4160428643226623,-0.1602332592010498,-0.2625268399715423,-0.4128967821598053,0.0,0.0,-0.168419599533081,-0.8550653457641602
-0.3728561401367187,1.3302106857299805,-0.4231893122196197,-0.1647803038358688,-0.2816349565982818,-0.3821620345115661,0.0,0.0,0.3014317750930786,-0.9404400587081908
-0.3770458102226257,1.3273100852966309,-0.4023300111293793,-0.1322267949581146,-0.2987676858901977,-0.3426543176174164,0.0,0.0,-0.8520980477333069,-0.0493498444557189
-0.3812307715415954,1.3242889642715454,-0.4019401967525482,-0.1377617418766021,-0.3159067630767822,-0.3427816033363342,0.0,0.0,-0.6933907270431519,-0.539027750492096
-0.3854402601718902,1.3211686611175537,-0.405294120311737,-0.142185628414154,-0.3322041630744934,-0.3259479403495788,0.0,0.0,0.1303216218948364,-0.235860526561737
-0.3894661366939544,1.318464279174805,-0.3872472643852234,,-0.348261296749115,-0.3211424946784973,0.0,0.0,0.4154056310653686,-0.890664279460907
-0.3933185935020447,1.316672682762146,-0.3717313408851623,-0.0829636082053184,-0.3624873757362366,-0.2845217585563659,0.0,0.0,-0.4283244609832763,-0.5281778573989868
-0.3971999585628509,1.3147835731506348,-0.3756208419799804,-0.0871813967823982,-0.3757271766662597,-0.2647966742515564,0.0,0.0,-0.6472610235214233,-0.2485128045082092
-0.401076465845108,1.3127726316452026,-0.3752106428146362,-0.0927060768008232,-0.3889591097831726,-0.2646385729312897,0.0,0.0,-0.7261981964111328,-0.743420422077179
-0.4050129055976867,1.3106803894042969,-0.3830043375492096,-0.0959307849407196,-0.4003319442272186,-0.2274568080902099,0.0,0.0,-0.2556530237197876,-0.5990490317344666
-0.4089977741241455,1.3084975481033323,-0.3893098831176758,-0.099639281630516,-0.4101890325546264,-0.1971415728330612,0.0,0.0,0.2122694253921508,-0.4232098460197449
-0.4128279089927673,1.3067702054977417,-0.3738245666027069,-0.0794689357280731,-0.4201011657714844,-0.1982428729534149,0.0,0.0,-0.6152211427688599,-0.8376753330230713
-0.4167118668556213,1.3049567937850952,-0.3807950913906097,-0.0828832909464836,-0.4283296167850494,-0.1645689904689788,0.0,0.0,-0.106677770614624,-0.5644495487213135
-0.4206251204013824,1.3030370473861694,-0.3846145868301391,-0.087390623986721,-0.4356205761432647,-0.1458190530538559,0.0,0.0,-0.1550281047821045,-0.1483141183853149
-0.4245349466800689,1.30099356174469,-0.3843267858028412,-0.0929048284888267,-0.4428822994232178,-0.1452346295118332,0.0,0.0,0.3981859683990478,-0.378043532371521
-0.4281300902366638,1.2997381687164309,-0.3529933094978332,-0.0578778721392154,-0.4500129222869873,-0.1426123976707458,0.0,0.0,-0.6599130034446716,-0.8660708069801331
-0.4317800998687744,1.298389911651611,-0.3599961996078491,-0.0615447610616683,-0.4555028676986694,-0.1097988709807396,0.0,0.0,-0.3279104232788086,-0.2449736595153808
