x_pos,y_pos,x_vel,y_vel,angle,ang_vel,leg_1,leg_2,main_booster,lat_booster
-0.0015522956382483,1.403527855873108,-0.1573083996772766,-0.3285453021526336,0.0018505778862163,0.0365111455321311,0.0,0.0,-0.2607743496632222,-0.6137934049469983
-0.003178882645443,1.3960590362548828,-0.1656512022018432,-0.3319520950317383,0.0048231678083539,0.0594581253826618,0.0,0.0,0.8112558490212076,-0.967440426387972
-0.0047508240677416,1.3891512155532837,-0.162480816245079,-0.3070355653762817,0.0100477579981088,0.1045014113187789,0.0,0.0,0.6646473465659264,-0.8018246196325751
-0.006554699037224,1.3828966617584229,-0.1870728433132171,-0.2780381143093109,0.0166543964296579,0.1321450173854828,0.0,0.0,0.1581276842648029,0.8202558390865929
-0.0082296375185251,1.377238392829895,-0.1726774275302887,-0.2515504658222198,0.0217842441052198,0.1026062816381454,0.0,0.0,-0.8666663722602728,-0.9002568959323628
-0.009991836734116,1.3714807033538818,-0.1828605830669403,-0.2560073137283325,0.0283524729311466,0.1313768327236175,0.0,0.0,0.7692607590170519,-0.7060095901899075
-0.0118865016847848,1.366551160812378,-0.1975226104259491,-0.2192714661359787,0.0363154001533985,0.1592733412981033,0.0,0.0,-0.6296150413478243,-0.9189420934827822
-0.0138694765046238,1.361525297164917,-0.2077883034944534,-0.2236255258321762,0.0457084774971008,0.1878787875175476,0.0,0.0,0.3065337989628278,-0.7913116281216569
-0.0159902572631835,1.357399582862854,-0.2231959998607635,-0.1837404668331146,0.0567149668931961,0.2201500385999679,0.0,0.0,-0.2182117106643573,0.6127200337510255
-0.018097972497344,1.3531863689422607,-0.2207042872905731,-0.18765489757061,0.0665683671832084,0.1970858871936798,0.0,0.0,0.7559605968928365,-0.9075370767097436
-0.0202524177730083,1.3498276472091677,-0.2274434119462967,-0.1498511135578155,0.0784618556499481,0.2378913611173629,0.0,0.0,-0.2534196522489871,0.948098669911426
-0.0223590843379497,1.3463815450668335,-0.2205989062786102,-0.1537051498889923,0.088313527405262,0.1970513314008712,0.0,0.0,-0.0954409066148564,-0.640871038476699
-0.0245412830263376,1.3428384065628052,-0.229202538728714,-0.1581526547670364,0.09922606498003,0.2182703465223312,0.0,0.0,-0.2310455574422516,-0.6749226962627575
-0.026806067675352,1.3391873836517334,-0.2387120276689529,-0.1631276309490203,0.111390620470047,0.2433131039142608,0.0,0.0,0.563621371077393,-0.8791071467905386
-0.029114818200469,1.3366276025772097,-0.2451332807540893,-0.1148935407400131,0.125582605600357,0.2838655710220337,0.0,0.0,0.9778792734987224,0.7894769789349348
-0.0313009247183799,1.3345322608947754,-0.2316701114177703,-0.0942723006010055,0.1385985314846038,0.2603423595428467,0.0,0.0,0.4617494645617432,-0.9531754405963864
-0.0335664749145507,1.3334919214248655,-0.2416805773973465,-0.0477216951549053,0.1537111699581146,0.3022802472114563,0.0,0.0,-0.4295635457176263,0.7158133634732752
-0.035799790173769,1.3323675394058228,-0.2367236167192459,-0.0514184571802616,0.1671205461025238,0.2682119011878967,0.0,0.0,-0.3677336796520836,0.6397242417741211
-0.0380135551095008,1.3311691284179688,-0.2333145439624786,-0.0546468123793602,0.1791044473648071,0.2396999895572662,0.0,0.0,0.1617138401350533,0.6515953871305568
-0.0403476729989051,1.3304595947265625,-0.2440081387758255,-0.0328417010605335,0.1897562146186828,0.2130542695522308,0.0,0.0,-0.2620702551669658,0.6061225972439047
-0.0426630973815918,1.329675555229187,-0.2407177984714508,-0.0360458940267562,0.1989956051111221,0.1848044395446777,0.0,0.0,-0.583255438657631,0.9308418747842024
-0.0449421890079975,1.328812837600708,-0.2352409660816192,-0.0393391102552413,0.2063970267772674,0.1480419635772705,0.0,0.0,-0.9039950820480788,-0.9899182392337996
-0.0473188385367393,1.3278344869613647,-0.2465918511152267,-0.0447553135454654,0.2154236435890197,0.1805485486984253,0.0,0.0,0.8666304272059249,-0.9455551442684452
-0.0497945770621299,1.3272716999053955,-0.25858074426651,-0.0266596358269453,0.2265680134296417,0.2229074984788894,0.0,0.0,-0.7831077546218157,0.6177142904242251
-0.0522725097835063,1.3266278505325315,-0.2578954100608825,-0.0301989391446113,0.2368213832378387,0.2050859183073043,0.0,0.0,-0.795047086940218,0.6317984521689094
-0.0547491088509559,1.3258845806121826,-0.2568521797657013,-0.0345447584986686,0.2461694777011871,0.1869619786739349,0.0,0.0,0.6163983347048194,-0.7138613582606794
-0.0574883446097373,1.3260653018951416,-0.2845762372016907,0.0062132594175636,0.2570264935493469,0.2171404361724853,0.0,0.0,0.8500451855309354,0.7441346520818108
-0.0605990402400493,1.3274608850479126,-0.3199402093887329,0.0604453682899475,0.266083300113678,0.1811361461877823,0.0,0.0,0.1883498267568792,-0.6557929200547465
-0.0640467628836631,1.329511046409607,-0.3548227846622467,0.0892551317811012,0.2763779163360595,0.2058920562267303,0.0,0.0,0.1550814489092784,0.7507968490974599
-0.0675844177603721,1.3319727182388306,-0.3623590767383575,0.1077494844794273,0.2851984202861786,0.1764107346534729,0.0,0.0,-0.110586267153689,0.8876316887967894
-0.071093276143074,1.3343784809112549,-0.3576920628547668,0.1055811792612075,0.2922106683254242,0.1402454674243927,0.0,0.0,-0.9189202161142368,-0.9032025937260526
-0.0747161880135536,1.3366491794586182,-0.3711718320846557,0.0991120710968971,0.301359474658966,0.1829762160778045,0.0,0.0,-0.0236793180152909,-0.8525712518499122
-0.07845239341259,1.3387984037399292,-0.384407103061676,0.0932446792721748,0.3125303387641907,0.2234175950288772,0.0,0.0,0.1378528915739332,0.6129474506404894
-0.0823031440377235,1.3412015438079834,-0.3946126699447632,0.104720801115036,0.3224433362483978,0.1982596814632415,0.0,0.0,0.3177355803821822,-0.976528836304945
-0.086410142481327,1.3441941738128662,-0.422173798084259,0.1304037123918533,0.3344088494777679,0.2393101006746292,0.0,0.0,-0.90228918841852,0.6769191446583116
-0.0905052199959755,1.347123622894287,-0.4196247160434723,0.1278269737958908,0.3449961841106415,0.2117466032505035,0.0,0.0,-0.4154502459833133,-0.762721481575763
-0.0946971923112869,1.3499231338500977,-0.4308696687221527,0.1215765178203582,0.357271134853363,0.2454987466335296,0.0,0.0,0.9010371300932511,0.9438995966747216
-0.09912109375,1.353929877281189,-0.452300488948822,0.1755766421556472,0.3677306175231933,0.2091894596815109,0.0,0.0,-0.8433654501281636,0.7872005491999732
-0.1035320311784744,1.3578808307647705,-0.4495767056941986,0.1733888089656829,0.37671560049057,0.1796993911266327,0.0,0.0,0.5342197520313046,0.6095552471369293
-0.1081186309456825,1.362566351890564,-0.4660286903381347,0.206282764673233,0.3845541477203369,0.1567707359790802,0.0,0.0,-0.4335361135283768,0.8913337549329317
-0.1126924529671669,1.3671956062316897,-0.4633528590202331,0.2041158676147461,0.3909165561199188,0.1272484809160232,0.0,0.0,-0.9456607103347778,0.7841647863388062
-0.1172359436750412,1.3717694282531738,-0.4585190415382385,0.2021307200193405,0.3953741788864136,0.0891522914171218,0.0,0.0,-0.9861350059509276,0.8536559343338013
-0.1217436790466308,1.3762834072113037,-0.4530783593654632,0.1999771445989608,0.3978373110294342,0.0492629073560237,0.0,0.0,-0.9972641468048096,0.5701780319213867
-0.1262417733669281,1.3807302713394165,-0.4508551955223083,0.1973393261432647,0.3989689350128174,0.0226321909576654,0.0,0.0,-0.9930473566055298,0.7415065765380859
-0.1307259500026703,1.3851041793823242,-0.4481870234012604,0.1944641321897506,0.3987201750278473,-0.0049751480109989,0.0,0.0,-0.9909784197807312,-0.179668128490448
-0.1352487504482269,1.3893818855285645,-0.4520758986473083,0.1901695877313614,0.3985074460506439,-0.004254441242665,0.0,0.0,-0.9996078610420228,0.4987685680389404
-0.1398099958896637,1.393562912940979,-0.4559616446495056,0.1858751326799392,0.3983286023139953,-0.0035770894028246,0.0,0.0,-0.9966691136360168,0.6653696298599243
-0.1443725526332855,1.3976789712905884,-0.4550694823265075,0.1832648366689682,0.3970530331134796,-0.025511547923088,0.0,0.0,-0.9917283058166504,0.4258781671524048
-0.1489736586809158,1.4016985893249512,-0.4589475989341736,0.1789704114198684,0.3958068192005157,-0.0249245408922433,0.0,0.0,-0.9998674392700196,0.6236534118652344
-0.1535693109035492,1.4056471586227417,-0.457256555557251,0.1761395782232284,0.3933462500572204,-0.0492114052176475,0.0,0.0,-0.998917520046234,0.0757160186767578
-0.1582033187150955,1.4094995260238647,-0.4611245691776275,0.1718449592590332,0.3909103274345398,-0.0487178042531013,0.0,0.0,-0.9681544899940492,0.215347409248352
-0.1628757417201995,1.4132554531097412,-0.4649867415428161,0.1675504595041275,0.3884967863559723,-0.0482710897922515,0.0,0.0,-0.999161422252655,0.6572265625
-0.1675292998552322,1.4169464111328125,-0.4616075456142425,0.1650544106960296,0.384505033493042,-0.0798352286219596,0.0,0.0,-0.99951434135437,-0.140395700931549
-0.1722211837768554,1.4205408096313477,-0.4654555916786194,0.1607592701911926,0.3805309236049652,-0.079482302069664,0.0,0.0,-0.9969550371170044,0.1666803359985351
-0.1769514083862304,1.4240391254425049,-0.4692956507205963,0.1564642041921615,0.3765721321105957,-0.0791755989193916,0.0,0.0,-0.9993160367012024,0.5087966918945312
-0.1816880255937576,1.4274574518203735,-0.4691154360771179,0.1531185358762741,0.3717474937438965,-0.0964925289154052,0.0,0.0,-0.9997748136520386,0.2706785202026367
-0.1864628791809082,1.4307795763015747,-0.4729368090629577,0.1488230228424072,0.3669337034225464,-0.096275970339775,0.0,0.0,-0.9987546801567078,0.1032369136810302
-0.191275879740715,1.4340053796768188,-0.4767477512359619,0.1445276141166687,0.3621285557746887,-0.0961029753088951,0.0,0.0,-0.9982151985168456,-0.1415044069290161
-0.1961268484592437,1.4371349811553955,-0.4805472493171692,0.1402322798967361,0.3573299348354339,-0.095972254872322,0.0,0.0,-0.9964312314987184,0.3890279531478882
-0.2010157108306884,1.4401682615280151,-0.4843341708183288,0.1359369903802871,0.3525358140468597,-0.0958824828267097,0.0,0.0,-0.93484628200531,0.3609616756439209
-0.2059423923492431,1.4431051015853882,-0.4881075322628021,0.1316417604684829,0.3477441966533661,-0.0958322137594223,0.0,0.0,-0.9989936947822572,0.4547773599624634
-0.2109067440032959,1.4459458589553833,-0.4918659627437591,0.1273465752601623,0.3429532051086426,-0.0958198755979538,0.0,0.0,-0.9645497798919678,0.2703717947006225
-0.2159086167812347,1.4486901760101318,-0.4956081807613373,0.1230514422059059,0.3381610214710235,-0.0958438366651535,0.0,0.0,-0.9957361817359924,0.6990725994110107
-0.2208941429853439,1.4513676166534424,-0.4925458431243896,0.120396502315998,0.3318780660629272,-0.1256590485572815,0.0,0.0,-0.9848276972770692,0.8502967357635498
-0.2258514910936355,1.4539763927459717,-0.488022893667221,0.1176946610212326,0.3238366246223449,-0.1608288735151291,0.0,0.0,-0.9985706210136414,-0.0512256622314453
-0.2308459281921386,1.4564895629882812,-0.4917059540748596,0.1133963391184806,0.3157891035079956,-0.1609506011009216,0.0,0.0,-0.9982649683952332,0.1444027423858642
-0.2358772754669189,1.458906650543213,-0.495366483926773,0.1090980321168899,0.3077340126037597,-0.1611015647649765,0.0,0.0,-0.9970097541809082,0.3649829626083374
-0.2409452497959137,1.4612281322479248,-0.499002456665039,0.1047997325658798,0.29967001080513,-0.1612803041934967,0.0,0.0,-0.9612083435058594,0.5174951553344727
-0.2460101544857025,1.4634783267974854,-0.4975959658622741,0.1018132641911506,0.29048952460289,-0.1836096942424774,0.0,0.0,-0.9603223204612732,0.0385760068893432
-0.2511112689971924,1.4656331539154053,-0.5011758208274841,0.0975134298205375,0.2812975645065307,-0.1838391870260238,0.0,0.0,-0.9931386113166808,0.6011838912963867
-0.2562100887298584,1.467711329460144,-0.4999075829982757,0.0942576676607132,0.2710566520690918,-0.2048185616731643,0.0,0.0,-0.9976231455802916,-0.010970115661621
-0.2613444924354553,1.4696944952011108,-0.5034216642379761,0.0899561718106269,0.2608019709587097,-0.2050934582948684,0.0,0.0,-0.9949356913566588,-0.1790776252746582
-0.2665141224861145,1.4715821743011477,-0.5068991184234619,0.0856546312570571,0.2505324780941009,-0.2053895890712738,0.0,0.0,-0.989043354988098,-0.5077263712882996
-0.2717525959014892,1.4733614921569824,-0.5146266222000122,0.0806211680173873,0.241147980093956,-0.1876895427703857,0.0,0.0,-0.9544841647148132,0.418113112449646
-0.2770253717899322,1.4750453233718872,-0.5180220007896423,0.0763209983706474,0.2317466735839843,-0.1880259960889816,0.0,0.0,-0.9039249420166016,0.7160382270812988
-0.2822696566581726,1.4766480922698977,-0.513551652431488,0.0729051381349563,0.2207269519567489,-0.2203947752714157,0.0,0.0,-0.8640270829200745,-0.3864126801490783
-0.2875473499298095,1.4781556129455566,-0.5168495774269104,0.0686022043228149,0.2096885591745376,-0.2207677066326141,0.0,0.0,-0.6946220993995667,0.536461353302002
-0.2928178906440735,1.4795860052108765,-0.5150209069252014,0.0652392730116844,0.1975629925727844,-0.2425112724304199,0.0,0.0,-0.95827317237854,-0.1972208619117736
-0.2981207370758056,1.4809218645095823,-0.5182059407234192,0.060934193432331,0.1854170560836792,-0.2429187595844268,0.0,0.0,-0.952710509300232,-0.1491035223007202
-0.3034552931785583,1.4821628332138062,-0.5213283896446228,0.0566290281713008,0.1732498854398727,-0.2433433830738067,0.0,0.0,-0.9777445197105408,0.1272441148757934
-0.3088208734989166,1.483309268951416,-0.5243836641311646,0.0523237958550453,0.1610606461763382,-0.243785098195076,0.0,0.0,-0.8375948071479797,0.0449187755584716
-0.3142167925834656,1.4843608140945437,-0.5273668169975281,0.0480184704065322,0.1488484740257263,-0.2442438602447509,0.0,0.0,-0.3801274299621582,0.7321178913116455
-0.3195945620536804,1.4853286743164062,-0.5242913961410522,0.0443083234131336,0.1353945434093475,-0.2690787613391876,0.0,0.0,-0.9943936467170716,0.222022533416748
-0.3250010907649994,1.4862021207809448,-0.5271142721176147,0.0400002412497997,0.1219159960746765,-0.2695710659027099,0.0,0.0,-0.907045304775238,0.1178377866744995
-0.3304354250431061,1.4869815111160278,-0.529849112033844,0.0356920473277568,0.1084119379520416,-0.2700809240341186,0.0,0.0,-0.9604020714759828,0.4706276655197143
-0.3358966410160064,1.4876667261123655,-0.5324903726577759,0.0313837528228759,0.0948814898729324,-0.2706086039543152,0.0,0.0,-0.7520004510879517,0.7889482975006104
-0.3413186967372894,1.488259196281433,-0.5268771052360535,0.0272456686943769,0.0796919167041778,-0.3037917017936706,0.0,0.0,-0.6916625499725342,0.9325129985809326
-0.3466803431510925,1.488762140274048,-0.5186246633529663,0.0231977514922618,0.0623325072228908,-0.347188264131546,0.0,0.0,-0.9375157952308656,0.8504496812820435
-0.3519821763038635,1.4891808032989502,-0.5104603171348572,0.0193056259304285,0.0428376123309135,-0.3898982405662536,0.0,0.0,-0.9736779928207396,0.9326586723327636
-0.3572154939174652,1.489507079124451,-0.5012528896331787,0.0149885015562176,0.0210288744419813,-0.4361749291419983,0.0,0.0,-0.94037926197052,-0.6339696645736694
-0.3625207841396332,1.489745855331421,-0.5096968412399292,0.0107713853940367,0.0004617870727088,-0.4113418161869049,0.0,0.0,-0.8605755567550659,-0.8151540756225586
-0.3679071962833404,1.4898991584777832,-0.5193325281143188,0.0067150508984923,-0.0185994803905487,-0.3812253177165985,0.0,0.0,-0.9531311988830566,0.4686042070388794
-0.3733121454715729,1.489960789680481,-0.521156907081604,0.0023911914322525,-0.0376937203109264,-0.3818848729133606,0.0,0.0,-0.9594892859458924,0.7017936706542969
-0.3786695599555969,1.489920139312744,-0.5147311687469482,-0.0024650709237903,-0.0584529563784599,-0.4151846766471863,0.0,0.0,-0.9761359095573424,0.6239402294158936
-0.3839975297451019,1.4897832870483398,-0.5106353759765625,-0.007094076834619,-0.0803811401128768,-0.4385639727115631,0.0,0.0,-0.9801232814788818,-0.1236820816993713
-0.3893395066261291,1.4895563125610352,-0.5120311379432678,-0.0114278914406895,-0.1023454144597053,-0.4392856657505035,0.0,0.0,-0.8930761814117432,0.4238417148590088
-0.3946937620639801,1.489238977432251,-0.5132753849029541,-0.0157618466764688,-0.1243469268083572,-0.4400304853916168,0.0,0.0,-0.9185324907302856,0.8670666217803955
-0.4000039994716644,1.4888297319412231,-0.5075206160545349,-0.0203113872557878,-0.147756889462471,-0.4681994318962097,0.0,0.0,-0.783873438835144,0.043259859085083
-0.4053230881690979,1.488331317901611,-0.5084532499313354,-0.0246507637202739,-0.1712062954902649,-0.4689882695674896,0.0,0.0,-0.8615010976791382,0.0462735891342163
-0.4106493890285492,1.4877434968948364,-0.5092260837554932,-0.0289902333170175,-0.1946963220834732,-0.4698006510734558,0.0,0.0,-0.5727436542510986,-0.1026498675346374
-0.4159811437129974,1.4870665073394775,-0.5098375082015991,-0.0333297774195671,-0.2182281464338302,-0.4706366658210754,0.0,0.0,-0.8917760848999023,0.3517709970474243
-0.4213166236877441,1.4863001108169556,-0.5102864503860474,-0.0376693829894065,-0.2418029457330703,-0.471496045589447,0.0,0.0,-0.622439444065094,-0.6162858009338379
-0.4267103672027588,1.4854655265808103,-0.5176578760147095,-0.0408158414065837,-0.2639362514019012,-0.4426661431789398,0.0,0.0,-0.850265622138977,0.2815072536468506
-0.4321044385433197,1.4845410585403442,-0.517779529094696,-0.0451499857008457,-0.2861149609088897,-0.4435745179653168,0.0,0.0,-0.7253475189208984,-0.7819927930831909
-0.4375450611114502,1.4835517406463623,-0.5237953662872314,-0.0480823330581188,-0.3070272207260132,-0.4182449877262115,0.0,0.0,-0.637033998966217,-0.1549251675605774
-0.4429827630519867,1.4824714660644531,-0.5235936045646667,-0.052411999553442,-0.3279871940612793,-0.4191996157169342,0.0,0.0,-0.4770315885543823,-0.1432195305824279
-0.4484159052371979,1.4813005924224854,-0.5232341289520264,-0.0567416995763778,-0.348995953798294,-0.4201751351356506,0.0,0.0,-0.0536639690399169,-0.9083252549171448
-0.4539108872413635,1.4800832271575928,-0.5313529372215271,-0.0586197637021541,-0.3681128621101379,-0.3823382258415222,0.0,0.0,-0.099030315876007,-0.7798680067062378
-0.4594396948814392,1.47880756855011,-0.5359855890274048,-0.0611489564180374,-0.3860458135604858,-0.3586592972278595,0.0,0.0,0.2112137079238891,-0.8272673487663269
-0.4648004174232483,1.4780300855636597,-0.5208770036697388,-0.0387586876749992,-0.4022814631462097,-0.3247131407260895,0.0,0.0,0.1280280351638794,-0.7436370849609375
-0.4699894785881042,1.4779729843139648,-0.5052051544189453,-0.0064975600689649,-0.41702601313591,-0.2948909401893616,0.0,0.0,0.2170870304107666,-0.6079508662223816
-0.474929004907608,1.478621244430542,-0.4815264642238617,0.0250889342278242,-0.4304762482643127,-0.2690048813819885,0.0,0.0,0.5613126754760742,-0.3348164558410644
-0.4796057641506195,1.4797184467315674,-0.4556049704551697,0.0450102165341377,-0.4436290562152862,-0.2630559802055359,0.0,0.0,0.0852214097976684,-0.909668505191803
-0.4842438101768493,1.4813796281814575,-0.4534974098205566,0.0705236941576004,-0.4549243152141571,-0.2259052246809005,0.0,0.0,0.067908763885498,-0.4379570484161377
-0.488795131444931,1.483449101448059,-0.4444800019264221,0.0884610265493393,-0.4666595458984375,-0.2347043752670288,0.0,0.0,-0.2842141389846802,-0.8081784248352051
-0.4933888018131256,1.485467553138733,-0.4503082633018493,0.0866329818964004,-0.4766985774040222,-0.2007806599140167,0.0,0.0,-0.0753517150878906,-0.8302523493766785
-0.4980209469795227,1.4874322414398191,-0.4556394517421722,0.0846857130527496,-0.4851296246051788,-0.168620079755783,0.0,0.0,0.1243563890457153,-0.7320616841316223
-0.5024839639663696,1.4895894527435305,-0.4401386678218841,0.0936924368143081,-0.492012083530426,-0.1376493424177169,0.0,0.0,-0.23115074634552,-0.7593697905540466
-0.5069705247879028,1.4916889667510986,-0.443662941455841,0.0915191397070884,-0.4976077973842621,-0.1119142174720764,0.0,0.0,-0.2861539125442505,-0.6673531532287598
-0.5114787220954895,1.4937338829040527,-0.4470025599002838,0.0894956737756729,-0.5019044876098633,-0.0859340876340866,0.0,0.0,-0.2664667963981628,-0.5580772161483765
-0.5160022377967834,1.4957056045532229,-0.4494122862815857,0.0865480899810791,-0.5052171945571899,-0.0662535727024078,0.0,0.0,-0.1309082508087158,-0.0427253246307373
