x_pos,y_pos,x_vel,y_vel,angle,ang_vel,leg_1,leg_2,main_booster,lat_booster
-0.0015920639270916,1.403449535369873,-0.1616150885820388,-0.3320277333259582,0.0021589929237961,0.0426178127527236,0.0,0.0,0.4063557213271984,0.7216283349987043
-0.003148078918457,1.3964128494262695,-0.1567288786172866,-0.3127391636371612,0.0032638271804898,0.0220995619893074,0.0,0.0,0.3668780896096577,-0.921365687788274
-0.0047202110290527,1.389695644378662,-0.1606250703334808,-0.2985516488552093,0.0066502364352345,0.0677340924739837,0.0,0.0,0.9550785662516168,-0.7127504955670467
-0.0065732956863939,1.3836863040924072,-0.1900846809148788,-0.2671189904212951,0.0113739250227808,0.0944825336337089,0.0,0.0,-0.3886385258933307,-0.8392633914939407
-0.0085474010556936,1.377503752708435,-0.2038371115922927,-0.2748356163501739,0.0177254099398851,0.1270413547754287,0.0,0.0,0.6071100456458853,-0.927266403747676
-0.0105230333283543,1.3719404935836792,-0.2063817679882049,-0.2473901212215423,0.0264487117528915,0.1744819581508636,0.0,0.0,-0.7887073859076277,0.9580412429492288
-0.0124954227358102,1.366205811500549,-0.2045295536518097,-0.2550190687179565,0.0336548089981079,0.1441354155540466,0.0,0.0,0.8450113530171413,0.8144699758027765
-0.0143148424103856,1.3613948822021484,-0.1883031725883484,-0.2139714062213897,0.0399477966129779,0.1258715540170669,0.0,0.0,0.5690630035231545,-0.9090319896203156
-0.0163199417293071,1.3576059341430664,-0.2089833915233612,-0.1686546206474304,0.0483179800212383,0.1674193292856216,0.0,0.0,-0.750402053094164,-0.6856399171282865
-0.0184490196406841,1.3536430597305298,-0.2230149209499359,-0.1764723509550094,0.0583356544375419,0.2003720998764038,0.0,0.0,0.9783387963449834,-0.6048953491956424
-0.0206268317997455,1.3505793809890747,-0.2297114580869674,-0.1366764456033706,0.0701501742005348,0.236311987042427,0.0,0.0,0.8550719364610362,0.8957619602290654
-0.0227581020444631,1.3482446670532229,-0.2236851453781128,-0.1042956784367561,0.0806243419647216,0.20950248837471,0.0,0.0,0.478374135977309,0.9169506303698448
-0.0248058326542377,1.3467015027999878,-0.2139188945293426,-0.0690983533859252,0.0896950736641883,0.1814311444759369,0.0,0.0,0.8931454776853154,0.8825601448001061
-0.0268032066524028,1.345605492591858,-0.2075341045856475,-0.0492000579833984,0.0974373295903205,0.1548591256141662,0.0,0.0,0.0533134433633328,-0.731166752727592
-0.0288763996213674,1.3451343774795532,-0.2168927937746048,-0.0215820968151092,0.1069533452391624,0.1903373748064041,0.0,0.0,-0.7703552662853721,-0.684710284050746
-0.0310627929866313,1.3444749116897583,-0.2295525521039962,-0.0301238913089036,0.1178124547004699,0.2172020375728607,0.0,0.0,-0.4708968255038819,0.6540613117891272
-0.0332567207515239,1.3436609506607056,-0.2289035767316818,-0.0369512699544429,0.1272808611392974,0.1893855184316635,0.0,0.0,-0.6591110114011203,0.8402376813477669
-0.0354385375976562,1.342681884765625,-0.2258137762546539,-0.044183574616909,0.1348822861909866,0.1520424783229828,0.0,0.0,-0.0823040030569408,0.9755413641653982
-0.0376025214791297,1.3415558338165283,-0.2219316065311432,-0.0505572706460952,0.1404054164886474,0.1104728356003761,0.0,0.0,-0.4498911893718151,-0.8395458616599691
-0.0399106033146381,1.3402395248413086,-0.2384093999862671,-0.0592388100922107,0.1480000466108322,0.1519062221050262,0.0,0.0,0.9326653704966864,-0.7927528074294308
-0.0423198714852333,1.3400821685791016,-0.2506247460842132,-0.0079850079491734,0.1576893627643585,0.1938036531209945,0.0,0.0,0.017714575290179,-0.7140184262353273
-0.0448890700936317,1.340139627456665,-0.2681542038917541,0.0013281384017318,0.168951615691185,0.2252652645111084,0.0,0.0,0.3350391023205188,0.9324193065095157
-0.0474102981388568,1.3407223224639893,-0.2616949379444122,0.0247759986668825,0.1785535663366317,0.1920560449361801,0.0,0.0,-0.5062762830712833,0.7749809444527574
-0.0499331466853618,1.3411405086517334,-0.2602163255214691,0.0176224112510681,0.186531513929367,0.159573495388031,0.0,0.0,-0.2167738144510917,0.6819675273190212
-0.0524854660034179,1.3413982391357422,-0.2621989846229553,0.0105602843686938,0.1935489326715469,0.1403605937957763,0.0,0.0,-0.3242483875685507,-0.8350177845464969
-0.055185317993164,1.341441631317139,-0.2791033387184143,0.0007115754997357,0.2027143239974975,0.183307871222496,0.0,0.0,0.7566695235844385,-0.8154934605870117
-0.0581696517765522,1.3424333333969116,-0.3091914057731628,0.0425621084868907,0.2135736495256424,0.2171868979930877,0.0,0.0,-0.2199510034180956,-0.8524579576962392
-0.0613045692443847,1.3432345390319824,-0.3263214230537414,0.033704999834299,0.2265453338623047,0.2594337463378906,0.0,0.0,0.4964471224188931,-0.6092002866884069
-0.0648393630981445,1.3448340892791748,-0.3672061860561371,0.0689227655529975,0.2404725253582,0.278544008731842,0.0,0.0,-0.2442713047575158,-0.9107054666414957
-0.0685149207711219,1.3462319374084473,-0.3831083476543426,0.0594970546662807,0.256299078464508,0.3165308833122253,0.0,0.0,0.2150336164116841,0.6551207108269208
-0.0723539367318153,1.3483935594558716,-0.3980779647827148,0.0935292169451713,0.2707924544811249,0.2898675501346588,0.0,0.0,-0.9909564012778862,0.8509305434321737
-0.0762045830488205,1.3504009246826172,-0.3976786434650421,0.086837813258171,0.2837471961975097,0.2590940594673157,0.0,0.0,-0.778699682793476,0.7531891178609915
-0.0800757408142089,1.3522636890411377,-0.3983483910560608,0.0805574283003807,0.2953165471553802,0.2313872128725052,0.0,0.0,-0.8287921690662878,0.6059061929420904
-0.0839729309082031,1.3539659976959229,-0.399781733751297,0.0735833272337913,0.305713951587677,0.2079488337039947,0.0,0.0,0.439328147470418,0.6876389314204148
-0.0880358666181564,1.3563086986541748,-0.4149118959903717,0.1022813990712165,0.3146451413631439,0.1786246001720428,0.0,0.0,-0.9614254103885213,-0.6368838733590911
-0.0922131538391113,1.358459234237671,-0.4274249672889709,0.0934381261467933,0.3247228860855102,0.2015550881624221,0.0,0.0,0.9664060221617948,-0.7394891027296193
-0.0967164039611816,1.3611583709716797,-0.461237758398056,0.1174739599227905,0.3361135125160217,0.2278131693601608,0.0,0.0,0.0191672954072221,0.6598009153974352
-0.1013674736022949,1.3643920421600342,-0.4745887219905853,0.1414834111928939,0.3460350334644317,0.1984302401542663,0.0,0.0,0.700300925864682,0.7073011593541457
-0.1063693016767501,1.3686882257461548,-0.5080016851425171,0.1890308856964111,0.3542551696300506,0.1644027829170227,0.0,0.0,0.359028842855553,-0.9010638906217764
-0.111651137471199,1.3734911680221558,-0.5375963449478149,0.2111071944236755,0.3641805946826935,0.1985086351633072,0.0,0.0,0.4573579845110909,-0.8660456386569017
-0.117406465113163,1.3789958953857422,-0.5862987637519836,0.2418809384107589,0.3755820691585541,0.2280297726392746,0.0,0.0,-0.9445582628250122,0.9995293617248536
-0.1231364235281944,1.3843762874603271,-0.5812269449234009,0.2369347512722015,0.3843198120594024,0.1747548431158065,0.0,0.0,-0.9277204275131226,0.9983925819396972
-0.1288415938615799,1.3896223306655884,-0.5762914419174194,0.2315848171710968,0.3904832005500793,0.1232679709792137,0.0,0.0,-0.9817243814468384,0.9968724250793456
-0.1345230042934417,1.3947428464889526,-0.5714840888977051,0.2266579717397689,0.3940447866916656,0.0712316706776619,0.0,0.0,-0.9953007698059082,0.9050813913345336
-0.1402006149291992,1.3997156620025637,-0.569268524646759,0.2205948382616043,0.3956604301929474,0.0323130041360855,0.0,0.0,-0.9933800101280212,0.9862529039382936
-0.1458575278520584,1.4045512676239014,-0.5649564862251282,0.2151246517896652,0.3948706686496734,-0.0157954059541225,0.0,0.0,-0.9991973042488098,0.4810059070587158
-0.1515721380710601,1.4092109203338623,-0.5705043077468872,0.2073567062616348,0.3938482999801636,-0.0204471815377473,0.0,0.0,-0.9952620267868042,0.8268555402755737
-0.157296746969223,1.4137327671051023,-0.5699628591537476,0.201664000749588,0.3911848366260528,-0.0532689988613128,0.0,0.0,-0.9596912264823914,0.970189332962036
-0.1630236655473709,1.418120503425598,-0.5684818029403687,0.1961593925952911,0.3867011070251465,-0.0896748676896095,0.0,0.0,-0.9995041489601136,0.3173519372940063
-0.1688037812709808,1.4223322868347168,-0.5735719799995422,0.1883904784917831,0.3819635808467865,-0.0947503000497818,0.0,0.0,-0.997474491596222,0.489806056022644
-0.1746356934309005,1.426367998123169,-0.5784889459609985,0.1806214600801468,0.3769660592079162,-0.0999496579170227,0.0,0.0,-0.9999221563339232,0.5975327491760254
-0.1804791390895843,1.4302552938461304,-0.5783251523971558,0.1743352711200714,0.370584636926651,-0.1276282966136932,0.0,0.0,-0.9999921321868896,0.3271063566207886
-0.1863707602024078,1.4339666366577148,-0.5828620791435242,0.1665649116039276,0.3639319241046905,-0.1330541670322418,0.0,0.0,-0.9974315166473388,-0.4296694993972778
-0.1923084259033203,1.437502384185791,-0.5871924757957458,0.1587942689657211,0.3570027351379394,-0.1385841816663742,0.0,0.0,-0.9999946355819702,0.2748910188674927
-0.1982899606227874,1.4408624172210691,-0.5913049578666687,0.1510233432054519,0.3497920930385589,-0.1442130655050277,0.0,0.0,-0.9772469401359558,0.7416514158248901
-0.2042665034532547,1.444069266319275,-0.5892881751060486,0.1445307731628418,0.3410197496414184,-0.175446942448616,0.0,0.0,-0.996149480342865,0.2887656688690185
-0.2102825194597244,1.4471008777618408,-0.5929308533668518,0.1367574334144592,0.3319567739963531,-0.1812595278024673,0.0,0.0,-0.994511067867279,0.0178498029708862
-0.2163354903459549,1.449957251548767,-0.5963228940963745,0.1289835721254348,0.3225988447666168,-0.187158316373825,0.0,0.0,-0.9981204271316528,0.3906148672103882
-0.2224229872226715,1.4526386260986328,-0.5994541645050049,0.1212091594934463,0.3129418492317199,-0.193139910697937,0.0,0.0,-0.987796425819397,-0.1006681323051452
-0.2285423278808593,1.455145001411438,-0.6023151874542236,0.1134341284632682,0.3029817938804626,-0.1992013752460479,0.0,0.0,-0.9999024868011476,0.777564525604248
-0.2346259653568267,1.4575001001358032,-0.5967630743980408,0.1070393472909927,0.2910045385360718,-0.2395450323820114,0.0,0.0,-0.9989802837371826,0.0718944072723388
-0.2407360076904297,0.0,-0.5990563631057739,0.0992598906159401,0.2787166535854339,-0.2457574903964996,0.0,0.0,-0.999895453453064,0.6042313575744629
-0.2468140572309494,1.461709976196289,-0.5940729379653931,0.0927411764860153,0.2646389901638031,-0.2815532088279724,0.0,0.0,-0.9987621903419496,-0.0801877975463867
-0.252912700176239,1.4635655879974363,-0.5957710146903992,0.0849567502737045,0.2502436339855194,-0.2879071831703186,0.0,0.0,-0.9999776482582092,0.827365517616272
-0.2589640021324157,1.4652671813964844,-0.5889977216720581,0.0782819762825965,0.2338387966156005,-0.3280968964099884,0.0,0.0,-0.9938855171203612,-0.4156696200370788
-0.2650299668312073,1.4667962789535522,-0.5900816917419434,0.0704909712076187,0.2171096056699752,-0.3345838785171509,0.0,0.0,-0.9987033605575562,0.1419950723648071
-0.2711074948310852,1.4681531190872192,-0.5908557176589966,0.0626986250281333,0.2000528126955032,-0.3411354422569275,0.0,0.0,-0.9549670219421388,0.8258419036865234
-0.2771196961402893,1.469350814819336,-0.5820545554161072,0.0557099618017673,0.1807867139577865,-0.3853223323822021,0.0,0.0,-0.9995083808898926,-0.5581876635551453
-0.2831795811653137,1.4703725576400757,-0.5874913930892944,0.0475568510591983,0.1622520089149475,-0.3706942200660705,0.0,0.0,-0.9292223453521729,-0.1416348218917846
-0.2892417907714844,1.4712231159210205,-0.5873357057571411,0.0397576354444026,0.1433806419372558,-0.3774274885654449,0.0,0.0,-0.9189921021461488,0.423656702041626
-0.2953034341335296,1.471902847290039,-0.5868750810623169,0.0319568030536174,0.1241697669029235,-0.3842178583145141,0.0,0.0,-0.903472900390625,-0.2582571506500244
-0.3013613820075989,1.472412109375,-0.5861138701438904,0.0241542998701334,0.1046166121959686,-0.3910634219646454,0.0,0.0,-0.9861347675323486,0.7175507545471191
-0.3073688447475433,1.4727665185928345,-0.5795421600341797,0.0170950312167406,0.0835905447602272,-0.4205216467380523,0.0,0.0,-0.9716943502426147,0.6630954742431641
-0.3133081495761871,1.4729591608047483,-0.5708344578742981,0.0096964482218027,0.0607348345220088,-0.4571144580841064,0.0,0.0,-0.9028687477111816,-0.0711750388145446
-0.3192350268363952,1.4729838371276855,-0.5692077875137329,0.0018791536567732,0.0375294797122478,-0.4641074538230896,0.0,0.0,-0.8273805975914001,0.93699049949646
-0.3250640034675598,1.4728357791900637,-0.5569366216659546,-0.0061213220469653,0.0118990363553166,-0.5126091241836548,0.0,0.0,-0.9626250863075256,0.1770327091217041
-0.3308749794960022,1.4725217819213867,-0.554774284362793,-0.0139514235779643,-0.0140852918848395,-0.519686758518219,0.0,0.0,-0.635215699672699,-0.404309868812561
-0.3366653025150299,1.4720419645309448,-0.5523586869239807,-0.0217838529497385,-0.0404255464673042,-0.5268053412437439,0.0,0.0,-0.9856772422790528,-0.3640141487121582
-0.3424324095249176,1.471396803855896,-0.5496999621391296,-0.0296186208724975,-0.0671236366033554,-0.5339621901512146,0.0,0.0,-0.8373194336891174,-0.8421575427055359
-0.3482522964477539,1.4706023931503296,-0.5566691756248474,-0.0366368554532527,-0.0921902582049369,-0.5013326406478882,0.0,0.0,-0.9419656991958618,-0.5515874624252319
-0.3540972769260406,0.0,-0.5602151155471802,-0.0443111658096313,-0.1162847951054573,-0.481891006231308,0.0,0.0,-0.9577895998954772,-0.2006711363792419
-0.3599119186401367,1.4685170650482178,-0.5568874478340149,-0.0521385446190834,-0.1407425552606582,-0.4891553521156311,0.0,0.0,-0.8953363299369812,-0.5972080230712891
-0.3657487332820892,1.467235803604126,-0.5602187514305115,-0.0593222714960575,-0.1641703397035598,-0.468555599451065,0.0,0.0,-0.7995836138725281,-0.0835422873497009
-0.3715510368347168,1.4657880067825315,-0.5564970970153809,-0.067148208618164,-0.1879640966653823,-0.4758754670619964,0.0,0.0,-0.8832914233207703,-0.0407614111900329
-0.3773168921470642,1.4641735553741455,-0.5525944828987122,-0.0749761313199997,-0.2121249735355377,-0.4832174777984619,0.0,0.0,-0.6908701658248901,-0.5651768445968628
-0.3830818235874176,1.4624046087265017,-0.5532128810882568,-0.0821278318762779,-0.2356814593076706,-0.4711293578147888,0.0,0.0,-0.9675907492637634,-0.5098602175712585
-0.3888451159000397,1.4604778289794922,-0.5537861585617065,-0.0894157662987709,-0.2586230337619781,-0.4588317275047302,0.0,0.0,-0.7099460959434509,-0.3449888229370117
-0.3945667147636413,1.4583841562271118,-0.5493983030319214,-0.0972419455647468,-0.2819344103336334,-0.4662283062934875,0.0,0.0,-0.8516086339950562,-0.7128610014915466
-0.4002860188484192,1.4561411142349243,-0.5500125288963318,-0.1040855944156646,-0.3045232594013214,-0.4517771303653717,0.0,0.0,-0.1489626169204712,-0.8130031228065491
-0.4060089588165283,1.453747034072876,-0.5513938665390015,-0.1109351590275764,-0.3262175321578979,-0.4338856637477875,0.0,0.0,-0.0884885787963867,-0.9754442572593688
-0.4117580056190491,1.4512289762496948,-0.5557191967964172,-0.1163687705993652,-0.3462642431259155,-0.4009350836277008,0.0,0.0,0.3987802267074585,-0.7326341271400452
-0.4172675013542175,1.4494681358337402,-0.5330319404602051,-0.0826830565929412,-0.3651312291622162,-0.3773399591445923,0.0,0.0,0.1464420557022094,-0.98139089345932
-0.4225393235683441,1.4481767416000366,-0.5109235644340515,-0.0616393275558948,-0.3823661506175995,-0.3446978330612182,0.0,0.0,-0.5291347503662109,-0.9187876582145692
-0.4278205335140228,1.4467403888702393,-0.5130875706672668,-0.0679575577378273,-0.39840829372406,-0.3208428025245666,0.0,0.0,0.1543421745300293,-0.8282445669174194
-0.4330135881900787,1.445685863494873,-0.5055930018424988,-0.0507801249623298,-0.4131335616111755,-0.294505625963211,0.0,0.0,0.5363024473190308,-0.9098331928253174
-0.4378150105476379,1.445562481880188,-0.4680220186710357,-0.0090835345908999,-0.4262314438819885,-0.2619574964046478,0.0,0.0,-0.0030891895294189,-0.8821297287940979
-0.4426306784152984,1.4453121423721311,-0.4709221422672272,-0.0143869705498218,-0.4377972483634949,-0.2313162982463836,0.0,0.0,0.3753135204315185,-0.4747555255889892
-0.447207361459732,1.4458563327789309,-0.4463067948818207,0.0205882079899311,-0.4502139389514923,-0.2483338862657547,0.0,0.0,0.2841378450393677,-0.8164944052696228
-0.4514823853969574,1.4469571113586426,-0.4174782633781433,0.0456531792879104,-0.4612247347831726,-0.2202158272266388,0.0,0.0,0.1640844345092773,-0.8478232622146606
-0.4555653035640716,1.448675274848938,-0.3995892405509949,0.0734488070011138,-0.4708399474620819,-0.1923041939735412,0.0,0.0,-0.0704560279846191,-0.8225691914558411
-0.4596577286720276,1.4502767324447632,-0.4020202159881592,0.0686998218297958,-0.4788549542427063,-0.1602998375892639,0.0,0.0,0.30037522315979,-0.7696818709373474
-0.4635890424251556,1.452282428741455,-0.3870276212692261,0.0870157107710838,-0.4856505095958709,-0.1359110325574875,0.0,0.0,-0.3685566782951355,-0.8068541288375854
-0.4675318300724029,1.4541692733764648,-0.3896804451942444,0.0822346583008766,-0.4907877445220947,-0.1027454584836959,0.0,0.0,-0.248088002204895,-0.7802852392196655
-0.4714871346950531,1.4559359550476074,-0.3924477994441986,0.0774210765957832,-0.4942420721054077,-0.0690862536430358,0.0,0.0,-0.7496879696846008,-0.3859132528305053
-0.4753867983818054,1.4575302600860596,-0.3865622282028198,0.0696301758289337,-0.4980631172657013,-0.0764210894703865,0.0,0.0,-0.0689665079116821,-0.8231433033943176
-0.4792835116386413,1.4589872360229492,-0.3873239159584045,0.0638992339372634,-0.5007018446922302,-0.0527740903198719,0.0,0.0,-0.4715713262557983,-0.0899972915649414
-0.483123779296875,1.4602715969085691,-0.3813623785972595,0.0561086311936378,-0.5037049055099487,-0.0600607618689537,0.0,0.0,-0.4925582408905029,-0.0023576617240905
-0.4869073033332824,1.4613834619522097,-0.3753685057163238,0.0483178570866584,-0.5070708394050598,-0.0673190802335739,0.0,0.0,-0.0695213675498962,-0.3999230861663818
-0.4906336665153503,1.4623229503631592,-0.3693456649780273,0.0405268855392932,-0.5107981562614441,-0.0745457857847213,0.0,0.0,-0.1220962405204773,-0.2823571562767029
-0.494302749633789,1.463089942932129,-0.3632970452308655,0.0327357091009616,-0.5148850083351135,-0.0817373618483543,0.0,0.0,-0.3524035215377807,-0.7624739408493042
-0.4979639649391174,1.463735580444336,-0.3636555075645447,0.0277593899518251,-0.5176849365234375,-0.0559973716735839,0.0,0.0,-0.4870129227638244,-0.5279615521430969
-0.5015980005264282,1.4642400741577148,-0.3615143895149231,0.0217062402516603,-0.5198278427124023,-0.0428581535816192,0.0,0.0,-0.5624449849128723,0.0048928260803222
-0.5051739811897278,1.4645720720291138,-0.3554053008556366,0.0139157706871628,-0.5223240256309509,-0.0499233454465866,0.0,0.0,-0.5855502486228943,-0.498790979385376
-0.5086917281150818,1.4647314548492432,-0.3492819666862488,0.0061252219602465,-0.5251709222793579,-0.0569383613765239,0.0,0.0,-0.2641430497169494,-0.7046365141868591
-999.0,1.4647669792175293,-0.3505653440952301,0.0011050426401197,-0.5265558362007141,-0.0276980884373188,0.0,0.0,-0.5155386328697205,-0.0951873064041137
-0.5156688690185547,1.464629888534546,-0.344420850276947,-0.0066850599832832,-0.528285801410675,-0.0345993787050247,0.0,0.0,-0.6381778120994568,-0.5579342246055603
-0.5191060304641724,1.464350700378418,-0.3428904712200165,-0.0127303758636116,-0.5292262434959412,-0.0188088566064834,0.0,0.0,-0.7452341914176941,-0.2184584140777588
-0.5224844813346863,1.463898777961731,-0.3367350995540619,-0.0205201879143714,-0.5305050611495972,-0.0255764462053775,0.0,0.0,-0.4960672855377197,-0.1665213108062744
-0.5258044004440308,1.463274002075195,-0.3305779993534088,-0.0283099226653575,-0.5321184992790222,-0.0322686247527599,0.0,0.0,-0.5936651825904846,-0.117508590221405
-0.5290655493736267,1.4624768495559692,-0.3244215846061706,-0.0360996015369892,-0.5340624451637268,-0.0388790778815746,0.0,0.0,-0.4860520958900451,-0.1910068988800048
-0.5322680473327637,1.461506962776184,-0.3182682394981384,-0.0438892170786857,-0.5363324284553528,-0.0454011484980583,0.0,0.0,-0.6072071194648743,-0.5796844959259033
