x_pos,y_pos,x_vel,y_vel,angle,ang_vel,leg_1,leg_2,main_booster,lat_booster
-0.0015218735206872,1.4032375812530518,-0.15418142080307,-0.3414386510848999,0.0017903363332152,0.0353180207312107,0.0,0.0,-0.4278750419616699,0.6093162298202515
-0.0029901503585278,1.395188808441162,-0.1472877413034439,-0.3577235639095306,0.0022437719162553,0.0090702064335346,0.0,0.0,-0.2251873612403869,0.9213204383850098
-0.0043684006668627,1.386746525764465,-0.1360475420951843,-0.3752160966396332,0.0004864268994424,-0.0351504199206829,0.0,0.0,-0.1259673237800598,-0.0749517679214477
-0.0057452199980616,1.3779174089431765,-0.135907769203186,-0.3924080729484558,-0.001258424250409,-0.0349004082381725,0.0,0.0,-0.0141810178756713,0.7106305360794067
-0.007052612490952,1.3687036037445068,-0.1272716969251632,-0.409504622220993,-0.0047009545378386,-0.0688570886850357,0.0,0.0,0.0514066219329834,0.4396271705627441
-0.0082698818296194,1.3596211671829224,-0.1186770349740982,-0.4036779701709747,-0.0077184666879475,-0.0603554770350456,0.0,0.0,-0.0988539457321167,-0.0331241488456726
-0.0094860075041651,1.3501520156860352,-0.1185725927352905,-0.4208712577819824,-0.0107325343415141,-0.0602866634726524,0.0,0.0,-0.0487597584724426,-0.3681166768074035
-0.0107012744992971,1.3402962684631348,-0.1184806078672409,-0.4380587637424469,-0.0137448906898498,-0.0602527149021625,0.0,0.0,-0.3422737121582031,0.893418550491333
-0.011846637353301,1.3300622701644895,-0.1097436547279357,-0.454895555973053,-0.0184919741004705,-0.0949501693248748,0.0,0.0,-0.5403454303741455,0.603330135345459
-0.0129438396543264,1.3194442987442017,-0.103713609278202,-0.4719918966293335,-0.0244350880384445,-0.1188730746507644,0.0,0.0,-0.0127039551734924,-0.084721028804779
-0.0140405651181936,1.3084402084350586,-0.1036510616540908,-0.4891829490661621,-0.0303836110979318,-0.1189815253019332,0.0,0.0,0.4375840425491333,-0.261584460735321
-0.0150613784790039,1.2977361679077148,-0.0963469669222831,-0.4758635759353637,-0.0360491052269935,-0.1133202165365219,0.0,0.0,-0.364723265171051,-0.8439548015594482
-0.0161338802427053,1.2866525650024414,-0.1028403863310813,-0.4927115142345428,-0.0404125265777111,-0.0872766897082328,0.0,0.0,0.6035728454589844,0.3176629543304443
-0.01712541654706,1.2756952047348022,-0.095048002898693,-0.4871091246604919,-0.0444731004536151,-0.0812188759446144,0.0,0.0,-0.0504181385040283,-0.8029922246932983
-0.0181653015315532,1.2643626928329468,-0.1010974869132042,-0.5037540197372437,-0.0473268441855907,-0.0570798590779304,0.0,0.0,0.509324312210083,-0.8565175533294678
-0.0191480629146099,1.2530372142791748,-0.0972519367933273,-0.5033860802650452,-0.0483380779623985,-0.0202270336449146,0.0,0.0,-0.3872444629669189,-0.1270021796226501
-0.0201312061399221,1.2413249015808103,-0.0972761288285255,-0.5205778479576111,-0.0493700206279754,-0.0206404328346252,0.0,0.0,-0.7975506782531738,-0.1530461311340332
-0.0211150161921978,1.2292261123657229,-0.0973103046417236,-0.537766695022583,-0.05042340233922,-0.021069873124361,0.0,0.0,-0.3362211585044861,-0.6364963054656982
-0.0221413616091012,1.2167495489120483,-0.1026189923286438,-0.5545112490653992,-0.0504388585686683,-0.000309095805278,0.0,0.0,-0.7915374636650085,0.4435915946960449
-0.0231685638427734,1.2038862705230713,-0.1026778370141983,-0.5717000961303711,-0.0504806265234947,-0.0008354766177944,0.0,0.0,-0.7380300164222717,-0.8426629304885864
-0.0242488868534564,1.190646409988403,-0.1093026772141456,-0.5883942246437073,-0.0492283999919891,0.0250466763973236,0.0,0.0,0.0004677772521972,0.31661057472229
-0.0253101345151662,1.177420973777771,-0.1073903664946556,-0.5877644419670105,-0.0479731634259223,0.0251069627702236,0.0,0.0,-0.7289000749588013,0.2490553855895996
-0.0263725277036428,1.1638085842132568,-0.1074817180633544,-0.6049562692642212,-0.0467487461864948,0.0244907941669225,0.0,0.0,-0.4718489646911621,0.354972243309021
-0.027436351403594,1.14980947971344,-0.107581689953804,-0.6221449375152588,-0.0455568395555019,0.0238399412482976,0.0,0.0,0.0853335857391357,0.5053651332855225
-0.0285449028015136,1.1360628604888916,-0.1108143553137779,-0.6109616160392761,-0.0455995164811611,-0.0008537980611436,0.0,0.0,-0.7931404709815979,-0.4549322724342346
-0.0296555515378713,1.1219080686569214,-0.1109922304749488,-0.6291056871414185,-0.0456769503653049,-0.0015484550967812,0.0,0.0,-0.0487189888954162,-0.2169525027275085
-0.0307679176330566,1.1073665618896484,-0.111113354563713,-0.646292507648468,-0.045790784060955,-0.002276515122503,0.0,0.0,-0.8118215799331665,0.0366919040679931
-0.0318819060921669,1.0924384593963623,-0.1112420186400413,-0.6634792685508728,-0.0459422171115875,-0.0030286363326013,0.0,0.0,-0.7320247292518616,-0.3599824905395508
-0.0329976081848144,1.077123522758484,-0.1113778129220008,-0.6806660890579224,-0.0461323671042919,-0.0038031071890145,0.0,0.0,-0.2620309591293335,-0.0123172998428344
-0.0341151244938373,1.0614218711853027,-0.1115203946828842,-0.6978529095649719,-0.0463623143732547,-0.0045990142971277,0.0,0.0,0.3725987672805786,-0.2717336416244507
-0.0351863875985145,1.046386480331421,-0.1069272756576538,-0.668243408203125,-0.046561162918806,-0.0039771012961864,0.0,0.0,-0.8576792478561401,-0.5147674083709717
-0.0363057143986225,1.0309646129608154,-0.1128570213913917,-0.6853845119476318,-0.0456457249820232,0.0183085836470127,0.0,0.0,-0.4346473813056946,-0.4283845424652099
-0.0374271385371685,1.0151561498641968,-0.1130178123712539,-0.7025712728500366,-0.0447728782892227,0.0174568779766559,0.0,0.0,-0.5028751492500305,0.5021944046020508
-0.0385151877999305,0.9989540576934814,-0.1087431162595748,-0.720093846321106,-0.0448375940322876,-0.0012940370943397,0.0,0.0,0.4064803123474121,-0.2779681086540222
-0.0395676605403423,0.9831646680831908,-0.1052006855607032,-0.7017584443092346,-0.0448824055492877,-0.0008964712033048,0.0,0.0,-0.0925161838531494,-0.4544323682785034
-0.0406224243342876,0.966988444328308,-0.1053765043616294,-0.7189451456069946,-0.0449720732867717,-0.0017937322845682,0.0,0.0,0.0845474004745483,-0.1174631714820861
-0.0416831001639366,0.9508745670318604,-0.1058523207902908,-0.7161771059036255,-0.0451869927346706,-0.0042984066531062,0.0,0.0,-0.0397145748138427,-0.5601837635040283
-0.0427873618900775,0.9343811869621276,-0.1112288609147071,-0.7330156564712524,-0.0444032959640026,0.0156740043312311,0.0,0.0,-0.4578906297683716,-0.5087404847145081
-0.0439368262887001,0.9175097346305848,-0.1167762652039527,-0.7497923374176025,-0.042587112635374,0.0363236591219902,0.0,0.0,0.2469849586486816,-0.2694242596626282
-0.0450476631522178,0.9009378552436828,-0.1129814833402633,-0.7364778518676758,-0.0407194793224334,0.0373524948954582,0.0,0.0,0.2179534435272216,-0.2063612937927246
-0.0462162978947162,0.8848444819450378,-0.1183336973190307,-0.7152262926101685,-0.0392636768519878,0.0291161686182022,0.0,0.0,-0.4391040802001953,-0.4542542695999145
-0.0473873130977153,0.8683642745018005,-0.118530735373497,-0.7324131727218628,-0.0378559865057468,0.0281537882983684,0.0,0.0,-0.7981610894203186,0.1312904357910156
-0.048560906201601,0.8514973521232605,-0.1187302693724632,-0.7496000528335571,-0.0364968106150627,0.0271833892911672,0.0,0.0,-0.7444580793380737,0.1412789821624755
-0.0497369766235351,0.8342439532279968,-0.1189319640398025,-0.7667869329452515,-0.0351865366101264,0.0262056831270456,0.0,0.0,0.4233324527740478,0.1972641944885254
-0.050941564142704,0.8169861435890198,-0.1215776577591896,-0.7669921517372131,-0.0340874604880809,0.0219815429300069,0.0,0.0,-0.0616595745086669,0.2712841033935547
-0.0521488189697265,0.79934161901474,-0.12178286164999,-0.7841790318489075,-0.033037893474102,0.0209911912679672,0.0,0.0,0.5514464378356934,0.0218074321746826
-0.0532875061035156,0.7819365859031677,-0.1151446476578712,-0.7735245823860168,-0.0317731276154518,0.0252952221781015,0.0,0.0,-0.2259427309036255,0.28028404712677
-0.0544287674129009,0.7641450762748718,-0.1153522580862045,-0.7907114028930664,-0.0305583830922842,0.0242948587983846,0.0,0.0,0.276780366897583,0.8982739448547363
-0.0556008331477642,0.7468902468681335,-0.1164982318878173,-0.7669020295143127,-0.0312604680657386,-0.0140416454523801,0.0,0.0,0.3259620666503906,-0.5291321277618408
-0.056823156774044,0.729861855506897,-0.1224870458245277,-0.756808340549469,-0.0310022886842489,0.0051635736599564,0.0,0.0,-0.2373501062393188,0.4146984815597534
-0.0580480583012104,0.7124468088150024,-0.1226962804794311,-0.7739951014518738,-0.0307946633547544,0.0041524306870996,0.0,0.0,0.5292651653289795,0.4571959972381592
-0.0593077652156353,0.6956698894500732,-0.1258812695741653,-0.7456385493278503,-0.0308842957019805,-0.0017927963053807,0.0,0.0,-0.3255776166915893,0.7465685606002808
-0.060500431805849,0.678499162197113,-0.1173440217971801,-0.7631902694702148,-0.0327797271311283,-0.0379088148474693,0.0,0.0,0.4613528251647949,0.7578818798065186
-0.0616092681884765,0.6620033979415894,-0.1073917374014854,-0.7332248091697693,-0.0362277217209339,-0.068960040807724,0.0,0.0,0.0204986333847045,-0.384801983833313
-0.0626177787780761,0.6455676555633545,-0.0977411717176437,-0.7305599451065063,-0.0393009036779403,-0.0614636316895484,0.0,0.0,0.6119687557220459,-0.2675991058349609
-0.0637039169669151,0.6294397711753845,-0.1050195917487144,-0.716888964176178,-0.0428563058376312,-0.0711081326007843,0.0,0.0,-0.6097335815429688,-0.3291021585464477
-0.0647927299141883,0.6129255294799805,-0.1052255257964134,-0.7340767979621887,-0.0464626662433147,-0.0721270889043808,0.0,0.0,0.5110313892364502,0.4791964292526245
-0.0657292380928993,0.596940279006958,-0.0905455276370048,-0.7105589509010315,-0.0495361164212226,-0.0614689774811267,0.0,0.0,0.0803264379501342,0.2734860181808471
-0.0665927901864051,0.5813713073730469,-0.0834296271204948,-0.6920526623725891,-0.0524344779551029,-0.0579671785235405,0.0,0.0,-0.6864640712738037,-0.659110426902771
-0.067517377436161,0.5654261708259583,-0.0909728407859802,-0.708727240562439,-0.0539051443338394,-0.0294131990522146,0.0,0.0,0.3553612232208252,0.4600793123245239
-0.0683861747384071,0.5495460033416748,-0.0855369493365287,-0.705834686756134,-0.0552322715520858,-0.0265424698591232,0.0,0.0,0.7957854270935059,0.4069764614105224
-0.0693242102861404,0.5344301462173462,-0.0918952450156211,-0.6718891859054565,-0.0571142099797725,-0.0376389846205711,0.0,0.0,0.5064148902893066,0.5899970531463623
-0.0700692161917686,0.5196179151535034,-0.0716366246342659,-0.6584337949752808,-0.0599411278963089,-0.056538451462984,0.0,0.0,0.2566031217575073,0.9317102432250975
-0.070694163441658,0.5051100850105286,-0.0577264428138732,-0.6449877023696899,-0.0646623224020004,-0.094424083828926,0.0,0.0,-0.0775274634361267,-0.563595712184906
-0.0713657364249229,0.4902160465717315,-0.0634452849626541,-0.6621235609054565,-0.068327285349369,-0.0732993856072425,0.0,0.0,0.5510332584381104,0.4075450897216797
-0.0721176117658615,0.4757778346538543,-0.0708924382925033,-0.6419035196304321,-0.0725798606872558,-0.0850514620542526,0.0,0.0,0.612238883972168,0.1526806354522705
-0.0727904289960861,0.4622001945972442,-0.0630247145891189,-0.6036592721939087,-0.0767852589488029,-0.0841080099344253,0.0,0.0,-0.6755778193473816,0.3175876140594482
-0.073465347290039,0.4482362568378448,-0.0632039532065391,-0.6208476424217224,-0.0810401514172554,-0.0850976780056953,0.0,0.0,0.5087964534759521,-0.7510218620300293
-0.0741108879446983,0.435063898563385,-0.0617732517421245,-0.5855899453163147,-0.0837987586855888,-0.0551722049713134,0.0,0.0,0.7404346466064453,-0.0663738250732421
-0.0748157501220703,0.4222628176212311,-0.0671856999397277,-0.5691232085227966,-0.0870648846030235,-0.0653227418661117,0.0,0.0,-0.779279351234436,-0.763014554977417
-0.0755918473005294,0.4090874493122101,-0.0760338678956031,-0.585663914680481,-0.0886265262961387,-0.0312330424785614,0.0,0.0,-0.2459621429443359,0.4916926622390747
-0.0763701424002647,0.3955254852771759,-0.0761974602937698,-0.602851152420044,-0.0902364253997802,-0.0321981124579906,0.0,0.0,0.8794184923171997,0.2249825000762939
-0.0772097557783126,0.3830319046974182,-0.0816070437431335,-0.5554124116897583,-0.0925721675157547,-0.0467148758471012,0.0,0.0,-0.0902633070945739,0.5887640714645386
-0.0779993087053299,0.370144635438919,-0.0752300396561622,-0.5730040669441223,-0.0962720364332199,-0.0739972740411758,0.0,0.0,-0.5244061350822449,-0.2555097341537475
-0.078790858387947,0.3568709194660187,-0.0753804594278335,-0.5901921391487122,-0.1000189632177352,-0.074938490986824,0.0,0.0,0.7057498693466187,0.5043377876281738
-0.0794371590018272,0.3436892628669739,-0.0600047782063484,-0.5861703753471375,-0.1046087592840194,-0.0917961299419403,0.0,0.0,0.8779468536376953,-0.8922989368438721
-0.0801552757620811,0.3307050764560699,-0.0688567385077476,-0.5772843956947327,-0.1075413897633552,-0.0586526915431022,0.0,0.0,0.8177894353866577,-0.5888450145721436
-0.0808371528983116,0.3186502456665039,-0.0663511604070663,-0.5359046459197998,-0.1093694865703582,-0.0365618579089641,0.0,0.0,-0.2037565112113952,0.391227126121521
-0.0815208405256271,0.3062087893486023,-0.0664818733930587,-0.5530920028686523,-0.111242689192295,-0.0374640263617038,0.0,0.0,0.7867913246154785,-0.6139121651649475
-0.0822854042053222,0.2947343587875366,-0.0754297524690628,-0.5100498795509338,-0.1122665181756019,-0.020476646721363,0.0,0.0,0.1525206565856933,-0.4125876426696777
-0.0831154808402061,0.2832329273223877,-0.0815095454454422,-0.5112873911857605,-0.1137518435716629,-0.0297065712511539,0.0,0.0,-0.5905609726905823,0.870803952217102
-0.0838734656572341,0.2713402211666107,-0.0723986402153968,-0.5288295149803162,-0.1171313300728797,-0.067589946091175,0.0,0.0,-0.1647218465805053,-0.898377001285553
-0.0847153663635253,0.2590753734111786,-0.0828595012426376,-0.5452088713645935,-0.1184590458869934,-0.0265543404966592,0.0,0.0,0.8148252964019775,0.0449084043502807
-0.0855305641889572,0.2475436478853225,-0.079861007630825,-0.5126542448997498,-0.120107352733612,-0.0329663157463073,0.0,0.0,-0.4166330099105835,-0.5446802973747253
-0.0863904953002929,0.2356359362602234,-0.0854139029979705,-0.5292783379554749,-0.1206870451569557,-0.0115936761721968,0.0,0.0,0.6891311407089233,0.4686012268066406
-0.087091639637947,0.2242112308740615,-0.0699078887701034,-0.5077806115150452,-0.120894968509674,-0.0041584521532058,0.0,0.0,0.5275938510894775,-0.0038794875144958
-0.0877342224121093,0.2128672748804092,-0.0641035884618759,-0.504189670085907,-0.1210413798689842,-0.0029284297488629,0.0,0.0,0.8678983449935913,-0.0911931991577148
-0.0882187858223915,0.2017954736948013,-0.0487636029720306,-0.4920549392700195,-0.1207417398691177,0.0059927278198301,0.0,0.0,0.7442328929901123,-0.6015437841415405
-0.0885133743286132,0.1912130415439605,-0.0313613452017307,-0.4701763093471527,-0.1188545897603035,0.0377430282533168,0.0,0.0,0.4823813438415527,-0.5249848365783691
-0.0886749252676963,0.1807506382465362,-0.0194069352000951,-0.4647423923015594,-0.1156227812170982,0.0646362453699112,0.0,0.0,0.2983760833740234,0.1646368503570556
-0.0887738242745399,0.1707821190357208,-0.0130808698013424,-0.4428004026412964,-0.1124481931328773,0.0634916275739669,0.0,0.0,0.1053755283355712,0.12482750415802
-0.0887961387634277,0.161180093884468,-0.0054833823814988,-0.4265152812004089,-0.1092135682702064,0.0646925643086433,0.0,0.0,-0.2665041089057922,0.0581735372543334
-0.0888193100690841,0.1511915475130081,-0.0055377511307597,-0.4437031149864197,-0.1060137301683425,0.0639965757727623,0.0,0.0,0.5774260759353638,0.4032316207885742
-0.0887145027518272,0.1412660926580429,0.0068389577791094,-0.440876692533493,-0.102402351796627,0.0722274854779243,0.0,0.0,0.8997936248779297,0.2205374240875244
-0.0886106491088867,0.1318372339010238,0.0070540965534746,-0.4188385903835296,-0.0991034209728241,0.0659787952899932,0.0,0.0,0.8151357173919678,-0.1524530053138733
-0.0883212089538574,0.1234228909015655,0.0252170227468013,-0.3737275302410126,-0.0954063013195991,0.0739424526691436,0.0,0.0,0.2080737352371215,-0.3485451936721802
-0.088009737432003,0.1152458786964416,0.0275317672640085,-0.3631944060325622,-0.0918190032243728,0.0717457979917526,0.0,0.0,0.4995994567871094,-0.7743655443191528
-0.0878182426095008,0.1077937707304954,0.0142099438235163,-0.3309095799922943,-0.0869197398424148,0.0979852005839347,0.0,0.0,0.0304204225540161,0.0630849599838256
-0.0875353813171386,0.1005987226963043,0.0231208596378564,-0.3194913864135742,-0.0817983150482177,0.1024283617734909,0.0,0.0,0.0061086416244506,0.714195728302002
-0.0871963500976562,0.0937030911445617,0.0302077122032642,-0.3062762320041656,-0.0781503990292549,0.0729584023356437,0.0,0.0,-0.2038110494613647,-0.7274443507194519
-0.0869228392839431,0.0864338725805282,0.0220301412045955,-0.3228051960468292,-0.0728799924254417,0.10540821403265,0.0,0.0,0.671562910079956,0.7956249713897705
-0.0865779891610145,0.0795255750417709,0.030839717015624,-0.3068636655807495,-0.069271445274353,0.0721711367368698,0.0,0.0,0.2089318037033081,0.6446189880371094
-0.0862469673156738,0.0728944391012191,0.0309162195771932,-0.2946180403232574,-0.0671172440052032,0.043084193021059,0.0,0.0,0.126211404800415,0.7459887266159058
-0.085950568318367,0.0664151534438133,0.0290923509746789,-0.2879428267478943,-0.0665756985545158,0.0108310477808117,0.0,0.0,0.0474350452423095,0.0756682157516479
-0.0855569839477539,0.0602243989706039,0.0385142005980014,-0.2751078903675079,-0.0657460838556289,0.0165922809392213,0.0,0.0,-0.0568202137947082,0.3906862735748291
-0.0851635932922363,0.0536469779908657,0.0385206267237663,-0.2922946810722351,-0.0649379342794418,0.0161626450717449,0.0,0.0,0.8574725389480591,0.6367232799530029
-0.0844893455505371,0.0479497537016868,0.0674611628055572,-0.2532117068767547,-0.0649676024913787,-0.0005933569045737,0.0,0.0,0.1294324398040771,-0.9014878273010254
-0.0838697403669357,0.0426761023700237,0.0601933524012565,-0.2343068420886993,-0.0632244870066642,0.0348622910678386,0.0,0.0,-0.0864266753196716,0.9370903968811036
-0.0831581130623817,0.037017997354269,0.0717425420880317,-0.2514961063861847,-0.0638046562671661,-0.0116029540076851,0.0,0.0,0.1159752607345581,0.6792924404144287
-0.0823097229003906,0.0315486527979373,0.0867461711168289,-0.2431642413139343,-0.0656872019171714,-0.0376511178910732,0.0,0.0,0.7176923751831055,-0.135479986667633
-0.081412985920906,0.02696393430233,0.0916299000382423,-0.2038505971431732,-0.067620612680912,-0.0386684238910675,0.0,0.0,0.0205765962600708,0.3869816064834595
-0.0804458633065223,0.0227168891578912,0.0985068753361702,-0.1888388842344284,-0.069395825266838,-0.0355041697621345,0.0,0.0,0.2083007097244262,-0.1888477206230163
-0.0793966278433799,0.018578777089715,0.1064628362655639,-0.1839850544929504,-0.0709125250577926,-0.0303343646228313,0.0,0.0,0.1087774038314819,0.0727607011795044
-0.078399658203125,0.0146837094798684,0.1016282588243484,-0.173208087682724,-0.07282205671072,-0.038190834224224,0.0,0.0,0.3562371730804443,0.0551971197128295
-0.0774767845869064,0.0110456319525837,0.0947171673178672,-0.161811426281929,-0.0752311572432518,-0.0481820702552795,0.0,0.0,0.136161208152771,-0.603460431098938
-0.0765887275338172,0.0076077198609709,0.0900655463337898,-0.1528608500957489,-0.0764752551913261,-0.0248820222914218,0.0,0.0,0.2184324264526367,0.1813119649887085
-0.075557991862297,0.0051024295389652,0.0852799117565155,-0.1105479449033737,-0.0588233396410942,0.3530959486961365,1.0,0.0,0.3232216835021972,-0.5857904553413391
-0.074352741241455,0.0031581139191985,0.0870243534445762,-0.0854456648230552,-0.0256531592458486,0.6634855270385742,1.0,0.0,0.108004093170166,0.0435619354248046
-0.0730895027518272,0.0014964676229283,0.0935874134302139,-0.0736054107546806,0.0066614625975489,0.6462921500205994,1.0,0.0,0.0599681138992309,-0.0442174077033996
-0.0718137770891189,0.0002385115658398,0.094774529337883,-0.0563732795417308,0.0390496887266635,0.647765040397644,0.0,1.0,0.4001978635787964,0.974216103553772
