x_pos,y_pos,x_vel,y_vel,angle,ang_vel,leg_1,leg_2,main_booster,lat_booster
-0.00163145060651,1.4034056663513184,-0.165640726685524,-0.3339672088623047,0.0022431274410337,0.0442833378911018,0.0,0.0,-0.2468891143798828,0.758915901184082
-0.0033059120178222,1.3956925868988037,-0.1684069335460662,-0.3428088426589966,0.0031936222221702,0.0190123729407787,0.0,0.0,-0.1768813133239746,0.8994933366775513
-0.0050008771941065,1.387754201889038,-0.1686569303274154,-0.3528165519237518,0.0023584752343595,-0.0167046748101711,0.0,0.0,-0.4016149044036865,0.753104567527771
-0.0067544938065111,1.379594802856445,-0.1736876964569091,-0.3626366853713989,0.0007085618562996,-0.0330011434853076,0.0,0.0,0.1037930250167846,0.4895330667495727
-0.008527373895049,1.371870517730713,-0.1764224618673324,-0.3433046340942383,-0.0001549566950416,-0.0172719396650791,0.0,0.0,0.1136960983276367,0.7656121253967285
-0.010238361544907,1.3644754886627195,-0.1691511571407318,-0.3286702334880829,-0.0020701168105006,-0.0383067242801189,0.0,0.0,-0.6321703195571899,0.3664112091064453
-0.0120527269318699,1.3568617105484009,-0.1798629164695739,-0.3383888304233551,-0.0036261754576116,-0.0311241894960403,0.0,0.0,-0.3640240430831909,0.3331696987152099
-0.0139696123078465,1.349029541015625,-0.1904709041118621,-0.3481040894985199,-0.0048327823169529,-0.0241345167160034,0.0,0.0,-0.408272385597229,0.3435806035995483
-0.0159880630671978,1.3409786224365234,-0.2009686529636383,-0.3578200936317444,-0.0056992135941982,-0.0173303410410881,0.0,0.0,-0.1132400631904602,0.8443902730941772
-0.018040657043457,1.3327138423919678,-0.2030148804187774,-0.3673342764377594,-0.0079062432050704,-0.0441447347402572,0.0,0.0,-0.1742828488349914,0.933263659477234
-0.0201083179563283,1.3242301940917969,-0.2027250081300735,-0.3770774900913238,-0.0119070140644907,-0.0800226181745529,0.0,0.0,-0.0580071210861206,0.6779172420501709
-0.0222144126892089,1.3155256509780884,-0.2053551971912384,-0.3869169056415558,-0.0171009916812181,-0.1038890033960342,0.0,0.0,-0.7989844679832458,0.8192877769470215
-0.0243387222290039,1.306605100631714,-0.2054764926433563,-0.3965617716312408,-0.0239747948944568,-0.1374889761209488,0.0,0.0,-0.6284918785095215,0.7674819231033325
-0.0264911651611328,1.297457218170166,-0.2068572342395782,-0.4067349433898926,-0.0322634764015674,-0.1657889038324356,0.0,0.0,-0.7317363619804382,0.9356274604797364
-0.0286462791264057,1.2880967855453491,-0.2050933092832565,-0.41627237200737,-0.0425739362835884,-0.2062282115221023,0.0,0.0,0.0653287172317504,0.923770785331726
-0.0307293888181448,1.2787855863571167,-0.1962969154119491,-0.4142096936702728,-0.0544676296412944,-0.2378952503204345,0.0,0.0,-0.7518358826637268,0.6916323900222778
-0.0328362472355365,1.2692604064941406,-0.1972133815288543,-0.4238871335983276,-0.0678107813000679,-0.2668870687484741,0.0,0.0,-0.618044376373291,0.5171288251876831
-0.034982394427061,1.2595093250274658,-0.2000883817672729,-0.4340980648994446,-0.0822056531906127,-0.2879239618778229,0.0,0.0,-0.6625176668167114,0.1130199432373046
-0.0372161865234375,1.249542236328125,-0.2090841829776764,-0.4438318312168121,-0.0963986739516258,-0.2838861048221588,0.0,0.0,-0.3128257989883423,0.0435640811920166
-0.0395362861454486,1.2393587827682495,-0.2178989946842193,-0.4535653293132782,-0.1104090809822082,-0.2802333235740661,0.0,0.0,-0.6638144850730896,0.8015003204345703
-0.0418639183044433,1.228952407836914,-0.2169110774993896,-0.4637480974197387,-0.1261892467737198,-0.3156322836875915,0.0,0.0,-0.7343358397483826,-0.8807656764984131
-0.0443423278629779,1.218338131904602,-0.2338765859603881,-0.4729883074760437,-0.1401043832302093,-0.2783276438713074,0.0,0.0,-0.8352982401847839,-0.4921295642852783
-0.0469015128910541,1.2075073719024658,-0.2421071827411651,-0.4827230870723724,-0.1538983136415481,-0.2759037911891937,0.0,0.0,-0.6103596091270447,0.1681252717971801
-0.049539566040039,1.196460247039795,-0.2501300275325775,-0.4924582540988922,-0.1675909757614135,-0.2738774418830871,0.0,0.0,-0.5585724711418152,-0.3895071744918823
-0.0522545799612998,1.1851966381072998,-0.2579399347305298,-0.5021936297416687,-0.1812043190002441,-0.2722912430763244,0.0,0.0,-0.074194312095642,-0.4857848882675171
-0.0550474151968956,1.17369544506073,-0.265787810087204,-0.5128679275512695,-0.1947615295648574,-0.2711439430713653,0.0,0.0,-0.4388258457183838,-0.6023361682891846
-0.057959459722042,1.1619951725006104,-0.2789751887321472,-0.5216667652130127,-0.2070815563201904,-0.2464005947113037,0.0,0.0,-0.2819177508354187,-0.808650016784668
-0.0610177032649517,1.1501102447509766,-0.2955995798110962,-0.5296890735626221,-0.2174067348241806,-0.2065035104751587,0.0,0.0,0.1039247512817382,-0.5490360260009766
-0.0641696006059646,1.1388157606124878,-0.3059009313583374,-0.5033749341964722,-0.2267998307943344,-0.1878621876239776,0.0,0.0,-0.4752800464630127,-0.2642108201980591
-0.0673884376883506,1.127303957939148,-0.3125993609428406,-0.5130978226661682,-0.2362279593944549,-0.1885624080896377,0.0,0.0,-0.6161639094352722,0.4395486116409302
-0.0706723183393478,1.115574836730957,-0.3190551102161407,-0.5228212475776672,-0.2457130700349807,-0.1897022128105163,0.0,0.0,-0.5209370851516724,0.2089184522628784
-0.0740187615156173,1.103628635406494,-0.3252647817134857,-0.532545268535614,-0.2552767097949981,-0.1912730038166046,0.0,0.0,0.0757213830947876,-0.2683179378509521
-0.0773458480834961,1.0922433137893677,-0.3230021595954895,-0.5077388882637024,-0.2651886343955993,-0.1982385814189911,0.0,0.0,-0.6671114563941956,0.2853579521179199
-0.08073091506958,1.0806411504745483,-0.3287113606929779,-0.5174645781517029,-0.2752204835414886,-0.2006372958421707,0.0,0.0,-0.735589861869812,-0.2058297991752624
-0.0841715782880783,1.068821907043457,-0.334166944026947,-0.5271909236907959,-0.2853919863700866,-0.2034298926591873,0.0,0.0,-0.561202347278595,-0.4096986055374145
-0.0876654610037803,1.056786298751831,-0.3393673896789551,-0.5369182229042053,-0.2957220375537872,-0.2066012620925903,0.0,0.0,-0.47015380859375,-0.4838271141052246
-0.0912102684378624,1.0445339679718018,-0.3443116843700409,-0.5466461777687073,-0.3062288165092468,-0.2101353853940963,0.0,0.0,-0.5938239693641663,-0.1335798501968383
-0.0948034301400184,1.0320652723312378,-0.3489994406700134,-0.5563750863075256,-0.3169296085834503,-0.2140156477689743,0.0,0.0,-0.2933465242385864,-0.0408739447593688
-0.0984425544738769,1.0193802118301392,-0.3534306585788727,-0.5661048293113708,-0.3278408944606781,-0.2182249277830124,0.0,0.0,-0.1260092258453369,-0.2387457489967346
-0.1021252647042274,1.006479263305664,-0.3576059937477112,-0.5758354663848877,-0.3389781713485718,-0.2227458506822586,0.0,0.0,-0.3235319852828979,-0.59749436378479
-0.1059000939130783,0.993394374847412,-0.3680075705051422,-0.5838064551353455,-0.3489108085632324,-0.1986530572175979,0.0,0.0,0.4983160495758056,-0.0688055753707885
-0.10944614559412,0.9807053208351136,-0.3454157710075378,-0.5662250518798828,-0.3585804104804992,-0.1933918893337249,0.0,0.0,-0.0677149295806884,0.1429263353347778
-0.1130286231637001,0.967799961566925,-0.3488307595252991,-0.5759553909301758,-0.3685176372528076,-0.1987450569868087,0.0,0.0,-0.6447539925575256,0.3943972587585449
-0.1166449561715126,0.954678475856781,-0.3519976139068603,-0.5856866240501404,-0.3787347376346588,-0.2043419331312179,0.0,0.0,0.1614668369293213,0.217653751373291
-0.1202428787946701,0.9416455030441284,-0.3497945368289947,-0.58192378282547,-0.3893752694129944,-0.2128104865550995,0.0,0.0,-0.3444435000419616,0.074899673461914
-0.1238699927926063,0.9283969402313232,-0.3524755835533142,-0.5916573405265808,-0.4003176689147949,-0.2188479006290435,0.0,0.0,-0.2326458096504211,-0.1775746941566467
-0.1275239884853363,0.914933145046234,-0.3549198508262634,-0.6013919115066528,-0.4115718603134155,-0.2250834703445434,0.0,0.0,0.9674018621444702,-0.0346357822418212
-0.1309279501438141,0.9026992321014404,-0.3291005194187164,-0.5470613241195679,-0.4237662851810455,-0.243888646364212,0.0,0.0,-0.8294865489006042,-0.3225564956665039
-0.1343541145324707,0.8902505040168762,-0.3310866057872772,-0.5567991733551025,-0.4362902641296386,-0.2504794001579284,0.0,0.0,0.2055094242095947,-0.2487249970436096
-0.1376574486494064,0.8781011700630188,-0.3185009360313415,-0.543699324131012,-0.4492231905460357,-0.2586587369441986,0.0,0.0,-0.2664703130722046,-0.7713841199874878
-0.1410202980041504,0.8657670021057129,-0.3253191709518432,-0.551756739616394,-0.4612744450569153,-0.2410253584384918,0.0,0.0,-0.1726313233375549,-0.8137679696083069
-0.144459918141365,0.8532692193984985,-0.3344360291957855,-0.5586492419242859,-0.4718037545681,-0.2105864286422729,0.0,0.0,0.1116881370544433,-0.3294031620025635
-0.1477121412754058,0.8409058451652527,-0.3157283961772918,-0.5527468323707581,-0.4823508858680725,-0.2109424322843551,0.0,0.0,0.6303842067718506,-0.7930415272712708
-0.1506609916687011,0.8294204473495483,-0.2866073250770569,-0.5133724212646484,-0.491578608751297,-0.1845543384552002,0.0,0.0,0.5661818981170654,-0.8385332226753235
-0.1533219367265701,0.8182629942893982,-0.2592993676662445,-0.4983299374580383,-0.499198168516159,-0.1523920595645904,0.0,0.0,0.8297659158706665,-0.9566434025764464
-0.1559121161699295,0.8077117204666138,-0.2535496056079864,-0.4709494411945343,-0.5053502917289734,-0.1230421289801597,0.0,0.0,0.6142126321792603,-0.7732411026954651
-0.158094123005867,0.7979428768157959,-0.2140288054943084,-0.4357137382030487,-0.5100674629211426,-0.094344325363636,0.0,0.0,0.8949682712554932,-0.9685488939285278
-0.1598154008388519,0.7889010310173035,-0.1696674972772598,-0.4027811884880066,-0.5128512382507324,-0.0556770153343677,0.0,0.0,0.7307672500610352,-0.5225132703781128
-0.1610786467790603,0.7807438373565674,-0.1246999949216842,-0.3631528615951538,-0.5146836042404175,-0.0366470627486705,0.0,0.0,0.9048056602478028,-0.7521342635154724
-0.1620301306247711,0.7736726999282837,-0.094422161579132,-0.31454598903656,-0.5155097246170044,-0.0165227726101875,0.0,0.0,0.8486692905426025,-0.7604619264602661
-0.1627781838178634,0.7669183611869812,-0.0752554312348365,-0.3000193834304809,-0.5150023102760315,0.0101480362936854,0.0,0.0,0.6475863456726074,-0.5598816871643066
-0.1633120477199554,0.7609753012657166,-0.0542965941131114,-0.2637920677661896,-0.5139676928520203,0.0206925217062234,0.0,0.0,0.7002396583557129,-0.9445760250091552
-0.1635240614414215,0.7554590106010437,-0.023678682744503,-0.2442423403263092,-0.5111598372459412,0.0561568811535835,0.0,0.0,-0.0506646037101745,-0.8359992504119873
-0.163787841796875,0.7497738599777222,-0.030011111870408,-0.2513209581375122,-0.5070536732673645,0.082123577594757,0.0,0.0,-0.5886191129684448,-0.876262903213501
-0.164109319448471,0.7439166307449341,-0.0370386615395545,-0.2585216462612152,-0.5015347003936768,0.1103791147470474,0.0,0.0,0.3849208354949951,-0.9635066390037536
-0.1643582284450531,0.7386361956596375,-0.0312056932598352,-0.2324009984731674,-0.4944504797458648,0.141685202717781,0.0,0.0,0.0242220163345336,-0.8388761878013611
-0.1643907576799392,0.7338849902153015,-0.0107998168095946,-0.2084761708974838,-0.4859939217567444,0.1691310405731201,0.0,0.0,-0.8142101168632507,-0.9551096558570862
-0.1644775420427322,0.7289537787437439,-0.0174442436546087,-0.2161073386669159,-0.4762296080589294,0.1952855139970779,0.0,0.0,-0.5445186495780945,-0.9233195185661316
-0.1646150648593902,0.7238645553588867,-0.0238810665905475,-0.2227428555488586,-0.4650103747844696,0.2243845462799072,0.0,0.0,-0.698424220085144,-0.8718409538269043
-0.1648163795471191,0.7186107039451599,-0.031861875206232,-0.2296378314495086,-0.4520988166332245,0.258230984210968,0.0,0.0,-0.4270472526550293,-0.7091697454452515
-0.1650659590959549,0.7131876349449158,-0.0379436612129211,-0.2368956953287124,-0.4378905594348907,0.2841653525829315,0.0,0.0,-0.2815075516700744,-0.7662780284881592
-0.1653577834367752,0.7075881958007812,-0.0432658046483993,-0.2445394098758697,-0.4225816130638122,0.3061791062355041,0.0,0.0,-0.7032490372657776,-0.4914227128028869
-0.1656402647495269,0.701775312423706,-0.0420482791960239,-0.2542866468429565,-0.4076897501945495,0.2978374361991882,0.0,0.0,-0.2557709217071533,-0.3479907512664795
-0.1659134924411773,0.6957487463951111,-0.0408035367727279,-0.2640325725078583,-0.3932158648967743,0.2894777655601501,0.0,0.0,-0.747493326663971,0.0973033905029296
-0.1661768853664398,0.6895082592964172,-0.0395403876900672,-0.2737773060798645,-0.3791607320308685,0.28110271692276,0.0,0.0,-0.6373990178108215,0.4365081787109375
-0.1664309501647949,0.6830534934997559,-0.0382676012814044,-0.2835206985473633,-0.3655250072479248,0.2727147936820984,0.0,0.0,-0.8797987103462219,0.0417021512985229
-0.1666755676269531,0.6763843297958374,-0.036993820220232,-0.2932628691196441,-0.3523091971874237,0.2643162608146667,0.0,0.0,-0.8136471509933472,0.3425636291503906
-0.1669108420610427,0.6695008277893066,-0.0357276313006877,-0.3030037879943847,-0.3395137190818786,0.2559095025062561,0.0,0.0,-0.5468112826347351,0.5172832012176514
-0.1670925170183181,0.6623839139938354,-0.0288722962141037,-0.3138197660446167,-0.3283326625823974,0.2236219644546508,0.0,0.0,-0.8929585218429565,-0.450276255607605
-0.1672656089067459,0.6550519466400146,-0.0276455022394657,-0.323556125164032,-0.3175723552703857,0.2152060717344284,0.0,0.0,-0.8222010731697083,0.4584946632385254
-0.1674304902553558,0.6475045680999756,-0.0264515224844217,-0.3332914412021637,-0.307232916355133,0.2067885100841522,0.0,0.0,-0.7695872783660889,0.4793736934661865
-0.1675875633955001,0.6397415995597839,-0.0252984799444675,-0.3430257141590118,-0.2973143458366394,0.1983712464570999,0.0,0.0,-0.553706169128418,-0.3036333322525024
-0.1677373945713043,0.6317629218101501,-0.0241943579167127,-0.3527590036392212,-0.2878165245056152,0.189956322312355,0.0,0.0,-0.7132582068443298,-0.5824389457702637
-0.1679280251264572,0.6235921382904053,-0.0291543267667293,-0.3611922860145569,-0.277446299791336,0.2074047029018402,0.0,0.0,0.406313419342041,0.7545287609100342
-0.1679027527570724,0.6160480380058289,-0.0056642079725861,-0.333761602640152,-0.2690396606922149,0.1681327521800995,0.0,0.0,-0.8757524490356445,0.2081115245819091
-0.1678721457719802,0.6082876920700073,-0.0047531006857752,-0.3434917032718658,-0.2610528469085693,0.1597365736961364,0.0,0.0,-0.788720965385437,-0.4075268507003784
-0.1678372323513031,0.6003109216690063,-0.0039213285781443,-0.3532209992408752,-0.2534853219985962,0.1513504236936569,0.0,0.0,-0.9595082998275756,-0.6977180242538452
-0.1678447723388672,0.5921303629875183,-0.0089367637410759,-0.3621893227100372,-0.2451477795839309,0.1667505204677581,0.0,0.0,-0.9746308326721193,0.287023663520813
-0.1678497344255447,0.5837333798408508,-0.0082854842767119,-0.3719185590744018,-0.2372283041477203,0.1583895236253738,0.0,0.0,-0.7050976753234863,-0.2490555644035339
-0.1678530722856521,0.5751199126243591,-0.0077343359589576,-0.3816469311714172,-0.2297261208295822,0.1500439792871475,0.0,0.0,-0.5956037640571594,0.5004944801330566
-0.1678173989057541,0.566279947757721,-0.0024393815547227,-0.391964316368103,-0.2236368656158447,0.1217850595712661,0.0,0.0,-0.9580544829368592,-0.1634352207183838
-0.1677823960781097,0.5572230219841003,-0.0021074938122183,-0.4016901552677154,-0.2179630696773529,0.1134760230779647,0.0,0.0,-0.6145957708358765,-0.3843579292297363
-0.1677493155002594,0.5479490756988525,-0.0018946580821648,-0.4114153683185577,-0.2127036899328231,0.105187714099884,0.0,0.0,-0.8971165418624878,-0.6566833853721619
-0.1677625626325607,0.538465142250061,-0.0072109661996364,-0.420676052570343,-0.2067627906799316,0.1188175529241561,0.0,0.0,-0.9552925229072572,0.0373439788818359
-0.1677803099155426,0.5287641286849976,-0.0072536095976829,-0.4304010570049286,-0.2012340128421783,0.1105759143829345,0.0,0.0,0.0499160289764404,-0.129843533039093
-0.1676414459943771,0.5196356773376465,0.00855228677392,-0.4049938023090362,-0.1958673000335693,0.1073344349861145,0.0,0.0,-0.9452915787696838,0.0121816396713256
-0.167509838938713,0.5102899670600891,0.0082335928454995,-0.4147179424762726,-0.1909099519252777,0.0991467460989952,0.0,0.0,-0.9690605998039246,-0.1809910535812378
-0.1673868149518966,0.500727117061615,0.0077698240056633,-0.4244415163993835,-0.1863605082035064,0.0909887701272964,0.0,0.0,-0.9908247590065002,-0.3428981304168701
-0.1672740876674652,0.490946888923645,0.0071566784754395,-0.4341646134853363,-0.182217389345169,0.0828623324632644,0.0,0.0,-0.9408791661262512,-0.7289011478424072
-0.1672338545322418,0.4809715151786804,-0.0012985742650926,-0.442704290151596,-0.1768835484981537,0.1066768318414688,0.0,0.0,-0.975738286972046,0.586638331413269
-0.167166993021965,0.4707724750041961,0.0027744588442146,-0.452832967042923,-0.1729645431041717,0.0783800259232521,0.0,0.0,-0.919123649597168,-0.5903326869010925
-0.1671630889177322,0.4603664875030517,-0.0043456288985908,-0.4619408547878265,-0.1682158261537552,0.0949744284152984,0.0,0.0,-0.7263218760490417,0.2364490032196045
-0.1671754866838455,0.449743241071701,-0.005592789966613,-0.4716633856296539,-0.1638661473989486,0.0869934856891632,0.0,0.0,-0.6005406379699707,-0.142582893371582
-0.1672060936689376,0.4389023184776306,-0.0070056235417723,-0.4813854396343231,-0.1599134355783462,0.0790541470050811,0.0,0.0,0.2866569757461548,0.276513934135437
-0.1670858412981033,0.4286529123783111,0.0080893812701106,-0.4551082253456116,-0.1559740006923675,0.0787886157631874,0.0,0.0,0.1239107847213745,-0.1987496018409729
-0.1669066399335861,0.4185482859611511,0.0141684766858816,-0.448711097240448,-0.1522340327501297,0.074799470603466,0.0,0.0,-0.6035227179527283,0.6853792667388916
-0.1666836738586425,0.4082158505916595,0.0206492096185684,-0.4590521454811096,-0.1505827456712722,0.0330257043242454,0.0,0.0,-0.5229403972625732,0.0741424560546875
-0.1664853990077972,0.3976656198501587,0.0185557305812835,-0.4687723219394684,-0.1493189185857772,0.0252764578908681,0.0,0.0,0.4652817249298095,-0.4224613308906555
-0.1660757958889007,0.3879934251308441,0.0394940339028835,-0.4297270178794861,-0.1478546112775802,0.029286315664649,0.0,0.0,-0.8385432958602905,0.4611392021179199
-0.1656944304704666,0.378103494644165,0.0370546318590641,-0.4394470453262329,-0.1467721909284591,0.0216481462121009,0.0,0.0,-0.5167270302772522,0.2691940069198608
-0.1653430014848709,0.3679956495761871,0.0344422683119773,-0.4491668343544006,-0.1460686773061752,0.0140702556818723,0.0,0.0,-0.201191246509552,-0.2973978519439697
-0.1650230437517166,0.3576700091361999,0.0316574238240718,-0.4588865637779236,-0.1457408964633941,0.0065560042858123,0.0,0.0,0.4452470541000366,-0.4334793090820312
-0.1646084785461425,0.3477062880992889,0.0411737896502018,-0.4428023099899292,-0.1454594731330871,0.0056284386664628,0.0,0.0,-0.5582663416862488,0.0461235046386718
-0.1642289161682129,0.3375247716903686,0.038046907633543,-0.4525218307971954,-0.1455468237400055,-0.0017470133025199,0.0,0.0,0.0123758316040039,-0.7834978699684143
-0.1639924943447113,0.3276249170303345,0.0225497800856828,-0.4398881494998932,-0.1444634795188903,0.0216669049113988,0.0,0.0,-0.0381466150283813,0.802588939666748
-0.163733959197998,0.3174934387207031,0.0266884565353393,-0.450365662574768,-0.1452887207269668,-0.0165052264928817,0.0,0.0,0.5189969539642334,-0.2168007493019104
-0.163420483469963,0.3078669011592865,0.0324152037501335,-0.4279521405696869,-0.1463602930307388,-0.0214316006749868,0.0,0.0,0.2326676845550537,-0.4258704781532287
-0.1630129814147949,0.298399269580841,0.0417276173830032,-0.4208794236183166,-0.1473333239555359,-0.0194610077887773,0.0,0.0,-0.0759450197219848,-0.5824177265167236
-0.1626863479614257,0.2887247800827026,0.0330093279480934,-0.4300103783607483,-0.1476760804653167,-0.0068550063297152,0.0,0.0,0.4418466091156006,-0.8674938082695007
-0.1623431146144867,0.2798947393894195,0.0332421697676181,-0.3923380970954895,-0.1465927809476852,0.0216660443693399,0.0,0.0,-0.4787933826446533,0.0828390121459961
