x_pos,y_pos,x_vel,y_vel,angle,ang_vel,leg_1,leg_2,main_booster,lat_booster
-0.0015037537086755,1.4031248092651367,-0.1521959155797958,-0.3464615941047668,0.001628196099773,0.0321079567074775,0.0,0.0,-0.4455275535583496,0.5628321170806885
-0.0029405592940747,1.3948501348495483,-0.1439331769943237,-0.3677604794502258,0.0018746476853266,0.0049305781722068,0.0,0.0,-0.1059293150901794,0.3604717254638672
-0.0043592453002929,1.3860752582550049,-0.1419863402843475,-0.3899948298931122,0.001988228643313,0.0022720075212419,0.0,0.0,0.3677587509155273,0.9345054626464844
-0.005801391787827,1.3774179220199585,-0.1422111541032791,-0.3847718834877014,1.085108578990912e-05,-0.0395513139665126,0.0,0.0,0.0330479145050048,0.5125597715377808
-0.0070978165604174,1.3688738346099854,-0.1266583949327469,-0.3797339200973511,-0.0029443346429616,-0.0591094717383384,0.0,0.0,-0.1370394825935363,0.5278726816177368
-0.0083283428102731,1.3598294258117676,-0.1186385303735733,-0.4019944965839386,-0.0073166922666132,-0.0874551981687545,0.0,0.0,-0.325912594795227,-0.0684295892715454
-0.0095452312380075,1.3502854108810425,-0.1171314269304275,-0.424204558134079,-0.0118236327543854,-0.0901467278599739,0.0,0.0,0.2680275440216064,0.4144916534423828
-0.0106290820986032,1.34098482131958,-0.1042495965957641,-0.4134019017219543,-0.0159197114408016,-0.0819291248917579,0.0,0.0,0.2165664434432983,0.3079311847686767
-0.0117010120302438,1.3321088552474976,-0.1028727665543556,-0.394536405801773,-0.0201941467821598,-0.0854963734745979,0.0,0.0,-0.0912858247756958,0.0692836046218872
-0.0127633092924952,1.3227334022521973,-0.1017723456025123,-0.4167539775371551,-0.0246039554476737,-0.0882041528820991,0.0,0.0,-0.8915473818778992,-0.0313543677330017
-0.0138175012543797,1.3128585815429688,-0.1008181944489479,-0.4389639496803283,-0.0291493907570838,-0.0909169390797615,0.0,0.0,-0.8505436182022095,0.5388202667236328
-0.0148176196962594,1.3024812936782837,-0.0940675362944603,-0.4613423943519592,-0.0350237712264061,-0.1174983978271484,0.0,0.0,-0.5248972177505493,-0.1640712618827819
-0.0158124919980764,1.2916046380996704,-0.0934169143438339,-0.483556717634201,-0.0410325787961483,-0.1201871857047081,0.0,0.0,-0.7675787806510925,-0.3906264901161194
-0.0168038364499807,1.2802289724349976,-0.0929262712597847,-0.5057714581489563,-0.0471762008965015,-0.1228835135698318,0.0,0.0,0.1021487712860107,-0.6209227442741394
-0.0177104957401752,1.269180417060852,-0.0857321992516517,-0.4912123084068298,-0.0520654693245887,-0.0977944433689117,0.0,0.0,-0.0807426571846008,-0.7701529860496521
-0.0186670310795307,1.257627010345459,-0.0918351411819458,-0.5136181116104126,-0.0558398924767971,-0.0754954069852829,0.0,0.0,-0.4038655161857605,-0.9219061136245728
-0.0196805950254201,1.2455897331237793,-0.098837986588478,-0.5350898504257202,-0.0583331957459449,-0.0498704649507999,0.0,0.0,0.2766660451889038,-0.9704720973968506
-0.0206293109804391,1.233473539352417,-0.0942246466875076,-0.5385215282440186,-0.0589729100465774,-0.0127954361960291,0.0,0.0,-0.5265247225761414,-0.5481991767883301
-0.0216189380735158,1.2208659648895264,-0.0991083979606628,-0.5603285431861877,-0.0588307864964008,0.0028425583150237,0.0,0.0,-0.1754272580146789,-0.5894984602928162
-0.0226678848266601,1.2077631950378418,-0.1062454581260681,-0.5822920203208923,-0.0574916787445545,0.0267844591289758,0.0,0.0,-0.4771914482116699,-0.3801871538162231
-0.0237250328063964,1.1941609382629397,-0.1069358438253402,-0.6045039892196655,-0.0562839172780513,0.0241575725376606,0.0,0.0,-0.0928955674171447,-0.4199665784835815
-0.024791907519102,1.1800589561462402,-0.1077865362167358,-0.6267163753509521,-0.0552059337496757,0.0215617083013057,0.0,0.0,-0.2708576321601867,-0.3898742198944092
-0.0258703231811523,1.1654571294784546,-0.1087941974401474,-0.648928701877594,-0.054257046431303,0.0189794339239597,0.0,0.0,-0.4973440170288086,-0.4936628937721252
-0.026961613446474,1.1503558158874512,-0.1099543571472168,-0.6711410284042358,-0.0534363090991973,0.0164159294217824,0.0,0.0,-0.1059889793395996,0.0341328382492065
-0.0280672069638967,1.1347547769546509,-0.1112619861960411,-0.6933534741401672,-0.0527427792549133,0.0138715673238039,0.0,0.0,0.6265037059783936,0.0818510055541992
-0.0292960163205862,1.1196823120117188,-0.1227882280945777,-0.6698909401893616,-0.0528393015265464,-0.0019300499698147,0.0,0.0,0.0602349042892456,-0.6240828633308411
-0.0305638313293457,1.1048160791397097,-0.1278102993965149,-0.6606835722923279,-0.0518151000142097,0.0204839631915092,0.0,0.0,-0.414741039276123,0.2133432626724243
-0.0318499580025672,1.0894502401351929,-0.1295243054628372,-0.6828937530517578,-0.0509155020117759,0.0179918427020311,0.0,0.0,-0.8379651308059692,0.1995707750320434
-0.0331557281315326,1.073584794998169,-0.1313620656728744,-0.7051038146018982,-0.0501397512853145,0.0155149046331644,0.0,0.0,0.1117579936981201,0.5733319520950317
-0.034436322748661,1.0577070713043213,-0.1275364458560943,-0.7057023644447327,-0.0506540052592754,-0.0102848876267671,0.0,0.0,0.4810736179351806,-0.1056130528450012
-0.0356835350394248,1.0424652099609375,-0.1241598278284072,-0.6774330139160156,-0.0512131191790103,-0.0111823622137308,0.0,0.0,-0.8241199851036072,-0.3482803702354431
-0.0369537360966205,1.026723861694336,-0.1263288855552673,-0.699643075466156,-0.0518939793109893,-0.0136172818019986,0.0,0.0,-0.2991102933883667,-0.1334546208381652
-999.0,1.010482668876648,-0.1285950988531112,-0.7218531966209412,-0.052695944905281,-0.016039265319705,0.0,0.0,0.2976830005645752,0.2063814401626587
-0.0396017059683799,0.9941704273223876,-0.1342247575521469,-0.7250356674194336,-0.0538500063121318,-0.0230812970548868,0.0,0.0,0.0239162445068359,-0.2759865522384643
-0.0409502014517784,0.9779398441314696,-0.1336132586002349,-0.7214030027389526,-0.055077351629734,-0.0245468970388174,0.0,0.0,0.7327356338500977,-0.4172612428665161
-0.0422623641788959,0.9623960852622986,-0.1299488991498947,-0.690877377986908,-0.0563358180224895,-0.0251692123711109,0.0,0.0,-0.7491116523742676,-0.7074868083000183
-0.0436602607369422,0.9463541507720948,-0.1398745477199554,-0.7129732966423035,-0.0562444366514682,0.0018275262555107,0.0,0.0,-0.5922842621803284,-0.440153956413269
-0.0450858101248741,0.9298126101493835,-0.1425345242023468,-0.7351833581924438,-0.0562712959945201,-0.0005374624743126,0.0,0.0,-0.1855705976486206,-0.6907199025154114
-0.046597670763731,0.9127839207649232,-0.1525229513645172,-0.7567789554595947,-0.0549499168992042,0.026427399367094,0.0,0.0,-0.218091607093811,0.0654209852218627
-0.0481386184692382,0.8952557444572449,-0.1553022861480713,-0.7789891958236694,-0.0537457950413227,0.0240824297070503,0.0,0.0,-0.6629024744033813,-0.2647759318351745
-0.0497089400887489,0.8772278428077698,-0.1581343561410904,-0.8011993169784546,-0.0526584275066852,0.0217471644282341,0.0,0.0,0.8807187080383301,0.3971180915832519
-0.0511375442147254,0.8595818877220154,-0.1445033848285675,-0.7842058539390564,-0.0510374344885349,0.0324199572205543,0.0,0.0,0.3493819236755371,-0.2300354838371276
-0.0525043494999408,0.8418141007423401,-0.1385671943426132,-0.7896192669868469,-0.049165166914463,0.037445031106472,0.0,0.0,0.7550694942474365,0.3730126619338989
-0.0537688247859478,0.8243803381919861,-0.1287304759025573,-0.7747669219970703,-0.0469204112887382,0.0448953434824943,0.0,0.0,0.3573901653289795,0.6189923286437988
-0.0550413131713867,0.8068011999130249,-0.1280750036239624,-0.7812702059745789,-0.0460947342216968,0.0165133420377969,0.0,0.0,-0.1175289154052734,0.3552610874176025
-0.0563451759517192,0.7887222170829773,-0.131112515926361,-0.8034802675247192,-0.0453834943473339,0.0142248719930648,0.0,0.0,0.4062662124633789,-0.0658378005027771
-0.0576117523014545,0.7707102298736572,-0.1275103241205215,-0.8005071878433228,-0.0445459969341754,0.016749981790781,0.0,0.0,-0.0319889187812805,-0.2234857678413391
-0.0589105598628521,0.7521986961364746,-0.130607932806015,-0.8227172493934631,-0.0438219718635082,0.0144805610179901,0.0,0.0,0.808505654335022,0.1632717847824096
-0.0603488907217979,0.7344898581504822,-0.143778771162033,-0.7870621085166931,-0.0438827909529209,-0.0012159917969256,0.0,0.0,0.0079621076583862,0.298173189163208
-0.0618191733956337,0.7167472243309021,-0.1467937529087066,-0.7885682582855225,-0.0441158004105091,-0.0046600457280874,0.0,0.0,0.4521024227142334,0.5257232189178467
-0.0631227493286132,0.6992451548576355,-0.1292860805988311,-0.7778996825218201,-0.0451726876199245,-0.0211379062384367,0.0,0.0,0.7224589586257935,0.6336979866027832
-0.0644391030073165,0.6823997497558594,-0.1290231794118881,-0.7487697005271912,-0.0477583035826683,-0.0517122261226177,0.0,0.0,0.0830669403076171,-0.5180525779724121
-0.0657368674874305,0.6654857993125916,-0.1282306015491485,-0.7517845034599304,-0.0492800772190094,-0.0304353684186935,0.0,0.0,0.3896392583847046,0.4461596012115478
-0.0670321434736251,0.6490771174430847,-0.1278923898935318,-0.7293274998664856,-0.0508996658027172,-0.0323914922773838,0.0,0.0,-0.3739025592803955,-0.36949622631073
-0.0683609023690223,0.6321689486503601,-0.1311327517032623,-0.7515377402305603,-0.0526288077235221,-0.0345828905701637,0.0,0.0,0.913724422454834,0.5049340724945068
-0.0697716698050499,0.6155824065208435,-0.1378442943096161,-0.7372892498970032,-0.0558246783912181,-0.0639175027608871,0.0,0.0,0.1645452976226806,-0.8204602599143982
-0.0711730942130088,0.5993444323539734,-0.1385044753551483,-0.7217510938644409,-0.0574428215622901,-0.0323625430464744,0.0,0.0,0.0671261548995971,0.7033166885375977
-0.0724258422851562,0.583248496055603,-0.1222174018621444,-0.7154943346977234,-0.0604760609567165,-0.0606645718216896,0.0,0.0,0.190500259399414,-0.2371189594268798
-0.0736230835318565,0.567536473274231,-0.1167965978384018,-0.6984323263168335,-0.0633667856454849,-0.0578145571053028,0.0,0.0,0.1434130668640136,0.7715821266174316
-0.0748188942670822,0.5521458387374878,-0.1149563193321228,-0.6842323541641235,-0.0679472759366035,-0.0916098281741142,0.0,0.0,-0.4091428518295288,-0.0635424852371215
-0.0760489478707313,0.5362558364868164,-0.1182643622159957,-0.7064441442489624,-0.0726325139403343,-0.0937048196792602,0.0,0.0,0.5143066644668579,-0.6160414814949036
-0.0774147063493728,0.5208476185798645,-0.132751390337944,-0.68499755859375,-0.0764148831367492,-0.0756475776433944,0.0,0.0,-0.2405590415000915,0.1633654832839965
-0.0788146033883094,0.5049400329589844,-0.1360747516155243,-0.7072089314460754,-0.080299936234951,-0.077700637280941,0.0,0.0,0.8956818580627441,-0.3772170543670654
-0.0801654830574989,0.4895813465118408,-0.131191998720169,-0.6828225255012512,-0.0841614007949829,-0.077229157090187,0.0,0.0,0.6362202167510986,0.0977207422256469
-0.0815095901489257,0.4743156433105469,-0.1304537802934646,-0.6787031292915344,-0.088087260723114,-0.078517384827137,0.0,0.0,0.7815685272216797,0.6919710636138916
-0.0829216986894607,0.4595152735710144,-0.1354205757379531,-0.6581477522850037,-0.0938248187303543,-0.1147512346506118,0.0,0.0,0.3059813976287842,0.6386426687240601
-0.0842353850603103,0.4452238082885742,-0.1242311745882034,-0.6356410980224609,-0.1008971035480499,-0.1414460092782974,0.0,0.0,-0.3410997986793518,0.9407627582550048
-0.0855000466108322,0.4304096698760986,-0.117095872759819,-0.6590652465820312,-0.1102007776498794,-0.1860735714435577,0.0,0.0,-0.5153501629829407,-0.7056506276130676
-0.0868514999747276,0.4151139259338379,-0.1270439326763153,-0.6804313063621521,-0.1182509064674377,-0.1610026061534881,0.0,0.0,0.4246120452880859,0.5801353454589844
-0.0882315635681152,0.3999325335025787,-0.1284596025943756,-0.6755115389823914,-0.1277467757463455,-0.1899176388978958,0.0,0.0,-0.5462195873260498,-0.1542980670928955
-0.0896461457014083,0.3842527866363525,-0.1318221390247345,-0.6977294087409973,-0.1373330056667328,-0.1917250156402588,0.0,0.0,0.4050700664520263,-0.8478922843933105
-0.0910594910383224,0.3688702583312988,-0.1333696246147155,-0.6844225525856018,-0.1452779918909073,-0.1588994562625885,0.0,0.0,0.4005337953567505,-0.8593755960464478
-0.0925924330949783,0.3541025221347809,-0.1468275487422943,-0.6569859981536865,-0.1517233848571777,-0.1289077252149582,0.0,0.0,-0.0037862658500671,-0.5726412534713745
-0.0941989868879318,0.3388447761535644,-0.155131846666336,-0.6786969900131226,-0.1572467237710952,-0.110466793179512,0.0,0.0,0.865585207939148,-0.4435986280441284
-0.0958086028695106,0.3237510919570923,-0.1551690995693206,-0.6714533567428589,-0.1630273610353469,-0.1156126409769058,0.0,0.0,0.9054534435272216,-0.9008789658546448
-0.0973775833845138,0.3086999654769897,-0.1530118435621261,-0.66937255859375,-0.166929006576538,-0.0780328959226608,0.0,0.0,0.9872798919677734,-0.3650763034820556
-0.0989507660269737,0.2937628328800201,-0.1531714648008346,-0.6643426418304443,-0.171082004904747,-0.0830598771572113,0.0,0.0,0.9822795391082764,-0.0637230277061462
-0.1004061698913574,0.2797356843948364,-0.1412817388772964,-0.6239261031150818,-0.175353854894638,-0.0854371041059494,0.0,0.0,0.989559292793274,-0.2468094229698181
-0.1016297340393066,0.2666349112987518,-0.1184672564268112,-0.5827191472053528,-0.1792489886283874,-0.077902466058731,0.0,0.0,0.9789543151855468,-0.3998539447784424
-0.1028451919555664,0.2545158267021179,-0.1169888600707054,-0.5391865372657776,-0.1838315427303314,-0.0916512459516525,0.0,0.0,0.7281696796417236,0.1588157415390014
-0.1041647940874099,0.2424455285072326,-0.1267099529504776,-0.5371179580688477,-0.1891021132469177,-0.1054114252328872,0.0,0.0,0.6188873052597046,-0.42583167552948
-0.1053341850638389,0.2310060113668441,-0.111818790435791,-0.5090844035148621,-0.1942478865385055,-0.1029154285788536,0.0,0.0,0.6599018573760986,-0.7319342494010925
-0.1065922752022743,0.2199671864509582,-0.1218816041946411,-0.491135686635971,-0.1982015520334243,-0.0790730416774749,0.0,0.0,0.5840671062469482,0.2931547164916992
-0.1078081130981445,0.2094002068042755,-0.1173641830682754,-0.4702121019363403,-0.2024480700492859,-0.0849306732416153,0.0,0.0,0.6442482471466064,-0.3567624092102051
-0.108929730951786,0.1993600875139236,-0.1078485623002052,-0.4468242228031158,-0.2067949622869491,-0.0869379565119743,0.0,0.0,0.3232221603393554,-0.6876170039176941
-0.10996675491333,0.1894975751638412,-0.1008449792861938,-0.4387393891811371,-0.2096769958734512,-0.0576410666108131,0.0,0.0,0.3906193971633911,0.3849306106567383
-0.1109581962227821,0.1795519441366195,-0.09635029733181,-0.442426860332489,-0.2125026136636734,-0.0565123073756694,0.0,0.0,0.901918888092041,-0.551426887512207
-0.1118180304765701,0.169760376214981,-0.0845686495304107,-0.4353868365287781,-0.2139296233654022,-0.0285401381552219,0.0,0.0,0.8529243469238281,-0.3707565069198608
-0.1124144569039344,0.160355344414711,-0.0589573197066783,-0.4181000590324402,-0.2146190851926803,-0.0137894619256258,0.0,0.0,0.7509384155273438,-0.8407773971557617
-0.1128619164228439,0.151025965809822,-0.0460096597671508,-0.4144527018070221,-0.2133502960205078,0.0253761764615774,0.0,0.0,0.826059103012085,-0.939321756362915
-0.1132454872131347,0.142446830868721,-0.0414652153849601,-0.380850613117218,-0.2102127820253372,0.0627507120370864,0.0,0.0,0.2226725816726684,-0.8485795259475708
-0.1135843247175216,0.1342107355594635,-0.0386884398758411,-0.3653720617294311,-0.205355167388916,0.0971522107720375,0.0,0.0,0.2444771528244018,-0.5759629011154175
-0.113797090947628,0.1261977255344391,-0.0274381302297115,-0.3552941381931305,-0.1991478204727172,0.1241466552019119,0.0,0.0,0.3019582033157348,-0.0392776727676391
-0.113914206624031,0.1180401667952537,-0.0182547662407159,-0.3616952002048492,-0.1925714761018753,0.1315273195505142,0.0,0.0,0.776508092880249,-0.4075490832328796
-0.1140151992440223,0.1102057546377182,-0.0163846742361783,-0.347391128540039,-0.1862494796514511,0.1264399588108062,0.0,0.0,0.6824098825454712,-0.022373080253601
-0.1139016151428222,0.1031433194875717,0.0046428767964243,-0.3130583763122558,-0.1795162111520767,0.1346651315689087,0.0,0.0,0.5242288112640381,-0.1250582933425903
-0.1137483566999435,0.0963624119758606,0.0086936112493276,-0.3005851507186889,-0.1728642880916595,0.1330385059118271,0.0,0.0,0.6624190807342529,0.3254125118255615
-0.1136133223772049,0.0902974009513855,0.0074084526859223,-0.2688611149787903,-0.1667678952217102,0.121927835047245,0.0,0.0,0.1911851167678833,-0.0837424397468566
-0.1133655533194542,0.0844616964459419,0.0183722134679555,-0.2586576640605926,-0.1603520214557647,0.1283174902200698,0.0,0.0,0.0982080698013305,-0.4788581132888794
-0.1131055802106857,0.078873760998249,0.0197115000337362,-0.2476877570152282,-0.1540662199258804,0.1257162988185882,0.0,0.0,0.1603007316589355,0.2781563997268677
-0.1128543838858604,0.0735793709754943,0.019047126173973,-0.2346901893615722,-0.1480093598365783,0.1211369782686233,0.0,0.0,-0.1971951127052307,-0.0183075070381164
-0.1126352325081825,0.0677857249975204,0.0157976932823658,-0.2569021880626678,-0.1419075578451156,0.1220363825559616,0.0,0.0,0.5317202806472778,0.2376186847686767
-0.1124761551618576,0.062343630939722,0.0102460160851478,-0.2413446605205536,-0.1362560987472534,0.1130292415618896,0.0,0.0,0.0947629213333129,0.9608032703399658
-0.1123438850045204,0.0569242089986801,0.0094009870663285,-0.2405164241790771,-0.1324523687362671,0.0760747343301773,0.0,0.0,0.382074236869812,0.8620202541351318
-0.1119958907365799,0.0518706403672695,0.0325401313602924,-0.2244063168764114,-0.1302018910646438,0.0450096018612384,0.0,0.0,0.4830137491226196,0.0736335515975952
-0.1115813255310058,0.0467991940677166,0.0388700738549232,-0.225176528096199,-0.1276327222585678,0.0513835437595844,0.0,0.0,0.636360764503479,0.0598227977752685
-0.110958956182003,0.0423247665166854,0.0589204803109169,-0.1985820084810257,-0.1243306919932365,0.0660400837659835,0.0,0.0,0.1829534769058227,0.1458492279052734
-0.1103144660592079,0.0381807908415794,0.0611362382769584,-0.1839057356119156,-0.1210320964455604,0.0659721195697784,0.0,0.0,0.4553002119064331,0.4258843660354614
-0.109484389424324,0.0346351228654384,0.0790193304419517,-0.1572670936584472,-0.1170758530497551,0.079125165939331,0.0,0.0,0.0831751823425293,0.149351954460144
-0.1085902228951454,0.0311471801251173,0.0851252675056457,-0.1546881943941116,-0.1128082349896431,0.085352323949337,0.0,0.0,0.2112777233123779,-0.3907092809677124
-0.1076633483171463,0.0280526969581842,0.0883293971419334,-0.137207344174385,-0.108481615781784,0.0865324437618255,0.0,0.0,-0.0684137940406799,-0.4370014667510986
-0.1067655533552169,0.0244587510824203,0.085330381989479,-0.1594176441431045,-0.1040682196617126,0.0882679671049118,0.0,0.0,0.2587485313415527,-0.2564473152160644
-0.105799101293087,0.0208767503499984,0.091820903122425,-0.1588717252016067,-0.0992809832096099,0.0957445725798606,0.0,0.0,0.5979537963867188,-0.50545734167099
-0.1049671173095703,0.0177134610712528,0.077611543238163,-0.1402277797460556,-0.0937355756759643,0.1109082475304603,0.0,0.0,0.5315454006195068,0.133633017539978
-0.1042365059256553,0.014780125580728,0.0679198950529098,-0.1300585120916366,-0.0886451974511146,0.1018077284097671,0.0,0.0,0.0413494110107421,0.7354516983032227
-0.1034592613577842,0.0118719674646854,0.0739747136831283,-0.129032626748085,-0.0849329456686973,0.0742451250553131,0.0,0.0,0.2216386795043945,0.537437915802002
-0.1026119217276573,0.0090446332469582,0.0819288492202758,-0.125503197312355,-0.0821488946676254,0.0556808225810527,0.0,0.0,0.5271574258804321,0.0450955629348754
-0.1015656441450119,0.0067927218042314,0.0857998430728912,-0.0991577357053756,-0.0635192692279815,0.3725926876068115,1.0,0.0,0.0853722095489502,-0.3615546226501465
-0.1004268676042556,0.0047120787203311,0.0947403609752655,-0.0917678028345108,-0.0445938631892204,0.3785080909729004,1.0,0.0,0.2300333976745605,-0.4396079778671264
-0.0992424041032791,0.0030352687463164,0.099193662405014,-0.0740633234381675,-0.0255826264619827,0.3802246451377868,1.0,0.0,-0.0475153923034668,-0.496368408203125
