x_pos,y_pos,x_vel,y_vel,angle,ang_vel,leg_1,leg_2,main_booster,lat_booster
-0.0015331268077716,1.4030472040176392,-0.1558649539947509,-0.349906176328659,0.0022893322166055,0.045198418200016,0.0,0.0,-0.4054911264149816,0.5171401010948985
-0.0030308724381029,1.394618034362793,-0.1514428555965423,-0.3746377527713775,0.0039302767254412,0.0328225083649158,0.0,0.0,-0.5074330391581776,-0.646994789456877
-0.0045762062072753,1.3856061697006226,-0.1577295362949371,-0.4005392491817474,0.0070948512293398,0.0632974356412887,0.0,0.0,-0.7146176012755148,-0.9808872059674902
-0.0062209130264818,1.3760132789611816,-0.1705588847398758,-0.4263963103294372,0.013117492198944,0.1204642504453659,0.0,0.0,-0.2914023569157653,-0.9870184105119256
-0.0079328538849949,1.365845799446106,-0.1793954074382782,-0.451984703540802,0.0212183017283678,0.1620309203863144,0.0,0.0,-0.8289519650233095,-0.9006841018798217
-0.0097050666809082,1.355099081993103,-0.1873578280210495,-0.477800577878952,0.0312470272183418,0.2005931437015533,0.0,0.0,0.5490190411508689,0.911772139569658
-0.0114507675170898,1.344590663909912,-0.1834138184785843,-0.4672476053237915,0.0399937145411968,0.1749501973390579,0.0,0.0,-0.8514090465137665,-0.8082489913853752
-0.0132478717714548,1.3335057497024536,-0.1903359144926071,-0.4929727017879486,0.0505099780857563,0.2103446274995803,0.0,0.0,-0.049860111887771,0.8647088907569871
-0.0149811748415231,1.3218599557876587,-0.1828287541866302,-0.5179368257522583,0.059913907200098,0.1880958825349807,0.0,0.0,-0.4967249552893531,0.5955576763682218
-0.0166691783815622,1.3096463680267334,-0.1776929199695587,-0.5432024598121643,0.0687142685055732,0.1760234385728836,0.0,0.0,0.2968728367919027,-0.7534416710655886
-0.018372917547822,1.2975581884384155,-0.1814496219158172,-0.5378050208091736,0.0796976685523986,0.2196885347366333,0.0,0.0,0.7749149812218397,-0.8299051286997114
-0.0201027877628803,1.2857441902160645,-0.1864753663539886,-0.5258423686027527,0.0930799916386604,0.2676710486412048,0.0,0.0,-0.0217731279619655,0.79349554702843
-0.0217555053532123,1.2733702659606934,-0.1774007976055145,-0.5507500171661377,0.1051324903964996,0.2410720139741897,0.0,0.0,-0.9849103755901748,-0.9562477082852978
-0.0234708786010742,1.260403037071228,-0.1859578192234039,-0.577400267124176,0.1194672957062721,0.2867223024368286,0.0,0.0,0.837034811153013,0.5414769184194345
-0.025084113702178,1.2482702732086182,-0.1757040619850158,-0.5404444932937622,0.1338040828704834,0.2867621183395386,0.0,0.0,0.5657776053351404,0.9828848616411754
-0.0265348441898822,1.2360103130340576,-0.1582143306732177,-0.5461276769638062,0.1469201743602752,0.2623459696769714,0.0,0.0,-0.4336589139903308,0.5918260710599534
-0.0279232021421194,1.2231955528259275,-0.1511008739471435,-0.5707982182502747,0.1591857075691223,0.2453328371047973,0.0,0.0,0.5021059972072397,-0.8162800836348942
-0.0292778965085744,1.2103241682052612,-0.1501693874597549,-0.5737046599388123,0.1739147305488586,0.2946071624755859,0.0,0.0,0.7157946729491358,-0.8928179061777806
-0.0307282451540231,1.1981308460235596,-0.1622509956359863,-0.544032633304596,0.1912164539098739,0.3460660576820373,0.0,0.0,0.1416002850438293,0.5126047911031884
-0.0322637557983398,1.1859352588653564,-0.1701783835887909,-0.5442633032798767,0.2079774290323257,0.3352502882480621,0.0,0.0,-0.0575077160773147,0.5031771292854673
-0.0337421409785747,1.17318594455719,-0.1638076603412628,-0.5689643621444702,0.2241244614124298,0.3229697942733764,0.0,0.0,0.7751496856108198,0.7631165635914868
-0.0352419838309288,1.160579800605774,-0.1650009751319885,-0.5626204013824463,0.2393821328878402,0.3051804006099701,0.0,0.0,0.3449841954479804,0.9299885073183372
-0.0366445556282997,1.1481149196624756,-0.1540838032960891,-0.5563028454780579,0.2534687519073486,0.2817578911781311,0.0,0.0,0.2047921684846145,-0.8684756301111363
-0.038098145276308,1.1353952884674072,-0.1614824831485748,-0.568185031414032,0.2699699699878692,0.3300535082817077,0.0,0.0,0.8777780833522351,0.6199346980436777
-0.0398521423339843,1.1231131553649902,-0.1903968900442123,-0.5487109422683716,0.2853790521621704,0.3082088232040405,0.0,0.0,0.0386365253633216,-0.7561751367663361
-0.0418708808720111,1.1108099222183228,-0.2188449800014495,-0.5502302050590515,0.3028894960880279,0.3502082228660583,0.0,0.0,-0.1213034290023187,0.6450043417189029
-0.043825052678585,1.097962498664856,-0.211619883775711,-0.574471116065979,0.3196978867053985,0.3361679017543793,0.0,0.0,-0.2194325645911226,-0.8631207242969188
-0.045842170715332,1.0845141410827637,-0.2204807102680206,-0.6019725799560547,0.339264303445816,0.3913281559944153,0.0,0.0,0.1862395680008788,-0.8644445044222147
-0.0481947883963584,1.071202039718628,-0.2561032176017761,-0.5967106223106384,0.3611669838428497,0.4380539059638977,0.0,0.0,0.6785334895257553,-0.688794300421099
-0.0507760047912597,1.057973861694336,-0.2806752920150757,-0.5937826037406921,0.3850640952587127,0.4779421687126159,0.0,0.0,-0.0412475139958321,0.7830912301717112
-0.0532821640372276,1.044222116470337,-0.2719810605049133,-0.6171272993087769,0.4079107046127319,0.4569326341152191,0.0,0.0,-0.9472818374633788,0.9985039234161376
-0.0557049736380577,1.029937982559204,-0.2623514533042907,-0.6407946944236755,0.4295909106731415,0.4336044192314148,0.0,0.0,-0.8483307957649231,0.9986766576766968
-0.0580491051077842,1.0151358842849731,-0.253218412399292,-0.6637484431266785,0.4500935673713684,0.4100530743598938,0.0,0.0,-0.7168862819671631,0.994210720062256
-0.0603073127567768,0.9998023509979248,-0.243339866399765,-0.6872557997703552,0.4693809747695923,0.385748028755188,0.0,0.0,-0.6503840088844299,0.9966821670532228
-0.0624735839664936,0.98395574092865,-0.2326128929853439,-0.7098098993301392,0.487148255109787,0.3553457260131836,0.0,0.0,-0.4521375894546509,0.998404860496521
-0.0645493492484092,0.9676021337509156,-0.222047358751297,-0.7320258617401123,0.5033692717552185,0.3244220018386841,0.0,0.0,-0.410460889339447,0.9972795248031616
-0.0665357559919357,0.950727641582489,-0.2117718458175659,-0.7548732757568359,0.5182139277458191,0.2968929409980774,0.0,0.0,-0.0654784440994262,0.990325689315796
-0.0684306174516677,0.9333497881889344,-0.2010815441608429,-0.7768164277076721,0.5314462780952454,0.2646469473838806,0.0,0.0,-0.7971376180648804,0.994331121444702
-0.0702432617545127,0.9154654145240784,-0.1916037052869796,-0.7989626526832581,0.5433167815208435,0.2374100983142852,0.0,0.0,-0.4293891191482544,0.9944000244140624
-0.0719629302620887,0.8970733284950256,-0.1808684766292572,-0.8210365772247314,0.5535978674888611,0.2056216746568679,0.0,0.0,-0.1099144220352172,0.9959039688110352
-0.0736070647835731,0.8781670928001404,-0.1722829043865203,-0.843550980091095,0.5627458095550537,0.1829604208469391,0.0,0.0,-0.2144100666046142,0.9979918003082277
-0.0751465782523155,0.8587617874145508,-0.1601105034351349,-0.8650690913200378,0.5699546933174133,0.1441792547702789,0.0,0.0,-0.385291576385498,0.9972598552703856
-0.0765810012817382,0.8388479351997375,-0.1480151712894439,-0.8870236277580261,0.5753295421600342,0.1074963808059692,0.0,0.0,-0.2322593927383422,0.985666036605835
-0.0779143348336219,0.8184328079223633,-0.1363343000411987,-0.9086398482322692,0.5788731575012207,0.0708726197481155,0.0,0.0,-0.0718892216682434,0.9873323440551758
-0.0791575461626052,0.7974942922592163,-0.1261957287788391,-0.9314190149307252,0.5810871720314026,0.0442804954946041,0.0,0.0,-0.091788649559021,0.9966182708740234
-0.080301284790039,0.7760435938835144,-0.1148385852575302,-0.9535747766494752,0.581640899181366,0.0110745569691061,0.0,0.0,-0.2748024463653564,0.9964675903320312
-0.0813454613089561,0.7540858387947083,-0.1034310236573219,-0.9754611849784852,0.5804719924926758,-0.0233785957098007,0.0,0.0,0.0601824522018432,0.9956881999969482
-0.082668587565422,0.7322280406951904,-0.1300684362649917,-0.9704856872558594,0.5778366327285767,-0.0527079887688159,0.0,0.0,-0.0526488423347473,0.8320276737213135
-0.0839256271719932,0.7098451256752014,-0.12280835211277,-0.9935442805290222,0.5744194388389587,-0.06834427267313,0.0,0.0,0.1975233554840088,0.9687247276306152
-0.0853073149919509,0.6873982548713684,-0.1340243518352508,-0.9958587288856506,0.5695527195930481,-0.0973345637321472,0.0,0.0,0.2634769678115845,0.9579825401306152
-0.0867277160286903,0.6650938391685486,-0.1366713643074035,-0.9890317320823668,0.5632724761962891,-0.1256047189235687,0.0,0.0,0.1191961765289306,0.9650299549102784
-0.088365837931633,0.6428785920143127,-0.1571853309869766,-0.9845751523971558,0.5555518269538879,-0.1544124782085418,0.0,0.0,0.1145100593566894,0.9872126579284668
-0.0899935737252235,0.620599091053009,-0.1548043042421341,-0.9869300723075868,0.5463059544563293,-0.184917002916336,0.0,0.0,0.119411826133728,0.8462817668914795
-0.0918197631835937,0.5985003113746643,-0.173557624220848,-0.9785289764404296,0.5358574986457825,-0.2089689970016479,0.0,0.0,-0.100814402103424,0.6821115016937256
-0.0935614556074142,0.5758785009384155,-0.1639965176582336,-1.0014344453811646,0.5242145657539368,-0.2328587472438812,0.0,0.0,-0.0186527371406555,0.7445547580718994
-0.0952331572771072,0.5527190566062927,-0.1562859714031219,-1.025172472000122,0.511855959892273,-0.2471715658903122,0.0,0.0,0.6451513767242432,0.7882847785949707
-0.0971256271004676,0.5301532745361328,-0.1774933636188507,-0.9985793828964232,0.498596042394638,-0.265198141336441,0.0,0.0,-0.324528694152832,0.4911139011383056
-0.0989912971854209,0.507016122341156,-0.1752703487873077,-1.0242705345153809,0.4859372079372406,-0.2531770467758178,0.0,0.0,0.6489782333374023,0.3548246622085571
-0.1011479347944259,0.4844494462013244,-0.2051336020231247,-0.9993037581443788,0.4742205739021301,-0.2343325167894363,0.0,0.0,0.4561333656311035,0.3785569667816162
-0.1036535277962684,0.4621890485286712,-0.2402168810367584,-0.9858617186546326,0.4627867639064789,-0.2286759912967682,0.0,0.0,-0.138966679573059,0.3891832828521728
-0.1061319336295127,0.4393564462661743,-0.2379795759916305,-1.011547565460205,0.4519420266151428,-0.2168949395418167,0.0,0.0,0.723351001739502,-0.6151543855667114
-0.1090479865670204,0.4168360233306885,-0.2831678688526153,-0.998202621936798,0.4426921308040619,-0.1849979609251022,0.0,0.0,0.2662843465805053,-0.7280207872390747
-0.1120613068342208,0.3943097591400146,-0.2948960363864898,-0.9991453289985656,0.435668408870697,-0.1404739171266555,0.0,0.0,0.8048536777496338,-0.8637683391571045
-0.1153656020760536,0.3720970153808594,-0.3261975347995758,-0.9859315752983092,0.431063711643219,-0.0920938923954963,0.0,0.0,0.546342134475708,-0.9221593141555786
-0.1188551932573318,0.3497753143310547,-0.3470215201377868,-0.9914847016334534,0.4289634227752685,-0.0420064404606819,0.0,0.0,0.39606773853302,-0.9497777223587036
-0.1227015480399131,0.3274400234222412,-0.3849735856056213,-0.9927793741226196,0.429320752620697,0.0071463040076196,0.0,0.0,0.0808780193328857,-0.9670860767364502
-0.1268102675676345,0.3052675724029541,-0.4135459065437317,-0.986258327960968,0.4322210550308227,0.0580061748623847,0.0,0.0,-0.6581499576568604,-0.9691385626792908
-0.1309476792812347,0.2824696004390716,-0.4185213148593902,-1.0147238969802856,0.4374255239963531,0.104089044034481,0.0,0.0,-0.539807915687561,-0.9227339029312134
-0.1351232528686523,0.2590636312961578,-0.4244942665100097,-1.0424429178237915,0.4449889063835144,0.151268258690834,0.0,0.0,-0.6525787711143494,-0.9020190238952636
-0.1393443048000335,0.235028326511383,-0.4314732551574707,-1.0712544918060305,0.4552626609802246,0.20547516644001,0.0,0.0,-0.5182758569717407,-0.8637642860412598
-0.1436095237731933,0.2103722393512725,-0.4381938874721527,-1.0996928215026855,0.4681313931941986,0.2573746740818023,0.0,0.0,-0.5664152503013611,-0.8061403632164001
-0.1479019224643707,0.1851051896810531,-0.4427468180656433,-1.1276065111160278,0.4831097722053528,0.299567699432373,0.0,0.0,-0.5415239334106445,-0.7663928866386414
-0.1522354185581207,0.1592239439487457,-0.4489167630672455,-1.1558234691619873,0.5005282759666443,0.3483704328536987,0.0,0.0,-0.135710060596466,-0.5472694039344788
-0.1565761566162109,0.1327454596757888,-0.4508147835731506,-1.1830483675003052,0.5194453597068787,0.378341943025589,0.0,0.0,0.5036764144897461,-0.3292697668075561
-0.1610949486494064,0.1061376631259918,-0.4687213897705078,-1.1891160011291504,0.5386919975280762,0.3849331140518188,0.0,0.0,0.1366922855377197,0.3486901521682739
-0.165663331747055,0.0792842507362365,-0.4740618765354156,-1.2004927396774292,0.5586122274398804,0.3984045386314392,0.0,0.0,0.4311978816986084,0.6141457557678223
-0.1703452169895172,0.0522440783679485,-0.484423816204071,-1.208679437637329,0.5776143074035645,0.3800418078899383,0.0,1.0,0.9993399381637572,0.9995965957641602
-0.1697580367326736,0.0483061634004116,-0.0863200426101684,-0.2737438976764679,0.6743442416191101,1.7941157817840576,0.0,1.0,-0.6224857568740845,-0.0484107136726379
-0.1695868521928787,0.0435798987746238,-0.0409768186509609,-0.2433495223522186,0.7496200203895569,1.5050727128982544,0.0,1.0,-0.41342294216156,0.3626494407653808
-0.1690602302551269,0.0421056114137172,0.0605836920440197,-0.0651852786540985,0.7341517210006714,-0.2476867884397506,0.0,1.0,0.1874200105667114,0.847381591796875
-0.1685980856418609,0.0408167205750942,0.0653125494718551,-0.0481475405395031,0.7066875100135803,-0.5192564129829407,0.0,1.0,0.1160696744918823,0.9012017250061036
-0.1683717668056488,0.0398835986852645,0.0487105250358581,-0.0270998682826757,0.673282265663147,-0.6681110262870789,0.0,1.0,0.2338439226150512,0.82111656665802
-0.1684249937534332,0.0388550609350204,0.0223038457334041,-0.0315124578773975,0.6388049721717834,-0.6896012425422668,0.0,1.0,-0.0259715914726257,0.5879354476928711
-0.1684457808732986,0.0372949466109275,0.0269074235111475,-0.0554878897964954,0.6035773754119873,-0.7045803070068359,0.0,0.0,-0.9988797307014464,-0.6693499684333801
-0.1684902161359787,0.0351336561143398,0.0236399602144956,-0.0835831984877586,0.570242702960968,-0.6667207479476929,0.0,0.0,-0.9980162382125854,-0.4714499711990356
-0.1685132980346679,0.0324118956923484,0.0260162316262722,-0.1092711240053176,0.5373266339302063,-0.6583489775657654,0.0,0.0,-0.9970787167549132,-0.5416935682296753
-0.1685471534729004,0.0290936082601547,0.0241803377866745,-0.1369035840034485,0.5059166550636292,-0.6282245516777039,0.0,0.0,-0.994073748588562,0.1666847467422485
-0.1685585975646972,0.0252130609005689,0.0265495274215936,-0.1625915020704269,0.4748860597610473,-0.6206371188163757,0.0,0.0,-0.9837867617607116,0.3304206132888794
-0.1685477197170257,0.0207698922604322,0.0289165861904621,-0.1882800608873367,0.4442131817340851,-0.6134827136993408,0.0,0.0,-0.932597517967224,0.8188505172729492
-0.1683857887983322,0.0160347558557987,0.0500115677714347,-0.2002036720514297,0.4074731469154358,-0.7348962426185608,0.0,1.0,0.8164567947387695,0.7905701398849487
-0.1684930771589279,0.0121264550834894,0.0301292575895786,-0.1626117974519729,0.3638440668582916,-0.872678279876709,0.0,1.0,0.4916340112686157,0.6494913101196289
-0.1687746047973632,0.0087437601760029,0.016366159543395,-0.1397809535264969,0.3171150982379913,-0.9346718788146972,0.0,1.0,0.3323273658752441,0.381628155708313
-0.1691251695156097,0.00561219220981,0.0091013312339782,-0.1302240937948227,0.2715211510658264,-0.911917805671692,0.0,1.0,0.6300201416015625,0.4366548061370849
-0.1694699227809906,0.0024368499871343,0.0097185289487242,-0.1336042732000351,0.2264661639928817,-0.9011354446411132,0.0,0.0,0.405144453048706,-0.8662384152412415
-0.1700042784214019,-0.0006967926165089,-0.0107650915160775,-0.1333287358283996,0.1834076941013336,-0.861203670501709,0.0,0.0,0.3378480672836303,-0.6395745277404785
-0.1706179678440094,-0.0033367299474775,-0.0200998894870281,-0.1127857267856597,0.1420988291501999,-0.8262101411819458,0.0,0.0,0.2866754531860351,-0.5363045334815979
-0.1713314056396484,-0.0058852578513324,-0.0311468783766031,-0.109949953854084,0.1020874828100204,-0.800258457660675,0.0,0.0,0.2774884700775146,-0.3869629502296448
-0.1721792221069336,-0.0080848839133977,-0.0442035980522632,-0.095511108636856,0.0618639476597309,-0.8045024871826172,0.0,0.0,0.097157597541809,-0.3715248107910156
-0.1727775633335113,-0.0095390705391764,-0.0396305732429027,-0.0639404729008674,0.041939977556467,-0.3984237909317016,1.0,0.0,0.5100932121276855,0.7556276321411133
-0.1731534004211425,-0.0099680451676249,-0.0360507853329181,-0.0190271716564893,0.0404403954744339,-0.0299618989229202,1.0,0.0,0.9506919384002686,0.946914792060852
-0.1734205186367035,-0.009232404641807,-0.0377259515225887,0.0323528014123439,0.0513524897396564,0.2182776033878326,1.0,0.0,0.895366907119751,0.9679509401321412
-0.1736099272966385,-0.0080681825056672,-0.0331804975867271,0.0511873289942741,0.0654641911387443,0.2822664380073547,1.0,0.0,0.7234988212585449,0.9555096626281738
-0.1739253103733062,-0.0065905000083148,-0.0422026962041854,0.0651744827628135,0.0760244354605674,0.2112182378768921,1.0,0.0,0.3793535232543945,0.9978204965591432
-0.1743412017822265,-0.0050449753180146,-0.0501581951975822,0.0682299360632896,0.0845162644982338,0.1698481738567352,0.0,0.0,-0.881102979183197,0.9881234169006348
-0.1746422797441482,-0.0040587093681097,-0.0365207009017467,0.0434579029679298,0.0908702909946441,0.1270897537469864,0.0,0.0,-0.8511563539505005,0.9989094734191896
-0.1748330146074295,-0.0036463642027229,-0.0234005376696586,0.0180561318993568,0.0951784625649452,0.0861703902482986,0.0,0.0,-0.6697196364402771,0.998497724533081
-0.1749035865068435,-0.0037897729780524,-0.0090273292735219,-0.006500297691673,0.09712965041399,0.0390283614397048,0.0,0.0,-0.3800978660583496,0.9508696794509888
-0.1748666763305664,-0.0043851877562701,0.0065205944702029,-0.0262826215475797,0.0943081900477409,-0.0564509704709053,0.0,1.0,-0.5649082064628601,0.8299506902694702
-0.1747437417507171,-0.0053785350173711,0.0218639075756073,-0.0435741208493709,0.0847934484481811,-0.1903085261583328,0.0,1.0,-0.3624537587165832,0.5737892389297485
-0.1745636910200119,-0.0067788269370794,0.0337289571762084,-0.0614232495427131,0.0692213773727417,-0.3114529252052307,0.0,1.0,0.2496120929718017,0.7093744277954102
-0.1743782013654709,-0.0077366614714264,0.0381167978048324,-0.0417848117649555,0.0498602092266082,-0.3872290253639221,1.0,1.0,-0.0659680962562561,-0.7825932502746582
-0.174184039235115,-0.0088289640843868,0.029105981811881,-0.0483971983194351,0.0408871993422508,-0.1787114441394806,1.0,1.0,-0.376531720161438,-0.8017545342445374
-0.173959344625473,-0.009768595919013,0.0218090377748012,-0.0417847745120525,0.0415637157857418,0.0135715138167142,1.0,1.0,-0.480157732963562,-0.229131817817688
-0.1737105399370193,-0.0103176971897482,0.0210201330482959,-0.0245185736566782,0.0453885197639465,0.0765075981616973,1.0,1.0,-0.5118388533592224,-0.0220987796783447
-0.1734629571437835,-0.0103410510346293,0.0214583855122327,-0.0011461883550509,0.0486641824245452,0.065520629286766,1.0,1.0,-0.5523192882537842,-0.2395908236503601
-0.1732173860073089,-0.009842624887824,0.0219420976936817,0.022062798961997,0.0512497499585151,0.0517206713557243,1.0,1.0,-0.5167494416236877,0.071508765220642
-0.1728987693786621,-0.008899631910026,0.0296869240701198,0.0418474748730659,0.0533856078982353,0.0426947623491287,1.0,1.0,-0.3133444786071777,-0.1335291862487793
-0.172494500875473,-0.0076254033483564,0.0390933379530906,0.0565846562385559,0.0547046512365341,0.0263888631016016,1.0,1.0,-0.4664257764816284,-0.129508376121521
-0.172136977314949,-0.006511750165373,0.0439479127526283,0.0497718937695026,0.0466110110282897,-0.1618589907884597,1.0,1.0,-0.7267809510231018,-0.4393176436424255
-0.1717254668474197,-0.0055425427854061,0.0483378320932388,0.0432808622717857,0.0395196862518787,-0.1418149918317794,1.0,1.0,-0.6802663803100586,-0.5406087636947632
-0.1713448464870453,-0.0048357988707721,0.0433573015034198,0.0315432399511337,0.0342948921024799,-0.1044929847121238,1.0,1.0,-0.7494673728942871,-0.2759556770324707
