x_pos,y_pos,x_vel,y_vel,angle,ang_vel,leg_1,leg_2,main_booster,lat_booster
-0.0015393256908282,1.4030791521072388,-0.1561416983604431,-0.3484942317008972,0.0019908039830625,0.0392868258059024,0.0,0.0,0.145991179417978,-0.2103321645463647
-0.0030595778953284,1.3951958417892456,-0.1543782353401184,-0.350374698638916,0.0043179998174309,0.0465491041541099,0.0,0.0,-0.971125295193827,0.5929552922050342
-0.004539871122688,1.3867623805999756,-0.1491529792547226,-0.3748171627521515,0.0054302848875522,0.0222474336624145,0.0,0.0,0.2900770793971954,-0.252974505314423
-0.0061328886076807,1.3783681392669678,-0.1602004468441009,-0.3730851709842682,0.0063198441639542,0.0177930053323507,0.0,0.0,-0.3169123680755497,0.8335657297031323
-0.0076645850203931,1.3694316148757937,-0.1522720456123352,-0.3971758484840393,0.0054353908635675,-0.0176906827837228,0.0,0.0,0.8592479241160638,-0.7947231034561323
-0.0091121671721339,1.3608661890029907,-0.1460799127817154,-0.3806917071342468,0.0067374389618635,0.0260432846844196,0.0,0.0,0.2185426482052819,-0.3103329048788766
-0.0105988504365086,1.3523938655853271,-0.1501412093639373,-0.3765563368797302,0.0081944027915596,0.029142215847969,0.0,0.0,0.8601465026864863,0.8741078590517481
-0.0118574146181344,1.3444743156433103,-0.1262098252773285,-0.3519822955131531,0.0085340607911348,0.0067940084263682,0.0,0.0,-0.0988945015719389,0.585161561508251
-0.0130916591733694,1.336016058921814,-0.122864544391632,-0.3759177923202514,0.0079816477373242,-0.0110491998493671,0.0,0.0,0.5737806407042771,-0.7597567117569696
-0.0144133567810058,1.328054428100586,-0.1333838105201721,-0.3538593351840973,0.0091800279915332,0.023969892412424,0.0,0.0,0.9274193411744248,0.5716685585523134
-0.0156112667173147,1.3205897808074951,-0.1204285398125648,-0.331762820482254,0.0098098032176494,0.012596664018929,0.0,0.0,-0.9399621949161844,0.0971515048078286
-0.0168315880000591,1.31257963180542,-0.122928574681282,-0.3560113906860351,0.010693235322833,0.0176703762263059,0.0,0.0,-0.1241905071459892,0.4829756423833991
-0.018074894323945,1.3040242195129397,-0.1254872530698776,-0.3802522122859955,0.0118324998766183,0.0227875411510467,0.0,0.0,0.1253314959079081,0.9940618260143826
-0.019210148602724,1.2952792644500732,-0.1129406914114952,-0.3886604905128479,0.0112556274980306,-0.0115386079996824,0.0,0.0,-0.2004009021213293,-0.1121814103331442
-0.0203694347292184,1.2859888076782229,-0.1156040281057357,-0.4129075407981872,0.0109407203271985,-0.0062986388802528,0.0,0.0,-0.827473579664346,0.1232673300143082
-0.0215531345456838,1.2761528491973877,-0.1183206662535667,-0.4371511340141296,0.0108889266848564,-0.0010360780870541,0.0,0.0,0.1435803751494986,0.6974010539004056
-0.0226054191589355,1.2666704654693604,-0.1041667684912681,-0.4214339256286621,0.009849882684648,-0.0207830071449279,0.0,0.0,0.509873453825112,0.029515708296159
-0.0235562324523925,1.2571579217910769,-0.0949144884943962,-0.4227767884731293,0.0096892053261399,-0.0032140933908522,0.0,0.0,0.9563975047140594,0.5372138721628572
-0.0243778228759765,1.2485332489013672,-0.0815594270825386,-0.3833164274692535,0.0090968487784266,-0.0118481637910008,0.0,0.0,0.6509907331103644,-0.0501290133617393
-0.0253114700317382,1.2402100563049316,-0.0926557853817939,-0.3699122965335846,0.0083994725719094,-0.0139491511508822,0.0,0.0,-0.8448592853801133,-0.0603325246901774
-0.0262718200683593,1.2313414812088013,-0.0956019014120101,-0.3941579163074493,0.0079754274338483,-0.0084818713366985,0.0,0.0,0.2747657033038115,-0.6642950027655513
-0.0273043625056743,1.2224352359771729,-0.1044573038816452,-0.3958364725112915,0.0091620804741978,0.0237350780516862,0.0,0.0,0.8019299942901512,0.8360832234680885
-0.0281478874385356,1.213876247406006,-0.0844569057226181,-0.3804046809673309,0.0092626065015792,0.0020107640884816,0.0,0.0,-0.8248565635455682,0.3522563366903555
-0.0290192607790231,1.204771637916565,-0.0875210911035537,-0.4046541452407837,0.0096409376710653,0.0075676157139241,0.0,0.0,-0.2856073021129213,-0.7311756644713522
-0.0299902912229299,1.195122480392456,-0.0995918363332748,-0.4288630783557892,0.0120942527428269,0.0490709505975246,0.0,0.0,0.6235965324106152,-0.0218374039600764
-0.0311412811279296,1.1859419345855713,-0.1172000914812088,-0.4080471098423004,0.0141642577946186,0.0414002016186714,0.0,0.0,-0.7249387279494053,0.6815341142277189
-0.032266903668642,1.176221489906311,-0.113557755947113,-0.4320364892482757,0.0151508012786507,0.0197311900556087,0.0,0.0,0.7392022836799421,0.917732878389824
-0.033515453338623,1.1672661304473877,-0.124049425125122,-0.3980035483837127,0.0143529027700424,-0.0159582272171974,0.0,0.0,0.3750326599726186,0.3286640046447404
-0.0349111557006835,1.1587300300598145,-0.1385438144207,-0.3793710470199585,0.0133348889648914,-0.020360043272376,0.0,0.0,-0.4622419185178514,0.5344296348916714
-0.0362957939505577,1.1496474742889404,-0.136666938662529,-0.403657466173172,0.0115743475034832,-0.0352114029228687,0.0,0.0,-0.1060226460439344,0.2472561362916261
-0.0377099998295307,1.140019416809082,-0.1399372965097427,-0.4279001653194427,0.0100974962115287,-0.0295369215309619,0.0,0.0,-0.9804208874702454,0.8411818742752075
-0.0390964522957801,1.1298420429229736,-0.1359536945819854,-0.4523118734359741,0.0074484539218246,-0.0529811382293701,0.0,0.0,-0.9513089060783386,0.334283709526062
-0.0405130386352539,1.1191191673278809,-0.1392677128314972,-0.4765547513961792,0.0050842352211475,-0.0472842529416084,0.0,0.0,-0.6095487475395203,0.0721529722213745
-0.0419601425528526,1.1078510284423828,-0.1426012068986892,-0.50079745054245,0.0030053502414375,-0.0415777787566185,0.0,0.0,-0.9488850235939026,0.5895476341247559
-0.0433898940682411,1.0960391759872437,-0.1399407535791397,-0.5249732732772827,8.156920557667036e-06,-0.0599437579512596,0.0,0.0,-0.8523787260055542,0.3793501853942871
-0.0448504462838172,1.08368182182312,-0.1433087140321731,-0.5492161512374878,-0.0027029039338231,-0.0542212016880512,0.0,0.0,-0.9683305025100708,-0.7023763060569763
-0.0463999733328819,1.0707757472991943,-0.153970256447792,-0.5736055374145508,-0.0036700118798762,-0.0193423237651586,0.0,0.0,-0.9918083548545836,-0.605795681476593
-0.0480254180729389,1.0573290586471558,-0.1630003154277801,-0.5976266860961914,-0.0032218913547694,0.0089624831452965,0.0,0.0,-0.9818941950798036,0.6689603328704834
-0.0496325492858886,1.0433441400527954,-0.1601987183094024,-0.6215516924858093,-0.0037300919648259,-0.0101640252396464,0.0,0.0,-0.2310079336166381,0.0632506608963012
-0.0512710586190223,1.0288138389587402,-0.1636180579662323,-0.6457937955856323,-0.0039511322975158,-0.0044207233004271,0.0,0.0,-0.9246258735656738,0.4200837612152099
-0.0529408454895019,1.0137379169464111,-0.1670466959476471,-0.6700357794761658,-0.0038848561234772,0.0013254662044346,0.0,0.0,-0.9380847811698914,0.3913768529891968
-0.0546420104801654,0.998116672039032,-0.1704832315444946,-0.6942778825759888,-0.0035311796236783,0.0070737339556217,0.0,0.0,-0.9520661234855652,0.1044549942016601
-0.0563747398555278,0.9819499850273132,-0.173926293849945,-0.7185199856758118,-0.0028900275938212,0.0128231924027204,0.0,0.0,-0.9520272016525269,0.1021720170974731
-0.0581390373408794,0.9652379155158995,-0.1773745119571685,-0.7427619695663452,-0.001961366739124,0.018573110923171,0.0,0.0,0.2562079429626465,-0.2785300016403198
-0.0599654205143451,0.9483162760734558,-0.1837274432182312,-0.7520723938941956,-0.0008882164256647,0.0214630514383316,0.0,0.0,-0.7744361162185669,0.2482672929763794
-0.0618234649300575,0.9308491349220276,-0.1871817857027053,-0.7763146758079529,0.0004723290621768,0.0272111110389232,0.0,0.0,-0.4526312947273254,0.7334029674530029
-0.0636491775512695,0.9128326773643494,-0.1826168000698089,-0.8007328510284424,0.0005140085122548,0.0008338273619301,0.0,0.0,-0.1809620857238769,0.0367902517318725
-0.0655065551400184,0.8942708373069763,-0.1860716342926025,-0.8249750137329102,0.0008428315049968,0.0065764700993895,0.0,0.0,0.1804993152618408,0.2216248512268066
-0.0674908608198165,0.8760080337524414,-0.1986059248447418,-0.8116787672042847,0.0010199963580816,0.0035435520112514,0.0,0.0,0.0148788690567016,0.7355809211730957
-0.0694638267159462,0.8576664328575134,-0.1962778717279434,-0.8151815533638,1.2337501175352372e-05,-0.020153235644102,0.0,0.0,0.310602068901062,0.0842398405075073
-0.0713544860482215,0.8394588828086853,-0.1888758242130279,-0.8092235326766968,-0.0001826138031901,-0.0038987887091934,0.0,0.0,0.012601613998413,0.7231426239013672
-0.0732601135969162,0.8213879466056824,-0.1891739666461944,-0.803149938583374,-0.0015553792472928,-0.0274552255868911,0.0,0.0,0.3505004644393921,0.4189050197601318
-0.0751072913408279,0.803316593170166,-0.1840292811393737,-0.8031740784645081,-0.002229172270745,-0.0134760420769453,0.0,0.0,0.0136389732360839,0.7130885124206543
-0.0769259482622146,0.7854403853416443,-0.1800332367420196,-0.7945074439048767,-0.0040343478322029,-0.0361035838723182,0.0,0.0,0.4322599172592163,0.6682891845703125
-0.0785788521170616,0.7676489353179932,-0.1626820415258407,-0.7907384634017944,-0.0066152322106063,-0.0516176596283912,0.0,0.0,0.6639753580093384,0.0886015892028808
-0.0803559273481369,0.7500249147415161,-0.1749360263347625,-0.7833029627799988,-0.0093573434278368,-0.0548420324921608,0.0,0.0,-0.1263515353202819,0.5753400325775146
-0.0821113586425781,0.7318602800369263,-0.1717102974653244,-0.8073515295982361,-0.0131387142464518,-0.0756273120641708,0.0,0.0,-0.250639796257019,0.8155019283294678
-0.0838181525468826,0.7131520509719849,-0.1651204377412796,-0.8315344452857971,-0.0186307691037654,-0.1098409295082092,0.0,0.0,0.7473595142364502,0.8575453758239746
-0.0853838920593261,0.695209264755249,-0.1497302949428558,-0.7975559830665588,-0.0253920257091522,-0.1352250874042511,0.0,0.0,0.3136917352676391,-0.1435292363166809
-0.0870247855782508,0.6776608824729919,-0.1572389602661132,-0.7800624966621399,-0.0321526080369949,-0.1352113634347915,0.0,0.0,0.8893923759460449,0.5025138854980469
-0.0885806083679199,0.6601930856704712,-0.1482010036706924,-0.7765190005302429,-0.039447546005249,-0.1458989679813385,0.0,0.0,0.7527987957000732,-0.5223687887191772
-0.0902915000915527,0.6433077454566956,-0.1647137105464935,-0.75064617395401,-0.0457433722913265,-0.1259163916110992,0.0,0.0,-0.4994864463806152,0.4295604228973388
-0.0920319557189941,0.6258770823478699,-0.1679656207561493,-0.7748906016349792,-0.0517616607248783,-0.1203656792640686,0.0,0.0,0.6832926273345947,0.5116214752197266
-0.0937036499381065,0.6088325381278992,-0.1603944152593612,-0.7577839493751526,-0.0584505274891853,-0.1337774246931076,0.0,0.0,0.4057202339172363,0.4403860569000244
-0.0953777283430099,0.5917531251907349,-0.1609575450420379,-0.7593544125556946,-0.0648339092731475,-0.1276675760746002,0.0,0.0,-0.0035454630851745,0.7420036792755127
-0.0970340743660926,0.5741245150566101,-0.1582692563533783,-0.7838326692581177,-0.0721175894141197,-0.1456736624240875,0.0,0.0,0.5906522274017334,-0.6682862639427185
-0.0986892729997634,0.5571944117546082,-0.1598267704248428,-0.7527318596839905,-0.077749066054821,-0.112629547715187,0.0,0.0,0.5629608631134033,0.5692563056945801
-0.1002228707075119,0.5401110053062439,-0.1470046043395996,-0.75960373878479,-0.0840421393513679,-0.1258616000413894,0.0,0.0,0.9566969871520996,0.3728275299072265
-0.1016672104597091,0.5239896178245544,-0.1385051161050796,-0.7168527245521545,-0.0899198278784751,-0.1175536140799522,0.0,0.0,0.0789445638656616,-0.4179450869560241
-0.1031722053885459,0.5077929496765137,-0.1445461809635162,-0.7202196717262268,-0.095816746354103,-0.1179384440183639,0.0,0.0,0.7577767372131348,0.5694921016693115
-0.1046938896179199,0.4921376705169678,-0.145067423582077,-0.6962618231773376,-0.1028644442558288,-0.1409536302089691,0.0,0.0,-0.2243168950080871,0.3823719024658203
-0.1062417030334472,0.4759371876716614,-0.1479451209306717,-0.720505952835083,-0.1096522882580757,-0.135756641626358,0.0,0.0,0.7747979164123535,-0.0419778823852539
-0.107853315770626,0.4605670571327209,-0.1539435684680938,-0.683668315410614,-0.1168235018849372,-0.1434241384267807,0.0,0.0,-0.2032321691513061,0.0861392021179199
-0.1094898208975792,0.4446516036987304,-0.1566991806030273,-0.7079123854637146,-0.1237410828471183,-0.1383516192436218,0.0,0.0,0.7684311866760254,0.280569314956665
-0.1111348122358322,0.428820788860321,-0.1576326191425323,-0.7041782736778259,-0.1305755376815796,-0.1366890668869018,0.0,0.0,0.5417488813400269,-0.3791180849075317
-0.1127010360360145,0.4128834009170532,-0.1503008306026458,-0.7088959217071533,-0.1368702203035354,-0.1258938014507293,0.0,0.0,0.4696531295776367,-0.1921085715293884
-0.1142767891287803,0.3968550860881805,-0.1513732373714447,-0.7129539251327515,-0.1430529206991195,-0.1236538887023925,0.0,0.0,0.7355601787567139,0.2141659259796142
-0.1157646179199218,0.3815202713012695,-0.1427776962518692,-0.6821348071098328,-0.1490388512611389,-0.1197185665369033,0.0,0.0,-0.0365213155746459,-0.1097179651260376
-0.117273710668087,0.3656400442123413,-0.1451477706432342,-0.7063770890235901,-0.154792234301567,-0.1150678023695945,0.0,0.0,0.98848295211792,-0.7280890345573425
-0.1188516616821289,0.350726306438446,-0.1533757299184799,-0.663295328617096,-0.1592109501361847,-0.0883742421865463,0.0,0.0,0.6398142576217651,-0.0967029929161071
-0.1205239295959472,0.3357844650745392,-0.1624279618263244,-0.6646025776863098,-0.164002388715744,-0.0958288013935089,0.0,0.0,0.8973184823989868,-0.1236137747764587
-0.1220207214355468,0.321629136800766,-0.1453231871128082,-0.6296160817146301,-0.1683645546436309,-0.0872433632612228,0.0,0.0,0.0751745700836181,0.1842423677444458
-0.1235372573137283,0.3074984550476074,-0.1472095251083374,-0.6285393238067627,-0.1728235036134719,-0.0891792029142379,0.0,0.0,0.9357919692993164,-0.5494009852409363
-0.1250433921813964,0.2940267622470855,-0.1472707241773605,-0.5991376638412476,-0.1761760115623474,-0.0670500621199607,0.0,0.0,0.4881932735443115,0.4717307090759277
-0.1264651268720626,0.2809423208236694,-0.1389715075492859,-0.5819162130355835,-0.1793853491544723,-0.0641864463686943,0.0,0.0,0.1604092121124267,0.2768682241439819
-0.1277678459882736,0.267898678779602,-0.1275399774312973,-0.5800455212593079,-0.1821267753839492,-0.054828692227602,0.0,0.0,0.9083843231201172,0.6617612838745117
-0.128932386636734,0.2548641562461853,-0.1126433387398719,-0.5797870755195618,-0.1859498471021652,-0.0764615163207054,0.0,0.0,0.9578945636749268,-0.5469158291816711
-0.1299488097429275,0.2419629395008087,-0.099421851336956,-0.5736657977104187,-0.1881728321313858,-0.0444597601890563,0.0,0.0,0.999265432357788,0.051146388053894
-0.1306712180376052,0.2294841557741165,-0.0710138231515884,-0.5547671914100647,-0.1894167065620422,-0.0248775277286767,0.0,0.0,0.9983596801757812,0.2015119791030883
-0.1311473846435547,0.2171148210763931,-0.0472886562347412,-0.5497906804084778,-0.1897359192371368,-0.0063841482624411,0.0,0.0,0.9856230020523072,-0.818589448928833
-0.1315306723117828,0.2055559307336807,-0.0397680178284645,-0.5135437250137329,-0.1882910579442978,0.028897538781166,0.0,0.0,0.9940065145492554,0.0850751399993896
-0.1317119598388672,0.1947899013757705,-0.0198625978082418,-0.4782730638980865,-0.1865524351596832,0.0347723178565502,0.0,0.0,0.8362636566162109,-0.8517007827758789
-0.1316763907670974,0.1845505088567733,-0.0002665678330231,-0.4546062350273132,-0.1827076077461242,0.0768969058990478,0.0,0.0,0.9275290966033936,0.2171558141708374
-0.1314588487148285,0.1742953807115554,0.017280189320445,-0.4552393853664398,-0.1782234162092209,0.0896835848689079,0.0,0.0,0.9196000099182128,0.7143393754959106
-0.1311475783586502,0.1643687784671783,0.0281596537679433,-0.4408287107944488,-0.1752490550279617,0.059487659484148,0.0,0.0,0.8453125953674316,-0.3784136176109314
-0.1305750906467437,0.1552953273057937,0.0537749305367469,-0.4028579890727997,-0.171770378947258,0.0695734471082687,0.0,0.0,0.5744273662567139,-0.7532499432563782
-0.1299910545349121,0.1464994102716446,0.0534128472208976,-0.3903597593307495,-0.1667743921279907,0.0999196246266365,0.0,0.0,0.5025851726531982,-0.7687674164772034
-0.1294667273759842,0.1382819712162017,0.0460663214325904,-0.3645185530185699,-0.1604023277759552,0.1274416148662567,0.0,0.0,0.6674902439117432,0.154865026473999
-0.1287383139133453,0.1305414736270904,0.0660439655184745,-0.3433027565479278,-0.153601586818695,0.136014848947525,0.0,0.0,0.2395453453063964,-0.6496832370758057
-0.1280116140842437,0.1231173351407051,0.0646146386861801,-0.3291500210762024,-0.1455616950988769,0.1607977449893951,0.0,0.0,0.0101487636566162,-0.2741990089416504
-0.1272604912519455,0.1158391088247299,0.0672947391867637,-0.3227323889732361,-0.1377642452716827,0.1559489965438842,0.0,0.0,-0.0028436779975891,-0.0888658165931701
-0.126499742269516,0.1080163568258285,0.0682749599218368,-0.3469797968864441,-0.1299906075000763,0.1554729044437408,0.0,0.0,0.7822151184082031,-0.1133983135223388
-0.1257683783769607,0.1006382778286933,0.0659423023462295,-0.3273056149482727,-0.1228382661938667,0.1430469453334808,0.0,0.0,0.7829375267028809,0.2482355833053589
-0.1251163482666015,0.0935867130756378,0.058824460953474,-0.3128909766674042,-0.1164913028478622,0.1269391477108001,0.0,0.0,0.7592427730560303,0.3451664447784424
-0.1242490783333778,0.0871107205748558,0.0798780098557472,-0.287302553653717,-0.1096915826201438,0.1359944343566894,0.0,0.0,0.2682869434356689,0.5023760795593262
-0.1232452392578125,0.0804929584264755,0.094511404633522,-0.2937022447586059,-0.1038634032011032,0.1165636628866195,0.0,0.0,-0.2420864105224609,-0.3142449259757995
-0.1222245246171951,0.0733303874731063,0.0963029414415359,-0.3179480135440826,-0.0981325954198837,0.1146163567900657,0.0,0.0,0.7035021781921387,-0.3131088018417358
-0.1211304664611816,0.0668207705020904,0.1038475036621093,-0.288960337638855,-0.0926218256354332,0.1102150455117225,0.0,0.0,0.6183919906616211,-0.039545714855194
-0.1198001876473426,0.0609970912337303,0.1269404888153076,-0.2584634125232696,-0.0865884721279144,0.1206673607230186,0.0,0.0,0.5252388715744019,0.200761079788208
-0.1183325797319412,0.0554191693663597,0.140478029847145,-0.2475574314594268,-0.0803656131029129,0.1244570389389991,0.0,0.0,0.1395179033279419,-0.2899909019470215
-0.11680269241333,0.0501390807330608,0.1468794345855713,-0.2343568354845047,-0.0743139088153839,0.121034026145935,0.0,0.0,0.5287148952484131,-0.6990441679954529
-0.1151886954903602,0.0454098097980022,0.1539096534252166,-0.2098379284143448,-0.0669084265828132,0.1481098234653473,0.0,0.0,0.0740792751312255,-0.7600899934768677
-0.1135305389761924,0.0405783988535404,0.156940072774887,-0.2143582850694656,-0.0581206604838371,0.1757552623748779,0.0,0.0,0.5286781787872314,-0.7032154202461243
-0.1119934096932411,0.0360764376819133,0.143820971250534,-0.1997354924678802,-0.0483521558344364,0.1953701078891754,0.0,0.0,0.4205234050750732,0.2342188358306884
-0.110519029200077,0.0317014306783676,0.138266921043396,-0.1941754072904586,-0.0392833165824413,0.1813768595457077,0.0,0.0,0.3260908126831054,0.520230770111084
-0.1089773178100586,0.0274586770683527,0.1462885290384292,-0.1883839070796966,-0.0314901955425739,0.1558624655008316,0.0,0.0,0.5864682197570801,0.4574755430221557
-0.1073664650321006,0.0234380811452865,0.1532855182886123,-0.1785488277673721,-0.0237875841557979,0.1540522277355194,0.0,0.0,0.684463620185852,-0.7258415818214417
-0.1056300178170204,0.0194131229072809,0.1642886251211166,-0.1787673085927963,-0.014552460052073,0.1847022473812103,0.0,0.0,0.7107551097869873,-0.5274260640144348
-0.1037877053022384,0.0159067250788211,0.1737309694290161,-0.1557657867670059,-0.0041916640475392,0.2072160989046096,0.0,0.0,0.7455265522003174,-0.8402726650238037
-0.10194893181324,0.0131433345377445,0.1718755066394806,-0.1228280365467071,0.0076662893407046,0.2371588945388794,0.0,0.0,0.0253772735595703,-0.811814546585083
