x_pos,y_pos,x_vel,y_vel,angle,ang_vel,leg_1,leg_2,main_booster,lat_booster
-0.0016726494068279,1.4029303789138794,-0.1694601476192474,-0.3551017045974731,0.0019676231313496,0.0388281568884849,0.0,0.0,0.1468232775150637,-0.9117832397612402
-0.00352563848719,1.3947453498840332,-0.1891845911741256,-0.3637825846672058,0.0058051380328834,0.076758399605751,0.0,0.0,-0.3593452668224679,0.7048047106644727
-0.0054615018889307,1.3858615159988403,-0.1958476155996322,-0.3948557674884796,0.0080389911308884,0.044681392610073,0.0,0.0,0.3591960233494686,-0.511942452530775
-0.0076976777054369,1.3768965005874634,-0.2267224341630935,-0.3984633386135101,0.0111186550930142,0.0615987367928028,0.0,0.0,0.3923514284905882,-0.972796229997433
-0.0100422855466604,1.3680658340454102,-0.2397386729717254,-0.3925283253192901,0.0163361970335245,0.104360319674015,0.0,0.0,-0.3613353175145841,-0.8271452850520322
-0.0125883100554347,1.3585388660430908,-0.2612718343734741,-0.4235073924064636,0.022924130782485,0.13177090883255,0.0,0.0,0.0833292421379181,0.8913872026406853
-0.0152418138459324,1.348887920379639,-0.2703276574611664,-0.4290133118629455,0.0278508588671684,0.0985435396432876,0.0,0.0,0.3047401255642696,0.6183424020935708
-0.0178822521120309,1.3393185138702393,-0.2681683897972107,-0.4253922700881958,0.0319237820804119,0.0814660117030143,0.0,0.0,0.4286152307408084,0.9934178086364356
-0.0206314083188772,1.3301538228988647,-0.2771510481834411,-0.4073700606822967,0.0341299660503864,0.0441278740763664,0.0,0.0,0.8092340247097505,-0.5510369149259212
-0.0236038211733102,1.321488618850708,-0.300680547952652,-0.3852011561393738,0.0375412367284297,0.0682317167520523,0.0,0.0,-0.7239200723522055,-0.600472068318681
-0.026768397539854,1.3121275901794434,-0.3210565149784088,-0.4161674380302429,0.0420892722904682,0.0909688919782638,0.0,0.0,-0.4407412502172136,-0.6125637977858824
-0.0301274303346872,1.3020689487457275,-0.3416972756385803,-0.447222888469696,0.0478289164602756,0.1148032918572425,0.0,0.0,0.5673616987999885,-0.5808913322437866
-0.0335824973881244,1.2923203706741333,-0.3529298901557922,-0.4335248172283172,0.0551765598356723,0.1469666361808776,0.0,0.0,-0.2469020857141584,-0.5131736872225767
-0.0372251495718956,1.2818704843521118,-0.3727200329303741,-0.4647670388221741,0.0635493174195289,0.1674703061580658,0.0,0.0,-0.1977868939936882,0.6432014261942058
-0.0409575477242469,1.270740032196045,-0.3802326023578644,-0.4949934780597687,0.0704693719744682,0.1384138017892837,0.0,0.0,0.9310119032300676,-0.8258099125275894
-0.0447913184762001,1.2594345808029177,-0.3924498558044433,-0.5029160380363464,0.0794644653797149,0.1799182742834091,0.0,0.0,0.999122053044006,0.549081547045608
-0.0486401543021202,1.249016284942627,-0.3935274183750152,-0.4635124802589416,0.0880265533924102,0.1712578684091568,0.0,0.0,-0.3520887676771898,-0.7185202899809201
-0.0526838302612304,1.2378931045532229,-0.4142227172851562,-0.4949710965156555,0.0978126898407936,0.1957403123378753,0.0,0.0,-0.3806725684421703,-0.9030887137511852
-0.0569395050406456,1.2260773181915283,-0.4370633959770202,-0.5259384512901306,0.1092349514365196,0.2284659594297409,0.0,0.0,0.9331535509265952,-0.5544508928781681
-0.0615624412894248,1.2145329713821411,-0.4747241139411926,-0.5140349864959717,0.121601291000843,0.2473494559526443,0.0,0.0,0.8763434519858497,-0.7480224659425327
-0.0663437843322753,1.2035917043685913,-0.4925249516963959,-0.4875169694423675,0.1359517276287078,0.2870342433452606,0.0,0.0,-0.9887962241906688,0.9016586828417006
-0.0712044686079025,1.1919684410095217,-0.4987415373325348,-0.5177968740463257,0.1486041098833084,0.2530704736709595,0.0,0.0,0.3530954581101275,0.5076706171427742
-0.0761294364929199,1.1803486347198486,-0.5045386552810669,-0.5176871418952942,0.160656526684761,0.2410698384046554,0.0,0.0,-0.5075585408765515,-0.966324014073572
-0.0812711715698242,1.1680099964141846,-0.528052806854248,-0.5499367117881775,0.1745633333921432,0.2781607508659363,0.0,0.0,-0.4749233942094641,-0.7686084496824217
-0.0866385474801063,1.1549632549285889,-0.5526096820831299,-0.5818069577217102,0.1905117183923721,0.318996399641037,0.0,0.0,-0.4987322150493114,0.8713681235124418
-0.0921036750078201,1.141223669052124,-0.5611829161643982,-0.6125935912132263,0.2052733153104782,0.2952322959899902,0.0,0.0,0.0279560255611521,0.8499332570813378
-0.0977438911795616,1.1274834871292114,-0.5770881175994873,-0.6125465631484985,0.2184655964374542,0.2638457417488098,0.0,0.0,-0.8151910406276646,-0.6287862104306796
-0.1035943031311035,1.1130387783050537,-0.5997366905212402,-0.6442278027534485,0.2333366274833679,0.2974207401275635,0.0,0.0,-0.3980532342421223,-0.6134638703706852
-0.1096531897783279,1.0978882312774658,-0.6221311092376709,-0.6760218143463135,0.24985171854496,0.3303021192550659,0.0,0.0,-0.7395874297735476,-0.5984623137550369
-0.1159090995788574,1.082027554512024,-0.6431246995925903,-0.7080077528953552,0.2677629888057709,0.3582246601581573,0.0,0.0,-0.7818732041415031,-0.9912258598224202
-0.1223897933959961,1.0654585361480713,-0.6675528883934021,-0.7400897741317749,0.2877513170242309,0.3997663557529449,0.0,0.0,-0.7879900932312012,0.9766738414764404
-0.1289547979831695,1.0482237339019775,-0.674332320690155,-0.7696190476417542,0.3061595857143402,0.3681654930114746,0.0,0.0,-0.8233386278152466,0.9819557666778564
-0.1356071531772613,1.030338168144226,-0.6814361810684204,-0.7984163761138916,0.3229740560054779,0.3362893760204315,0.0,0.0,-0.7955985069274902,0.9802184104919434
-0.1423406600952148,1.011786699295044,-0.6878919005393982,-0.8278248906135559,0.3381497263908386,0.303513616323471,0.0,0.0,-0.6997365951538086,0.8220760822296143
-0.1491597145795822,0.9925791621208192,-0.6948667168617249,-0.8567691445350647,0.3517359793186188,0.2717258036136627,0.0,0.0,-0.8249985575675964,0.9501729011535645
-0.1560555398464203,0.9727265238761902,-0.70069420337677,-0.8851054906845093,0.3634460866451263,0.2342020720243454,0.0,0.0,-0.8488630652427673,0.8246440887451172
-0.1630389243364334,0.9522108435630798,-0.7080062031745911,-0.914287805557251,0.3736797869205475,0.2046739161014557,0.0,0.0,-0.6044573783874512,0.9561772346496582
-0.1700955331325531,0.9310536980628968,-0.7134500741958618,-0.9423859119415284,0.381950318813324,0.1654103547334671,0.0,0.0,-0.5269961953163147,0.967986822128296
-0.1772340834140777,0.9092531204223632,-0.7199729681015015,-0.9705665111541748,0.3884803354740143,0.1306001245975494,0.0,0.0,-0.5153002142906189,0.9749610424041748
-0.184442713856697,0.8868064284324646,-0.7251388430595398,-0.9988105297088624,0.3930396437644958,0.0911864191293716,0.0,0.0,-0.4281944036483764,0.9792356491088868
-0.1917383223772049,0.8637101054191589,-0.7323906421661377,-1.0272822380065918,0.3960613310337066,0.0604336038231849,0.0,0.0,-0.2556430101394653,0.9951014518737792
-0.1990888565778732,0.8399729132652283,-0.7356845140457153,-1.0551639795303345,0.3967442512512207,0.0136585133150219,0.0,0.0,0.3581163883209228,0.96587872505188
-0.2065224200487136,0.8159865140914917,-0.7423141002655029,-1.0657707452774048,0.3956277370452881,-0.0223304349929094,0.0,0.0,0.2631953954696655,0.9953547716140748
-0.2140973061323166,0.7919608950614929,-0.7546630501747131,-1.0670242309570312,0.3926041722297668,-0.0604710988700389,0.0,0.0,0.4377796649932861,0.9416909217834472
-0.2218752801418304,0.7676061987876892,-0.7732530236244202,-1.0811855792999268,0.3877524733543396,-0.097034066915512,0.0,0.0,0.6001417636871338,0.7370312213897705
-0.2298125326633453,0.7430614829063416,-0.7879638671875,-1.0893197059631348,0.3816133439540863,-0.1227823123335838,0.0,0.0,0.7919933795928955,0.7085015773773193
-0.2379474639892578,0.718566358089447,-0.8066166043281555,-1.0868546962738037,0.3743102848529815,-0.1460610181093216,0.0,0.0,0.8898578882217407,0.3824207782745361
-0.2466856986284256,0.6946395039558411,-0.8664884567260742,-1.0615179538726809,0.3665455281734466,-0.1552949547767639,0.0,0.0,0.8163883686065674,-0.2163724303245544
-0.2560039162635803,0.6711550951004028,-0.9239533543586732,-1.0417678356170654,0.3582382798194885,-0.1661447435617447,0.0,0.0,0.5754786729812622,-0.4986236095428467
-0.2656426429748535,0.6476486325263977,-0.956016719341278,-1.0427929162979126,0.3499690592288971,-0.165384441614151,0.0,0.0,0.6617743968963623,-0.8155397176742554
-0.2755181789398193,0.6243075728416443,-0.981651484966278,-1.0359572172164917,0.3437716364860534,-0.1239487379789352,0.0,0.0,0.5317614078521729,-0.9031107425689696
-0.2858762741088867,0.6011771559715271,-1.031714677810669,-1.0270426273345947,0.3394760191440582,-0.0859115347266197,0.0,0.0,0.2627828121185303,-0.958469569683075
-0.2964509427547455,0.5778399705886841,-1.0553942918777466,-1.0367226600646973,0.3373064398765564,-0.0433923676609993,0.0,0.0,0.0605421066284179,-0.9572491645812988
-0.3073886930942535,0.554506242275238,-1.093681812286377,-1.0370358228683472,0.3372105956077575,-0.0019170294981449,0.0,0.0,-0.3929449319839477,-0.8823032975196838
-0.3184952735900879,0.5304499268531799,-1.1119855642318726,-1.0694836378097534,0.3386013805866241,0.0278159026056528,0.0,0.0,-0.2325450778007507,-0.9389498233795166
-0.3297991752624511,0.5056535005569458,-1.1339666843414309,-1.1029059886932373,0.3423457741737366,0.0748881250619888,0.0,0.0,-0.6059287190437317,-0.9155104160308838
-0.3412770330905914,0.4801411032676697,-1.152968168258667,-1.1351253986358645,0.347782701253891,0.1087387576699256,0.0,0.0,-0.7698818445205688,-0.8960723876953125
-0.3529184758663177,0.4539113044738769,-1.170771837234497,-1.16738760471344,0.3547488749027252,0.1393230855464935,0.0,0.0,-0.9526082277297974,-0.7431312203407288
-0.3647182583808899,0.4269691407680511,-1.1879472732543943,-1.1994227170944214,0.3631568253040313,0.1681587994098663,0.0,0.0,-0.9509021043777466,-0.7501714825630188
-0.3766865730285644,0.3993051946163177,-1.2065285444259644,-1.2319976091384888,0.3734057247638702,0.2049779593944549,0.0,0.0,-0.9813424348831176,-0.5293551087379456
-0.3887906074523926,0.3709240555763244,-1.2210972309112549,-1.2642196416854858,0.3847666978836059,0.2272195518016815,0.0,0.0,-0.989002764225006,0.0940766334533691
-0.4009920656681061,0.3418509066104889,-1.230893850326538,-1.295082449913025,0.396233856678009,0.2293430864810943,0.0,0.0,-0.9819527864456176,0.1061853170394897
-0.4132868349552154,0.312085896730423,-1.2402675151824951,-1.3259453773498535,0.4078038334846496,0.2313998192548751,0.0,0.0,-0.9845862984657288,0.3324116468429565
-0.4256704747676849,0.2816289663314819,-1.2491960525512695,-1.3568084239959717,0.4194731712341308,0.2333866655826568,0.0,0.0,-0.9885076880455016,0.5806810855865479
-0.4380950331687927,0.2505041062831878,-1.252200484275818,-1.386258602142334,0.4300228953361511,0.2109945267438888,0.0,0.0,-0.9734719395637512,0.6514256000518799
-0.4505622386932373,0.2187125533819198,-1.2555068731307983,-1.4156748056411743,0.4395875632762909,0.1912936419248581,0.0,0.0,-0.9716282486915588,0.3629430532455444
-0.4631036221981048,0.1862285733222961,-1.262969970703125,-1.4465346336364746,0.4492403268814087,0.1930553913116455,0.0,1.0,-0.9305562376976012,0.9998798370361328
-0.4651076197624206,0.1821034699678421,-0.3657176494598388,-0.2646523714065552,0.5598101615905762,2.089290142059326,0.0,1.0,-0.9909717440605164,-0.9860023856163024
-0.4675445556640625,0.1774259954690933,-0.3206667900085449,-0.2433314770460128,0.6519467234611511,1.842433214187622,0.0,1.0,-0.955808162689209,-0.9525949358940125
-0.4691050946712494,0.1769780963659286,-0.1450061351060867,-0.0313743539154529,0.6249727010726929,-0.3002350628376007,0.0,1.0,-0.9971128702163696,-0.7567852139472961
-0.4705343842506408,0.1764547377824783,-0.1207683086395263,-0.0255183484405279,0.587956964969635,-0.5601913332939148,0.0,1.0,-0.9968355894088744,-0.8422776460647583
-0.4718868136405945,0.1756763309240341,-0.1042002215981483,-0.0291570257395505,0.5452815890312195,-0.7422698736190796,0.0,1.0,-0.9958618879318236,-0.8387548923492432
-0.4732400774955749,0.1744138300418853,-0.0982999056577682,-0.045789148658514,0.5000383257865906,-0.849609375,0.0,1.0,-0.9948503971099854,-0.764619767665863
-0.4746022820472717,0.1725468784570694,-0.0967002362012863,-0.0703611075878143,0.4548515379428863,-0.8887468576431274,0.0,1.0,-0.9391361474990844,-0.7936913967132568
-0.4760063588619232,0.1700191646814346,-0.1004384905099868,-0.0999786630272865,0.4112660586833954,-0.8718162775039673,0.0,1.0,-0.980029284954071,-0.4750889539718628
-0.4774099290370941,0.1668382734060287,-0.098616175353527,-0.1299385130405426,0.3666770160198211,-0.8918308019638062,0.0,1.0,-0.9491820931434632,-0.8019497990608215
-0.4788634181022644,0.1630011349916458,-0.1033559590578079,-0.1604615151882171,0.3225908875465393,-0.881756603717804,0.0,1.0,-0.9049778580665588,-0.585685670375824
-0.4803486764431,0.1585870832204818,-0.1043388471007347,-0.1870467364788055,0.2768990397453308,-0.913866639137268,0.0,1.0,-0.557282030582428,-0.5098589062690735
-0.481853574514389,0.1536495238542556,-0.1024491637945175,-0.2111538499593734,0.2278876602649688,-0.980259895324707,0.0,1.0,-0.8202274441719055,-0.9329071044921876
-0.4834286272525787,0.1482128649950027,-0.1058141365647316,-0.234544038772583,0.1757688820362091,-1.0424113273620603,0.0,1.0,-0.8567262887954712,-0.9396138191223145
-0.4850770533084869,0.1422830373048782,-0.1089704856276512,-0.2579552829265594,0.1199589669704437,-1.11624276638031,0.0,1.0,-0.9109962582588196,-0.93008553981781
-0.4867843985557556,0.1358827203512191,-0.110395573079586,-0.2807761430740356,0.060093730688095,-1.1973645687103271,0.0,1.0,-0.8745359182357788,-0.882900059223175
-0.4884183406829834,0.1302225440740585,-0.0568656921386718,-0.2257278561592102,-0.0218988880515098,-1.7740662097930908,0.0,1.0,-0.8745359182357788,-0.882900059223175
