x_pos,y_pos,x_vel,y_vel,angle,ang_vel,leg_1,leg_2,main_booster,lat_booster
-0.0015607833629474,1.4035000801086426,-0.1584945917129516,-0.3297769725322723,0.0021574043203145,0.0425867065787315,0.0,0.0,0.7015151390809691,-0.7538868623453411
-0.0031608580611646,1.3966879844665527,-0.1641406118869781,-0.3027704656124115,0.0062411073595285,0.0816824212670326,0.0,0.0,-0.8824060266988472,-0.841111180613831
-0.0048499107360839,1.3897446393966677,-0.1747094690799713,-0.3086255490779876,0.0119794169440865,0.1147768273949623,0.0,0.0,-0.7933384866070974,0.8203651449184886
-0.0065247537568211,1.3826757669448853,-0.1723273545503616,-0.3142219483852386,0.0167759396135807,0.0959391593933105,0.0,0.0,-0.6721599211284146,-0.682888072889765
-0.0082792285829782,1.3754839897155762,-0.1817404478788375,-0.3197145462036133,0.0229976829141378,0.1244463175535202,0.0,0.0,0.7031821239008134,-0.5923602785418223
-0.009978580288589,1.3690110445022583,-0.1781969964504242,-0.2878288626670837,0.0311632677912712,0.1633269190788269,0.0,0.0,-0.3994890572285148,-0.9509249519288344
-0.0117932315915822,1.362411379814148,-0.1920530050992965,-0.2935696542263031,0.0416438840329647,0.2096314877271652,0.0,0.0,0.7042914550351571,0.7565940881183364
-0.0134449955075979,1.3567057847976685,-0.1749884486198425,-0.2538835704326629,0.0513507090508937,0.1941543817520141,0.0,0.0,0.678262191842401,-0.7738935341902952
-0.0152526851743459,1.3521535396575928,-0.1924532502889633,-0.2027641981840133,0.062925286591053,0.2315128147602081,0.0,0.0,0.2960770054936459,0.5154312964123857
-0.0170941352844238,1.3483387231826782,-0.1951543688774109,-0.1700411736965179,0.0738368853926658,0.2182522565126419,0.0,0.0,0.0841488183428507,0.6941765024410759
-0.0188832283020019,1.344998836517334,-0.1889581233263015,-0.148972600698471,0.0838053524494171,0.199387326836586,0.0,0.0,-0.2337511289502203,0.8312114947154602
-0.02063674852252,1.341543197631836,-0.1839086413383484,-0.154074341058731,0.0922927483916282,0.169763445854187,0.0,0.0,0.9442672698167512,0.9024425725797692
-0.0222650524228811,1.339232087135315,-0.1702747493982315,-0.1031946837902069,0.0996853336691856,0.1478651762008667,0.0,0.0,0.3914165363951494,-0.8206356382036397
-0.0239591598510742,1.3372366428375244,-0.178935706615448,-0.0893454849720001,0.1091613546013832,0.1895374804735183,0.0,0.0,-0.9873665000966794,0.6529717946584974
-0.0256278999149799,1.335135579109192,-0.175150528550148,-0.0940042585134506,0.1173909455537796,0.1646067053079605,0.0,0.0,0.3317785989702944,-0.959515800199962
-0.0273349769413471,1.333262324333191,-0.181310772895813,-0.0841212645173072,0.1279648095369339,0.21149642765522,0.0,0.0,-0.6224302514339095,0.9504921051578537
-0.0289888381958007,1.3312950134277344,-0.1740139722824096,-0.0881928652524948,0.1365629583597183,0.1719784140586853,0.0,0.0,0.2577971942188075,0.9859179714957784
-0.0305152889341115,1.3296623229980469,-0.1596887111663818,-0.0732249468564987,0.1436007916927337,0.1407696157693863,0.0,0.0,0.93085748004062,-0.6856468250787056
-0.0321461670100688,1.3293204307556152,-0.1721621006727218,-0.0160906948149204,0.1526704132556915,0.1814086735248565,0.0,0.0,0.5439007604818031,0.8871419077349882
-0.0339089408516883,1.3296359777450562,-0.183813601732254,0.0132356584072113,0.1602050215005874,0.1507058441638946,0.0,0.0,0.732354174682369,0.7330061779297605
-0.0356337539851665,1.331049919128418,-0.1791945993900299,0.0621113404631614,0.1669376790523529,0.1346653252840042,0.0,0.0,0.7472944576192373,0.6323342168886144
-0.0374100692570209,1.3330451250076294,-0.183472603559494,0.0880139619112014,0.172789454460144,0.1170458197593689,0.0,0.0,-0.7360993479501614,-0.5995465798811681
-0.0392595306038856,1.3349069356918335,-0.1920570731163025,0.0819055512547493,0.1799316108226776,0.142856016755104,0.0,0.0,-0.0132586844334847,0.6404346976845108
-0.0410890579223632,1.3366539478302002,-0.1889780312776565,0.0769047513604164,0.1859894394874572,0.1211674064397811,0.0,0.0,0.4259745438563238,0.968424276990814
-0.043121051043272,1.3390815258026123,-0.2075066566467285,0.1073444783687591,0.1903349161148071,0.086916945874691,0.0,0.0,0.9697520815184396,0.8237029137108348
-0.0454677566885948,1.3425699472427368,-0.2372817695140838,0.154706060886383,0.1929595619440078,0.052492719143629,0.0,0.0,-0.8620065474853846,-0.6498763565738601
-0.0479008667171001,1.3459244966506958,-0.2475326806306839,0.1485325396060943,0.1972135156393051,0.0850791335105896,0.0,0.0,-0.6648452521147528,-0.902407573176672
-0.0504558570683002,1.3491395711898804,-0.2622305452823639,0.1419846415519714,0.203998327255249,0.1356961280107498,0.0,0.0,0.6449687965613442,-0.5593544833927877
-0.0533828735351562,1.353313684463501,-0.3005137145519256,0.184416189789772,0.2118735313415527,0.1575042605400085,0.0,0.0,-0.0294414114393533,-0.9685268595879272
-0.0564219467341899,1.3573369979858398,-0.3140184581279754,0.1773264706134796,0.2220899313688278,0.2043277472257614,0.0,0.0,-0.5884878908778206,-0.5702308242462251
-0.0595396980643272,1.3612301349639893,-0.3232550323009491,0.1712604612112045,0.2337308675050735,0.2328188717365265,0.0,0.0,-0.993447721004486,0.9622676372528076
-0.062626838684082,1.3650190830230713,-0.3188251852989197,0.1667611598968505,0.243997573852539,0.2053342312574386,0.0,0.0,-0.9482141137123108,0.7380741834640503
-0.0657007247209549,1.368710994720459,-0.3165127635002136,0.162539854645729,0.2532775402069092,0.1855993419885635,0.0,0.0,-0.9745134115219116,0.6893575191497803
-0.0687606781721115,1.3722926378250122,-0.3141554892063141,0.1577552855014801,0.2616156935691833,0.1667638123035431,0.0,0.0,-0.9751320481300354,0.8321690559387207
-0.0717893615365028,1.375779628753662,-0.3096126914024353,0.1537571847438812,0.2685146033763885,0.137979045510292,0.0,0.0,-0.9469797611236572,0.7774679660797119
-0.0747913345694542,1.3791745901107788,-0.3056226074695587,0.149879589676857,0.2740703821182251,0.1111153736710548,0.0,0.0,-0.9784145355224608,0.5665854215621948
-0.0777843445539474,1.3824611902236938,-0.3039131760597229,0.145193412899971,0.2788072526454925,0.0947374105453491,0.0,0.0,-0.9771455526351928,0.8568199872970581
-0.080741599202156,1.3856604099273682,-0.298798143863678,0.1416033655405044,0.2819584608078003,0.0630239620804786,0.0,0.0,-0.9551963210105896,0.7989548444747925
-0.083675667643547,1.3887693881988523,-0.2952368557453155,0.1378271877765655,0.2838453948497772,0.0377378091216087,0.0,0.0,-0.99287211894989,0.1832175254821777
-0.0866405516862869,1.391755223274231,-0.2985672950744629,0.1322963982820511,0.285982608795166,0.0427445136010646,0.0,0.0,-0.9965859055519104,0.2461750507354736
-0.0896356552839279,1.394617795944214,-0.301820695400238,0.1267657130956649,0.2883602082729339,0.0475521720945835,0.0,0.0,-0.9906513690948486,0.6372261047363281
-0.0926019698381424,1.397381067276001,-0.2976498007774353,0.1226199865341186,0.2894095182418823,0.0209863204509019,0.0,0.0,-0.9973126649856568,0.7330713272094727
-0.0955310836434364,1.400042176246643,-0.292469322681427,0.1183538436889648,0.2889561653137207,-0.0090672820806503,0.0,0.0,-0.998254418373108,0.830787181854248
-0.0984145179390907,1.4026106595993042,-0.2862019836902618,0.1145783215761184,0.2867456376552582,-0.0442104116082191,0.0,0.0,-0.9988813996315002,0.3698831796646118
-0.101324938237667,1.4050556421279907,-0.2890767455101013,0.1090486869215965,0.2847297489643097,-0.0403176546096801,0.0,0.0,-0.9996331334114076,-0.1493765711784362
-0.104261115193367,1.407377004623413,-0.2918372750282287,0.1035194396972656,0.2828955352306366,-0.0366842523217201,0.0,0.0,-0.999776005744934,-0.229042649269104
-0.1072220802307128,1.4095747470855713,-0.2944749593734741,0.0979906022548675,0.2812294065952301,-0.0333226546645164,0.0,0.0,-0.9996309876441956,0.0310515165328979
-0.1102066040039062,1.4116487503051758,-0.2969809770584106,0.0924621596932411,0.2797171473503113,-0.0302451848983764,0.0,0.0,-0.9993177652359008,0.2980756759643554
-0.1132134422659874,1.413599133491516,-0.2993463277816772,0.0869341194629669,0.2783439457416534,-0.0274639334529638,0.0,0.0,-0.994985282421112,0.6173639297485352
-0.1161957755684852,1.4154433012008667,-0.2958393692970276,0.082414373755455,0.2758879065513611,-0.0491204969584941,0.0,0.0,-0.9670955538749696,0.349088191986084
-0.1191976517438888,1.4171634912490845,-0.2978957891464233,0.0768867954611778,0.2735396325588226,-0.0469660237431526,0.0,0.0,-0.9977019429206848,0.0412230491638183
-0.122217558324337,1.4187599420547483,-0.299784243106842,0.0713596567511558,0.2712825834751129,-0.0451410263776779,0.0,0.0,-0.9998780488967896,0.567173957824707
-0.1252024620771408,1.4202505350112915,-0.295025885105133,0.0668869838118553,0.2677448391914367,-0.0707548409700393,0.0,0.0,-0.7915915250778198,0.3399078845977783
-0.1282019615173339,1.4216171503067017,-0.2965521812438965,0.0613600872457027,0.2642639875411987,-0.0696168467402458,0.0,0.0,-0.9986826181411744,0.7711559534072876
-0.131140798330307,1.422886848449707,-0.2886106371879577,0.0573730617761611,0.2588774561882019,-0.1077307015657424,0.0,0.0,-0.9993971586227416,-0.4457394480705261
-0.1340908110141754,1.4240328073501587,-0.2897433638572693,0.0518456362187862,0.2535119652748108,-0.1073101013898849,0.0,0.0,-0.9999125003814696,-0.07583749294281
-0.1370501518249511,1.4250547885894775,-0.2906696200370788,0.0463186278939247,0.2481491416692733,-0.1072567105293273,0.0,0.0,-0.9998614192008972,0.2358670234680175
-0.1400168389081955,1.425952672958374,-0.2913841009140014,0.040791992098093,0.2427704185247421,-0.1075742989778518,0.0,0.0,-0.9983203411102296,0.2552061080932617
-0.1429889649152755,1.4267265796661377,-0.291882574558258,0.0352657102048397,0.2373571693897247,-0.1082651391625404,0.0,0.0,-0.9995166063308716,-0.0035037398338317
-0.145964428782463,1.4273765087127686,-0.2921619415283203,0.0297397561371326,0.2318906784057617,-0.109329953789711,0.0,0.0,-0.9809237122535706,0.4512947797775268
-0.1489413231611251,1.4279022216796875,-0.2922205030918121,0.0242140833288431,0.2263522893190384,-0.1107678636908531,0.0,0.0,-0.9999417066574096,-0.0762010216712951
-0.1519174575805664,0.0,-0.2920577228069305,0.0186886601150035,0.2207234799861908,-0.1125764027237892,0.0,0.0,-0.9963921308517456,0.5054347515106201
-0.1548438072204589,0.0,-0.2857526838779449,0.013991130515933,0.2137602865695953,-0.1392639130353927,0.0,0.0,-0.9999438524246216,0.000771164894104
-0.157765582203865,1.4287636280059814,-0.285150796175003,0.0084647973999381,0.206670269370079,-0.1418000608682632,0.0,0.0,-0.999836564064026,0.2093337774276733
-0.1606806814670562,1.4288076162338257,-0.2843340635299682,0.0029385446105152,0.1994357407093048,-0.1446904838085174,0.0,0.0,-0.9994743466377258,0.5669668912887573
-0.1635525673627853,1.4287384748458862,-0.2789262235164642,-0.0019827540963888,0.1911341547966003,-0.1660317182540893,0.0,0.0,-0.9432647228240968,-0.5374090075492859
-0.1664548814296722,1.4285399913787842,-0.2828264534473419,-0.0078885275870561,0.1836900264024734,-0.1488824784755706,0.0,0.0,-0.9999253153800964,0.1758167743682861
-0.1693450957536697,1.4282174110412598,-0.2813970148563385,-0.0134147210046648,0.176050916314125,-0.1527820527553558,0.0,0.0,-0.9963228106498718,0.1857399940490722
-0.1722211837768554,1.427770733833313,-0.2797770202159881,-0.0189410559833049,0.1682011038064956,-0.1569965779781341,0.0,0.0,-0.9985229969024658,0.5944674015045166
-0.1750423461198806,1.4272077083587646,-0.2730347216129303,-0.0240252837538719,0.1591221392154693,-0.1815793365240097,0.0,0.0,-0.9991466403007508,0.2313742637634277
-0.177846148610115,1.4265209436416626,-0.2710579633712768,-0.0295535214245319,0.1498027890920639,-0.1863868683576584,0.0,0.0,-0.9878132939338684,0.0247062444686889
-0.1806312501430511,1.4257105588912964,-0.2689161896705627,-0.0350821502506732,0.140229195356369,-0.1914716213941574,0.0,0.0,-0.9997387528419496,0.0952000617980957
-0.1833962500095367,1.424776554107666,-0.2666184604167938,-0.0406112298369407,0.1303882002830505,-0.1968203037977218,0.0,0.0,-0.9698886871337892,-0.4407370090484619
-0.186139777302742,1.42371928691864,-0.2641740143299103,-0.0461408384144306,0.1202672272920608,-0.2024194896221161,0.0,0.0,-0.6289481520652771,0.2457150220870971
-0.1888605058193206,1.4225385189056396,-0.2615919709205627,-0.0516710355877876,0.109854444861412,-0.2082556933164596,0.0,0.0,-0.9933860898017884,-0.2975920438766479
-0.1915573179721832,1.4212344884872437,-0.2588813602924347,-0.0572018958628177,0.0991386845707893,-0.2143155336380005,0.0,0.0,-0.9078927040100098,-0.4584724307060241
-0.1942290365695953,1.4198074340820312,-0.2560509443283081,-0.0627334788441658,0.0881093889474868,-0.2205857932567596,0.0,0.0,-0.9866958856582642,-0.2107309699058532
-0.1968747079372406,1.4182571172714231,-0.2531093060970306,-0.068265862762928,0.0767566934227943,-0.2270536422729492,0.0,0.0,-0.9152200818061828,-0.4921578168869018
-0.199493408203125,1.4165841341018677,-0.2500645816326141,-0.0737991034984588,0.0650713667273521,-0.2337066680192947,0.0,0.0,-0.9213709235191344,-0.0929093360900878
-0.2020843476057052,1.4147882461547852,-0.2469245493412017,-0.0793332681059837,0.0530447401106357,-0.2405326813459396,0.0,0.0,-0.9292832612991332,0.709559440612793
-0.2046022415161132,1.412866234779358,-0.2381466329097747,-0.0849978402256965,0.0395614579319953,-0.2696656584739685,0.0,0.0,-0.9754117727279664,-0.7677356004714966
-0.2071475982666015,1.410825490951538,-0.2419623434543609,-0.0904197394847869,0.0271452702581882,-0.248323917388916,0.0,0.0,-0.9765927195549012,-0.8900099396705627
-0.2097450792789459,1.408658504486084,-0.2488994151353836,-0.0961465984582901,0.0164331551641225,-0.2142424583435058,0.0,0.0,-0.9797347784042358,-0.2138137817382812
-0.212311789393425,1.406368851661682,-0.2454481124877929,-0.1016803160309791,0.0053505934774875,-0.2216511666774749,0.0,0.0,-0.9968922138214112,-0.1819397211074829
-0.2148472368717193,1.4039567708969116,-0.241934135556221,-0.1072150543332099,-0.006108425091952,-0.229180246591568,0.0,0.0,-0.9794724583625792,-0.1742861866950988
-0.2173507660627365,1.4014220237731934,-0.2383627593517303,-0.1127508655190467,-0.0179494600743055,-0.2368206530809402,0.0,0.0,-0.9929196834564208,-0.7169649004936218
-0.219876617193222,1.398759126663208,-0.2415850162506103,-0.1185200065374374,-0.0288084223866462,-0.2171794474124908,0.0,0.0,-0.9942951202392578,-0.6431493759155273
-0.2224127799272537,1.395970582962036,-0.2433221340179443,-0.1241610795259475,-0.0389777459204196,-0.2033861577510833,0.0,0.0,-0.9984514117240906,0.1559069156646728
-0.2249157875776291,1.3930597305297852,-0.2396061867475509,-0.1296956539154052,-0.0495434291660785,-0.2113139182329177,0.0,0.0,-0.0744040608406066,0.0338809490203857
-0.2273851931095123,1.3900260925292969,-0.2358501404523849,-0.1352312564849853,-0.0605095699429512,-0.2193227559328079,0.0,0.0,-0.983326017856598,-0.8326924443244934
-0.2298868149518966,1.3868820667266846,-0.2403640002012252,-0.1401625573635101,-0.0702055841684341,-0.1939201056957245,0.0,0.0,-0.9991177916526794,0.04541015625
-0.2323543131351471,1.383615493774414,-0.2365377247333526,-0.1456974297761917,-0.0803092271089553,-0.2020730674266815,0.0,0.0,-0.9905821681022644,-0.2270576357841491
-0.2347873151302337,1.3802263736724854,-0.2326809912919998,-0.1512333303689956,-0.0908236801624298,-0.2102893143892288,0.0,0.0,-0.9960514903068542,-0.4086191654205322
-0.2371854782104492,1.3767149448394775,-0.228796511888504,-0.1567702889442443,-0.1017518639564514,-0.2185637056827545,0.0,0.0,-0.9507791996002196,-0.5070140361785889
-0.2395920753479004,1.3730864524841309,-0.2303421944379806,-0.1620018780231475,-0.1119978204369545,-0.2049189060926437,0.0,0.0,-0.9658455848693848,-0.4424858689308166
-0.2419634759426117,1.3693357706069946,-0.22640922665596,-0.1675391793251037,-0.1226626336574554,-0.2132962197065353,0.0,0.0,-0.9754917621612548,-0.6058464050292969
-0.2443488538265228,1.3654718399047852,-0.2286591976881027,-0.17257721722126,-0.1324923187494278,-0.1965938955545425,0.0,0.0,-0.9901750683784484,-0.3746955394744873
-0.246698573231697,1.3614856004714966,-0.2246858328580856,-0.178114578127861,-0.1427452117204666,-0.2050577849149704,0.0,0.0,-0.9362592697143556,-0.4927166700363159
-0.2490125596523285,1.357377290725708,-0.2206951677799224,-0.1836529672145843,-0.1534231752157211,-0.2135593593120575,0.0,0.0,-0.7357606291770935,-0.4194767475128174
-0.2512905597686767,1.353147268295288,-0.2166887521743774,-0.1891924887895584,-0.1645279377698898,-0.2220952957868576,0.0,0.0,-0.9281257390975952,-0.8210884928703308
-0.2536045014858246,1.348819136619568,-0.2217534780502319,-0.1934620887041092,-0.174187421798706,-0.1931896954774856,0.0,0.0,-0.7951658368110657,-0.2951900959014892
-0.2558823227882385,1.3443689346313477,-0.2177191972732544,-0.1990006417036056,-0.1842767298221588,-0.2017864435911178,0.0,0.0,-0.6460142135620117,-0.4315649271011352
-0.2581237852573395,1.339797019958496,-0.2136732786893844,-0.2045402526855468,-0.1947971731424331,-0.2104092091321945,0.0,0.0,-0.7584479451179504,-0.2339987158775329
-0.2603287100791931,1.3351032733917236,-0.2096168547868728,-0.2100809663534164,-0.2057499587535858,-0.2190555781126022,0.0,0.0,-0.6004213690757751,-0.7749519348144531
-0.2625457346439361,1.3303078413009644,-0.2116981744766235,-0.2145595550537109,-0.2158488631248474,-0.2019782364368438,0.0,0.0,-0.9209736585617064,-0.8118200302124023
-0.2647833824157715,1.3254019021987915,-0.2147977352142334,-0.2193743735551834,-0.2249200642108917,-0.1814241558313369,0.0,0.0,-0.7174702286720276,-0.7925597429275513
-0.2670296728610992,1.3203959465026855,-0.2164488136768341,-0.2237584739923477,-0.2332095801830291,-0.1657906174659729,0.0,0.0,-0.0928198099136352,-0.0202565193176269
-0.2692391872406006,1.3152680397033691,-0.2123580873012542,-0.2292971312999725,-0.2419351935386657,-0.1745121777057647,0.0,0.0,-0.2512773275375366,-0.3701745271682739
-0.2714118361473083,1.3100181818008425,-0.2082613408565521,-0.2348367124795913,-0.2510975897312164,-0.1832477748394012,0.0,0.0,-0.3474123477935791,-0.3872987031936645
-0.273547500371933,1.304646611213684,-0.2041593343019485,-0.2403772324323654,-0.2606973648071289,-0.1919956654310226,0.0,0.0,-0.4468098878860473,-0.2168836593627929
-0.2756461203098297,1.299153447151184,-0.2000527828931808,-0.245918795466423,-0.2707350850105285,-0.200754314661026,0.0,0.0,-0.5677402019500732,-0.5981525778770447
-0.2777475416660309,1.2935608625411987,-0.2009978741407394,,-0.2801164388656616,-0.1876273453235626,0.0,0.0,-0.3607516288757324,-0.5630573034286499
-0.2798493802547455,1.2878600358963013,-0.2015913277864456,-0.2550519704818725,-0.2889499068260193,-0.1766686737537384,0.0,0.0,-0.6542789936065674,-0.5263702273368835
-0.2819616794586181,1.2820594310760498,-0.203487366437912,-0.2593598663806915,-0.2969352602958679,-0.1597073376178741,0.0,0.0,-0.439500093460083,-0.1019426584243774
-0.2840368151664734,1.276137113571167,-0.199366807937622,-0.2649003565311432,-0.3053600490093231,-0.1684964001178741,0.0,0.0,-0.1914611458778381,-0.4512600302696228
-0.2860748171806335,1.2700932025909424,-0.1952446103096008,-0.2704416811466217,-0.3142245411872864,-0.1772897541522979,0.0,0.0,-0.6302255392074585,-0.7619041800498962
-0.2881304621696472,1.2639529705047607,-0.1980391144752502,-0.2745509743690491,-0.3220439851284027,-0.1563889980316162,0.0,0.0,-0.2028756141662597,-0.5245820879936218
-0.2901806235313415,1.2577018737792969,-0.1978868395090103,-0.2794329524040222,-0.3294700086116791,-0.14852075278759,0.0,0.0,0.1593580245971679,-0.2822549343109131
-0.2919735312461853,1.2519769668579102,-0.1720670014619827,-0.2561123967170715,-0.3370197713375091,-0.1509951502084732,0.0,0.0,-0.5426002740859985,-0.1992864608764648
-0.2937292456626892,1.2461302280426023,-0.1679417788982391,-0.26165372133255,-0.3450095355510711,-0.1597952991724014,0.0,0.0,-0.6382301449775696,-0.1756170988082885
-0.2954476773738861,1.2401621341705322,-0.1638174802064895,-0.267195850610733,-0.3534392118453979,-0.1685941815376281,0.0,0.0,0.042323350906372,0.166018009185791
