x_pos,y_pos,x_vel,y_vel,angle,ang_vel,leg_1,leg_2,main_booster,lat_booster
-0.0016552924644201,1.4033668041229248,-0.1671469509601593,-0.3356969952583313,0.0014532094355672,0.0286430716514587,0.0,0.0,0.026803526726649,-0.7581043533380611
-0.0034656524658203,1.3960055112838743,-0.1836023479700088,-0.3271707892417907,0.0039951824583113,0.0508449152112007,0.0,0.0,0.8648536822989163,-0.6932268252793088
-0.0053017614409327,1.389065861701965,-0.1875980645418167,-0.3084432482719421,0.0079354690387845,0.0788129717111587,0.0,0.0,-0.0970203332917261,0.9523613599400232
-0.007209968753159,1.381866216659546,-0.1928875148296356,-0.3199957311153412,0.009977513924241,0.040844514966011,0.0,0.0,0.7220050786832557,0.7764743117828281
-0.0090484619140625,1.3754340410232544,-0.1842946261167526,-0.2858741581439972,0.0104223415255546,0.0088974134996533,0.0,0.0,-0.243412449786661,-0.978443740493982
-0.0110781667754054,1.3687418699264526,-0.2045600116252899,-0.2974427938461303,0.0119946105405688,0.0314480736851692,0.0,0.0,-0.9889635268306808,0.8740094027835004
-0.0131731983274221,1.3617933988571167,-0.2090500593185424,-0.3088184893131256,0.0115402620285749,-0.0090874824672937,0.0,0.0,-0.1280182706433055,-0.5261639166614154
-0.0154307363554835,1.3545883893966677,-0.2257348746061325,-0.3202265202999115,0.0115204993635416,-0.0003952973929699,0.0,0.0,0.1259935651296417,0.9373151702225672
-0.0177618972957134,1.3479924201965332,-0.2308655232191085,-0.2931371331214905,0.0093009294942021,-0.0443957336246967,0.0,0.0,-0.7122706778152608,-0.5055694046588002
-0.0202635768800973,1.3411414623260498,-0.2485993802547454,-0.3044812083244324,0.0077563081867992,-0.030895497649908,0.0,0.0,-0.9692552533073762,-0.7669803014110461
-0.0229473114013671,1.3340327739715576,-0.2678057253360748,-0.3159336149692535,0.0071963388472795,-0.0112004037946462,0.0,0.0,0.1387342293315987,-0.7809404693498281
-0.0257691387087106,1.3272111415863037,-0.2829247713088989,-0.3031891882419586,0.0079285800457,0.0146463019773364,0.0,0.0,0.9554175654441176,-0.5059090088447076
-0.0286040306091308,1.3213776350021362,-0.2854744791984558,-0.2592771351337433,0.0098841972649097,0.0391158089041709,0.0,0.0,0.2072364845301904,-0.9865821335984266
-0.0315890312194824,1.3156661987304688,-0.3021877408027649,-0.2538654804229736,0.0135331554338335,0.0729856118559837,0.0,0.0,-0.3691396447842299,-0.867332485991158
-0.0347551330924034,1.3097054958343506,-0.3213627338409424,-0.2649715840816498,0.0182372815907001,0.0940911620855331,0.0,0.0,0.5983653733752354,-0.8834195726346412
-0.0380052551627159,1.3039098978042605,-0.3314802050590515,-0.2576737999916076,0.0246293824166059,0.1278535276651382,0.0,0.0,-0.6182589694635594,0.7732465356655407
-0.0413080230355262,1.297868728637695,-0.3345997929573059,-0.2685719430446625,0.0289059113711118,0.0855385437607765,0.0,0.0,0.7515935147002293,0.8700125988715908
-0.0445127487182617,1.2921687364578247,-0.3231525421142578,-0.2533923387527466,0.0315472856163978,0.0528322532773017,0.0,0.0,-0.2443676606174096,-0.6107877084537022
-0.0478839874267578,1.286214828491211,-0.340628445148468,-0.2646944522857666,0.0350151695311069,0.0693639442324638,0.0,0.0,0.7974792044117849,-0.502309922503837
-0.0515345558524131,1.2809194326400757,-0.3691095113754272,-0.2354509532451629,0.0390338040888309,0.0803799927234649,0.0,0.0,0.5673209984732275,0.5054478242889673
-0.0551677718758583,1.276449203491211,-0.366570770740509,-0.1987675726413726,0.0422507338225841,0.0643442496657371,0.0,0.0,-0.6630445398247939,-0.7864467051112247
-0.0589848533272743,1.2717130184173584,-0.3863843381404876,-0.210632786154747,0.0468746200203895,0.0924858972430229,0.0,0.0,0.2199410698794428,0.780328963051245
-0.0627723708748817,1.267332911491394,-0.3818477690219879,-0.1947723180055618,0.049953781068325,0.0615886338055133,0.0,0.0,-0.1208419968921097,-0.6289119960771234
-0.0667243972420692,1.2626850605010986,-0.3993473052978515,-0.2067186087369918,0.0540606752038002,0.0821450054645538,0.0,0.0,0.2509164985122203,0.8205778812668986
-0.0708804130554199,1.2585070133209229,-0.4179262518882751,-0.185769721865654,0.0563641972839832,0.0460744574666023,0.0,0.0,-0.2994938921702339,-0.5949315682258042
-0.0752124786376953,1.2540485858917236,-0.4369887411594391,-0.1983075588941574,0.0601076260209083,0.0748684331774711,0.0,0.0,-0.6320642311061411,-0.8848158443915808
-0.0797310844063758,1.2493319511413574,-0.457408994436264,-0.2098578512668609,0.0655933767557144,0.1097151860594749,0.0,0.0,0.4678791421319108,-0.5216825367292925
-0.0845793709158897,1.245444893836975,-0.4911270141601562,-0.1730455309152603,0.0718227624893188,0.1245876997709274,0.0,0.0,-0.3637340383910823,-0.7589601386106141
-0.0896146744489669,1.241299390792847,-0.5117215514183044,-0.1846543848514557,0.0799319893121719,0.162184476852417,0.0,0.0,0.1816437967221993,0.919145777982183
-0.0947346687316894,1.2374218702316284,-0.5184018611907959,-0.172691211104393,0.0862730741500854,0.1268218457698822,0.0,0.0,0.7415247910513194,0.5896496034835547
-0.0999745354056358,1.2346364259719849,-0.5293446779251099,-0.1241154968738555,0.0915838107466697,0.1062146872282028,0.0,0.0,-0.4599442481994629,0.9932442903518676
-0.105253979563713,1.2315975427627563,-0.531684935092926,-0.1352961361408233,0.0952887907624244,0.0740995854139328,0.0,0.0,-0.4391785264015198,0.99644935131073
-0.110572338104248,1.2283203601837158,-0.5339799523353577,-0.1457872241735458,0.0974164977669715,0.042554285377264,0.0,0.0,-0.8421084880828857,0.9889872074127196
-0.1159240752458572,1.224787354469299,-0.5357092618942261,-0.1570615321397781,0.0979476422071456,0.0106227500364184,0.0,0.0,-0.8639582395553589,0.997875452041626
-0.1212964057922363,1.22101092338562,-0.5358951687812805,-0.1677521169185638,0.0966206341981887,-0.0265401843935251,0.0,0.0,-0.7948672771453857,0.9877891540527344
-0.1266875267028808,1.2169963121414185,-0.5359398126602173,-0.1782210320234298,0.0934699177742004,-0.063014417886734,0.0,0.0,-0.9152396321296692,0.9864376783370972
-0.1320997178554535,1.2127302885055542,-0.5363715887069702,-0.1893087327480316,0.0886688157916069,-0.0960217863321304,0.0,0.0,-0.9503738880157472,0.9658539295196532
-0.1375240385532379,1.2082256078720093,-0.5357629060745239,-0.1998258382081985,0.0820673182606697,-0.1320301592350006,0.0,0.0,-0.4622403383255005,0.779159426689148
-0.1429806649684906,1.203480243682861,-0.5377998948097229,-0.2104972153902053,0.0742796659469604,-0.1557529717683792,0.0,0.0,-0.8822848796844482,0.6456575393676758
-0.1484697312116623,1.198485255241394,-0.5399767160415649,-0.2215800583362579,0.065430648624897,-0.1769804656505584,0.0,0.0,-0.6990106105804443,0.921562910079956
-0.1539815962314605,1.1932480335235596,-0.5410094261169434,-0.232360154390335,0.0553720407187938,-0.2011719197034835,0.0,0.0,-0.4561058282852173,0.6701152324676514
-0.1595077514648437,1.1877586841583252,-0.5411303043365479,-0.2435860782861709,0.0440239645540714,-0.2269616872072219,0.0,0.0,-0.8084315061569214,0.4835638999938965
-0.1651078164577484,1.182013750076294,-0.5488569736480713,-0.2550426125526428,0.0330074280500412,-0.2203306257724762,0.0,0.0,-0.6858627796173096,0.7729967832565308
-0.1707061827182769,1.1760151386260986,-0.5472124814987183,-0.2663718461990356,0.0205446630716323,-0.2492553293704986,0.0,0.0,-0.8354001045227051,0.952410101890564
-0.1762988120317459,1.1697522401809692,-0.5452173948287964,-0.2782111167907715,0.0066731642000377,-0.2774299383163452,0.0,0.0,-0.725571870803833,0.4413706064224243
-0.1819513291120529,1.1632345914840698,-0.5515700578689575,-0.2896719872951507,-0.0068307039327919,-0.2700774371623993,0.0,0.0,-0.5826019644737244,0.9766864776611328
-0.1875732392072677,1.1564557552337646,-0.5467340350151062,-0.3014177680015564,-0.0220963302999734,-0.3053127825260162,0.0,0.0,-0.931751787662506,0.9046779870986938
-0.1931858956813812,1.1494303941726685,-0.5447201728820801,-0.31255704164505,-0.0384385995566844,-0.3268452286720276,0.0,0.0,-0.8690778017044067,0.7466703653335571
-0.1987957060337066,1.1421551704406738,-0.5436708927154541,-0.3238780200481415,-0.0555443279445171,-0.3421145975589752,0.0,0.0,-0.8371885418891907,0.7076747417449951
-0.2043890506029129,1.1346194744110107,-0.5410683155059814,-0.3356867730617523,-0.0736088827252388,-0.3612911701202392,0.0,0.0,-0.8953972458839417,0.7203589677810669
-0.2099431008100509,1.1268227100372314,-0.5357896089553833,-0.3475989997386932,-0.0930434241890907,-0.3886907696723938,0.0,0.0,-0.6797242760658264,0.957852840423584
-0.2154533863067627,1.1187703609466553,-0.5301131010055542,-0.3593218922615051,-0.1137911230325698,-0.414954125881195,0.0,0.0,-0.836796760559082,0.9477663040161132
-0.2208941429853439,1.110445499420166,-0.5213899612426758,-0.3718732595443725,-0.1363599002361297,-0.451375812292099,0.0,0.0,-0.6078966856002808,0.91252863407135
-0.2262735813856125,1.101863145828247,-0.5139181017875671,-0.3838102221488952,-0.1603387296199798,-0.4795768857002258,0.0,0.0,-0.8991174697875977,0.5720963478088379
-0.2316021025180816,1.09301495552063,-0.5079076886177063,-0.396145761013031,-0.1853255778551101,-0.4997369647026062,0.0,0.0,-0.659584105014801,-0.2270184755325317
-0.2369281351566314,1.083915948867798,-0.5081971287727356,-0.4076353013515472,-0.2098881900310516,-0.4912526607513428,0.0,0.0,-0.8320903778076172,-0.2121396660804748
-0.2422448098659515,1.0745660066604614,-0.5078069567680359,-0.4191220700740814,-0.2340250164270401,-0.4827367663383484,0.0,0.0,-0.3625682592391968,-0.1653255820274353
-0.2475451976060867,1.064964771270752,-0.5067368149757385,-0.4306059777736664,-0.2577349245548248,-0.474198043346405,0.0,0.0,0.0519766807556152,0.0767359733581543
-0.2526429295539856,1.0558538436889648,-0.4872407913208008,-0.4090625345706939,-0.2807970643043518,-0.4612429141998291,0.0,0.0,-0.2906453609466553,0.2117965221405029
-0.2577107846736908,1.0464905500411987,-0.4848241209983825,-0.4205401837825775,-0.3034310638904571,-0.4526801705360412,0.0,0.0,0.768206000328064,0.4499390125274658
-0.2625715732574463,1.037416934967041,-0.4649213254451751,-0.4078407883644104,-0.3253833055496216,-0.4390450417995453,0.0,0.0,0.8078546524047852,0.4848225116729736
-0.2672480940818786,1.0292335748672483,-0.4465712606906891,-0.3685995936393738,-0.3474147617816925,-0.4406293034553528,0.0,0.0,0.1341569423675537,0.6417171955108643
-0.2716178894042969,1.0212219953536987,-0.4153460562229156,-0.3614625632762909,-0.3702127337455749,-0.4559596180915832,0.0,0.0,0.3800516128540039,0.5561070442199707
-0.275685966014862,1.0136388540267944,-0.384741723537445,-0.3429180383682251,-0.393679529428482,-0.4693361222743988,0.0,0.0,-0.1422522664070129,-0.9080641865730286
-0.2797594964504242,1.0058363676071167,-0.3876008093357086,-0.3523898720741272,-0.4148753881454468,-0.4239172339439392,0.0,0.0,-0.3841719627380371,-0.360296368598938
-0.2837661802768707,0.9977797865867616,-0.381495863199234,-0.363854706287384,-0.4356438219547272,-0.41536945104599,0.0,0.0,0.6007344722747803,-0.8681773543357849
-0.2873886227607727,0.9906326532363892,-0.345325231552124,-0.3230102360248565,-0.4541318118572235,-0.3697597980499267,0.0,0.0,0.7665719985961914,-0.2610867023468017
-0.2907179892063141,0.9835931062698364,-0.3169319331645965,-0.3181781768798828,-0.4717873930931091,-0.3531114459037781,0.0,0.0,0.8413547277450562,-0.1409569382667541
-0.2935064733028412,0.9775478839874268,-0.2634883522987366,-0.2739998996257782,-0.4888775944709778,-0.3418039679527282,0.0,0.0,0.8565980195999146,-0.5716934204101562
-0.2960988879203796,0.972058892250061,-0.2451874017715454,-0.2490256130695343,-0.5046437978744507,-0.3153242170810699,0.0,0.0,0.9583461284637452,-0.6530212759971619
-0.2983587682247162,0.9674899578094482,-0.213395670056343,-0.2077713459730148,-0.5188949108123779,-0.2850217521190643,0.0,0.0,0.7862281799316406,-0.6567460298538208
-0.3002038896083832,0.9635514616966248,-0.1736814677715301,-0.1792121082544326,-0.5312455296516418,-0.2470126897096634,0.0,0.0,0.9576497077941896,-0.8591748476028442
-0.301642894744873,0.9608343839645386,-0.1348369866609573,-0.1243455410003662,-0.541647732257843,-0.2080444544553756,0.0,0.0,0.7857530117034912,-0.9608839154243468
-0.3026475310325622,0.9586495757102966,-0.0936986729502677,-0.0998424589633941,-0.5494630932807922,-0.1563072800636291,0.0,0.0,-0.1365604996681213,-0.9357675909996032
-0.3036166727542877,0.9562588930130004,-0.0923465564846992,-0.1081281751394271,-0.5547599792480469,-0.1059371978044509,0.0,0.0,0.686383843421936,-0.8927397131919861
-0.3043012022972107,0.9540168642997742,-0.0659805908799171,-0.1006678417325019,-0.5576378107070923,-0.0575556829571723,0.0,0.0,-0.1568684577941894,-0.9153823256492616
-0.3049434125423431,0.951566517353058,-0.0638642981648445,-0.109058141708374,-0.5580503344535828,-0.0082506155595183,0.0,0.0,0.2647979259490967,-0.9079819321632384
-0.3052154183387756,0.9496971368789672,-0.0288803912699222,-0.0823856443166732,-0.5560910701751709,0.0391852781176567,0.0,0.0,-0.2831405997276306,-0.8168572187423706
-0.3054169118404388,0.9476177096366882,-0.0235179960727691,-0.0910238996148109,-0.5521854162216187,0.0781132355332374,0.0,0.0,0.2452270984649658,-0.8964086771011353
-0.3053180575370788,0.9462043642997742,0.004517963156104,-0.0606266893446445,-0.545967698097229,0.1243536695837974,0.0,0.0,-0.572257399559021,-0.757908046245575
-0.3051645755767822,0.9445803165435792,0.0078954584896564,-0.0691828876733779,-0.5373820066452026,0.1717142760753631,0.0,0.0,-0.2095715999603271,-0.7785435914993286
-0.3049366474151611,0.94274640083313,0.0135795176029205,-0.0778834000229835,-0.5268227458000183,0.2111851871013641,0.0,0.0,-0.3966373205184936,-0.7800216674804688
-0.3046475946903229,0.940707504749298,0.0175625104457139,-0.0862828940153122,-0.513913631439209,0.2581826448440552,0.0,0.0,-0.4274837374687195,-0.4181892275810241
-0.3042343556880951,0.938410222530365,0.0295323394238948,-0.0977224633097648,-0.5005891919136047,0.2664889395236969,0.0,0.0,-0.3404034972190857,-0.5232641100883484
-0.3037310540676117,0.9358875155448914,0.0370711088180542,-0.1073610633611679,-0.4857208728790283,0.2973663806915283,0.0,0.0,0.1178011894226074,-0.1380105018615722
-0.3028646111488342,0.9335882663726808,0.072657398879528,-0.0973491966724395,-0.4701672792434692,0.3110721111297607,0.0,0.0,-0.5783165693283081,-0.180898904800415
-0.3018698096275329,0.931032121181488,0.0850093811750412,-0.1087961494922638,-0.4542027711868286,0.3192903995513916,0.0,0.0,-0.6370956897735596,-0.4332514405250549
-0.3007455468177795,0.9282191395759584,0.0974682047963142,-0.1202447786927223,-0.437828928232193,0.3274773955345154,0.0,0.0,-0.7887210845947266,-0.2113849520683288
-0.2994907796382904,0.92514967918396,0.1100246459245681,-0.1316951215267181,-0.4210473597049713,0.3356320858001709,0.0,0.0,-0.662034273147583,-0.4258819818496704
-0.2981045842170715,0.9218239188194276,0.1226702556014061,-0.1431472301483154,-0.4038596749305725,0.3437534868717193,0.0,0.0,-0.744084358215332,0.3715026378631592
-0.2965861856937408,0.9182420372962952,0.1353973299264907,-0.1546011418104171,-0.3862676620483398,0.3518404364585876,0.0,0.0,-0.8073441982269287,0.3210668563842773
-0.2949347496032715,0.9144048094749452,0.1481987833976745,-0.1660569310188293,-0.3682730793952942,0.359891802072525,0.0,0.0,-0.9087278246879578,0.2715988159179687
-0.2931497097015381,0.910312294960022,0.1610681861639022,-0.1775146275758743,-0.3498777747154236,0.3679062724113464,0.0,0.0,-0.937042474746704,0.0098493099212646
-0.2912302911281585,0.9059646725654602,0.1739996820688247,-0.1889743059873581,-0.3310836553573608,0.3758825361728668,0.0,0.0,-0.9587085843086244,0.0730311870574951
-0.2891760468482971,0.901362419128418,0.1869878470897674,-0.2004359662532806,-0.3118926882743835,0.3838191628456116,0.0,0.0,-0.9481723308563232,-0.0243770480155944
-0.2869864106178283,0.8965058326721191,0.2000277936458587,-0.2118996679782867,-0.2923069596290588,0.3917147517204284,0.0,0.0,-0.9739937782287598,0.2351185083389282
-0.2846609055995941,0.8913953304290771,0.2131150662899017,-0.2233654558658599,-0.2723285853862762,0.3995676338672638,0.0,0.0,-0.961605429649353,0.2288966178894043
-0.2821992337703705,0.8860310912132263,0.226245567202568,-0.2348333448171615,-0.2519597709178924,0.4073761999607086,0.0,0.0,-0.9694259166717528,0.3740283250808716
-0.2796009480953216,0.8804134726524353,0.2394154965877533,-0.2463034093379974,-0.2312028557062149,0.4151387214660644,0.0,0.0,-0.9634324908256532,-0.0055058598518371
-0.2768657803535461,0.874542772769928,0.2526215016841888,-0.2577756643295288,-0.2100602090358734,0.4228532910346985,0.0,0.0,-0.959892511367798,0.5730376243591309
-0.2739547193050384,0.8684108853340149,0.270719438791275,-0.2697537541389465,-0.189525619149208,0.4106916785240173,0.0,0.0,-0.962565004825592,0.3752220869064331
-0.270906388759613,0.8620262145996094,0.2839893996715545,-0.2812270224094391,-0.1686103045940399,0.418306440114975,0.0,0.0,-0.9623972177505492,0.2914440631866455
-0.2677204608917236,0.8553890585899353,0.2972866296768188,-0.2927023768424988,-0.147316962480545,0.4258671700954437,0.0,0.0,-0.9425519704818726,0.351271390914917
-0.264396995306015,0.8484998941421509,0.3106086552143097,-0.3041798770427704,-0.1256483942270279,0.433371365070343,0.0,0.0,-0.9168877005577089,0.1810829639434814
-0.2609356939792633,0.8413587808609009,0.323953241109848,-0.3156595528125763,-0.1036075726151466,0.4408164024353027,0.0,0.0,-0.9375495910644532,0.1369590759277343
-0.2573364675045013,0.8339663147926331,0.3373183608055115,-0.3271414041519165,-0.0811975970864296,0.4481996595859527,0.0,0.0,-0.9517123103141784,0.1570514440536499
-0.2535992562770843,0.8263226747512817,0.3507019877433777,-0.3386254608631134,-0.0584216937422752,0.4555180668830871,0.0,0.0,-0.9513980150222778,0.2922850847244262
-0.2497241050004959,0.8184282183647156,0.3641024231910705,-0.3501116633415222,-0.0352832786738872,0.4627684950828552,0.0,0.0,-0.9853513240814208,0.3975028991699219
-0.24571093916893,0.810283362865448,0.3775179386138916,-0.3616000711917877,-0.0117859011515975,0.4699475765228271,0.0,0.0,-0.9852688908576964,-0.018345832824707
-0.2415597885847091,0.8018882274627686,0.3909469544887543,-0.3730906546115875,0.01206667535007,0.4770517945289612,0.0,0.0,-0.9920619130134584,0.3109195232391357
-0.2372708320617675,0.7932436466217041,0.4043880105018616,-0.3845833539962768,0.0362705439329147,0.4840774536132812,0.0,0.0,-0.994645059108734,0.6124675273895264
-0.2327907979488372,0.7843573093414307,0.4245172142982483,-0.3956767916679382,0.0594796724617481,0.4641829133033752,0.0,0.0,-0.988464891910553,0.5604913234710693
-0.2281226217746734,0.7752223610877991,0.4442882537841797,-0.4070421457290649,0.0817674398422241,0.4457553923130035,0.0,0.0,-0.9885269403457642,0.7664104700088501
-0.2232687026262283,0.7658438086509705,0.4637938439846039,-0.4181422591209411,0.1031766161322593,0.4281836450099945,0.0,0.0,-0.9580821394920348,0.309852123260498
-0.218277171254158,0.7562141418457031,0.4772671163082123,-0.4296280145645141,0.1249196305871009,0.4348602890968323,0.0,0.0,-0.9497583508491516,0.1390105485916137
-0.2131481170654297,0.7463341951370239,0.4907450079917907,-0.4411154985427856,0.1469913870096206,0.4414352774620056,0.0,0.0,-0.9371779561042786,0.1066941022872924
-0.2078817784786224,0.7362037301063538,0.5042263269424438,-0.4526046216487884,0.169386550784111,0.4479033946990967,0.0,0.0,-0.8515591621398926,-0.110784888267517
-0.2024782598018646,0.7258232235908508,0.5177099108695984,-0.464095264673233,0.192099466919899,0.4542587399482727,0.0,0.0,-0.8511624336242676,-0.0281908512115478
-0.1969378441572189,0.7151927947998047,0.5311945676803589,-0.4755874574184418,0.2151242345571518,0.4604954719543457,0.0,0.0,-0.8771572709083557,-0.1392120718955993
-0.1912606209516525,0.7043129205703735,0.544678807258606,-0.4870811104774475,0.238454595208168,0.4666075706481933,0.0,0.0,-0.8326884508132935,-0.259455919265747
-0.18544702231884,0.6931833624839783,0.5581616163253784,-0.4985761344432831,0.262084037065506,0.4725886285305023,0.0,0.0,-0.641532301902771,-0.138235867023468
