x_pos,y_pos,x_vel,y_vel,angle,ang_vel,leg_1,leg_2,main_booster,lat_booster
-0.0015255927573889,1.403136968612671,-0.1545191556215286,-0.34592005610466,0.001762178260833,0.034760408103466,0.0,0.0,-0.2233482599258422,0.6541805267333984
-0.0029973029159009,1.3948862552642822,-0.1474782973527908,-0.3666954040527344,0.0020618098787963,0.0059936083853244,0.0,0.0,-0.0031085610389709,0.6673805713653564
-0.0044069290161132,1.3861429691314695,-0.1396141797304153,-0.3885928988456726,0.0007344842306338,-0.0265489853918552,0.0,0.0,-0.4496317505836487,0.4578462839126587
-0.0058183670043945,1.3769121170043943,-0.1397826969623565,-0.4102658033370971,-0.0006095744320191,-0.0268836915493011,0.0,0.0,0.2219843864440918,0.7152038812637329
-0.0070676803588867,1.3679192066192627,-0.1222795471549034,-0.3996880650520324,-0.0032338229939341,-0.0524900034070014,0.0,0.0,-0.1730402708053589,-0.3540546298027038
-0.0083188060671091,1.3584387302398682,-0.1224462762475013,-0.4213638305664062,-0.0058788615278899,-0.0529053434729576,0.0,0.0,0.3159137964248657,0.040250539779663
-0.0095871929079294,1.34916090965271,-0.1240547746419906,-0.4123608767986297,-0.0086332391947507,-0.0550928525626659,0.0,0.0,-0.3154299259185791,0.63382887840271
-0.0107953073456883,1.339396595954895,-0.1164127141237258,-0.4339994490146637,-0.0129785975441336,-0.0869152545928955,0.0,0.0,-0.0529018640518188,0.254400372505188
-0.0120052341371774,1.3291451930999756,-0.1165764182806015,-0.4556675851345062,-0.0173506326973438,-0.0874484777450561,0.0,0.0,0.5462296009063721,0.1267335414886474
-0.0132061000913381,1.3194259405136108,-0.1156309098005294,-0.4320229589939117,-0.0217559896409511,-0.0881155356764793,0.0,0.0,-0.3405394554138183,0.3501081466674804
-0.0144088743254542,1.309219241142273,-0.1157961636781692,-0.4537023901939392,-0.0261929035186767,-0.0887459963560104,0.0,0.0,-0.3360238075256347,0.3557424545288086
-0.0156136509031057,1.2985254526138306,-0.1159615293145179,-0.475370317697525,-0.0306635163724422,-0.089420199394226,0.0,0.0,0.439403772354126,0.4770783185958862
-0.0166882518678903,1.2882527112960815,-0.1034520044922828,-0.4566539525985718,-0.0346334017813205,-0.0794050246477127,0.0,0.0,-0.0672626495361328,0.7831716537475586
-0.0176963806152343,1.2774816751480105,-0.0950059741735458,-0.4788560569286346,-0.0403739996254444,-0.1148223429918289,0.0,0.0,-0.1203864216804504,-0.0759937763214111
-0.0187064167112112,1.266223669052124,-0.0951682180166244,-0.5005252957344055,-0.0461534410715103,-0.1155994310975074,0.0,0.0,-0.2134194374084472,0.0154280662536621
-0.0197185520082712,1.2544784545898438,-0.095331385731697,-0.5221974849700928,-0.0519751161336898,-0.1164437159895896,0.0,0.0,0.0633832216262817,-0.8475251197814941
-0.0206666942685842,1.2430778741836548,-0.0906267613172531,-0.5068436861038208,-0.0561240501701831,-0.0829861462116241,0.0,0.0,-0.7049029469490051,-0.9189253449440002
-0.0216726306825876,1.2311866283416748,-0.0977655798196792,-0.5286086797714233,-0.0589274689555168,-0.0560731813311576,0.0,0.0,-0.7635089755058289,-0.4547687768936157
-0.0226808544248342,1.2188079357147217,-0.0979373157024383,-0.5502762198448181,-0.0617793202400207,-0.0570418611168861,0.0,0.0,-0.056063950061798,-0.1965863704681396
-0.023691177368164,1.2059420347213743,-0.0981090739369392,-0.57194584608078,-0.0646810606122016,-0.0580400004982948,0.0,0.0,-0.3151998519897461,-0.8813156485557556
-0.0247583389282226,1.1926003694534302,-0.1051265597343444,-0.5930348634719849,-0.0662519484758377,-0.0314203612506389,0.0,0.0,-0.7624621391296387,-0.8302390575408936
-0.025892162695527,1.1787728071212769,-0.1133790016174316,-0.6145578622817993,-0.0662592947483062,-0.0001468739792471,0.0,0.0,-0.4135242700576782,-0.4108341932296753
-0.0270284656435251,1.1644576787948608,-0.1135590821504592,-0.6362283825874329,-0.0663231015205383,-0.001276335446164,0.0,0.0,0.3511636257171631,-0.6477089524269104
-0.0281386375427246,1.1500288248062134,-0.1123134493827819,-0.6412256360054016,-0.0650413408875465,0.0256370957940816,0.0,0.0,-0.493172824382782,0.4939584732055664
-0.0292512886226177,1.1351124048233032,-0.1124975308775901,-0.6628988981246948,-0.0638199597597122,0.0244301818311214,0.0,0.0,0.1978151798248291,0.3295376300811767
-0.0304401405155658,1.1204612255096436,-0.1195657029747963,-0.6511293649673462,-0.0631482303142547,0.0134351076558232,0.0,0.0,0.2693585157394409,0.1952178478240966
-0.0315932258963584,1.1061580181121826,-0.1159418001770973,-0.6356738805770874,-0.062525562942028,0.0124533008784055,0.0,0.0,-0.505263090133667,-0.2176055908203125
-0.0327486991882324,1.0913673639297483,-0.1161207780241966,-0.6573421359062195,-0.061967022716999,0.0111708147451281,0.0,0.0,-0.8386545777320862,0.2586398124694824
-0.0339067466557025,1.0760891437530518,-0.1162995845079422,-0.6790103912353516,-0.0614740140736103,0.0098600080236792,0.0,0.0,0.1435598134994506,-0.4808165431022644
-0.0350609794259071,1.0608301162719729,-0.1157867908477783,-0.6781652569770813,-0.0611151792109012,0.0071766627952456,0.0,0.0,-0.0267488360404968,0.33421790599823
-0.0362176895141601,1.0450836420059204,-0.1159651428461074,-0.6998335123062134,-0.0608245097100734,0.0058129369281232,0.0,0.0,-0.2550266981124878,-0.109024703502655
-0.0373769775032997,1.028849720954895,-0.1161432266235351,-0.7215016484260559,-0.0606032647192478,0.004424805752933,0.0,0.0,0.5687730312347412,-0.6253541707992554
-0.0386266708374023,1.0132861137390137,-0.1261917501688003,-0.691670835018158,-0.059398628771305,0.0240928847342729,0.0,0.0,-0.5621278882026672,-0.5991491079330444
-0.0399314872920513,0.9972341656684875,-0.1329580396413803,-0.7133204340934753,-0.0569479949772357,0.0490125119686126,0.0,0.0,0.6598669290542603,0.2984369993209839
-0.0411866195499897,0.981637179851532,-0.1279914081096649,-0.6931058168411255,-0.0544943623244762,0.0490726456046104,0.0,0.0,-0.4757999181747436,-0.1389463543891906
-0.0424441322684288,0.9655529260635376,-0.1281681656837463,-0.714774489402771,-0.0521142035722732,0.0476032719016075,0.0,0.0,-0.1892907619476318,0.5143535137176514
-0.0436655059456825,0.9489754438400269,-0.1234753131866455,-0.7367296814918518,-0.0507877916097641,0.0265284292399883,0.0,0.0,-0.155803382396698,-0.5738393068313599
-0.0449316017329692,0.9319181442260742,-0.1289670467376709,-0.7580212950706482,-0.0484659411013126,0.046437170356512,0.0,0.0,0.3267314434051513,-0.3586823344230652
-0.0461991317570209,0.915389597415924,-0.1288705915212631,-0.7345362305641174,-0.046365913003683,0.0420003198087215,0.0,0.0,-0.4592765569686889,-0.4277178049087524
-0.0474690422415733,0.898373544216156,-0.1290454566478729,-0.7562047243118286,-0.0443421341478824,0.040475808084011,0.0,0.0,0.3325703144073486,0.0627000331878662
-0.0487996116280555,0.8818169236183167,-0.1346344798803329,-0.7358039021492004,-0.0427934564650058,0.0309736672788858,0.0,0.0,-0.5154616832733154,-0.1461642384529113
-0.0501328483223915,0.8647727966308594,-0.1348081529140472,-0.7574723362922668,-0.0413218438625335,0.0294321570545434,0.0,0.0,-0.0341917276382446,-0.0757007002830505
-0.0514685623347759,0.8472413420677185,-0.134981170296669,-0.7791406512260437,-0.0399276092648506,0.0278848223388195,0.0,0.0,0.3755886554718017,0.6557703018188477
-0.0526462569832801,0.829872190952301,-0.1179463043808937,-0.7719609141349792,-0.0397483929991722,0.0035840519703924,0.0,0.0,0.4265275001525879,-0.1182919740676879
-0.0538514144718647,0.8123986124992371,-0.120448887348175,-0.7766019105911255,-0.0398092046380043,-0.001216338481754,0.0,0.0,-0.0811578035354614,-0.2517560720443725
-0.0550589561462402,0.7944375872612,-0.1206195354461669,-0.7982699871063232,-0.0399477072060108,-0.0027699102647602,0.0,0.0,0.8369344472885132,0.415111780166626
-0.0561814308166503,0.7767298221588135,-0.1123435273766517,-0.7870115637779236,-0.039850041270256,0.0019534421153366,0.0,0.0,0.120099663734436,0.2535877227783203
-0.0573598854243755,0.7593863010406494,-0.1175156012177467,-0.7708317041397095,-0.040182277560234,-0.0066447658464312,0.0,0.0,0.6697701215744019,-0.4492363333702087
-0.0586428642272949,0.7427573204040527,-0.1272511333227157,-0.7390966415405273,-0.0412119217216968,-0.020592788234353,0.0,0.0,0.1821596622467041,-0.2180528044700622
-0.0599283203482627,0.7261871695518494,-0.1273591071367263,-0.7364827990531921,-0.0423883385956287,-0.0235284883528947,0.0,0.0,0.2444459199905395,-0.4196040034294128
-0.0610900893807411,0.7097674608230591,-0.1154110580682754,-0.7297922968864441,-0.0431412011384964,-0.015057073906064,0.0,0.0,-0.6159842610359192,-0.3016767501831054
-0.0622542388737201,0.6928600668907166,-0.1155749931931495,-0.7514603734016418,-0.0439696758985519,-0.0165697447955608,0.0,0.0,0.2099545001983642,0.2520256042480469
-0.0633264556527137,0.6759480237960815,-0.1066815480589866,-0.7516675591468811,-0.0445027388632297,-0.0106611074879765,0.0,0.0,0.2041974067687988,0.3138401508331299
-0.0643728226423263,0.6594194769859314,-0.1040320396423339,-0.7346197962760925,-0.0450991205871105,-0.0119280852377414,0.0,0.0,0.078660249710083,-0.0113897919654846
-0.0653099045157432,0.6428738832473755,-0.0934918969869613,-0.7353662252426147,-0.0453187152743339,-0.0043915743008255,0.0,0.0,-0.0171652436256408,0.462286114692688
-0.0662493705749511,0.6258407831192017,-0.0936491265892982,-0.757034420967102,-0.0456104204058647,-0.0058342260308563,0.0,0.0,0.826885461807251,0.3483951091766357
-0.0670470222830772,0.60963374376297,-0.0798844248056411,-0.720312237739563,-0.0454922132194042,0.0023641164880245,0.0,0.0,0.3044124841690063,-0.2369912266731262
-0.0677138343453407,0.5937296748161316,-0.0672392696142196,-0.7068325877189636,-0.044939674437046,0.0110505055636167,0.0,0.0,-0.1690666675567627,0.3844138383865356
-0.0683828368782997,0.5773379802703857,-0.0673898085951805,-0.7285007238388062,-0.044455450028181,0.0096846800297498,0.0,0.0,0.6216319799423218,0.61181640625
-0.0690519362688064,0.5616222620010376,-0.0659082755446434,-0.6985099911689758,-0.0454463101923465,-0.0198172274976968,0.0,0.0,-0.0122345685958862,-0.2008057832717895
-0.0697231292724609,0.5454189777374268,-0.0660533532500267,-0.7201782464981079,-0.0465022809803485,-0.0211195088922977,0.0,0.0,0.4040770530700683,-0.1946021318435669
-0.0704538375139236,0.5296273827552795,-0.0715361908078193,-0.7018968462944031,-0.04801582172513,-0.0302706155925989,0.0,0.0,0.8296397924423218,0.8111550807952881
-0.0709451660513877,0.5141890645027161,-0.0462128333747386,-0.6862453818321228,-0.050903495401144,-0.0577537231147289,0.0,0.0,0.7781882286071777,-0.4222327470779419
-0.0713795647025108,0.499249666929245,-0.0405746288597583,-0.6640723943710327,-0.0537332817912101,-0.0565956532955169,0.0,0.0,0.2589881420135498,-0.1889306902885437
-0.0717935562133789,0.484279990196228,-0.0384969934821128,-0.6654268503189087,-0.0565927103161811,-0.0571887791156768,0.0,0.0,0.2959736585617065,0.0813002586364746
-0.0722799301147461,0.4695254266262054,-0.0452409796416759,-0.6558886766433716,-0.0599562749266624,-0.0672714635729789,0.0,0.0,0.5263516902923584,0.208834171295166
-0.0727009773254394,0.4554656445980072,-0.0387363135814666,-0.6250181794166565,-0.0632805749773979,-0.0664861649274826,0.0,0.0,0.7478337287902832,0.1835716962814331
-0.0730174034833908,0.4413733780384063,-0.0286359675228595,-0.626451849937439,-0.0662530735135078,-0.0594498626887798,0.0,0.0,0.56852126121521,-0.6134185194969177
-0.0733019858598709,0.4280158281326294,-0.0267129205167293,-0.5937439799308777,-0.0679860338568687,-0.0346590764820575,0.0,0.0,-0.3196297883987427,-0.0834486484527587
-0.0735881775617599,0.4141709208488464,-0.0268198251724243,-0.6154123544692993,-0.0697632655501365,-0.0355448424816131,0.0,0.0,0.6248024702072144,0.2242600917816162
-0.0739193931221962,0.4008444845676422,-0.0308634396642446,-0.5923941731452942,-0.0719995722174644,-0.0447259284555912,0.0,0.0,-0.0979007482528686,-0.6054500341415405
-0.074297234416008,0.3870365619659424,-0.0366426296532154,-0.6137387156486511,-0.0731297582387924,-0.0226034931838512,0.0,0.0,0.9421658515930176,0.7073700428009033
-0.0747104659676551,0.3742461204528808,-0.0383236184716224,-0.5686129927635193,-0.0761006325483322,-0.0594175867736339,0.0,0.0,0.726711630821228,0.7479509115219116
-0.0749361962080001,0.3618547618389129,-0.0182062536478042,-0.5509557723999023,-0.0804190635681152,-0.086368590593338,0.0,0.0,0.3631579875946045,-0.8071020245552063
-0.0752322226762771,0.3494636714458465,-0.026798928156495,-0.5508669018745422,-0.0831982642412185,-0.0555839166045188,0.0,0.0,0.9516044855117798,-0.8601350784301758
-0.0754778832197189,0.3371476829051971,-0.0236428957432508,-0.547432541847229,-0.0841128230094909,-0.0182913299649953,0.0,0.0,0.2301291227340698,-0.2305509448051452
-0.0757265090942382,0.3247247636318207,-0.0238112229853868,-0.5521860718727112,-0.0851566419005394,-0.0208760686218738,0.0,0.0,0.7435052394866943,0.2172998189926147
-0.0759134292602539,0.3130666017532348,-0.0175769701600074,-0.5182048082351685,-0.0862577706575393,-0.0220227316021919,0.0,0.0,-0.0177856087684631,-0.3154541254043579
-0.0761007294058799,0.3009209632873535,-0.017617717385292,-0.5398728251457214,-0.0873713046312332,-0.0222705490887165,0.0,0.0,0.3744833469390869,-0.7621508240699768
-0.0763930305838584,0.2893330454826355,-0.0294779501855373,-0.5150031447410583,-0.0871209949254989,0.0050062262453138,0.0,0.0,0.5876117944717407,0.2911698818206787
-0.0767817497253418,0.2777494788169861,-0.0385360792279243,-0.5148447751998901,-0.0874497666954994,-0.0065757362172007,0.0,0.0,0.2234680652618408,0.4141483306884765
-0.0770895928144455,0.2665492296218872,-0.0305983833968639,-0.4978014826774597,-0.0876399427652359,-0.0038032778538763,0.0,0.0,0.2085975408554077,-0.242532730102539
-0.0774344429373741,0.2555002272129059,-0.0339542925357818,-0.4910978078842163,-0.0881680995225906,-0.0105631444603204,0.0,0.0,0.5556873083114624,-0.3175856471061706
-0.0777743309736251,0.2449241727590561,-0.0332278832793235,-0.4700923562049866,-0.0889256075024604,-0.0151499807834625,0.0,0.0,-0.4853721261024475,0.2640154361724853
-0.0781140327453613,0.2338605970144271,-0.0332133620977401,-0.4917601943016052,-0.0896689891815185,-0.0148677285760641,0.0,0.0,0.6652688980102539,-0.6453482508659363
-0.0783566460013389,0.2231797575950622,-0.0250499583780765,-0.4746578335762024,-0.0888872146606445,0.0156353581696748,0.0,0.0,0.6462870836257935,-0.2365184426307678
-0.0785448104143142,0.2125178724527359,-0.0197456423193216,-0.4738091826438904,-0.0879726484417915,0.0182914938777685,0.0,0.0,0.6706221103668213,-0.1010335087776184
-0.0786030739545822,0.20196433365345,-0.0072187194600701,-0.4689623117446899,-0.086595818400383,0.0275365263223648,0.0,0.0,0.4144849777221679,-0.000123918056488
-0.0784928351640701,0.1916376203298568,0.0090233236551284,-0.4588509500026703,-0.0846031382679939,0.0398536026477813,0.0,0.0,0.4893157482147217,0.1140905618667602
-0.0782261863350868,0.1813388615846634,0.0240228492766618,-0.4575769007205963,-0.0819911882281303,0.0522391870617866,0.0,0.0,0.6362161636352539,-0.213532269001007
-0.0779031738638877,0.171665608882904,0.0296530779451131,-0.429780900478363,-0.0793623775243759,0.0525761134922504,0.0,0.0,0.3914316892623901,0.0782870054244995
-0.0775021538138389,0.1624570488929748,0.0372714102268219,-0.4091242849826813,-0.0765653997659683,0.0559396147727966,0.0,0.0,-0.118929922580719,-0.429045557975769
-0.077099896967411,0.1527608931064605,0.0373544171452522,-0.4307925105094909,-0.0737159624695777,0.05698873847723,0.0,0.0,0.7083390951156616,-0.4436264634132385
-0.0765671730041503,0.1430708318948745,0.0498446114361286,-0.4305071532726288,-0.0703269243240356,0.0677811279892921,0.0,0.0,0.4901744127273559,-0.6712729930877686
-0.076105497777462,0.1335897594690323,0.0414263680577278,-0.421164333820343,-0.0656425058841705,0.0936884358525276,0.0,0.0,0.6883378028869629,-0.4612823724746704
-0.0754980072379112,0.1249326542019844,0.0555422380566597,-0.3845416307449341,-0.0604914128780365,0.1030218973755836,0.0,0.0,0.185646653175354,0.1121811866760253
-0.0748805999755859,0.1164013743400573,0.056530088186264,-0.3789678514003753,-0.0553465373814106,0.102897509932518,0.0,0.0,0.5008158683776855,-0.5744062066078186
-0.074388787150383,0.1084843501448631,0.0430347695946693,-0.3516510426998138,-0.049268502742052,0.1215607151389122,0.0,0.0,0.080518364906311,0.5942913293838501
-0.0737616568803787,0.1007587984204292,0.0575792305171489,-0.3431986570358276,-0.044199988245964,0.1013703122735023,0.0,0.0,-0.0807123184204101,-0.0811221599578857
-0.0731324180960655,0.0925459489226341,0.0577042885124683,-0.3648684322834015,-0.0390470325946807,0.1030592322349548,0.0,0.0,0.7028021812438965,0.860997200012207
-0.0724971741437912,0.0850103721022605,0.0601136907935142,-0.3348329365253448,-0.0356765501201152,0.067409411072731,0.0,0.0,0.4285774230957031,-0.3777629137039184
-0.0718657523393631,0.0776338651776313,0.0597360730171203,-0.3277650475502014,-0.0323128253221511,0.0672745108604431,0.0,0.0,0.5908191204071045,0.4610259532928467
-0.0713255852460861,0.0706436038017273,0.051045011729002,-0.3106177151203155,-0.029372027143836,0.0588158853352069,0.0,0.0,0.2863433361053467,0.0198155641555786
-0.0708879455924034,0.0637824386358261,0.04122269526124,-0.3048931658267975,-0.0268726404756307,0.0499879159033298,0.0,0.0,0.5778102874755859,0.8915314674377441
-0.0702452659606933,0.0574607215821743,0.0632675141096115,-0.2809504270553589,-0.025885634124279,0.0197399538010358,0.0,0.0,-0.0036587715148925,0.636976957321167
-0.0695446953177452,0.0506436191499233,0.0703722834587097,-0.302985668182373,-0.0261872224509716,-0.0060319234617054,0.0,0.0,0.822033166885376,0.026086688041687
-0.0686594024300575,0.0445943437516689,0.087970346212387,-0.2688469886779785,-0.0256375446915626,0.0109935505315661,0.0,0.0,0.1228026151657104,-0.0456726551055908
-0.0677734389901161,0.0388489812612533,0.0879949852824211,-0.2553415298461914,-0.0250451881438493,0.0118471747264266,0.0,0.0,0.0018552541732788,-0.1801017522811889
-0.0667852386832237,0.0333897918462753,0.0976936072111129,-0.2426130622625351,-0.0239347722381353,0.022208135575056,0.0,0.0,0.2624084949493408,0.0430821180343627
-0.0657254233956337,0.0281051248311996,0.1044665724039077,-0.2348522543907165,-0.0224338695406913,0.0300180707126855,0.0,0.0,0.4514443874359131,-0.0077781081199646
-0.0646529197692871,0.0234088283032178,0.1056328639388084,-0.2087034881114959,-0.0208385717123746,0.0319058075547218,0.0,0.0,0.4074029922485351,-0.791352391242981
-0.063568115234375,0.0192382428795099,0.105063259601593,-0.1853147149085998,-0.0174620747566223,0.0675302594900131,0.0,0.0,0.3957686424255371,-0.8270412683486938
-0.0624622330069541,0.0151568511500954,0.105272963643074,-0.1813408285379409,-0.0122172590345144,0.1048963516950607,0.0,0.0,0.4125747680664062,-0.6440021991729736
-0.0615127570927143,0.01138552185148,0.0884246081113815,-0.1675772368907928,-0.0057838982902467,0.1286672502756118,0.0,0.0,0.3503370285034179,0.1378086805343628
-0.0606628432869911,0.0077591394074261,0.0788336768746376,-0.1611618250608444,0.0002980331773869,0.1216386407613754,0.0,0.0,0.3300551176071167,0.7253034114837646
-0.0597720146179199,0.0043259477242827,0.0842790454626083,-0.1525951027870178,0.0050451536662876,0.0949422493577003,0.0,0.0,0.1910406351089477,0.3808231353759765
-0.0588612556457519,0.0009825563756749,0.0860369652509689,-0.1486214250326156,0.0100171081721782,0.0994392707943916,0.0,0.0,0.3156070709228515,0.4934736490249634
-0.0578462593257427,-0.0024168754462152,0.0958301424980163,-0.1511363089084625,0.0156103735789656,0.1118654012680053,0.0,1.0,0.8559654951095581,0.8979240655899048
-0.0567302703857421,-0.004829719197005,0.1164246797561645,-0.1074295416474342,0.0098304180428385,-0.1168832033872604,1.0,1.0,0.9695369005203248,-0.9796270728111268
-0.0557838454842567,-0.0056452536955475,0.1022356152534484,-0.0364583916962146,0.0031330725178122,-0.1329346150159835,1.0,1.0,0.3806205987930298,-0.921033263206482
