x_pos,y_pos,x_vel,y_vel,angle,ang_vel,leg_1,leg_2,main_booster,lat_booster
-0.0015810966724529,1.402945637702942,-0.1601309180259704,-0.3544141352176666,0.001817294745706,0.0358517691493034,0.0,0.0,0.0201001167297363,0.8049297332763672
-0.0031188963912427,1.3947393894195557,-0.1539778113365173,-0.3647226393222809,0.0020177678670734,0.0040103811770677,0.0,0.0,0.0197799205780029,0.8518328666687012
-0.0045487405732274,1.386222243309021,-0.1415098160505294,-0.3785394430160522,0.0005567972548305,-0.0292221270501613,0.0,0.0,0.1356158256530761,0.8048981428146362
-0.0060646058991551,1.3775389194488523,-0.1484232395887375,-0.3859294056892395,-0.0025779991410672,-0.0627021268010139,0.0,0.0,-0.2978470921516418,0.5153855085372925
-0.0075849532149732,1.368178367614746,-0.1476129442453384,-0.4160352945327759,-0.0069554531946778,-0.087556853890419,0.0,0.0,0.0751007795333862,0.6377408504486084
-0.0090044979006052,1.3586673736572266,-0.1363866180181503,-0.4227532148361206,-0.0124627947807312,-0.1101570874452591,0.0,0.0,0.2006951570510864,-0.3074538707733154
-0.0104865077883005,1.3491076231002808,-0.1425474733114242,-0.4249328076839447,-0.0180581212043762,-0.1119168400764465,0.0,0.0,0.3594955205917358,0.0776969194412231
-0.0118860248476266,1.3396646976470947,-0.1348815560340881,-0.419756531715393,-0.0230790376663208,-0.1004272326827049,0.0,0.0,0.060616135597229,0.1697679758071899
-0.0133298877626657,1.3303492069244385,-0.1392510682344436,-0.4141097664833069,-0.0281500853598117,-0.1014306768774986,0.0,0.0,0.4201583862304687,0.4498302936553955
-0.0148042682558298,1.321291446685791,-0.1422964483499527,-0.4026674926280975,-0.0332378856837749,-0.1017653495073318,0.0,0.0,-0.2589924335479736,0.2394520044326782
-0.0163248069584369,1.3115553855895996,-0.1468985974788665,-0.4328378140926361,-0.0383400656282901,-0.1020524948835372,0.0,0.0,0.1884653568267822,0.6627848148345947
-0.0177663806825876,1.3017032146453855,-0.1377476900815963,-0.4380568265914917,-0.0446845181286335,-0.1269008070230484,0.0,0.0,0.5322117805480957,0.3834685087203979
-0.0191015247255563,1.2921366691589355,-0.1276643574237823,-0.425367146730423,-0.0504718869924545,-0.1157581806182861,0.0,0.0,-0.4728235602378845,0.1912778615951538
-0.0204784385859966,1.2818918228149414,-0.1318300664424896,-0.4555390775203705,-0.05627416446805,-0.1160558015108108,0.0,0.0,0.3930513858795166,0.0268852710723876
-0.0217376705259084,1.2719995975494385,-0.1206202507019043,-0.439859390258789,-0.0615294277667999,-0.1051146537065506,0.0,0.0,0.1229252815246582,-0.234848141670227
-0.0229488369077444,1.261724591255188,-0.1161544322967529,-0.4568809568881988,-0.0664473176002502,-0.0983669608831405,0.0,0.0,-0.8939423561096191,-0.5034192204475403
-0.0242275241762399,1.2507799863815308,-0.1236689686775207,-0.4866151213645935,-0.0706037506461143,-0.0831361562013626,0.0,0.0,-0.3470457792282104,0.4746054410934448
-0.0255415923893451,1.2391571998596191,-0.1272143721580505,-0.5167798399925232,-0.0747702494263649,-0.0833376199007034,0.0,0.0,0.2288945913314819,-0.6640473008155823
-0.0268165580928325,1.2277519702911377,-0.124744713306427,-0.5070409774780273,-0.0774972289800643,-0.0545441880822181,0.0,0.0,-0.2497382164001464,-0.0877239108085632
-0.0281239505857229,1.2156678438186646,-0.1279693096876144,-0.5372135639190674,-0.0802308842539787,-0.0546780116856098,0.0,0.0,-0.706366240978241,-0.6205912232398987
-0.0295001026242971,1.202914476394653,-0.1358372271060943,-0.5669153332710266,-0.0819929540157318,-0.0352448001503944,0.0,0.0,-0.2853448390960693,0.4588602781295776
-0.0309052467346191,1.18948233127594,-0.1387321650981903,-0.5970801711082458,-0.0837561935186386,-0.0352678932249546,0.0,0.0,0.5159769058227539,-0.471560001373291
-0.0321771614253521,1.1761034727096558,-0.1259671747684478,-0.5946881175041199,-0.0849629864096641,-0.0241383649408817,0.0,0.0,0.5820364952087402,-0.2738326787948608
-0.0333825126290321,1.1624839305877686,-0.1196395978331565,-0.6053629517555237,-0.0858540534973144,-0.0178231075406074,0.0,0.0,0.1461724042892456,-0.0425605177879333
-0.0346716865897178,1.1488656997680664,-0.1275628060102462,-0.6053333878517151,-0.0871927067637443,-0.0267753396183252,0.0,0.0,-0.0919426679611206,-0.8146499991416931
-0.0360635742545127,1.1345621347427368,-0.1398978382349014,-0.6356740593910217,-0.0865004733204841,0.0138446940109133,0.0,0.0,0.3672428131103515,-0.4618732929229736
-0.0374210365116596,1.1204779148101809,-0.1364664137363433,-0.625924289226532,-0.085776574909687,0.0144778043031692,0.0,0.0,-0.6472342610359192,0.2341299057006836
-0.0387971885502338,1.1057151556015017,-0.138365551829338,-0.6560861468315125,-0.0850313231348991,0.0149049805477261,0.0,0.0,0.7443760633468628,-0.2366529107093811
-0.0402582176029682,1.0915132761001587,-0.146237775683403,-0.6311787366867065,-0.0848975926637649,0.002674679737538,0.0,0.0,-0.4846574068069458,-0.6766433715820312
-0.0417900085449218,1.0766373872756958,-0.15475395321846,-0.6610603332519531,-0.0833388492465019,0.0311748273670673,0.0,0.0,-0.2528501749038696,0.0033588409423828
-0.0433355346322059,1.0610828399658203,-0.156168133020401,-0.6912222504615784,-0.0817443281412124,0.0318905673921108,0.0,0.0,-0.2931632995605469,0.039224624633789
-0.0448932647705078,1.0448497533798218,-0.1574253737926483,-0.7213841080665588,-0.0801087170839309,0.0327122434973716,0.0,0.0,-0.366615891456604,-0.4883790016174316
-0.0464615821838378,1.027937889099121,-0.1585285663604736,-0.7515459060668945,-0.0784265026450157,0.0336442068219184,0.0,0.0,0.4391372203826904,-0.600874125957489
-0.0481223091483116,1.0108245611190796,-0.1689010262489318,-0.7604480981826782,-0.0756269320845604,0.0559911616146564,0.0,0.0,0.8398995399475098,-0.3400657176971435
-0.0497196204960346,0.9940754771232604,-0.1627049446105957,-0.7442633509635925,-0.0726853385567665,0.0588317327201366,0.0,0.0,0.2252479791641235,0.3114511966705322
-0.0512687675654888,0.9774853587150574,-0.158009871840477,-0.7371923327445984,-0.0696170255541801,0.0613663010299205,0.0,0.0,-0.7018755078315735,-0.0346899032592773
-0.0528223998844623,0.9602167010307312,-0.1585330814123153,-0.7673546671867371,-0.0664780586957931,0.0627791211009025,0.0,0.0,0.0471760034561157,0.4992192983627319
-0.0543229095637798,0.9429890513420104,-0.1534207165241241,-0.7655251026153564,-0.0631504580378532,0.0665522292256355,0.0,0.0,0.207000732421875,0.4554243087768554
-0.0558150298893451,0.9260071516036988,-0.1525278985500335,-0.7546154856681824,-0.0598722025752067,0.065564826130867,0.0,0.0,0.450430154800415,0.1168086528778076
-0.0572508797049522,0.909143567085266,-0.1471073031425476,-0.7493588328361511,-0.0563888400793075,0.0696672052145004,0.0,0.0,0.3623552322387695,0.0885061025619506
-0.0587375648319721,0.8925701975822449,-0.1518813669681549,-0.7364704608917236,-0.0532155893743038,0.0634647533297538,0.0,0.0,0.4000401496887207,0.7605255842208862
-0.0600218772888183,0.8759669661521912,-0.1303872913122177,-0.7378526926040649,-0.0512784495949745,0.0387427546083927,0.0,0.0,-0.8691498637199402,0.1088958978652954
-0.0613030418753623,0.8586851358413696,-0.1301823556423187,-0.7680145502090454,-0.0492301955819129,0.0409651920199394,0.0,0.0,0.0644284486770629,0.4098647832870483
-0.0624991431832313,0.8412301540374756,-0.1221093162894249,-0.7756986021995544,-0.0467678643763065,0.0492466278374195,0.0,0.0,0.2995433807373047,0.0211888551712036
-0.0637111663818359,0.823445737361908,-0.12366833537817,-0.7903396487236023,-0.0443281158804893,0.0487948283553123,0.0,0.0,-0.0195280909538269,0.4370558261871338
-0.0649168938398361,0.8049827218055725,-0.1231787577271461,-0.8205016255378723,-0.0417558960616588,0.0514442324638366,0.0,0.0,0.8275631666183472,0.8322291374206543
-0.0659551620483398,0.7865685820579529,-0.1050355210900306,-0.8183708786964417,-0.0405559949576854,0.0239978898316621,0.0,0.0,0.9323389530181884,0.6357309818267822
-0.0670361518859863,0.7689496874809265,-0.1078031212091445,-0.7830703258514404,-0.0408451147377491,-0.0057824631221592,0.0,0.0,0.6843805313110352,-0.3074095249176025
-0.0682106986641883,0.7518646717071533,-0.1166875511407852,-0.7593570947647095,-0.041605956852436,-0.0152169372886419,0.0,0.0,0.53641676902771,0.0437517166137695
-0.0693758949637413,0.734811007976532,-0.1158188804984092,-0.75795978307724,-0.0422967039048671,-0.0138147100806236,0.0,0.0,-0.1496504545211792,-0.0609152317047119
-0.0705310851335525,0.7170785069465637,-0.1149921044707298,-0.7881212830543518,-0.0428191684186458,-0.0104492949321866,0.0,0.0,0.8191092014312744,0.2482354640960693
-0.0717043876647949,0.6998870372772217,-0.1166823059320449,-0.7640830278396606,-0.0434595979750156,-0.0128085790202021,0.0,0.0,0.1530412435531616,0.6401827335357666
-0.0727173835039138,0.6824694275856018,-0.0996647030115127,-0.774165689945221,-0.0450702309608459,-0.0322128757834434,0.0,0.0,0.6065428256988525,0.1666079759597778
-0.0736808776855468,0.665535032749176,-0.094931773841381,-0.7526769042015076,-0.046477310359478,-0.0281414929777383,0.0,0.0,0.7895805835723877,0.2524105310440063
-0.0744471549987793,0.6487022042274475,-0.0761476010084152,-0.7481439709663391,-0.0469417162239551,-0.0092883436009287,0.0,0.0,0.2419729232788086,0.1205048561096191
-0.0752566307783126,0.6317263245582581,-0.0803477317094802,-0.7545024752616882,-0.0475356541574001,-0.0118786543607711,0.0,0.0,0.2801194190979004,0.1991938352584839
-0.0759520530700683,0.6149916052818298,-0.0694944858551025,-0.7437613606452942,-0.0475832857191562,-0.0009525583009235,0.0,0.0,0.5966520309448242,0.4074413776397705
-0.0764712318778038,0.5985453128814697,-0.0527153201401233,-0.7309219241142273,-0.0467981472611427,0.0157025307416915,0.0,0.0,0.1736001968383789,0.3101648092269897
-0.0768981948494911,0.5822928547859192,-0.0439556166529655,-0.7222930788993835,-0.0455453246831893,0.0250563062727451,0.0,0.0,0.3459025621414184,0.5002782344818115
-0.0773113220930099,0.5663270354270935,-0.0416491664946079,-0.7095810174942017,-0.0452199950814247,0.0065067550167441,0.0,0.0,0.3391066789627075,0.5553184747695923
-0.0776104927062988,0.5501213669776917,-0.0294561684131622,-0.7202661037445068,-0.0456679202616214,-0.008958606980741,0.0,0.0,0.755581259727478,-0.5776563286781311
-0.0780238136649131,0.5343677401542664,-0.0419852659106254,-0.7001432776451111,-0.0450273789465427,0.0128108169883489,0.0,0.0,0.5269476175308228,0.5993828773498535
-0.0782336220145225,0.5186383724212646,-0.0209603793919086,-0.6990799307823181,-0.0450502522289752,-0.0004574685008265,0.0,0.0,0.3175814151763916,-0.1373025178909301
-0.0783922225236892,0.5029615759849548,-0.0161788556724786,-0.6967393755912781,-0.0447347126901149,0.0063108168542385,0.0,0.0,0.5290296077728271,0.3113749027252197
-0.0785170570015907,0.4871613383293152,-0.0131016774103045,-0.70221346616745,-0.0441288910806179,0.0121163604781031,0.0,0.0,0.9610979557037354,0.6329147815704346
-0.0787087455391883,0.4717410802841186,-0.018349751830101,-0.6853691935539246,-0.0449412427842617,-0.016247060149908,0.0,0.0,0.901756763458252,0.4495037794113159
-0.0788229927420616,0.4571165144443512,-0.0109883360564708,-0.6499931812286377,-0.045372437685728,-0.0086236326023936,0.0,0.0,0.9389727115631104,0.8071041107177734
-0.0787455588579177,0.4423063695430755,0.0093034151941537,-0.6582775115966797,-0.0469127111136913,-0.0308054033666849,0.0,0.0,0.3100515604019165,0.1027003526687622
-0.0786081328988075,0.427830159664154,0.014918128028512,-0.6434239745140076,-0.0480777621269226,-0.0233013350516557,0.0,0.0,0.5627269744873047,0.5096801519393921
-0.0784984603524208,0.4133477210998535,0.0131485145539045,-0.6437337398529053,-0.0502303019165992,-0.0430503189563751,0.0,0.0,0.9776121377944946,-0.639649510383606
-0.0785112380981445,0.3994161188602447,-0.0003629201673902,-0.6192144751548767,-0.0511395372450351,-0.0181845761835575,0.0,0.0,0.6425929069519043,0.0916583538055419
-0.0784583091735839,0.3857302069664001,0.005774637684226,-0.6082781553268433,-0.0516190268099308,-0.0095897587016224,0.0,0.0,0.5652613639831543,0.800592303276062
-0.0784336104989051,0.3725786507129669,0.0044926358386874,-0.5845854878425598,-0.05362194404006,-0.040058396756649,0.0,0.0,0.8599145412445068,0.0441062450408935
-0.0782905593514442,0.3597153425216675,0.0156481452286243,-0.5717505812644958,-0.0549469925463199,-0.0265007559210062,0.0,0.0,0.9582228660583496,0.5713496208190918
-0.0781198516488075,0.3468628525733948,0.0193751752376556,-0.571309506893158,-0.0572328679263591,-0.0457174368202686,0.0,0.0,0.8547396659851074,-0.6394907832145691
-0.0778991729021072,0.3338685035705566,0.0225784666836261,-0.5775445699691772,-0.0577368214726448,-0.0100787477567791,0.0,0.0,0.8118168115615845,0.3107627630233764
-0.0776950865983963,0.3207558095455169,0.0207696519792079,-0.5828036665916443,-0.0580972880125045,-0.0072095589712262,0.0,0.0,0.9637243747711182,0.3410826921463012
-0.0774514228105545,0.3083767890930176,0.0244729146361351,-0.5501810908317566,-0.0581976808607578,-0.0020079493988305,0.0,0.0,0.8717281818389893,-0.1115400195121765
-0.0770702362060546,0.2966949641704559,0.0374778136610984,-0.5191676020622253,-0.0575704984366893,0.0125436736270785,0.0,0.0,0.3990767002105713,0.1905045509338379
-0.0767528563737869,0.2853789627552032,0.031236520037055,-0.5029143691062927,-0.0570729672908782,0.0099504701793193,0.0,0.0,0.2577424049377441,-0.4021707773208618
-0.0765299797058105,0.2737701535224914,0.0219311825931072,-0.5159347057342529,-0.0567196682095527,0.0070660426281392,0.0,0.0,0.5651848316192627,0.3209021091461181
-0.0762390121817588,0.2626007199287414,0.0282504074275493,-0.4963868260383606,-0.0558769591152668,0.0168539360165596,0.0,0.0,0.6415982246398926,0.1111179590225219
-0.0760310143232345,0.2516173124313354,0.020098628476262,-0.488127052783966,-0.0551865100860595,0.0138088362291455,0.0,0.0,0.7333271503448486,-0.2823600769042969
-0.0758578330278396,0.2410248070955276,0.0165782161056995,-0.4707497060298919,-0.0544480122625827,0.0147698940709233,0.0,0.0,0.2945530414581299,0.2228785753250122
-0.0756827369332313,0.2305749207735061,0.0164868533611297,-0.46440389752388,-0.0534385368227958,0.0201895479112863,0.0,0.0,0.6694804430007935,0.564618706703186
-0.075358010828495,0.2203157246112823,0.0320260971784591,-0.4559494853019714,-0.0529935136437416,0.0089003723114728,0.0,0.0,0.6271131038665771,0.0262895822525024
-0.0750150680541992,0.2098807245492935,0.0334149524569511,-0.4637455642223358,-0.052126657217741,0.0173373892903327,0.0,0.0,0.4285540580749511,0.3082261085510254
-0.0745991691946983,0.1992821246385574,0.0400206558406353,-0.4709929525852203,-0.0505756065249443,0.0310209151357412,0.0,0.0,0.7368152141571045,-0.0637854933738708
-0.0740260109305381,0.1888923943042755,0.0547079816460609,-0.4616807401180267,-0.0479970946907997,0.0515704751014709,0.0,0.0,0.7923195362091064,0.0776934623718261
-0.0733111351728439,0.1784541010856628,0.0678558275103569,-0.4638121724128723,-0.0444084741175174,0.071772426366806,0.0,0.0,0.7675552368164062,-0.0910014510154724
-0.0725988373160362,0.1685420125722885,0.0673108175396919,-0.4404264986515045,-0.0405392758548259,0.0773840397596359,0.0,0.0,0.2065622806549072,0.4231163263320923
-0.0718761458992958,0.1587802022695541,0.0679352283477783,-0.4337456524372101,-0.0362591445446014,0.0856025889515876,0.0,0.0,0.4313433170318603,-0.2447566986083984
-0.0710617080330848,0.1492004245519638,0.0762969851493835,-0.4256539642810821,-0.0311761815100908,0.1016592532396316,0.0,0.0,0.3052994012832641,-0.4023561477661133
-0.0701990127563476,0.1393251717090606,0.0804413110017776,-0.4387896656990051,-0.0254239458590745,0.1150446385145187,0.0,0.0,0.5413877964019775,-0.6438423991203308
-0.0694705992937088,0.12948639690876,0.0655366405844688,-0.437175303697586,-0.018209308385849,0.1442929059267044,0.0,0.0,0.8879673480987549,0.6285097599029541
-0.0686150565743446,0.1204514354467392,0.0789472833275795,-0.4014871716499328,-0.0116792656481266,0.1306007355451584,0.0,0.0,0.6319315433502197,-0.7122593522071838
-0.0678811073303222,0.1115829795598983,0.0650944858789444,-0.3941134214401245,-0.0034958433825522,0.1636684536933899,0.0,0.0,0.8725717067718506,0.7480940818786621
-0.0672874450683593,0.1033963039517402,0.052655566483736,-0.363849937915802,0.0031387950293719,0.1326926052570343,0.0,0.0,0.7027747631072998,0.9468252658843994
-0.0665719956159591,0.0956159681081771,0.0662962719798088,-0.3458139598369598,0.0083118053153157,0.1034603342413902,0.0,0.0,0.2704278230667114,0.7192153930664062
-0.0659048110246658,0.0880278944969177,0.0627173632383346,-0.337271898984909,0.0122637329623103,0.0790384858846664,0.0,0.0,0.6136951446533203,0.9194765090942384
-0.0653211623430252,0.0808646753430366,0.0560772493481636,-0.3183861076831817,0.0145305041223764,0.0453349836170673,0.0,0.0,0.3812828063964844,0.1857879161834716
-0.0648229569196701,0.0736468881368637,0.0473470576107502,-0.3208152055740356,0.0169604066759347,0.0485981777310371,0.0,0.0,0.6092178821563721,0.9664132595062256
-0.0644479766488075,0.0666287243366241,0.0368895642459392,-0.3119235038757324,0.0175669491291046,0.0121306469663977,0.0,0.0,0.8968144655227661,0.9728554487228394
-0.0642619132995605,0.0598286502063274,0.0200234316289424,-0.3022093474864959,0.0161671061068773,-0.0279967542737722,0.0,0.0,0.8267796039581299,0.9690829515457152
-0.0639472007751464,0.0535525642335414,0.0343965403735637,-0.278909683227539,0.013277948834002,-0.057783018797636,0.0,0.0,0.6830599308013916,0.787649393081665
-0.0635742172598838,0.0471575371921062,0.0414479151368141,-0.2841927111148834,0.0091787371784448,-0.0819840878248214,0.0,0.0,0.7086222171783447,0.1533255577087402
-0.0631287544965744,0.0412696227431297,0.0477832145988941,-0.2616705000400543,0.0059902691282331,-0.0637697130441665,0.0,0.0,0.3324826955795288,0.788038969039917
-0.062717817723751,0.0356489978730678,0.0457301214337348,-0.2497943788766861,0.001415348961018,-0.0914984196424484,0.0,0.0,0.3998299837112427,0.8545310497283936
-0.0621777549386024,0.0304465144872665,0.0600009486079216,-0.2312292158603668,-0.0045064380392432,-0.1184355467557907,0.0,0.0,0.1358630657196045,0.6390929222106934
-0.0616029724478721,0.0251629203557968,0.0644885748624801,-0.2348622232675552,-0.0114327985793352,-0.138527512550354,0.0,0.0,0.7441550493240356,-0.0054715871810913
-0.0611046776175498,0.0204943045973777,0.056718923151493,-0.2075628340244293,-0.0182215496897697,-0.1357750743627548,0.0,0.0,0.3835631608963012,0.0430086851119995
-0.0606239326298236,0.0161353200674057,0.054547868669033,-0.1938249766826629,-0.0246148388832807,-0.1278655678033828,0.0,0.0,0.1165539026260376,0.4412474632263183
-0.0601634979248046,0.0115607595071196,0.0521056354045867,-0.2034245282411575,-0.0306086614727973,-0.1198765188455581,0.0,0.0,0.7096281051635742,0.2720886468887329
-0.0598942749202251,0.0072730872780084,0.0334406420588493,-0.1907079964876175,-0.0370538532733917,-0.128903716802597,0.0,0.0,0.6886757612228394,0.358379602432251
-0.0598228462040424,0.0031033612322062,0.0141615997999906,-0.1855118125677108,-0.0439857542514801,-0.1386381238698959,0.0,0.0,0.8020111322402954,0.7728221416473389
-0.0596895217895507,-0.000103666781797,0.0027839043177664,-0.1422680765390396,-0.0335161350667476,0.2094548940658569,1.0,0.0,0.6919424533843994,0.9011403322219848
-0.0593212135136127,-0.0025213384069502,0.009623734280467,-0.1070852428674697,-0.0065747606568038,0.5389281511306763,1.0,0.0,0.4609835147857666,0.8776079416275024
-0.0587691292166709,-0.0039475224912166,0.0325822755694389,-0.0634869188070297,0.0157309900969266,0.4460706710815429,1.0,1.0,0.1378324031829834,0.6639704704284668
-0.0583160407841205,-0.0046432521194219,0.0399193242192268,-0.0310027189552783,0.0210631601512432,0.1066601425409317,1.0,1.0,-0.4255696535110473,-0.0902790427207946
-0.057992648333311,-0.0049463058821856,0.0300020780414342,-0.0135162184014916,0.0233795568346977,0.0463402159512043,1.0,1.0,-0.838027834892273,-0.0486038923263549
-0.0577985756099224,-0.0048585082404315,0.0200975835323333,0.0039031775668263,0.0227115061134099,-0.0133512336760759,1.0,1.0,-0.6739017963409424,-0.166537344455719
