x_pos,y_pos,x_vel,y_vel,angle,ang_vel,leg_1,leg_2,main_booster,lat_booster
-0.0016098022460937,1.403376579284668,-0.1633367091417312,-0.3352732360363006,0.002111017005518,0.0416677445173263,0.0,0.0,0.8880569792164157,0.5182401039639019
-0.0032038688659667,1.396396517753601,-0.1609480232000351,-0.3102215528488159,0.0036304532550275,0.0303919855505228,0.0,0.0,-0.4490645103802484,-0.8274039317324013
-0.0049352645874023,1.3891617059707642,-0.1762585937976837,-0.3215571641921997,0.0067193433642387,0.0617834851145744,0.0,0.0,-0.5331103482928055,0.8825931949044377
-0.0066974638029932,1.3816766738891602,-0.1782332360744476,-0.3326773345470428,0.0087085170671343,0.03978718444705,0.0,0.0,0.733942557747278,-0.7724079415526326
-0.0084645273163914,1.3749738931655884,-0.1809035688638687,-0.2979284524917602,0.0128581542521715,0.0830004438757896,0.0,0.0,-0.3935438260449546,0.6190283192050694
-0.0102583887055516,1.3680236339569092,-0.1823734939098358,-0.3089362680912018,0.015819139778614,0.05922532081604,0.0,0.0,-0.7423065224347027,-0.6516951741996075
-0.0121917724609375,1.3608242273330688,-0.1980096697807312,-0.3200262188911438,0.0204427931457757,0.0924815684556961,0.0,0.0,0.1103031772372122,-0.6318394899596853
-0.0141572952270507,1.354033350944519,-0.2030012905597686,-0.3019229471683502,0.0268145538866519,0.1274471133947372,0.0,0.0,-0.0093264034439384,0.5117993491768188
-0.0161697380244731,1.3470019102096558,-0.2070202380418777,-0.3126191198825836,0.0325268097221851,0.1142552942037582,0.0,0.0,0.3349500781164709,-0.5416899358289593
-0.0183307640254497,1.340604543685913,-0.2233055084943771,-0.2845016717910766,0.0396521836519241,0.1425208300352096,0.0,0.0,0.640874993275012,0.587569978569092
-0.0204627029597759,1.3348534107208252,-0.2198141068220138,-0.255796879529953,0.0461979359388351,0.1309272944927215,0.0,0.0,0.1376518964752906,0.6164026065706822
-0.0225944519042968,1.3294057846069336,-0.2189875394105911,-0.2423079311847686,0.0519608780741691,0.1152693778276443,0.0,0.0,-0.5534651011915006,0.7438097963140449
-0.0247406009584665,1.323720097541809,-0.2189832925796508,-0.252857357263565,0.0562857128679752,0.0865044817328453,0.0,0.0,0.794796269548762,-0.9729265508765412
-0.0269863121211528,1.3183565139770508,-0.2313936948776245,-0.2386552989482879,0.0630383342504501,0.1350648701190948,0.0,0.0,0.0174426513765795,0.6449076429547433
-0.0292001720517873,1.3135263919830322,-0.2273869216442108,-0.2149354517459869,0.0689827501773834,0.1188988909125328,0.0,0.0,-0.5598096665502967,0.6111514464927643
-0.0314417853951454,1.3084475994110107,-0.2290838211774826,-0.2259571552276611,0.0738646909594535,0.0976477414369583,0.0,0.0,-0.2029674198350213,-0.5374877578834178
-0.0338009819388389,1.3031244277954102,-0.242047905921936,-0.2369061261415481,0.0799428597092628,0.1215742379426956,0.0,0.0,0.2521709650016666,-0.6504723893861913
-0.036198329180479,1.2979815006256104,-0.2477565109729766,-0.2290232330560684,0.0878923907876014,0.1590049713850021,0.0,0.0,0.7641109636604013,-0.936084387297586
-0.0387142188847065,1.29388689994812,-0.2620323896408081,-0.1826215386390686,0.0982651636004448,0.2074745446443557,0.0,0.0,0.2486920410523467,-0.7279076601827275
-0.0414815917611122,1.2901660203933716,-0.2889178097248077,-0.1662164777517318,0.1103771701455116,0.2422617971897125,0.0,0.0,-0.2099365475586803,-0.6473787626929481
-0.0443730354309082,1.2861979007720947,-0.3027238845825195,-0.1774196475744247,0.1238877177238464,0.2702351212501526,0.0,0.0,-0.0253004036237569,0.8842877123749044
-0.0472769737243652,1.281992793083191,-0.3025209307670593,-0.1879458725452423,0.1359869390726089,0.2420061379671096,0.0,0.0,0.1899440287240217,0.922357030654964
-0.0501363761723041,1.278160572052002,-0.2966434359550476,-0.1713309586048126,0.1466703563928604,0.2136875689029693,0.0,0.0,-0.4032104154000926,-0.5441489225392688
-0.0531153678894043,1.2740684747695925,-0.3099283576011657,-0.1831068247556686,0.158706858754158,0.2407516539096832,0.0,0.0,-0.7958026661492206,0.5562135133562007
-0.0561434738337993,1.269740343093872,-0.3143582046031952,-0.1936361640691757,0.170279785990715,0.23147913813591,0.0,0.0,0.1328214347578871,0.9664074114321608
-0.0593744292855262,1.2658534049987793,-0.3330994248390198,-0.1739296019077301,0.1803100556135177,0.2006050795316696,0.0,0.0,0.3118483213663796,-0.5832437831391156
-0.0628319755196571,1.2625643014907837,-0.3573079109191894,-0.1476273536682129,0.1919042915105819,0.2318848669528961,0.0,0.0,-0.0757245892597646,0.9783266608780576
-0.0663118362426757,1.2590570449829102,-0.3583537638187408,-0.1572549045085907,0.202342689037323,0.2087678164243698,0.0,0.0,-0.6941009685763821,0.5250038441868705
-0.0698401480913162,1.2553184032440186,-0.3627355396747589,-0.167555347084999,0.2123390883207321,0.1999283134937286,0.0,0.0,-0.0927927276186593,0.5065322831049222
-0.0734093636274337,1.2513443231582642,-0.3662219047546386,-0.1779921203851699,0.2217391580343246,0.1880009919404983,0.0,0.0,0.2954252492530409,0.7405910886112987
-0.077130988240242,1.2481285333633425,-0.3803672790527344,-0.1441753953695297,0.2300460636615753,0.1661381125450134,0.0,0.0,-0.7518224716186523,0.9914442300796508
-0.0808629021048545,1.2446844577789309,-0.3800446093082428,-0.1541561037302017,0.2369979918003082,0.1390382796525955,0.0,0.0,-0.6528955101966858,0.9937748908996582
-0.0846073180437088,1.2410268783569336,-0.3799445033073425,-0.1634518057107925,0.2425897568464279,0.1118353232741355,0.0,0.0,-0.784039318561554,0.9740773439407348
-0.0883594527840614,1.2371392250061035,-0.3793549239635467,-0.1734793186187744,0.2468047589063644,0.0843004137277603,0.0,0.0,-0.7026757001876831,0.9707274436950684
-0.0921106338500976,1.233035683631897,-0.3776431381702423,-0.1828091591596603,0.249374434351921,0.0513933189213275,0.0,0.0,-0.8767277002334595,0.9866223335266112
-0.0958594307303428,1.228722095489502,-0.3757414221763611,-0.1918583959341049,0.2502496540546417,0.0175043959170579,0.0,0.0,-0.9422593712806702,0.9977784156799316
-0.0996075645089149,1.22418475151062,-0.3741320967674255,-0.2015419602394104,0.2495617270469665,-0.0137584339827299,0.0,0.0,-0.9166250228881836,0.9614825248718262
-0.1033507362008094,1.219437837600708,-0.371962308883667,-0.2105794250965118,0.2471572309732437,-0.0480895563960075,0.0,0.0,-0.9746089577674866,0.9809780120849608
-0.1070966720581054,1.214481234550476,-0.3707407116889953,-0.2196526974439621,0.2432409077882766,-0.0783268064260482,0.0,0.0,-0.9801837801933287,0.983403205871582
-0.1108337417244911,1.209308624267578,-0.3681445717811584,-0.2289857268333435,0.2375880926847458,-0.1130562275648117,0.0,0.0,-0.9211826920509338,0.9673130512237548
-0.1145796775817871,1.2039196491241455,-0.3677680194377899,-0.2384233027696609,0.2306593060493469,-0.1385757625102996,0.0,0.0,-0.9728987812995912,0.944815158843994
-0.1183051094412803,1.1983132362365725,-0.3637685775756836,-0.2478234767913818,0.2217662036418914,-0.1778621673583984,0.0,0.0,-0.3963943719863891,0.901172399520874
-0.1220144256949424,1.1924787759780884,-0.3603790700435638,-0.2577646970748901,0.211094319820404,-0.2134372740983963,0.0,0.0,-0.9157091975212096,0.6821385622024536
-0.1257267892360687,1.1864169836044312,-0.35938560962677,-0.2677587866783142,0.1991378664970398,-0.2391291856765747,0.0,0.0,-0.8338711261749268,0.5989397764205933
-0.1294582337141037,1.1801161766052246,-0.3604375123977661,-0.2783745229244232,0.1863681077957153,-0.2553950548171997,0.0,0.0,-0.8148888349533081,0.5764350891113281
-0.1332021653652191,1.1735785007476809,-0.3607246875762939,-0.2889091670513153,0.1726515740156173,-0.2743309140205383,0.0,0.0,-0.8850200176239014,0.6712169647216797
-0.1369480192661285,1.1668075323104858,-0.3596888184547424,-0.299269825220108,0.1577398926019668,-0.2982335090637207,0.0,0.0,-0.8623674511909485,0.83563232421875
-0.1407000571489334,1.1598137617111206,-0.3591699302196502,-0.3092119097709656,0.1417360156774521,-0.3200776576995849,0.0,0.0,-0.8814574480056763,0.952211618423462
-0.1444511413574218,1.1525968313217163,-0.3578114807605743,-0.3191930055618286,0.1245055571198463,-0.3446093201637268,0.0,0.0,-0.8943831920623779,0.7061077356338501
-0.1482030898332595,1.1451447010040283,-0.3567439019680023,-0.3297709822654724,0.1061655580997467,-0.3667999804019928,0.0,0.0,-0.9198333024978638,0.7643969058990479
-0.1519331932067871,1.1374614238739014,-0.3528518080711365,-0.3401671946048736,0.086175188422203,-0.399807870388031,0.0,0.0,-0.9203373789787292,0.9339615106582642
-0.1556475609540939,1.1295510530471802,-0.3497710824012756,-0.3504660427570343,0.0647239163517952,-0.4290257096290588,0.0,0.0,-0.9491063356399536,0.9098869562149048
-0.1593252122402191,1.1214027404785156,-0.344115138053894,-0.3612910807132721,0.0413438454270362,-0.4676019549369812,0.0,0.0,-0.942252516746521,0.7801461219787598
-0.1629873216152191,1.113025188446045,-0.3411436676979065,-0.3718242645263672,0.0165981333702802,-0.4949145317077636,0.0,0.0,-0.988640546798706,-0.0302956700325012
-0.1666931211948394,1.1044079065322876,-0.3456993401050567,-0.3828968703746795,-0.0079668527469038,-0.4912998080253601,0.0,0.0,-0.9733121991157532,0.4337981939315796
-0.1704404801130294,1.0955506563186646,-0.350014716386795,-0.3939684629440307,-0.0323669649660587,-0.4880027174949646,0.0,0.0,-0.9797940850257874,0.6635980606079102
-0.1741660088300705,1.0864568948745728,-0.3464563190937042,-0.4049321711063385,-0.0581440962851047,-0.5155430436134338,0.0,0.0,-0.9737297892570496,-0.0685709118843078
-0.1779279708862304,1.0771238803863523,-0.3502742052078247,-0.4160082638263702,-0.0837897285819053,-0.5129133462905884,0.0,0.0,-0.9121877551078796,0.4903891086578369
-0.18172387778759,1.067551612854004,-0.3538360595703125,-0.4270835220813751,-0.1093215346336364,-0.5106365084648132,0.0,0.0,-0.9583256840705872,0.1258759498596191
-0.1855510771274566,1.0577397346496582,-0.3571376502513885,-0.4381580948829651,-0.1347576826810836,-0.5087233781814575,0.0,0.0,-0.9577884674072266,0.0743205547332763
-0.1894069612026214,1.0476882457733154,-0.3601755201816559,-0.4492321610450744,-0.1601168662309646,-0.5071839690208435,0.0,0.0,-0.8243010640144348,0.5634191036224365
-0.1932520866394043,1.037391185760498,-0.3583115637302398,-0.4606731235980987,-0.1863567382097244,-0.5247977375984192,0.0,0.0,-0.8230118155479431,-0.8374700546264648
-0.1971723586320877,1.026867389678955,-0.3673383295536041,-0.4710263311862945,-0.2112239003181457,-0.4973433911800384,0.0,0.0,-0.6339443922042847,-0.7457773089408875
-0.2011688649654388,1.016121745109558,-0.3765143156051636,-0.4810550510883331,-0.2346305698156356,-0.4681333005428314,0.0,0.0,-0.4099200963973999,-0.85813969373703
-0.2052497863769531,1.0051522254943848,-0.3867543637752533,-0.4910916984081268,-0.2563364207744598,-0.4341169893741607,0.0,0.0,-0.0872211456298828,-0.5021300911903381
-0.2093927413225174,0.993958592414856,-0.394252747297287,-0.5011230111122131,-0.2768409252166748,-0.4100901186466217,0.0,0.0,-0.1097906231880188,0.6876370906829834
-0.2134935855865478,0.9825077652931212,-0.3887158930301666,-0.5131253004074097,-0.2988261282444,-0.4397040903568268,0.0,0.0,-0.6093958616256714,-0.1496548056602478
-0.2176050245761871,0.9708155989646912,-0.3898635506629944,-0.5241868495941162,-0.3208763599395752,-0.4410050511360168,0.0,0.0,-0.1259822845458984,0.2724661827087402
-0.2217245995998382,0.9588818550109864,-0.3907450139522552,-0.5352489948272705,-0.3430128693580627,-0.4427300989627838,0.0,0.0,0.8133292198181152,0.5792254209518433
-0.2257364690303802,0.9474713802337646,-0.3786422610282898,-0.5126813650131226,-0.3667385578155517,-0.4745137691497803,0.0,0.0,0.8441381454467773,-0.8619420528411865
-0.2296478748321533,0.9369787573814392,-0.3701504170894623,-0.4718696773052215,-0.3890202045440674,-0.4456327557563782,0.0,0.0,0.4756932258605957,-0.8434156179428101
-0.2333813607692718,0.9270378351211548,-0.3540654480457306,-0.4472302794456482,-0.4096709191799164,-0.4130141139030456,0.0,0.0,0.6474831104278564,-0.6153265237808228
-0.2369474917650222,0.9181314706802368,-0.3382279276847839,-0.4012892842292785,-0.4295305013656616,-0.3971924781799316,0.0,0.0,0.4109538793563843,-0.3469882607460022
-0.240247294306755,0.9096163511276244,-0.3118529915809631,-0.3841167688369751,-0.4492925405502319,-0.3952408134937286,0.0,0.0,0.7463337182998657,-0.8538374900817871
-0.2434591799974441,0.9014806151390076,-0.304585725069046,-0.3670397698879242,-0.4675598442554474,-0.365346610546112,0.0,0.0,0.1645950078964233,-0.5683119893074036
-0.2465539872646331,0.8933976292610168,-0.2939586639404297,-0.3645641207695007,-0.4847919344902038,-0.3446424901485443,0.0,0.0,0.8455696105957031,-0.6458702683448792
-0.2495423257350921,0.8856310844421387,-0.2843398749828338,-0.3503608405590057,-0.5010220408439636,-0.3246007561683655,0.0,0.0,0.7263443470001221,-0.7350094318389893
-0.2521769404411316,0.8787655234336853,-0.2502203285694122,-0.3100505173206329,-0.5159845352172852,-0.2992496490478515,0.0,0.0,0.768439769744873,-0.694580078125
-0.2543308734893799,0.8727728128433228,-0.203472688794136,-0.2709140181541443,-0.529559314250946,-0.2714957594871521,0.0,0.0,0.9339836835861206,-0.8704818487167358
-0.2561655938625335,0.8679426908493042,-0.1727647632360458,-0.2189031094312667,-0.5418487787246704,-0.2457892149686813,0.0,0.0,0.913578987121582,-0.8491198420524597
-0.2579855322837829,0.8635321259498596,-0.1723557710647583,-0.1999327540397644,-0.5529813170433044,-0.2226512879133224,0.0,0.0,0.8780968189239502,-0.9143211841583252
-0.2593289315700531,0.8600471019744873,-0.1262286603450775,-0.1582500040531158,-0.5624183416366577,-0.18873992562294,0.0,0.0,0.9362587928771972,-0.9653744101524352
-0.2604668736457824,0.8573388457298279,-0.1070010513067245,-0.1232461556792259,-0.5703606605529785,-0.1588459312915802,0.0,0.0,0.3403849601745605,-0.8996400237083435
-0.2613860666751861,0.8551812171936035,-0.0864522904157638,-0.0982492640614509,-0.5767844319343567,-0.1284750998020172,0.0,0.0,0.1090841293334961,-0.9670491814613342
-0.2620948851108551,0.8534426093101501,-0.0668636485934257,-0.0790304467082023,-0.5815223455429077,-0.0947596207261085,0.0,0.0,-0.371314525604248,-0.9523540735244752
-0.2628315985202789,0.8515114188194275,-0.0707914978265762,-0.0870984867215156,-0.5849276781082153,-0.0681072100996971,0.0,0.0,-0.3761719465255737,-0.6388487219810486
-0.2635841369628906,0.8493699431419373,-0.0731232836842536,-0.0961265191435813,-0.5874564051628113,-0.0505755059421062,0.0,0.0,0.2615432739257812,-0.8685640692710876
-0.2641297280788421,0.8473508954048157,-0.0536471232771873,-0.0901377946138382,-0.5885347723960876,-0.0215668771415948,0.0,0.0,-0.2499008178710937,-0.9219511151313782
-0.2646915912628174,0.8451321721076965,-0.0561509132385253,-0.0986240953207016,-0.5885754823684692,-0.000814588915091,0.0,0.0,-0.22040855884552,-0.7568734884262085
-0.2652632296085357,0.8427020311355591,-0.057778500020504,-0.1077402755618095,-0.5878486633300781,0.0145362745970487,0.0,0.0,0.1155493259429931,-0.7161862850189209
-0.2655704021453857,0.8407147526741028,-0.0322215110063552,-0.0876562073826789,-0.5860629081726074,0.0357150249183177,0.0,0.0,-0.3955463171005249,-0.8187258839607239
-0.265893280506134,0.8385383486747742,-0.0347966812551021,-0.0956208705902099,-0.5830960869789124,0.0593362860381603,0.0,0.0,-0.3735122680664062,-0.6082233190536499
-0.2662134766578674,0.8361507058143616,-0.0349791273474693,-0.1048193052411079,-0.5795994997024536,0.0699320212006568,0.0,0.0,-0.2221521139144897,-0.953291356563568
-0.266554981470108,0.8335614800453186,-0.0381101444363594,-0.1133557632565498,-0.5749374032020569,0.0932416915893554,0.0,0.0,0.0479141473770141,-0.7624073028564453
-0.2667687833309173,0.8312131762504578,-0.0262792557477951,-0.1022718474268913,-0.5691875219345093,0.1149971038103103,0.0,0.0,0.1000124216079711,-0.8364210724830627
-0.2666331827640533,0.8293549418449402,0.0075565762817859,-0.0800467655062675,-0.5621630549430847,0.1404890716075897,0.0,0.0,-0.4360854625701904,-0.9205793142318726
-0.266524076461792,0.8273125886917114,0.0035904634278267,-0.087727814912796,-0.5536457896232605,0.1703456789255142,0.0,0.0,-0.4955590963363647,-0.8107088208198547
-0.2664397656917572,0.8250932693481445,-0.0002639461599756,-0.0950871706008911,-0.5435889363288879,0.2011372596025467,0.0,0.0,-0.5932429432868958,-0.7693596482276917
-0.2663601040840149,0.8226741552352905,-0.0015052016824483,-0.1037349253892898,-0.5326927900314331,0.2179223746061325,0.0,0.0,-0.398788571357727,-0.786872386932373
-0.2662974298000335,0.8200682997703552,-0.0043678157962858,-0.1116851791739463,-0.5205438137054443,0.2429793775081634,0.0,0.0,-0.1616906523704528,-0.8756882548332214
-0.2662608623504638,0.817283570766449,-0.0084157865494489,-0.1192140653729438,-0.5068585872650146,0.2737045884132385,0.0,0.0,-0.0667314529418945,-0.350385844707489
-0.2661848068237304,0.8142568469047546,-0.0040321871638298,-0.1302728503942489,-0.4937641322612762,0.2618888616561889,0.0,0.0,0.1400418281555175,-0.5671930313110352
-0.265989601612091,0.811631441116333,0.0073957443237304,-0.1123950779438018,-0.4802120923995971,0.2710405588150024,0.0,0.0,-0.0868268609046936,-0.1427274942398071
-0.2657542824745178,0.8087639808654785,0.0118565903976559,-0.1234531328082084,-0.4672635495662689,0.2589710354804992,0.0,0.0,-0.1495810747146606,-0.5262472033500671
-0.2655081152915954,0.8056797981262207,0.0125913098454475,-0.1330911964178085,-0.4540109932422638,0.2650515437126159,0.0,0.0,-0.2519046664237976,-0.2512338757514953
-0.2652215957641601,0.8023531436920166,0.0171066541224718,-0.1441480815410614,-0.4413729608058929,0.2527607977390289,0.0,0.0,0.0252798795700073,-0.676195502281189
-0.264645904302597,0.7993991374969482,0.0451602563261985,-0.1274439394474029,-0.4278608560562134,0.2702426016330719,0.0,0.0,-0.6799860000610352,-0.5382930636405945
-0.2640682160854339,0.796234130859375,0.0447765924036502,-0.1367829144001007,-0.4138050675392151,0.281115710735321,0.0,0.0,-0.4508012533187866,-0.1136624217033386
-0.2634500563144684,0.7928268313407898,0.0493307225406169,-0.1478402912616729,-0.4003777503967285,0.2685461342334747,0.0,0.0,-0.0225148200988769,-0.4745370745658874
-0.2627914845943451,0.789176881313324,0.0538884773850441,-0.1588959246873855,-0.3875828683376312,0.2558974921703338,0.0,0.0,-0.03915935754776,-0.0076374411582946
-0.2620927393436432,0.7852839827537537,0.0584445782005786,-0.1699498444795608,-0.3754240870475769,0.243176057934761,0.0,0.0,-0.6315471529960632,-0.1038212776184082
-0.2613540291786194,0.7811481356620789,0.0629938691854476,-0.1810020804405212,-0.3639047145843506,0.2303876876831054,0.0,0.0,-0.1502897143363952,-0.387965440750122
-0.2605755925178528,0.7767688632011414,0.0675312727689743,-0.1920526921749115,-0.3530278205871582,0.2175379693508148,0.0,0.0,-0.368442177772522,-0.3867503404617309
-0.2597576677799225,0.7721459269523621,0.0720517858862876,-0.2031017690896988,-0.3427962064743042,0.20463228225708,0.0,0.0,0.026617407798767,-0.2709164619445801
-0.2588681578636169,0.7677712440490723,0.0801426097750663,-0.1923621743917465,-0.3335813581943512,0.1842972338199615,0.0,0.0,-0.4488372802734375,-0.4370087385177612
-0.2579399645328522,0.763152539730072,0.08461494743824,-0.203407809138298,-0.3250166177749634,0.1712949126958847,0.0,0.0,0.0649659633636474,-0.5124334692955017
-0.2568843960762024,0.7587879300117493,0.0969119518995285,-0.1920709013938903,-0.3160263895988464,0.1798048019409179,0.0,0.0,-0.4168367385864258,-0.3616862297058105
-0.2557907998561859,0.7541791200637817,0.1013160571455955,-0.2031154334545135,-0.3076902031898498,0.1667238622903823,0.0,0.0,-0.8764685988426208,-0.2124974131584167
-0.2546597421169281,0.749325692653656,0.1056795492768287,-0.2141587138175964,-0.3000096976757049,0.1536101698875427,0.0,0.0,-0.7515360116958618,-0.6403299570083618
-0.2535366117954254,0.7442547678947449,0.1042935252189636,-0.223738357424736,-0.2917315065860748,0.1655639559030532,0.0,0.0,-0.5778576731681824,-0.3623162508010864
