x_pos,y_pos,x_vel,y_vel,angle,ang_vel,leg_1,leg_2,main_booster,lat_booster
-0.0015419006813317,1.4032435417175293,-0.155826061964035,-0.3411791920661926,0.0014720537001267,0.0290158633142709,0.0,0.0,-0.0001962780952453,0.6503751277923584
-0.0030460357666015,1.3952062129974363,-0.1501537263393402,-0.3572141826152801,0.0012114549754187,-0.0052119558677077,0.0,0.0,0.2519592046737671,0.5664935111999512
-0.0044120787642896,1.3872427940368652,-0.1351562291383743,-0.3539263308048248,-0.0002149709616787,-0.0285310260951519,0.0,0.0,-0.5046972036361694,0.021004319190979
-0.0057944296859204,1.3788983821868896,-0.1365203261375427,-0.3708626329898834,-0.0019103493541479,-0.0339107550680637,0.0,0.0,-0.0190299749374389,0.2336596250534057
-0.007192516233772,1.3701732158660889,-0.1378340423107147,-0.3877902626991272,-0.0038588773459196,-0.0389743447303772,0.0,0.0,-0.0065153241157531,0.4786778688430786
-0.0086055751889944,1.3610671758651731,-0.1390959620475769,-0.4047191441059112,-0.0060435375198721,-0.0436972007155418,0.0,0.0,0.1479686498641967,0.800570011138916
-0.0099854469299316,1.3521817922592163,-0.1339472979307174,-0.3949229419231415,-0.0100468518212437,-0.0800736919045448,0.0,0.0,0.2467623949050903,0.6495473384857178
-0.0111974719911813,1.3436473608016968,-0.1158701926469802,-0.3793523013591766,-0.0153156742453575,-0.1053861603140831,0.0,0.0,0.2231087684631347,0.0465507507324218
-0.0124216079711914,1.3356618881225586,-0.1168657168745994,-0.3549818396568298,-0.0208062063902616,-0.1098206788301467,0.0,0.0,-0.2677010297775268,-0.5295152068138123
-0.0136994365602731,1.327300190925598,-0.1231394857168197,-0.3716981112957001,-0.0254044439643621,-0.0919729173183441,0.0,0.0,0.0690398216247558,0.6407269239425659
-0.0148653984069824,1.3191311359405518,-0.1106027737259864,-0.3631816208362579,-0.0313268229365348,-0.1184586435556411,0.0,0.0,-0.7378284931182861,0.0653697252273559
-0.0160417556762695,1.3105816841125488,-0.1115314811468124,-0.3801180422306061,-0.0373630262911319,-0.1207349896430969,0.0,0.0,-0.7539182305335999,0.1544182300567627
-0.0172277446836233,1.3016518354415894,-0.1124047487974166,-0.3970488309860229,-0.0434909723699092,-0.1225696429610252,0.0,0.0,-0.5210739970207214,-0.487837553024292
-0.0184225086122751,1.292341709136963,-0.1132219806313514,-0.4139810800552368,-0.0496869385242462,-0.1239305883646011,0.0,0.0,-0.8082800507545471,-0.3744559288024902
-0.0196253769099712,1.2826510667800903,-0.1139832884073257,-0.430913507938385,-0.0559270568192005,-0.1248139142990112,0.0,0.0,-0.5169575214385986,-0.1131504774093627
-0.0208354946225881,1.2725801467895508,-0.1146888136863708,-0.4478460550308227,-0.0621872097253799,-0.125214397907257,0.0,0.0,-0.7378286719322205,0.6391892433166504
-0.0219898223876953,1.2621304988861084,-0.1075463742017746,-0.4647711515426636,-0.070001445710659,-0.1562989354133606,0.0,0.0,-0.5868784785270691,-0.5564592480659485
-0.0231834407895803,1.2512996196746826,-0.1123579889535904,-0.4817189574241638,-0.076942890882492,-0.1388417333364486,0.0,0.0,-0.9532864093780518,-0.4300737977027893
-0.0243819244205951,1.2400883436203003,-0.1128965765237808,-0.4986523687839508,-0.0838323831558227,-0.137802168726921,0.0,0.0,0.4145691394805908,-0.3579607605934143
-0.0256126411259174,1.2292296886444092,-0.1158782243728637,-0.4830256402492523,-0.0909680277109146,-0.1427258849143982,0.0,0.0,-0.5759415626525879,-0.5696936845779419
-0.0268815997987985,1.2179994583129885,-0.1207169890403747,-0.499511182308197,-0.0971082895994186,-0.1228162199258804,0.0,0.0,0.1785078048706054,-0.5395111441612244
-0.0281559936702251,1.2068616151809692,-0.1224837303161621,-0.4953458607196808,-0.1020351573824882,-0.0985464304685592,0.0,0.0,0.2759628295898437,0.1945123672485351
-0.0292896274477243,1.1959550380706787,-0.1090254560112953,-0.4850411415100097,-0.106351837515831,-0.0863411873579025,0.0,0.0,0.2377151250839233,-0.0175719261169433
-0.0303475372493267,1.185007929801941,-0.1018627062439918,-0.4868242144584656,-0.1102602332830429,-0.078174702823162,0.0,0.0,-0.543006956577301,-0.7508372068405151
-0.0314787849783897,1.1736938953399658,-0.1112334504723548,-0.5029865503311157,-0.1121311113238334,-0.0374209098517894,0.0,0.0,-0.5022597908973694,-0.4014626741409302
-0.0326112732291221,1.1619774103164673,-0.1115796789526939,-0.5208609700202942,-0.1137973070144653,-0.0333238616585731,0.0,0.0,-0.6545484066009521,-0.7445330619812012
-0.0338008888065815,1.1498942375183103,-0.1189865246415138,-0.537024736404419,-0.113762080669403,0.0007044809171929,0.0,0.0,-0.6499341726303101,0.0345276594161987
-0.0349889770150184,1.1374298334121704,-0.1190822571516037,-0.5539495944976807,-0.1134858131408691,0.0055250157602131,0.0,0.0,-0.388463020324707,-0.1045438647270202
-0.0361748710274696,1.1245843172073364,-0.1191321462392807,-0.5708742737770081,-0.1129519566893577,0.0106773758307099,0.0,0.0,-0.8333367705345154,-0.0648033618927002
-0.0373580940067768,1.11135733127594,-0.119137704372406,-0.5877988338470459,-0.1121448799967765,0.0161416064947843,0.0,0.0,-0.1776301264762878,-0.4328335523605346
-0.0385380759835243,1.0977492332458496,-0.1191005334258079,-0.6047232151031494,-0.1110499799251556,0.0218978524208068,0.0,0.0,-0.3887874484062195,-0.2576698660850525
-0.0397142395377159,1.0837597846984863,-0.1190223470330238,-0.6216475963592529,-0.1096536740660667,0.0279263295233249,0.0,0.0,0.0965259075164794,0.7391752004623413
-0.0408315658569335,1.0701899528503418,-0.1119264811277389,-0.603090226650238,-0.1094664484262466,0.003744697663933,0.0,0.0,-0.4497755765914917,-0.0399524569511413
-0.0419441238045692,1.0562387704849243,-0.1117717176675796,-0.6200143098831177,-0.1089533567428588,0.0102617722004652,0.0,0.0,-0.1838422417640686,-0.2293316721916198
-0.0430513396859169,1.0419061183929443,-0.1115816012024879,-0.6369383335113525,-0.1081035286188125,0.0169966928660869,0.0,0.0,-0.0798336267471313,-0.2220136523246765
-0.0441529266536235,1.027192234992981,-0.1113582104444503,-0.6538623571395874,-0.1069068759679794,0.0239327196031808,0.0,0.0,0.3001772165298462,0.2055379152297973
-0.0452305786311626,1.0126347541809082,-0.1092364564538002,-0.6468955278396606,-0.1054497137665748,0.0291434414684772,0.0,0.0,-0.8334816098213196,-0.3419187068939209
-0.0463018417358398,0.9976959228515624,-0.108953058719635,-0.6638196110725403,-0.1036279276013374,0.0364356860518455,0.0,0.0,-0.5347564816474915,0.5236412286758423
-0.0473272316157817,0.98237544298172,-0.1037689894437789,-0.6808217167854309,-0.1024075523018837,0.0244075767695903,0.0,0.0,-0.917214810848236,0.1651291847229004
-0.0483453758060932,0.966673731803894,-0.1034347787499427,-0.697745680809021,-0.1008074954152107,0.0320011153817176,0.0,0.0,-0.2245107293128967,-0.1377092003822326
-0.0493562705814838,0.9505906105041504,-0.1030787974596023,-0.7146697640419006,-0.0988211408257484,0.0397269800305366,0.0,0.0,-0.612848699092865,0.5367276668548584
-0.0503084175288677,0.9341174364089966,-0.096320554614067,-0.7320700287818909,-0.0977322533726692,0.0217780955135822,0.0,0.0,0.4663063287734985,-0.309311032295227
-0.0511397346854209,0.9176656603813172,-0.0850320607423782,-0.7310612201690674,-0.0958465263247489,0.0377145931124687,0.0,0.0,0.2182143926620483,-0.3207454681396484
-0.0518527030944824,0.9014042019844056,-0.0739485472440719,-0.7225642800331116,-0.0932191014289856,0.0525485575199127,0.0,0.0,-0.4943543672561645,0.0044400691986083
-0.0525573715567588,0.8847613334655762,-0.0735310763120651,-0.7394886016845703,-0.0901839509606361,0.0607028827071189,0.0,0.0,0.3217366933822632,0.6867278814315796
-0.0531351082026958,0.8681169152259827,-0.0599395260214805,-0.7396249175071716,-0.0880419835448265,0.0428393259644508,0.0,0.0,0.2354757785797119,-0.373540997505188
-0.053629495203495,0.8515846133232117,-0.0522365197539329,-0.7346115708351135,-0.0852730572223663,0.0553786642849445,0.0,0.0,-0.2627599239349365,0.5283358097076416
-0.0540811531245708,0.8346722722053528,-0.0475172959268093,-0.7515273690223694,-0.0829390436410904,0.0466800890862941,0.0,0.0,-0.0142274498939514,-0.172946035861969
-0.0545241348445415,0.8173786997795105,-0.0470816418528556,-0.768451988697052,-0.0801821798086166,0.0551371686160564,0.0,0.0,-0.0437424182891845,-0.1984213590621948
-0.0549584403634071,0.79970383644104,-0.0466485656797885,-0.7853768467903137,-0.0769994258880615,0.0636551082134246,0.0,0.0,0.5747616291046143,-0.1209385991096496
-0.055206011980772,0.7824463248252869,-0.0290388278663158,-0.7667909264564514,-0.0727554634213447,0.0848790034651756,0.0,0.0,-0.2722643613815307,0.1038739681243896
-0.0554449073970317,0.7648076415061951,-0.0286197271198034,-0.7837169170379639,-0.0680802464485168,0.0935043618083,0.0,0.0,-0.3381617069244385,0.6945607662200928
-0.0556108467280864,0.7467774748802185,-0.0200992971658706,-0.8011844158172607,-0.0646062344312667,0.0694799721240997,0.0,0.0,0.4870318174362182,0.7172731161117554
-0.0556618683040142,0.7294418215751648,-0.0076207024976611,-0.7703716158866882,-0.0621170550584793,0.0497835166752338,0.0,0.0,-0.2248255014419555,-0.0840781927108764
-0.0557047836482524,0.7117249369621277,-0.0072445617988705,-0.7872970104217529,-0.0591900125145912,0.0585407838225364,0.0,0.0,-0.0432803630828857,0.5118484497070312
-0.0557057373225688,0.6936215758323669,-0.0026290346868336,-0.8044924139976501,-0.0566808655858039,0.050182856619358,0.0,0.0,0.0823152065277099,-0.1727451086044311
-0.055607795715332,0.6759138107299805,0.0065238974057137,-0.7868883609771729,-0.0534453354775905,0.0647105276584625,0.0,0.0,0.1674820184707641,0.7439208030700684
-0.055307101458311,0.6585283875465393,0.0277370326220989,-0.7726070284843445,-0.0511347539722919,0.0462117344141006,0.0,0.0,-0.2863733768463135,0.8063395023345947
-0.0549270622432231,0.6407644152641296,0.0370302870869636,-0.7894706726074219,-0.0501817464828491,0.0190603919327259,0.0,0.0,-0.3584021329879761,-0.2285020351409912
-0.0545402541756629,0.6226195693016052,0.0372742041945457,-0.8063958287239075,-0.0487827137112617,0.0279803667217493,0.0,0.0,-0.5115504860877991,-0.1363884210586547
-0.0541467666625976,0.6040934920310974,0.0374825373291969,-0.8233212828636169,-0.0469363741576671,0.0369265191257,0.0,0.0,0.145681619644165,0.3242692947387695
-0.0537937171757221,0.5859200358390808,0.0333155319094657,-0.8076480031013489,-0.0449631810188293,0.0394637808203697,0.0,0.0,-0.0199012756347656,0.1614278554916381
-0.0534347519278526,0.5673655867576599,0.0334436371922493,-0.8245737552642822,-0.0425403229892253,0.0484572723507881,0.0,0.0,0.6013500690460205,0.0937393903732299
-0.0530221946537494,0.5493189692497253,0.0382308289408683,-0.8019903302192688,-0.0395610481500625,0.0595853440463542,0.0,0.0,0.4473925828933716,-0.0681556463241577
-0.0525840744376182,0.5314173698425293,0.0403094291687011,-0.7955405712127686,-0.0360983163118362,0.0692546293139457,0.0,0.0,0.4769541025161743,-0.1139191389083862
-0.0522329322993755,0.5139327645301819,0.0316621735692024,-0.7770128846168518,-0.0326947942376136,0.0680704042315483,0.0,0.0,0.4630930423736572,0.4768108129501343
-0.0518342033028602,0.497202605009079,0.0358852483332157,-0.7434806823730469,-0.0287497099488973,0.0789018124341964,0.0,0.0,0.2388452291488647,-0.2412666082382202
-0.0513641349971294,0.4804178476333618,0.0422564521431922,-0.745907187461853,-0.0240654628723859,0.0936849191784858,0.0,0.0,0.8484318256378174,-0.0088472962379455
-0.0508380904793739,0.4646835625171661,0.0472564324736595,-0.6992258429527283,-0.0187860801815986,0.1055875048041343,0.0,0.0,-0.1678170561790466,-0.4943273067474365
-0.0503098480403423,0.4485687017440796,0.047011598944664,-0.7161545157432556,-0.0130507498979568,0.1147066578269004,0.0,0.0,0.49163818359375,-0.114355444908142
-0.0498550422489643,0.4329918622970581,0.0396007969975471,-0.6922624707221985,-0.0072422679513692,0.1161696538329124,0.0,0.0,0.6059294939041138,0.2881749868392944
-0.0493650436401367,0.417941689491272,0.0425150468945503,-0.6688771843910217,-0.0008381318184547,0.1280826777219772,0.0,0.0,0.6756330728530884,0.5963261127471924
-0.0489676482975482,0.4038027822971344,0.0343465656042099,-0.628403902053833,0.0044873394072055,0.1065094470977783,0.0,0.0,0.0286214351654052,0.7729368209838867
-0.0484580025076866,0.3898234069347381,0.0466414913535118,-0.6213260889053345,0.0087583297863602,0.0854197666049003,0.0,0.0,-0.0189329981803894,0.7501518726348877
-0.0478935241699218,0.3754582107067108,0.0530857443809509,-0.6384743452072144,0.0120802838355302,0.0664389878511428,0.0,0.0,0.6710507869720459,0.6091952323913574
-0.0472124107182025,0.3612012863159179,0.0653152242302894,-0.6336644887924194,0.0148319136351346,0.0550327524542808,0.0,0.0,0.7579641342163086,0.7665979862213135
-0.0465155616402626,0.3470982313156128,0.0680511146783828,-0.626817524433136,0.0164438504725694,0.0322389788925647,0.0,0.0,0.8610173463821411,0.7669785022735596
-0.0457866676151752,0.3339627087116241,0.0723640397191047,-0.5838077068328857,0.0169680081307888,0.0104833152145147,0.0,0.0,0.5829716920852661,0.5494863986968994
-0.044949434697628,0.3216273486614227,0.0836178064346313,-0.5482383966445923,0.0170692205429077,0.0020244643092155,0.0,0.0,-0.0273762941360473,-0.5421445965766907
-0.0441683754324913,0.308915376663208,0.0762378275394439,-0.5649966597557068,0.0189100950956344,0.0368174165487289,0.0,0.0,0.3381439447402954,0.1989251375198364
-0.0435032844543457,0.2962221801280975,0.0646716207265853,-0.5641687512397766,0.02072742767632,0.0363464020192623,0.0,0.0,0.8821606636047363,0.4810919761657715
-0.0428177826106548,0.2845002710819244,0.0660292208194732,-0.521012008190155,0.0232187565416097,0.0498265586793422,0.0,0.0,0.2902718782424927,0.0755512714385986
-0.0422295555472373,0.273068904876709,0.0562017261981964,-0.5081015825271606,0.0258055441081523,0.0517358891665935,0.0,0.0,-0.2713608145713806,0.4977016448974609
-0.0416500084102153,0.2612570524215698,0.0548694916069507,-0.5250301957130432,0.0288539417088031,0.0609679110348224,0.0,0.0,0.7216761112213135,0.7789697647094727
-0.0410531051456928,0.2501631379127502,0.0577325746417045,-0.493099570274353,0.0307872518897056,0.0386660173535347,0.0,0.0,0.7036733627319336,0.649634838104248
-0.0403364188969135,0.2395951598882675,0.0703267753124237,-0.4697176814079284,0.032118733972311,0.0266296714544296,0.0,0.0,0.1347788572311401,0.1687452793121338
-0.0396222099661827,0.2289997935295105,0.0695261806249618,-0.4709467887878418,0.0339869186282157,0.0373635217547416,0.0,0.0,0.3152618408203125,-0.0114474296569824
-0.0388573631644248,0.2185081392526626,0.0737870708107948,-0.4663586616516113,0.0366578698158264,0.0534192025661468,0.0,0.0,0.5531144142150879,0.4869199991226196
-0.0379869453608989,0.2084483504295349,0.0832208395004272,-0.4472016096115112,0.0404294617474079,0.0754317715764045,0.0,0.0,-0.4312198162078857,-0.160566508769989
-0.0371305458247661,0.198008120059967,0.0813579857349395,-0.4641314148902893,0.0446614436805248,0.084639586508274,0.0,0.0,0.5337419509887695,0.0484335422515869
-0.0363253578543663,0.1882323622703552,0.0757948085665702,-0.4346277117729187,0.0493289567530155,0.0933502689003944,0.0,0.0,0.480193018913269,0.207803726196289
-0.0355417244136333,0.1790965348482132,0.073047325015068,-0.4062195718288421,0.0545838996767997,0.1050991043448448,0.0,0.0,0.5184535980224609,0.0569077730178833
-0.0346937179565429,0.1705082505941391,0.0784742981195449,-0.3819421827793121,0.0608267672359943,0.1248576641082763,0.0,0.0,0.2682911157608032,-0.2299818992614746
-0.0338012687861919,0.1619224697351455,0.0821085423231124,-0.381900280714035,0.0678853243589401,0.1411713659763336,0.0,0.0,-0.2676643133163452,-0.8336483836174011
-0.0329986587166786,0.1529472917318344,0.0708469301462173,-0.3993468582630157,0.0772054940462112,0.1864032000303268,0.0,0.0,-0.072016954421997,0.5771486759185791
-0.0321637168526649,0.1436058431863784,0.0749536007642746,-0.4156422019004822,0.0856678783893585,0.1692477166652679,0.0,0.0,0.4460422992706299,-0.3367818593978882
-0.0314116477966308,0.1346267312765121,0.0662982463836669,-0.3996018767356872,0.0944897383451461,0.1764372885227203,0.0,0.0,0.3620032072067261,0.422525405883789
-0.0308444015681743,0.1262332797050476,0.0478423759341239,-0.3736284673213959,0.1032894104719162,0.1759936660528183,0.0,0.0,0.230654239654541,0.8367595672607422
-0.0302129741758108,0.1182619631290435,0.0554481633007526,-0.3548308312892914,0.1109281852841377,0.1527755856513977,0.0,0.0,-0.0427581667900085,0.3931937217712402
-0.0296040531247854,0.1099112853407859,0.0527577213943004,-0.3717669546604156,0.1190156042575836,0.1617483496665954,0.0,0.0,0.1410282850265503,0.5866638422012329
-0.0290970802307128,0.1019526347517967,0.0434042438864707,-0.3543185591697693,0.1262732595205307,0.1451528966426849,0.0,0.0,0.6964077949523926,0.8184729814529419
-0.0286419875919818,0.0943795070052146,0.0394677855074405,-0.3371085226535797,0.1322911083698272,0.1203570365905761,0.0,0.0,0.1790807247161865,0.9107491970062256
-0.028293227776885,0.0870607197284698,0.0302549041807651,-0.3256961107254028,0.136897787451744,0.0921332687139511,0.0,0.0,0.7689483165740967,0.9921095371246338
-0.0281474106013774,0.0801723077893257,0.0117568811401724,-0.3064171075820923,0.1397114545106887,0.056273229420185,0.0,0.0,0.7761558294296265,0.9898786544799804
-0.0279318802058696,0.0741002187132835,0.0201010592281818,-0.2700089812278747,0.1411575376987457,0.028921965509653,0.0,0.0,0.6675916910171509,0.8816056251525879
-0.0276573188602924,0.0682227462530136,0.0272237565368413,-0.2612402141094208,0.1413837373256683,0.0045239250175654,0.0,0.0,0.4949129819869995,0.9677826166152954
-0.0272842403501272,0.0630456507205963,0.0384542606770992,-0.2299834340810775,0.1402403563261032,-0.0228679161518812,0.0,0.0,0.4176127910614013,0.9838902950286864
-0.0269783977419137,0.0584972724318504,0.0333026573061943,-0.2018982321023941,0.1375335603952407,-0.0541362948715686,0.0,0.0,-0.098260760307312,0.7236747741699219
-0.0266319271177053,0.0535918325185775,0.0387501567602157,-0.2176482826471328,0.1334524601697921,-0.0816217735409736,0.0,0.0,0.0182522535324096,0.7770404815673828
-0.0262469295412302,0.0488608442246913,0.0437202602624893,-0.2098058611154556,0.1282534599304199,-0.1039799228310585,0.0,0.0,-0.1267265677452087,0.7888128757476807
-0.0258314125239849,0.0437698699533939,0.0479414463043212,-0.2257313132286071,0.1219025328755378,-0.1270186007022857,0.0,0.0,0.4845218658447265,0.3290375471115112
-0.0254780761897563,0.0393626801669597,0.0410576723515987,-0.1954165548086166,0.1162061095237732,-0.1139285415410995,0.0,0.0,0.0331488847732543,0.7250977754592896
-0.0250740051269531,0.035019502043724,0.0471558719873428,-0.1925224959850311,0.1094995215535163,-0.1341315954923629,0.0,0.0,0.1603305339813232,0.2428137063980102
-0.0248342510312795,0.0309299565851688,0.030742248520255,-0.1812765896320343,0.1027845367789268,-0.1342995464801788,0.0,0.0,0.0809067487716674,0.7235822677612305
-0.0246994979679584,0.0269554238766431,0.0213887374848127,-0.1761218458414077,0.0949278771877288,-0.1571329534053802,0.0,0.0,0.2720403671264648,0.9099985361099244
-0.0245858188718557,0.0232565496116876,0.0207662284374237,-0.1638241559267044,0.0856191143393516,-0.186175599694252,0.0,0.0,0.2528834342956543,0.2907859086990356
-0.0245198253542184,0.019785413518548,0.0155257480219006,-0.1537837386131286,0.0767662450671196,-0.1770574152469635,0.0,0.0,0.4086185693740845,0.1489635705947876
-0.0243998523801565,0.016406187787652,0.0200681611895561,-0.1497976034879684,0.0687840059399604,-0.1596446484327316,0.0,0.0,0.089672565460205,0.0035524368286132
-0.0242804531008005,0.0133286574855446,0.0193593595176935,-0.1364564895629882,0.0614448189735412,-0.1467836201190948,0.0,0.0,-0.0791252255439758,0.4795756340026855
-0.0241952892392873,0.0098712537437677,0.0156035898253321,-0.1533897966146469,0.0544408038258552,-0.1400803327560424,0.0,0.0,0.404879093170166,0.3784785270690918
-0.0241050720214843,0.0064355228096246,0.0155276786535978,-0.1524760574102401,0.0480112247169017,-0.1285916417837143,0.0,0.0,0.5103485584259033,0.6425316333770752
