x_pos,y_pos,x_vel,y_vel,angle,ang_vel,leg_1,leg_2,main_booster,lat_booster
-0.0015277862548828,1.4030539989471436,-0.1543631851673126,-0.3496130406856537,0.0014139367267489,0.027865495532751,0.0,0.0,0.9986666755096354,-0.8936843835955266
-0.0030621527694165,1.3954730033874512,-0.1564018726348877,-0.3369409739971161,0.0043525649234652,0.0587786957621574,0.0,0.0,0.799811942708234,0.6162286939366812
-0.0043978691101074,1.3879776000976562,-0.1353939175605774,-0.3331309258937835,0.0061484361067414,0.0359209105372428,0.0,0.0,0.0322011945001972,0.5610712712734813
-0.0057785985991358,1.3803776502609253,-0.1382857263088226,-0.3377811014652252,0.0063496762886643,0.0040253000333905,0.0,0.0,0.970754322461812,-0.7412992159942711
-0.0070604323409497,1.373376965522766,-0.1299460381269455,-0.3111471831798553,0.0080994227901101,0.0349985621869564,0.0,0.0,-0.2945255126518806,0.5463210566104388
-0.0082934377714991,1.3658052682876587,-0.123388722538948,-0.336516797542572,0.008183766156435,0.0016867571976035,0.0,0.0,-0.7208282151778842,0.6800642875400864
-0.0094787599518895,1.357663869857788,-0.1169808283448219,-0.3618398904800415,0.0066422917880117,-0.0308321975171566,0.0,0.0,0.3548047993447918,-0.9021781961080992
-0.0106024742126464,1.3497506380081177,-0.1124247461557388,-0.351695567369461,0.0067046768963336,0.0012474883114919,0.0,0.0,-0.6358092168248852,-0.8780056527833876
-0.0118004800751805,1.3412754535675049,-0.1213324293494224,-0.3766800463199615,0.0082214325666427,0.0303378365933895,0.0,0.0,-0.5426390759466126,0.6423867398466081
-0.0129516599699854,1.3322343826293943,-0.1150555461645126,-0.4018265604972839,0.0081563554704189,-0.0013015726581215,0.0,0.0,-0.4009888868728948,0.5281240515883046
-0.0140589717775583,1.322623610496521,-0.1091449409723281,-0.4271399676799774,0.0065940390340983,-0.0312494188547134,0.0,0.0,-0.2961241238041354,-0.8338277054253931
-0.0152276996523141,1.3124397993087769,-0.1164744943380355,-0.452611356973648,0.006197755690664,-0.0079263979569077,0.0,0.0,-0.3884918541500071,0.5055167437212575
-0.0163514129817485,1.301688313484192,-0.1104518622159957,-0.4778339564800262,0.0042979889549314,-0.0379989109933376,0.0,0.0,0.2491797557493043,0.624845106610985
-0.0173724181950092,1.2907639741897583,-0.0987541377544403,-0.4855200052261352,0.0009911536471918,-0.0661430060863494,0.0,0.0,-0.0002348151399702,-0.6835344290471024
-0.0184379573911428,1.279275894165039,-0.1039854288101196,-0.5105756521224976,-0.0015393086941912,-0.0506136044859886,0.0,0.0,0.2233412397925287,0.802400744050656
-0.0193499568849802,1.267538070678711,-0.0868840962648391,-0.5216997265815735,-0.0058206585235893,-0.0856349095702171,0.0,0.0,-0.0939431227755158,-0.66839128845457
-0.0203056335449218,1.2552374601364136,-0.0920339077711105,-0.5467010736465454,-0.0093158576637506,-0.0699102133512497,0.0,0.0,0.7437515511484445,-0.7586334796879948
-0.021155834197998,1.2429518699645996,-0.0831363797187805,-0.5460408329963684,-0.0111817624419927,-0.0373211801052093,0.0,0.0,-0.7049184924138623,0.7438255596006622
-0.0219405181705951,1.2301015853881836,-0.0746300593018531,-0.5711609125137329,-0.0149738462641835,-0.0758485794067382,0.0,0.0,0.7196968254885594,-0.6627364556930007
-0.0228620525449514,1.2175672054290771,-0.0892433151602745,-0.5571118593215942,-0.0178602188825607,-0.0577326342463493,0.0,0.0,0.6369839977291059,-0.6970656802155815
-0.0236897468566894,1.2055822610855105,-0.0813642442226409,-0.5326767563819885,-0.0192454792559146,-0.0277076475322246,0.0,0.0,0.3095868041731573,-0.7692931087855222
-0.0245633125305175,1.193549871444702,-0.0873505100607872,-0.534776508808136,-0.0192533619701862,-0.0001578056399011,0.0,0.0,-0.8249321262199911,-0.8178195072424179
-0.0254898071289062,1.180947184562683,-0.0937820822000503,-0.5601075291633606,-0.0181329492479562,0.0224101208150386,0.0,0.0,-0.3069420647327332,-0.888345663332275
-0.0264804847538471,1.167765736579895,-0.1016565784811973,-0.5858138799667358,-0.0155811486765742,0.051040906459093,0.0,0.0,0.5784523231823391,0.9262650949290996
-0.0275431629270315,1.154940128326416,-0.1066788211464881,-0.5700146555900574,-0.0151767078787088,0.0080894324928522,0.0,0.0,0.0793862553684106,-0.778196583898876
-0.0287723541259765,1.1422204971313477,-0.124739870429039,-0.5652996897697449,-0.013380873017013,0.0359168909490108,0.0,0.0,-0.6692860555480464,-0.8653449230343312
-0.0300710685551166,1.1289372444152832,-0.1333447992801666,-0.5903448462486267,-0.0099468249827623,0.0686809420585632,0.0,0.0,-0.2609547383145443,-0.8417356903680714
-0.0314519889652729,1.115093469619751,-0.1435845047235489,-0.615250825881958,-0.004527679644525,0.1083829775452613,0.0,0.0,-0.5731431850819442,-0.7223434606356731
-0.0329035744071006,1.1006860733032229,-0.1523854732513427,-0.640322744846344,0.00260687363334,0.1426909863948822,0.0,0.0,0.858211469926552,0.6680890314992056
-0.0343299880623817,1.0865286588668823,-0.1484534442424774,-0.6292329430580139,0.0083376774564385,0.1146161407232284,0.0,0.0,-0.2776862304066585,-0.6487683985878385
-0.0358070358633995,1.071808099746704,-0.1547785103321075,-0.6543061137199402,0.0153260072693228,0.139766663312912,0.0,0.0,-0.9674569368362428,0.7845751047134399
-0.0372303947806358,1.0565141439437866,-0.1480718404054641,-0.6798051595687866,0.0209835488349199,0.113150954246521,0.0,0.0,-0.991424798965454,0.9212398529052734
-0.0385913848876953,1.040660381317139,-0.1402748525142669,-0.7046739459037781,0.0251068323850631,0.0824657380580902,0.0,0.0,-0.945443868637085,0.9017347097396852
-0.039888571947813,1.0242303609848022,-0.1323419511318206,-0.7302664518356323,0.0276940315961837,0.0517440550029277,0.0,0.0,-0.9372096657752992,0.6194555759429932
-0.0411355011165142,1.0072332620620728,-0.1261152625083923,-0.7554541230201721,0.0291014872491359,0.0281491484493017,0.0,0.0,-0.5974115133285522,0.6781442165374756
-0.0423270240426063,0.98967307806015,-0.1192777752876281,-0.7804550528526306,0.0292230192571878,0.0024307514540851,0.0,0.0,0.6537430286407471,0.204740285873413
-0.0435577407479286,0.9722244143486024,-0.1231987699866294,-0.7754948735237122,0.0293451398611068,0.0024424004368484,0.0,0.0,0.0434075593948364,-0.2237941026687622
-0.0447780601680278,0.9549272060394288,-0.1224064975976944,-0.768775999546051,0.0297178104519844,0.0074534281156957,0.0,0.0,-0.8769201040267944,0.1055346727371215
-0.0459976196289062,0.9370592832565308,-0.122496522963047,-0.7941372990608215,0.0302463434636592,0.0105705969035625,0.0,0.0,-0.6027389764785767,0.1373666524887085
-0.0472164154052734,0.9186210036277772,-0.1225872635841369,-0.8194986581802368,0.0309465304017066,0.0140037070959806,0.0,0.0,0.4607250690460205,0.1862572431564331
-0.0485498420894146,0.9006397128105164,-0.1338002234697342,-0.7991733551025391,0.0313967280089855,0.009003828279674,0.0,0.0,-0.899652898311615,0.630584716796875
-0.0498221404850482,0.8820894360542297,-0.1263478249311447,-0.8244401812553406,0.0305366776883602,-0.0172011759132146,0.0,0.0,0.9646096229553224,0.4437017440795898
-0.0509888641536235,0.8635331392288208,-0.1165704876184463,-0.8247272372245789,0.0304254796355962,-0.0022241375409066,0.0,0.0,0.7983521223068237,0.8272562026977539
-0.0519875511527061,0.8452756404876709,-0.0985471829771995,-0.8114182949066162,0.0291247442364692,-0.0260145477950572,0.0,0.0,0.540481448173523,-0.4756665229797363
-0.0530304908752441,0.8268576860427856,-0.1030487641692161,-0.8185518383979797,0.0278876982629299,-0.0247407369315624,0.0,0.0,0.7280373573303223,0.0441395044326782
-0.0540335662662982,0.8083953261375427,-0.0995359420776367,-0.8205372095108032,0.027123088017106,-0.0152921695262193,0.0,0.0,0.9453210830688475,0.925572395324707
-0.0548967346549034,0.7901526093482971,-0.0840819999575614,-0.8107502460479736,0.0249244235455989,-0.0439734458923339,0.0,0.0,0.8152793645858765,0.3314568996429443
-0.0559041984379291,0.7727083563804626,-0.0982204601168632,-0.7752525210380554,0.022424766793847,-0.0499932058155536,0.0,0.0,0.2481918334960937,0.1536958217620849
-0.0570233352482318,0.7555834650993347,-0.1091958731412887,-0.7610710263252258,0.0197407342493534,-0.0536807365715503,0.0,0.0,-0.5799944400787354,-0.2525263428688049
-0.058140467852354,0.7378881573677063,-0.1092859879136085,-0.7864330410957336,0.0173443797975778,-0.0479271933436393,0.0,0.0,0.7995538711547852,0.7404557466506958
-0.0590374954044818,0.7205607891082764,-0.0864592343568801,-0.7700655460357666,0.0141429053619503,-0.0640296414494514,0.0,0.0,0.4793059825897217,0.1726534366607666
-0.0599931702017784,0.7036514282226562,-0.0923918932676315,-0.751503050327301,0.0110055617988109,-0.0627467781305313,0.0,0.0,-0.0489523410797119,-0.4503819942474365
-0.0609465613961219,0.6861715912818909,-0.0924793854355812,-0.7768651247024536,0.0081774909049272,-0.0565613619983196,0.0,0.0,0.3764965534210205,0.1873940229415893
-0.0619004257023334,0.6691180467605591,-0.0928532853722572,-0.7579200863838196,0.005677152890712,-0.0500064417719841,0.0,0.0,0.3429799079895019,0.3157168626785278
-0.0627329796552658,0.6520896553993225,-0.0816178247332573,-0.7568162083625793,0.0040581738576292,-0.032379612326622,0.0,0.0,-0.102100133895874,0.3873027563095093
-0.0635630637407302,0.6344904899597168,-0.0817018970847129,-0.7821775078773499,0.0027654611039906,-0.0258543286472558,0.0,0.0,0.8400509357452393,0.3404128551483154
-0.0642884224653244,0.6176528334617615,-0.0720467939972877,-0.748344361782074,0.0022882206831127,-0.0095449397340416,0.0,0.0,0.6005542278289795,0.9368946552276612
-0.0647877678275108,0.6012290120124817,-0.0480977669358253,-0.7299403548240662,0.0004748009960167,-0.0362681448459625,0.0,0.0,0.5327787399291992,-0.2083773612976074
-0.065215490758419,0.5853805541992188,-0.0416041724383831,-0.7043760418891907,-0.0006783993449062,-0.0230640266090631,0.0,0.0,-0.180895447731018,-0.0557304620742797
-0.0656405463814735,0.5689615607261658,-0.0416827499866485,-0.7297371029853821,-0.0014883369440212,-0.0161987841129302,0.0,0.0,0.8243892192840576,0.8525636196136475
-0.0659324675798416,0.552577555179596,-0.0271248370409011,-0.7281800508499146,-0.003529631299898,-0.0408259034156799,0.0,0.0,0.2312896251678466,0.2421469688415527
-0.0662944763898849,0.5364075303077698,-0.0341371968388557,-0.71867436170578,-0.0055667920969426,-0.0407432615756988,0.0,0.0,0.8945417404174805,0.814359188079834
-0.0664310455322265,0.5205526351928711,-0.0106357056647539,-0.7046767473220825,-0.0085476823151111,-0.0596178546547889,0.0,0.0,0.4343006610870361,-0.2556433081626892
-0.0665396675467491,0.504925012588501,-0.00830162409693,-0.6945754289627075,-0.0110785812139511,-0.050617791712284,0.0,0.0,0.0908732414245605,0.4281102418899536
-0.0666372328996658,0.4891237914562225,-0.007586205843836,-0.702296257019043,-0.0132278269156813,-0.0429846569895744,0.0,0.0,0.8840911388397217,0.3770785331726074
-0.0668642073869705,0.4737656712532043,-0.0202163960784673,-0.6826092600822449,-0.0156701151281595,-0.0488459095358848,0.0,0.0,0.8690747022628784,0.7863048315048218
-0.0669840797781944,0.4592961072921753,-0.0083543853834271,-0.6431339383125305,-0.0192570723593235,-0.0717391818761825,0.0,0.0,-0.1812736988067627,-0.8403947353363037
-0.067158505320549,0.4442474842071533,-0.0156391151249408,-0.6688489317893982,-0.0210374146699905,-0.0356069356203079,0.0,0.0,0.770980715751648,0.9260125160217284
-0.0672048553824424,0.430008053779602,-0.0013937302865087,-0.6329143047332764,-0.0242417827248573,-0.0640873983502388,0.0,0.0,0.1593334674835205,-0.0667036771774292
-0.067306138575077,0.4156984090805053,-0.0069430088624358,-0.6360359787940979,-0.0273845773190259,-0.0628557726740837,0.0,0.0,0.7698943614959717,0.8001697063446045
-0.0674289688467979,0.4019111394882202,-0.0076511069200932,-0.6128594875335693,-0.0319625250995159,-0.0915586501359939,0.0,0.0,0.7935287952423096,-0.4146184921264648
-0.0674936324357986,0.3885646164417267,-0.0023683670442551,-0.5932710766792297,-0.0360162630677223,-0.0810747146606445,0.0,0.0,0.5900788307189941,-0.5434907674789429
-0.0677019134163856,0.375881552696228,-0.0178390927612781,-0.5637691020965576,-0.0389595404267311,-0.0588657446205616,0.0,0.0,-0.7259769439697266,-0.1318399906158447
-0.0679068565368652,0.3626277446746826,-0.0178961493074893,-0.5891295671463013,-0.0415309779345989,-0.0514288917183876,0.0,0.0,0.944678783416748,0.5893559455871582
-0.0680853873491287,0.3494881987571716,-0.0143113378435373,-0.5840795636177063,-0.0450207740068435,-0.0697962269186973,0.0,0.0,0.5389549732208252,-0.5012452006340027
-0.0682189911603927,0.3362244963645935,-0.011396812275052,-0.5895582437515259,-0.04696024954319,-0.0387891083955764,0.0,0.0,0.504773736000061,-0.1399453282356262
-0.068363569676876,0.3228552341461181,-0.0127376867458224,-0.5942445993423462,-0.0486585646867752,-0.0339664444327354,0.0,0.0,0.8947536945343018,0.5840187072753906
-0.0684244185686111,0.3102807402610779,-0.0035463019739836,-0.5589525103569031,-0.0511714071035385,-0.0502568297088146,0.0,0.0,0.7602396011352539,0.6405138969421387
-0.068294808268547,0.2984328866004944,0.0161872617900371,-0.5266838669776917,-0.0543571561574935,-0.0637153089046478,0.0,0.0,0.705150842666626,-0.5742896199226379
-0.068285271525383,0.2872973680496216,0.0029668796341866,-0.4949887096881866,-0.0563458502292633,-0.0397737622261047,0.0,0.0,0.3455289602279663,-0.1189783811569213
-0.0683624297380447,0.276003748178482,-0.0055889580398797,-0.5020159482955933,-0.0584457255899906,-0.0419974066317081,0.0,0.0,0.61531662940979,-0.5891072750091553
-0.0683948546648025,0.265302300453186,-0.0027936394326388,-0.4756387174129486,-0.0588915534317493,-0.0089165745303034,0.0,0.0,0.386627197265625,0.1087208986282348
-0.0684803947806358,0.2547607421875,-0.008086847141385,-0.4685342013835907,-0.0593539737164974,-0.0092486971989274,0.0,0.0,0.7477926015853882,0.8471696376800537
-0.0685169249773025,0.2447251826524734,-0.0017464160919189,-0.4460991322994232,-0.06123973056674,-0.0377150252461433,0.0,0.0,-0.1514688730239868,0.1507695913314819
-0.0685501098632812,0.2341188043355941,-0.0017904406413435,-0.4714584350585937,-0.062748484313488,-0.030175294727087,0.0,0.0,0.4552929401397705,-0.5679224133491516
-0.0685094818472862,0.2237051874399185,0.0038757636211812,-0.4628192484378814,-0.0625581368803978,0.00380683504045,0.0,0.0,0.4738140106201172,-0.2817041873931885
-0.0684252753853797,0.2131757587194442,0.0077548651024699,-0.4679449498653412,-0.0618930533528327,0.0133016360923647,0.0,0.0,0.597034215927124,0.0484462976455688
-0.0682239532470703,0.2026498466730117,0.0186527576297521,-0.4677583873271942,-0.0604363791644573,0.0291335694491863,0.0,0.0,0.6901142597198486,0.0861736536026001
-0.0678338035941124,0.192414179444313,0.0364617072045803,-0.4548214673995971,-0.0579068548977375,0.0505904257297515,0.0,0.0,0.384722352027893,0.2895220518112182
-0.067304328083992,0.1820924580097198,0.0494533218443393,-0.4586106538772583,-0.0544605441391468,0.0689263492822647,0.0,0.0,0.595604658126831,0.3635686635971069
-0.0667375549674034,0.1722872406244278,0.0528443679213523,-0.4356531798839569,-0.0506635420024395,0.0759401246905326,0.0,0.0,0.1016623973846435,-0.7106592059135437
-0.066174030303955,0.162677064538002,0.0506652370095253,-0.4269374907016754,-0.0450531654059886,0.1122074723243713,0.0,0.0,0.3095016479492187,-0.3085657358169555
-0.065484806895256,0.1532821804285049,0.0624084174633026,-0.4173695147037506,-0.0386110916733741,0.128841370344162,0.0,0.0,0.5236589908599854,-0.5591028332710266
-0.0647244453430175,0.1437593251466751,0.0677582770586013,-0.4230480194091797,-0.030439181253314,0.163438007235527,0.0,0.0,0.6674195528030396,-0.9044831395149232
-0.0640759468078613,0.1344406902790069,0.0544682070612907,-0.4139805436134338,-0.0201831143349409,0.2051211148500442,0.0,0.0,0.6589596271514893,0.8850967884063721
-0.0632413849234581,0.1258575469255447,0.0743165239691734,-0.3813786506652832,-0.0111678214743733,0.1803060472011566,0.0,0.0,0.321771502494812,0.884414553642273
-0.062349796295166,0.1173864230513572,0.0814522206783294,-0.3764559924602508,-0.0035572662018239,0.1522112786769867,0.0,0.0,0.1880350112915039,-0.2388602495193481
-0.0615422241389751,0.109203964471817,0.0730912461876869,-0.3636655509471893,0.00401072204113,0.1513597667217254,0.0,0.0,0.1465092897415161,0.1227459907531738
-0.0606727600097656,0.1011785119771957,0.0786185637116432,-0.3567312359809875,0.0122284665703773,0.16435506939888,0.0,0.0,0.3965072631835937,0.5784792900085449
-0.0598113052546978,0.093538649380207,0.0787250027060508,-0.3396287262439728,0.0195578075945377,0.146586924791336,0.0,0.0,0.3409875631332397,0.9928643703460692
-0.0589577667415142,0.086247406899929,0.079596146941185,-0.3241401016712188,0.0252407435327768,0.113658607006073,0.0,0.0,0.0620876550674438,0.554154634475708
-0.0580829605460166,0.0788652524352073,0.0825053378939628,-0.3281885087490082,0.0301600098609924,0.0983853414654731,0.0,0.0,0.465144395828247,0.8923594951629639
-0.0572672858834266,0.0717112645506858,0.0781443864107132,-0.3180277049541473,0.0335348397493362,0.067496620118618,0.0,0.0,0.4060187339782715,0.6895135641098022
-0.0565504059195518,0.064649187028408,0.0695513039827346,-0.3139189779758453,0.0356524437665939,0.0423520877957344,0.0,0.0,0.8098716735839844,0.728950023651123
-0.0556744560599327,0.0582110248506069,0.0862595587968826,-0.286176472902298,0.0369632616639137,0.0262162834405899,0.0,0.0,0.0375589132308959,0.3701142072677612
-0.0547654144465923,0.0515517815947532,0.0890359506011009,-0.2960107028484344,0.0388126373291015,0.0369875356554985,0.0,0.0,0.8360077142715454,0.4234659671783447
-0.0537249557673931,0.0456024967133998,0.1010637730360031,-0.2644961476325989,0.0417660921812057,0.0590687692165374,0.0,0.0,0.5878175497055054,0.6983418464660645
-0.0526812560856342,0.0402083247900009,0.1024693101644516,-0.2397961169481277,0.0436366163194179,0.0374106615781784,0.0,0.0,0.2013933658599853,0.8121153116226196
-0.0514786727726459,0.0351963154971599,0.1195409670472145,-0.2227767258882522,0.0443410240113735,0.0140881966799497,0.0,0.0,-0.2132065892219543,-0.3513038754463196
-0.0502729415893554,0.0296138860285282,0.1195020675659179,-0.2481390386819839,0.0453970357775688,0.0211203023791313,0.0,0.0,0.7664167881011963,-0.5151381492614746
-0.0491527542471885,0.0247710328549146,0.1095837578177452,-0.2153142392635345,0.0478027015924453,0.0481133013963699,0.0,0.0,0.618187427520752,-0.7485019564628601
-0.0480604171752929,0.0205206964164972,0.1048211231827735,-0.1890498697757721,0.052167534828186,0.0872965455055236,0.0,0.0,0.0445077419281005,-0.1847889423370361
-0.0469291694462299,0.0161385387182235,0.1081194505095481,-0.1949473768472671,0.0571111999452114,0.0988732352852821,0.0,0.0,0.7453517913818359,-0.5879275798797607
-0.0460171699523925,0.01214977260679,0.0850408002734184,-0.1775279492139816,0.0632046610116958,0.1218693256378173,0.0,0.0,0.5064442157745361,0.0903010368347168
-0.0452486053109169,0.0082826353609561,0.0709031447768211,-0.1721347123384475,0.0690932646393776,0.117772102355957,0.0,0.0,0.675847053527832,0.963538408279419
-0.0444650650024414,0.0047060344368219,0.0740453526377677,-0.1591661274433136,0.0733639746904373,0.0854139477014541,0.0,1.0,0.9497449398040771,0.8948183059692383
-0.0436584465205669,0.0018830276094377,0.0865455567836761,-0.1255107223987579,0.0663838312029838,-0.1410912424325943,0.0,1.0,0.7360560894012451,0.375192642211914
-0.0428303703665733,-0.0004945182590745,0.1017623916268348,-0.1049458160996437,0.0476028844714164,-0.3756759464740753,0.0,1.0,0.5228990316390991,-0.2050205469131469
-0.0420019142329692,-0.0021656060125678,0.1105681657791137,-0.0736270323395729,0.0201705675572156,-0.5486999750137329,0.0,1.0,0.1458632946014404,-0.4771091341972351
-0.041203211992979,-0.0034720206167548,0.1105410084128379,-0.0579465478658676,-0.0101562794297933,-0.6066054105758667,1.0,1.0,0.0541261434555053,-0.9695351123809814
-0.0403669364750385,-0.0045686508528888,0.0994515568017959,-0.049225129187107,-0.0245820712298154,-0.286998838186264,1.0,1.0,0.8985245227813721,-0.8606303930282593
