x_pos,y_pos,x_vel,y_vel,angle,ang_vel,leg_1,leg_2,main_booster,lat_booster
-0.0015871047507971,1.4032468795776367,-0.1607340574264526,-0.3410244882106781,0.0018187805544584,0.0358811765909194,0.0,0.0,-0.5933210053591675,0.8937200437877029
-0.0031606673728674,1.3952155113220217,-0.157208651304245,-0.3569525182247162,0.0016752312658354,-0.0028708819299936,0.0,0.0,-0.8535907116513741,0.5605029872250649
-0.0047417641617357,1.3868021965026855,-0.1565911620855331,-0.3739233016967773,0.0001790841051843,-0.0299257393926382,0.0,0.0,0.90291251953029,0.7760632827730102
-0.0064710616134107,1.3788721561431885,-0.1695094406604766,-0.3524489998817444,-0.0032084132544696,-0.0677560120820999,0.0,0.0,0.0027222594206253,0.990279865410494
-0.0080847740173339,1.371160864830017,-0.1559189707040786,-0.3427490890026092,-0.0086008142679929,-0.107858195900917,0.0,0.0,-0.2030144901436095,-0.693296434934504
-0.0097974780946969,1.3630719184875488,-0.1668941676616668,-0.3595404326915741,-0.0129372328519821,-0.0867363065481185,0.0,0.0,0.6837753870046461,0.784781928936164
-0.0115215303376317,1.3554880619049072,-0.1663919240236282,-0.3371260464191437,-0.0188866145908832,-0.1189983338117599,0.0,0.0,-0.1943857636199508,-0.8974544441522507
-0.0133522991091012,1.347530961036682,-0.178405612707138,-0.3537095487117767,-0.0235062409192323,-0.0924006849527359,0.0,0.0,-0.8823301737006188,-0.6793730944544556
-0.015289306640625,1.3392062187194824,-0.1904064714908599,-0.3700465559959411,-0.0267647225409746,-0.065175712108612,0.0,0.0,0.5203802282289092,-0.5251214731689681
-0.0173004157841205,1.331511378288269,-0.198850393295288,-0.3420338034629822,-0.0289986450225114,-0.0446824207901954,0.0,0.0,0.7386589805262438,0.8443825561314777
-0.0191744808107614,1.324370503425598,-0.1836356818675995,-0.3174517750740051,-0.0327314138412475,-0.0746626704931259,0.0,0.0,-0.8271701846005048,-0.7540588838128879
-0.0211467742919921,1.316853165626526,-0.1947643458843231,-0.3341560959815979,-0.0351625941693782,-0.0486281290650367,0.0,0.0,-0.2800613314174596,-0.5378070980073424
-0.0231956485658884,1.3089632987976074,-0.2032448053359985,-0.3507073521614074,-0.0367794930934906,-0.0323411226272583,0.0,0.0,0.380821342143375,0.993622203436362
-0.0251297950744628,1.3011236190795898,-0.1898089051246643,-0.3485215902328491,-0.0403463244438171,-0.0713434368371963,0.0,0.0,-0.3403787856845284,0.6709166120503077
-0.0270367618650198,1.2929097414016724,-0.1854157447814941,-0.3652127385139465,-0.0455807670950889,-0.1046980619430542,0.0,0.0,-0.1264213367577877,0.7117599784688555
-0.0289134979248046,1.2843060493469238,-0.1806593835353851,-0.3826125860214233,-0.0525152832269668,-0.1387032270431518,0.0,0.0,-0.5862865681826197,-0.7763967670100012
-0.0308698657900095,1.2753382921218872,-0.1898006945848465,-0.3987824618816376,-0.058290384709835,-0.1155124530196189,0.0,0.0,0.4673940714437128,0.8092886722678467
-0.0326318740844726,1.2664670944213867,-0.1689198315143585,-0.3945701420307159,-0.0654976367950439,-0.144158273935318,0.0,0.0,-0.7657274986648643,0.6649980039865792
-0.0343595519661903,1.2572197914123535,-0.163904532790184,-0.4114090204238891,-0.07427579164505,-0.1755790412425995,0.0,0.0,0.2753011973719859,0.8021886528105189
-0.0360857024788856,1.2482500076293943,-0.1620345115661621,-0.3992081582546234,-0.0847675129771232,-0.2098535299301147,0.0,0.0,-0.489640101693132,-0.93114070824274
-0.037889577448368,1.2389181852340698,-0.1712379455566406,-0.4152861535549164,-0.0938400253653526,-0.181466668844223,0.0,0.0,-0.9505312348200444,-0.6244701056939911
-0.0397586822509765,1.2292133569717407,-0.1789608895778656,-0.4318437278270721,-0.1017430648207664,-0.1580748260021209,0.0,0.0,0.7220182600925689,-0.824507152235959
-0.0415000915527343,1.219964623451233,-0.1680680811405182,-0.4114762544631958,-0.1077799126505851,-0.1207479014992713,0.0,0.0,0.1418849379333806,-0.516847414514523
-0.0432167053222656,1.2106530666351318,-0.166677787899971,-0.4142207503318786,-0.1127397418022155,-0.0992054417729377,0.0,0.0,-0.7468151026689431,0.5145584474874718
-0.0449088104069232,1.200960636138916,-0.1633830815553665,-0.4312280714511871,-0.1185422837734222,-0.1160610318183898,0.0,0.0,0.7084160876162917,-0.6324437176476023
-0.0467305183410644,1.19199538230896,-0.1771453619003296,-0.3988601565361023,-0.1235352084040641,-0.0998583808541297,0.0,0.0,-0.2934780053634283,0.5961509679728638
-0.0485040657222271,1.1826483011245728,-0.1710661798715591,-0.4159604609012604,-0.1297910511493683,-0.1251169294118881,0.0,0.0,-0.9225995456842264,-0.9524584157184456
-0.0503631606698036,1.1729519367218018,-0.1818816065788269,-0.4313077926635742,-0.1337975263595581,-0.0801296383142471,0.0,0.0,0.7421825362034282,-0.9349006018267592
-0.0523298271000385,1.164145827293396,-0.1942155659198761,-0.3916038572788238,-0.1362383216619491,-0.0488162711262702,0.0,0.0,-0.9285504772594856,-0.6996657093033369
-0.0543415062129497,1.1549715995788574,-0.2000916898250579,-0.4078426361083984,-0.1373110860586166,-0.021454881876707,0.0,0.0,-0.6154760167556002,-0.9177155116311544
-0.0564061179757118,1.1454447507858276,-0.2070968896150589,-0.4233545660972595,-0.1366827934980392,0.0125659527257084,0.0,0.0,0.3713142871856689,0.7970541715621948
-0.0584119781851768,1.136078715324402,-0.199428990483284,-0.4163762032985687,-0.1378268301486969,-0.0228811018168926,0.0,0.0,0.208842396736145,0.8121896982192993
-0.0603183731436729,1.1272156238555908,-0.1877196133136749,-0.3941925168037414,-0.1407348960638046,-0.0581617169082164,0.0,0.0,-0.0944120287895202,0.5643157958984375
-0.0621590614318847,1.117961883544922,-0.1800549328327179,-0.4116608202457428,-0.1447450667619705,-0.0802033618092536,0.0,0.0,-0.6994394659996033,0.7358154058456421
-0.063910387456417,1.1083197593688965,-0.1695091724395752,-0.4290898442268371,-0.150359496474266,-0.112288512289524,0.0,0.0,-0.4578550457954407,0.8636213541030884
-0.0655579566955566,1.0982917547225952,-0.1572594046592712,-0.4464638829231262,-0.1578472256660461,-0.1497548669576645,0.0,0.0,0.1175882816314697,0.7936408519744873
-0.067078873515129,1.088329792022705,-0.1429019272327423,-0.4437558352947235,-0.1670386046171188,-0.1838274598121643,0.0,0.0,0.196893572807312,0.0727090835571289
-0.06844063103199,1.0788007974624634,-0.127032995223999,-0.4245762825012207,-0.1762050986289978,-0.1833296120166778,0.0,0.0,-0.8853425979614258,-0.0380615592002868
-0.0697591751813888,1.0688955783843994,-0.12261463701725,-0.4413570761680603,-0.1854768693447113,-0.1854355186223983,0.0,0.0,-0.7261728048324585,-0.107362687587738
-0.0710314735770225,1.0586143732070925,-0.117897167801857,-0.4581381380558014,-0.1948564648628235,-0.1875915825366974,0.0,0.0,-0.3174825310707092,-0.4794321060180664
-0.0722546577453613,1.047957420349121,-0.1128936782479286,-0.4749195277690887,-0.2043462097644806,-0.189795047044754,0.0,0.0,-0.7373966574668884,-0.632470428943634
-0.0734651535749435,1.0369349718093872,-0.1125270575284957,-0.4910878539085388,-0.2129386216402053,-0.1718481183052063,0.0,0.0,-0.293100893497467,-0.8140425682067871
-0.0746751800179481,1.0255446434020996,-0.1137450784444809,-0.5073040127754211,-0.2202786654233932,-0.1468013226985931,0.0,0.0,-0.9681155681610109,-0.7182835340499878
-0.0758749023079872,1.0137919187545776,-0.1137986928224563,-0.5232788324356079,-0.226528525352478,-0.1249971538782119,0.0,0.0,-0.9805518984794616,-0.9282404780387878
-0.0770936012268066,1.0016779899597168,-0.1175391525030136,-0.5390598177909851,-0.2309087663888931,-0.087604708969593,0.0,0.0,-0.4524604082107544,-0.7088361978530884
-0.0783024802803993,0.9891981482505798,-0.1177465170621872,-0.5551565885543823,-0.2340949475765228,-0.0637235194444656,0.0,0.0,-0.9229954481124878,-0.969209611415863
-0.0795158371329307,0.9763601422309875,-0.1198048815131187,-0.5708235502243042,-0.2356505542993545,-0.0311119463294744,0.0,0.0,-0.8332405090332031,-0.9509356021881104
-0.080748938024044,0.963186264038086,-0.1239136829972267,-0.5854123830795288,-0.2350448817014694,0.012113619595766,0.0,0.0,-0.8391678333282471,-0.8103693723678589
-0.0819899588823318,0.9496696591377258,-0.1265436708927154,-0.6003530025482178,-0.2325634360313415,0.0496290288865566,0.0,0.0,-0.935675084590912,-0.8196439146995544
-0.0832278281450271,0.9357969760894777,-0.1277999877929687,-0.615935742855072,-0.2284991145133972,0.0812863186001777,0.0,0.0,-0.9217172861099244,-0.3132736682891845
-0.0843956023454666,0.921547532081604,-0.1206630021333694,-0.6327117681503296,-0.2245620787143707,0.078740581870079,0.0,0.0,-0.8533329963684082,-0.4710441827774048
-0.0854917541146278,0.9069212675094604,-0.1133799105882644,-0.6494877338409424,-0.220753476023674,0.0761721283197403,0.0,0.0,-0.8904498219490051,-0.6779637336730957
-0.0865582451224327,0.8919289112091064,-0.111393429338932,-0.6656230092048645,-0.2159598618745803,0.0958722382783889,0.0,0.0,-0.9347121715545654,-0.1867028474807739
-0.0875505432486534,0.8765599131584167,-0.1038488149642944,-0.6823996305465698,-0.2112966477870941,0.0932643041014671,0.0,0.0,-0.6781786680221558,0.227543830871582
-0.088467501103878,0.8608141541481018,-0.0961874127388,-0.699176013469696,-0.2067646831274032,0.0906395390629768,0.0,0.0,-0.1816073060035705,-0.2559707164764404
-0.0893079787492752,0.8446915745735168,-0.0884178727865219,-0.7159522771835327,-0.2023647129535675,0.0879996791481971,0.0,0.0,-0.1507287621498108,-0.5624195337295532
-0.0901070609688758,0.8282088041305542,-0.0850969776511192,-0.7318716645240784,-0.1971398741006851,0.104496993124485,0.0,0.0,-0.3609335422515869,0.1991214752197265
-0.0908278450369834,0.8113493323326111,-0.077135257422924,-0.748648464679718,-0.1920482367277145,0.1018324941396713,0.0,0.0,-0.2863337993621826,-0.1080594062805175
-0.0914693847298622,0.7941129803657532,-0.0690882131457328,-0.7654250264167786,-0.1870903521776199,0.0991580411791801,0.0,0.0,0.2510416507720947,0.5121521949768066
-0.091941550374031,0.7773875594139099,-0.0508730635046958,-0.7428999543190002,-0.1834282428026199,0.073242500424385,0.0,0.0,-0.3864402174949646,-0.5108746886253357
-0.0923700332641601,0.7602909803390503,-0.0472926311194896,-0.7593048810958862,-0.1789657175540924,0.0892500877380371,0.0,0.0,-0.3800879120826721,0.1879281997680664
-0.0927170738577842,0.7428175806999207,-0.0390274114906787,-0.776080846786499,-0.174637883901596,0.0865566506981849,0.0,0.0,-0.0947157740592956,0.1625336408615112
-0.0929822921752929,0.724967360496521,-0.0307006239891052,-0.7928566336631775,-0.170444905757904,0.0838600024580955,0.0,0.0,0.0277342796325683,0.0452442169189453
-0.0930856689810752,0.7073002457618713,-0.0144714089110493,-0.7847393751144409,-0.1663190424442291,0.0825172215700149,0.0,0.0,-0.3053370714187622,-0.1859941482543945
-0.093106172978878,0.6892561912536621,-0.0060358745977282,-0.8015149831771851,-0.1623280793428421,0.07981888204813,0.0,0.0,0.5796823501586914,0.0591387748718261
-0.0930685997009277,0.6717005372047424,0.0004489059210754,-0.7798968553543091,-0.1590195149183273,0.0661712810397148,0.0,0.0,0.5563490390777588,-0.6741470694541931
-0.0928492546081543,0.6549771428108215,0.017356127500534,-0.742781400680542,-0.154446393251419,0.0914623737335205,0.0,0.0,-0.3474153280258178,-0.4424796104431152
-0.0925456061959266,0.6378769278526306,0.025923827663064,-0.75955730676651,-0.1500077545642852,0.0887729078531265,0.0,0.0,-0.305762767791748,-0.1890084743499755
-0.092157170176506,0.6203996539115906,0.0345286093652248,-0.7763329148292542,-0.1457032859325409,0.0860893279314041,0.0,0.0,0.1456502676010131,-0.4337167739868164
-0.0917005538940429,0.6030470728874207,0.0417800173163414,-0.7708555459976196,-0.141834482550621,0.0773758068680763,0.0,0.0,0.3510419130325317,-0.7142782807350159
-0.09121885150671,0.5861724019050598,0.043128877878189,-0.7495107650756836,-0.1367993354797363,0.1007027179002761,0.0,0.0,0.2046780586242675,-0.4107409715652466
-0.0905672088265419,0.5695907473564148,0.0601351931691169,-0.736510694026947,-0.1317933052778244,0.1001211404800415,0.0,0.0,0.2452411651611328,-0.4111950993537903
-0.0898422226309776,0.5535978674888611,0.0680521503090858,-0.710408091545105,-0.1273685991764068,0.0884939283132553,0.0,0.0,0.0038368701934814,-0.6915259957313538
-0.0889898315072059,0.5377509593963623,0.0794988870620727,-0.7038314342498779,-0.1216564401984214,0.1142430528998375,0.0,0.0,0.2488272190093994,-0.5962157249450684
-0.0880902260541915,0.5219764709472656,0.0832023173570633,-0.7005485892295837,-0.1149381250143051,0.134366288781166,0.0,0.0,-0.2870428562164306,-0.4812846183776855
-0.0871039405465126,0.5058255195617676,0.0919912159442901,-0.7173259854316711,-0.1083496659994125,0.1317691951990127,0.0,0.0,0.4655271768569946,-0.5334879159927368
-0.0860707312822341,0.4897534251213074,0.0958178043365478,-0.7137887477874756,-0.1009018793702125,0.1489555388689041,0.0,0.0,0.4298131465911865,-0.7657272815704346
-0.0849492102861404,0.4743466675281524,0.1032469123601913,-0.6841659545898438,-0.0920650288462638,0.1767368614673614,0.0,0.0,0.169952392578125,-0.3678032159805298
-0.0836309418082237,0.459418773651123,0.1227761059999466,-0.6629276871681213,-0.0830927193164825,0.179446130990982,0.0,0.0,-0.4700247049331665,-0.0986234545707702
-0.0822253227233886,0.4441147446632385,0.1316258460283279,-0.6797076463699341,-0.0742458775639534,0.1769369840621948,0.0,0.0,-0.345092236995697,-0.1209509968757629
-0.0807323455810546,0.4284344911575317,0.1404871195554733,-0.6964873671531677,-0.0655231177806854,0.1744552552700042,0.0,0.0,0.4323213100433349,-0.4197874069213867
-0.0790719985961914,0.4134003818035126,0.1571744382381439,-0.6678221225738525,-0.0567611865699291,0.1752385050058365,0.0,0.0,0.0713492631912231,-0.4782187342643738
-0.0773684531450271,0.3985543251037597,0.1619203388690948,-0.6595249772071838,-0.0484242253005504,0.1667396128177642,0.0,0.0,-0.109184980392456,-0.3117372989654541
-0.0755771622061729,0.3833319544792175,0.1708082258701324,-0.6763035655021667,-0.0402065105736255,0.1643543541431427,0.0,0.0,0.3653645515441894,-0.6601516008377075
-0.0737379044294357,0.3686065673828125,0.1744152307510376,-0.654232919216156,-0.0308121517300605,0.1878873854875564,0.0,0.0,0.1902509927749633,-0.2683455944061279
-0.0717350021004676,0.3541305661201477,0.1905921697616577,-0.6432058811187744,-0.0212426614016294,0.1913897693157196,0.0,0.0,0.3748003244400024,-0.4234925508499145
-0.0696185082197189,0.3397049903869629,0.2019811123609542,-0.6410275101661682,-0.0116952806711196,0.1909477114677429,0.0,0.0,0.1822950839996338,-0.5922971367835999
-0.067384049296379,0.3253307938575744,0.2125743329524994,-0.6388030648231506,-0.0009557003504596,0.2147915661334991,0.0,0.0,0.6885477304458618,-0.2195509672164917
-0.0649105086922645,0.3114560544490814,0.2358728349208831,-0.6166853308677673,0.0103707117959856,0.2265282869338989,0.0,0.0,0.5338375568389893,-0.419122576713562
-0.0622234344482421,0.2977569103240967,0.256738543510437,-0.608974277973175,0.0221896115690469,0.2363779991865158,0.0,0.0,0.5971931219100952,-0.499550998210907
-0.0594698898494243,0.2847711443901062,0.263516366481781,-0.5773590207099915,0.03387963026762,0.2338003367185592,0.0,0.0,0.5903630256652832,-0.3004795908927917
-0.0566232688724994,0.2725059986114502,0.2727905809879303,-0.5454269647598267,0.045606717467308,0.2345418184995651,0.0,0.0,0.041908860206604,-0.2556553483009338
-0.0536293983459472,0.2605010867118835,0.2872577607631683,-0.5339663624763489,0.0575994215905666,0.2398541271686554,0.0,0.0,0.3736450672149658,-0.5665332674980164
-0.050516415387392,0.2485252767801284,0.2979248166084289,-0.5328236818313599,0.0708253756165504,0.2645192444324493,0.0,0.0,0.695210337638855,-0.6020201444625854
-0.0474577918648719,0.2369434237480163,0.2915255427360534,-0.5154884457588196,0.0850143209099769,0.2837790846824646,0.0,0.0,0.4157130718231201,-0.6704772114753723
-0.0443477630615234,0.2261033654212951,0.2952843308448791,-0.4827446341514587,0.1005963608622551,0.3116408288478851,0.0,0.0,0.1202902793884277,0.1153277158737182
-0.0412043556571006,0.215462639927864,0.2987967133522033,-0.474039226770401,0.1160208508372306,0.3084898293018341,0.0,0.0,0.5520210266113281,0.3380662202835083
-0.0381757728755474,0.2055404782295227,0.2879594266414642,-0.4422050416469574,0.1308238953351974,0.2960610687732696,0.0,0.0,-0.1704168915748596,0.0862857103347778
-0.0350596420466899,0.1952437311410904,0.2968280613422394,-0.4589947462081909,0.1455501168966293,0.2945246696472168,0.0,0.0,0.1230151653289794,0.1836223602294922
-0.0319660194218158,0.1853211969137191,0.2948591113090515,-0.4424798786640167,0.1600351184606552,0.2897003293037414,0.0,0.0,0.4278715848922729,-0.2465383410453796
-0.0289587024599313,0.1759650856256485,0.2866663336753845,-0.4174002408981323,0.1741206049919128,0.2817097306251526,0.0,0.0,-0.2256079912185669,-0.26795494556427
-0.025864029303193,0.1662340313196182,0.2954978942871094,-0.434188038110733,0.1881414502859115,0.2804169058799743,0.0,0.0,-0.1062638163566589,-0.3578659296035766
-0.0226820949465036,0.1561279594898224,0.3043140172958374,-0.450975626707077,0.2021019011735916,0.2792086601257324,0.0,0.0,0.3171520233154297,0.3384937047958374
-0.0196145065128803,0.1462243944406509,0.2935307323932647,-0.4420224726200104,0.2154512852430343,0.266987681388855,0.0,0.0,0.3981575965881347,-0.3416809439659118
-0.0165023803710937,0.1368655562400818,0.2976572215557098,-0.4179847538471222,0.2291635125875473,0.2742446064949035,0.0,0.0,0.1167777776718139,-0.3285844326019287
-0.0133198741823434,0.1275100857019424,0.3045998811721802,-0.4179800450801849,0.2430201321840286,0.2771325707435608,0.0,0.0,0.1970683336257934,-0.0095119476318359
-0.0100819589570164,0.1186224520206451,0.3097580075263977,-0.3973906338214874,0.2573198676109314,0.2859947681427002,0.0,0.0,0.2703807353973388,-0.2715948820114136
-0.0069266320206224,0.110218845307827,0.3016624450683594,-0.375991940498352,0.2714996039867401,0.28359454870224,0.0,0.0,0.4507668018341064,-0.1716082096099853
-0.0037657737266272,0.1025751233100891,0.3017285168170929,-0.3424530327320099,0.2862246632575989,0.2945010960102081,0.0,0.0,0.6780874729156494,-0.2366908192634582
-0.0006113052368164,0.0954367220401763,0.300845205783844,-0.3202005624771118,0.301278293132782,0.3010727763175964,0.0,0.0,0.233925461769104,-0.5798948407173157
0.0023970603942871,0.0887799859046936,0.2851967513561249,-0.299176275730133,0.3174695968627929,0.3238266110420227,0.0,0.0,0.134392499923706,-0.3670063018798828
0.0053607942536473,0.0825392305850982,0.2806702554225921,-0.2808929979801178,0.3338323533535003,0.3272550404071808,0.0,0.0,0.0534884929656982,-0.3371456861495971
0.00836181640625,0.0763640031218528,0.2842583954334259,-0.2782020568847656,0.3504157364368438,0.3316681087017059,0.0,0.0,0.0509731769561767,-0.2114444971084594
0.0112384799867868,0.0703288167715072,0.2722867429256439,-0.272064596414566,0.3666264712810516,0.3242146372795105,0.0,0.0,0.0866693258285522,0.1024446487426757
0.0139986034482717,0.0643480643630027,0.2610834240913391,-0.2697084844112396,0.3824380338191986,0.3162313103675842,0.0,0.0,0.2908778190612793,0.1885857582092285
0.0166615489870309,0.0585964769124984,0.251550018787384,-0.2596561312675476,0.3981671631336212,0.3145831823348999,0.0,0.0,0.3280102014541626,0.2030243873596191
0.0192598346620798,0.0530756339430809,0.245090514421463,-0.2495830208063125,0.4139922559261322,0.3165015876293182,0.0,0.0,0.7355579137802124,0.0273482799530029
0.0219133384525775,0.0477822385728359,0.2501334547996521,-0.2398115247488021,0.4304551184177398,0.3292569816112518,0.0,0.0,0.6653047800064087,0.4656323194503784
0.0244495384395122,0.0431158393621444,0.2380808889865875,-0.2122424095869064,0.447379320859909,0.3384840488433838,0.0,1.0,0.998511552810669,0.997793436050415
0.0266654007136821,0.04030567035079,0.2185347527265548,-0.1267981827259063,0.4476900994777679,0.0016619054367765,0.0,1.0,0.988139510154724,0.9586795568466188
0.0286717414855957,0.03842419013381,0.2179970443248748,-0.078213594853878,0.4286703169345855,-0.3805362582206726,0.0,1.0,0.9367561340332032,-0.0888647437095642
