x_pos,y_pos,x_vel,y_vel,angle,ang_vel,leg_1,leg_2,main_booster,lat_booster
-0.0014679909218102,1.4032495021820068,-0.1484974026679992,-0.3409211039543152,0.001517292112112,0.0299118962138891,0.0,0.0,0.0272938013076782,0.6485373973846436
-0.0027933120727539,1.3956540822982788,-0.1325643509626388,-0.3375729024410248,0.0015404399018734,0.000463607313577,0.0,0.0,-0.5780453085899353,0.1100205183029174
-0.004063606262207,1.3876829147338867,-0.1268258392810821,-0.354270339012146,0.0013447755482047,-0.0039138649590313,0.0,0.0,-0.2873224020004272,0.5637273788452148
-0.0052435873076319,1.3793350458145142,-0.1166678443551063,-0.3710205256938934,3.4327840694459155e-05,-0.0262114610522985,0.0,0.0,0.2080724239349365,0.4294185638427734
-0.0062749860808253,1.3713271617889404,-0.1020437628030777,-0.3559020459651947,-0.0010441283229738,-0.0215713642537593,0.0,0.0,-0.6120412349700928,-0.4682948589324951
-0.0072525977157056,1.3629441261291504,-0.0964459031820297,-0.3725785911083221,-0.0023437393829226,-0.02599479816854,0.0,0.0,-0.6636096239089966,0.2361234426498413
-0.0081769945099949,1.3541860580444336,-0.0909010842442512,-0.3892472386360168,-0.0038643195293843,-0.0304145514965057,0.0,0.0,-0.7919108867645264,-0.1740388870239257
-0.009048843756318,1.3450531959533691,-0.0854127332568168,-0.4059173464775085,-0.005606475751847,-0.0348464027047157,0.0,0.0,-0.5118243098258972,-0.5931274890899658
-0.0099161146208643,1.3355519771575928,-0.0859581679105758,-0.4222796559333801,-0.0063722641207277,-0.015317159704864,0.0,0.0,-0.6351653337478638,-0.1920627355575561
-0.0107320789247751,1.3256757259368896,-0.0805959999561309,-0.4389506578445434,-0.0073610027320683,-0.0197765305638313,0.0,0.0,-0.6301047205924988,0.2111592292785644
-0.0114974025636911,1.3154244422912598,-0.0752997249364852,-0.4556216299533844,-0.008572144433856,-0.0242248959839344,0.0,0.0,-0.6703609228134155,-0.6886842846870422
-0.0122605320066213,1.3047971725463867,-0.0760847777128219,-0.4723216891288757,-0.0088011752814054,-0.0045811678282916,0.0,0.0,-0.4492026567459106,-0.0409081578254699
-0.0129744531586766,1.2937947511672974,-0.070934422314167,-0.4889925420284271,-0.0092538213357329,-0.009053936228156,0.0,0.0,-0.9042809009552002,-0.5881150960922241
-0.0136810299009084,1.2824126482009888,-0.0710154920816421,-0.5058754086494446,-0.0088968183845281,0.0071404301561415,0.0,0.0,-0.6140295267105103,-0.6567240953445435
-0.014379596337676,1.2706626653671265,-0.0709985345602035,-0.522214412689209,-0.0077654351480305,0.0226298775523901,0.0,0.0,-0.6767565011978149,-0.8134893178939819
-0.015083884820342,1.258528709411621,-0.0726865231990814,-0.5392762422561646,-0.0055372887291014,0.0445669926702976,0.0,0.0,-0.847449541091919,0.1135052442550659
-0.0157423019409179,1.246019721031189,-0.0678708627820015,-0.555947482585907,-0.0035327593795955,0.04009410738945,0.0,0.0,-0.2582903504371643,-0.6189978122711182
-0.0163930896669626,1.2331308126449585,-0.0678285807371139,-0.5728418231010437,-0.000812737387605,0.0544055327773094,0.0,0.0,-0.7017537355422974,0.1513290405273437
-0.0169998165220022,1.2198667526245115,-0.0631985813379287,-0.58951336145401,0.0016840834869071,0.0499409586191177,0.0,0.0,-0.8228097558021545,0.2807011604309082
-0.0175633430480957,1.2062277793884275,-0.0586649104952812,-0.6061848402023315,0.0039587095379829,0.0454967767000198,0.0,0.0,-0.5305996537208557,0.0321990251541137
-0.0180849079042673,1.192213535308838,-0.0542311556637287,-0.6228562593460083,0.0060114688239991,0.0410589948296546,0.0,0.0,-0.1190918684005737,-0.4207202196121216
-0.0185653679072856,1.1778243780136108,-0.0499003529548645,-0.6395276188850403,0.0078429235145449,0.0366323888301849,0.0,0.0,-0.8159606456756592,0.2709286212921142
-0.0190057754516601,1.1630600690841677,-0.0456757359206676,-0.656199038028717,0.0094536952674388,0.0322185717523098,0.0,0.0,-0.418032169342041,-0.0698318481445312
-0.0194072723388671,1.147920846939087,-0.0415603518486022,-0.6728703379631042,0.0108445351943373,0.027819100767374,0.0,0.0,-0.7805731892585754,-0.6154152750968933
-0.0198311805725097,1.1324070692062378,-0.0451072491705417,-0.6895205974578857,0.0135283237323164,0.0536807291209697,0.0,0.0,-0.6899545192718506,0.0337247848510742
-0.020218277350068,1.1164969205856323,-0.0412036925554275,-0.7071458697319031,0.0159935224801301,0.0493039824068546,0.0,0.0,-0.5170841813087463,-0.0411337614059448
-0.0205698013305664,1.1002116203308103,-0.0374307818710804,-0.7238151431083679,0.0182417631149292,0.04496481269598,0.0,0.0,0.39915931224823,0.3772673606872558
-0.021010398864746,1.0845965147018433,-0.0455984510481357,-0.6940253973007202,0.0197623893618583,0.0304123666137456,0.0,0.0,-0.7347794771194458,-0.4493777751922607
-0.0214178077876567,1.0686062574386597,-0.0420700907707214,-0.7106942534446716,0.0210686326026916,0.0261252075433731,0.0,0.0,-0.2670142650604248,0.5425970554351807
-0.0217519756406545,1.0522401332855225,-0.0334656089544296,-0.7273808717727661,0.021120611578226,0.0010395424906164,0.0,0.0,-0.6913809776306152,-0.5187974572181702
-0.0220952983945608,1.035503625869751,-0.0351883694529533,-0.7438598871231079,0.0219603292644023,0.0167941376566886,0.0,0.0,-0.0418919324874877,-0.0939559340476989
-0.0224093440920114,1.0183919668197632,-0.0320420414209365,-0.7605285048484802,0.0225901305675506,0.0125959040597081,0.0,0.0,-0.2353159785270691,0.0644944906234741
-0.0226954463869333,1.000905156135559,-0.0290262307971715,-0.7771971821784973,0.0230116546154022,0.0084302742034196,0.0,0.0,0.5427117347717285,-0.0479460358619689
-0.023021887987852,0.9835463166236876,-0.0325879752635955,-0.7715064883232117,0.022951241582632,-0.0012081091990694,0.0,0.0,-0.0751646161079406,-0.2257139682769775
-0.0233229640871286,0.9658122658729552,-0.0298364795744419,-0.7881750464439392,0.0226860772818326,-0.0053031956776976,0.0,0.0,0.2735700607299804,-0.3778144121170044
-0.0235990528017282,0.948577880859375,-0.027203207835555,-0.7659643292427063,0.0222828984260559,-0.0080635417252779,0.0,0.0,0.388653039932251,-0.3047908544540405
-0.0238829609006643,0.9315415024757384,-0.0276718977838754,-0.7571576833724976,0.0215768106281757,-0.0141217466443777,0.0,0.0,0.154886245727539,-0.1052467226982116
-0.0241301544010639,0.9149290919303894,-0.0239316783845424,-0.7383249998092651,0.0207950379699468,-0.0156351961195468,0.0,0.0,-0.6686106324195862,-0.3565183281898498
-0.0243572238832712,0.897941529750824,-0.0217143315821886,-0.7549936175346375,0.0198167189955711,-0.0195666626095771,0.0,0.0,-0.2638676166534424,-0.8504128456115723
-0.0246294979006052,0.8805779814720154,-0.0276774950325489,-0.7717206478118896,0.0202558599412441,0.0087830265983939,0.0,0.0,0.4118337631225586,0.4763641357421875
-0.0249889381229877,0.8638342618942261,-0.0357661992311477,-0.744157612323761,0.0200811196118593,-0.003494931384921,0.0,0.0,-0.3197588920593261,0.1791861057281494
-0.0253320690244436,0.8467154502868652,-0.0339455008506774,-0.7608262896537781,0.0197171196341514,-0.0072799203917384,0.0,0.0,0.1494840383529663,-0.0666123628616333
-0.0255969054996967,0.8295509219169617,-0.0262424647808074,-0.7628665566444397,0.0194792784750461,-0.0047567863948643,0.0,0.0,-0.4806176424026489,0.3443053960800171
-0.0258480068296194,0.8120112419128418,-0.0246800892055034,-0.7795352935791016,0.0190577562898397,-0.0084305182099342,0.0,0.0,-0.586258053779602,0.6825790405273438
-0.0260360725224018,0.7940897941589355,-0.01691485196352,-0.7964833974838257,0.0171902664005756,-0.03734977170825,0.0,0.0,0.5715866088867188,0.189299464225769
-0.0261746402829885,0.7762712240219116,-0.0119840074330568,-0.791917085647583,0.0153474733233451,-0.0368559956550598,0.0,0.0,0.0691839456558227,0.3293426036834717
-0.0262680053710937,0.7585122585296631,-0.0074750930070877,-0.7892695665359497,0.0135132102295756,-0.0366854257881641,0.0,0.0,-0.5894508957862854,-0.1078928112983703
-0.0263524055480957,0.7403783798217773,-0.006405240856111,-0.805938720703125,0.0115084210410714,-0.0400958731770515,0.0,0.0,0.2377227544784546,-0.2122856974601745
-0.0265350341796875,0.7227532267570496,-0.0156027358025312,-0.7833198308944702,0.0088771078735589,-0.0526262745261192,0.0,0.0,-0.0650200843811035,-0.840408205986023
-0.0267798416316509,0.7047497630119324,-0.0233993269503116,-0.8001481294631958,0.0078130522742867,-0.0212811604142189,0.0,0.0,-0.1442887187004089,0.1279650926589965
-0.027018928900361,0.6863712668418884,-0.0226703695952892,-0.8168172240257263,0.0065905512310564,-0.0244501400738954,0.0,0.0,0.2303483486175537,-0.3928609490394592
-0.0272997859865427,0.6684402823448181,-0.0264951940625906,-0.7969304323196411,0.0050157639198005,-0.0314957424998283,0.0,0.0,0.4311882257461548,-0.3675368428230285
-0.0274843219667673,0.6507124900817871,-0.0171425435692071,-0.7878953218460083,0.0037299385294318,-0.0257166530936956,0.0,0.0,0.0330665111541748,0.3317368030548095
-0.02766590192914,0.6333579421043396,-0.0167180281132459,-0.7713117003440857,0.002309326082468,-0.028412302955985,0.0,0.0,-0.3284635543823242,0.3391740322113037
-0.0278455726802349,0.6156283617019653,-0.0163956321775913,-0.7879807949066162,0.0007500842912122,-0.031184634193778,0.0,0.0,0.2979867458343506,0.0470664501190185
-0.0280997268855571,0.5980789661407471,-0.0233470741659402,-0.7799740433692932,-0.0012892908416688,-0.0407873466610908,0.0,0.0,0.3800399303436279,0.188204288482666
-0.0282742492854595,0.5811529755592346,-0.0156313069164752,-0.7522678375244141,-0.0030922046862542,-0.0360582657158374,0.0,0.0,0.0633192062377929,-0.5063227415084839
-0.0283902175724506,0.564504861831665,-0.0108459051698446,-0.7399170994758606,-0.0038285346236079,-0.0147266555577516,0.0,0.0,-0.3269717693328857,0.2506400346755981
-0.0285074226558208,0.5474817752838135,-0.0108668515458703,-0.7565862536430359,-0.0046784947626292,-0.0169988982379436,0.0,0.0,0.7188117504119873,-0.2402423620223999
-0.028702164068818,0.5313103795051575,-0.018130013719201,-0.7187322378158569,-0.0060014510527253,-0.0264593102037906,0.0,0.0,0.5629677772521973,0.7095750570297241
-0.0287879947572946,0.515282392501831,-0.0058272704482078,-0.7123696208000183,-0.0087304702028632,-0.0545803904533386,0.0,0.0,-0.0162449479103088,0.2300112247467041
-0.0288771633058786,0.4988794326782226,-0.0060604852624237,-0.729039192199707,-0.0115505466237664,-0.05640135332942,0.0,0.0,0.4703165292739868,-0.4197269678115845
-0.0288548469543457,0.4827899932861328,0.004653766285628,-0.7151077389717102,-0.0139449434354901,-0.0478878207504749,0.0,0.0,0.7121083736419678,-0.4970700740814209
-0.0288036353886127,0.4672777950763702,0.0075168372131884,-0.6894566416740417,-0.0163005422800779,-0.0471121147274971,0.0,0.0,0.1726539134979248,-0.4942927360534668
-0.0287467949092388,0.4518171846866607,0.0081056617200374,-0.6871667504310608,-0.0186957214027643,-0.0479035712778568,0.0,0.0,0.6075952053070068,-0.2002427577972412
-0.0288046840578317,0.436847448348999,-0.0027495066169649,-0.6653606295585632,-0.0217040833085775,-0.0601670928299427,0.0,0.0,0.5640249252319336,-0.1230543255805969
-0.0288302414119243,0.4227171540260315,0.0004515115579124,-0.6280602812767029,-0.0246648211032152,-0.0592148825526237,0.0,0.0,-0.3129855394363403,-0.6382198929786682
-0.02890520170331,0.4082058370113373,-0.0055679427459836,-0.6449788212776184,-0.0265666078776121,-0.038035474717617,0.0,0.0,0.0119563341140747,-0.1301254034042358
-0.0289555545896291,0.3941029906272888,-0.0031693074852228,-0.6268290281295776,-0.0284184105694293,-0.037036083638668,0.0,0.0,0.3511316776275635,0.0742311477661132
-0.0290781967341899,0.3802088499069214,-0.0099999951198697,-0.6175621747970581,-0.0306426510214805,-0.0444849170744419,0.0,0.0,0.6532852649688721,0.0042076110839843
-0.0292780883610248,0.3669598996639251,-0.0173004586249589,-0.5889012217521667,-0.033298123627901,-0.0531095974147319,0.0,0.0,0.1250674724578857,-0.1978098750114441
-0.0294492729008197,0.3539702892303467,-0.0145371910184621,-0.5773770213127136,-0.0358524918556213,-0.051087163388729,0.0,0.0,0.6820574998855591,-0.5125629305839539
-0.0297761913388967,0.3419100046157837,-0.0307661443948745,-0.5360604524612427,-0.0377605445683002,-0.038160815834999,0.0,0.0,-0.5519689321517944,0.6513464450836182
-0.0300518032163381,0.3294714689254761,-0.0241862349212169,-0.5529122948646545,-0.0410975255072116,-0.0667396336793899,0.0,0.0,0.0742737054824829,-0.8205017447471619
-0.0304141044616699,0.3170382678508758,-0.0345205441117286,-0.5526348948478699,-0.0427780635654926,-0.033610962331295,0.0,0.0,0.7697231769561768,0.1789954900741577
-0.0306950565427541,0.3047471642494201,-0.0267747230827808,-0.5463097095489502,-0.0440764799714088,-0.0259683970361948,0.0,0.0,0.6460409164428711,0.3545167446136474
-0.0309987068176269,0.2925898134708404,-0.0289602242410182,-0.5403673648834229,-0.0454655289649963,-0.0277810357511043,0.0,0.0,0.8717975616455078,0.0372824668884277
-0.0312769897282123,0.2814046442508697,-0.0264478288590908,-0.4971607029438019,-0.0468338802456855,-0.0273669548332691,0.0,0.0,0.0037561655044555,-0.2082011699676513
-0.0314894691109657,0.2705836296081543,-0.0201572943478822,-0.4809690117835998,-0.0479034148156642,-0.0213909018784761,0.0,0.0,0.3345974683761596,-0.0622746348381042
-0.0317664146423339,0.260383278131485,-0.0262700114399194,-0.4533963501453399,-0.0493095330893993,-0.0281223691999912,0.0,0.0,-0.1007114648818969,0.1917911767959594
-0.0320486053824424,0.2498077899217605,-0.0268967151641845,-0.4700651466846466,-0.0506243295967578,-0.0262957867234945,0.0,0.0,0.2187129259109497,0.1908396482467651
-0.032276727259159,0.2397284805774688,-0.0217143781483173,-0.4480049014091491,-0.0517019517719745,-0.0215525366365909,0.0,0.0,-0.4395262002944946,0.2826955318450928
-0.0325094237923622,0.2292740941047668,-0.0222897175699472,-0.4646735787391662,-0.0526723861694335,-0.0194084197282791,0.0,0.0,0.2025433778762817,-0.2803394794464111
-0.032760240137577,0.2191867679357528,-0.0240320619195699,-0.4483633935451507,-0.0537129081785678,-0.0208103097975254,0.0,0.0,0.2262964248657226,0.1661527156829834
-0.0329958908259868,0.2095024138689041,-0.022596675902605,-0.4304494559764862,-0.0546731241047382,-0.0192043464630842,0.0,0.0,0.4330587387084961,-0.6465573906898499
-0.0331754684448242,0.2001962959766388,-0.0185887403786182,-0.4135821759700775,-0.0540553219616413,0.0123560158535838,0.0,0.0,0.2387492656707763,-0.2636618614196777
-0.0333264358341693,0.1908979713916778,-0.0159347001463174,-0.4132263362407684,-0.0532215647399425,0.0166749954223632,0.0,0.0,-0.2791955471038818,-0.718706488609314
-0.0335280410945415,0.1812232136726379,-0.0223596207797527,-0.4299144148826599,-0.0510396659374237,0.0436378195881843,0.0,0.0,-0.3028330206871032,-0.5107181072235107
-0.0337617881596088,0.1711755841970443,-0.0265145860612392,-0.4464589655399322,-0.0479454584419727,0.0618841126561164,0.0,0.0,-0.0903491973876953,0.7121392488479614
-0.0339277274906635,0.1607424318790435,-0.0181070081889629,-0.4636490046977997,-0.0464480966329574,0.0299469232559204,0.0,0.0,0.8068428039550781,0.7433874607086182
-0.0340039245784282,0.151166945695877,-0.0077745714224874,-0.4255702197551727,-0.0462903007864952,0.0031559269409626,0.0,0.0,0.283022403717041,-0.242070734500885
-0.0340287201106548,0.1420973688364029,-0.0029143900610506,-0.4030795395374298,-0.045864000916481,0.0085258809849619,0.0,0.0,0.2025976181030273,-0.7423756718635559
-0.0339864715933799,0.1333799660205841,0.0020208512432873,-0.3873728811740875,-0.0436854027211666,0.0435718707740306,0.0,0.0,0.0398411750793457,-0.7001747488975525
-0.0339166633784771,0.1245869696140289,0.0031340918503701,-0.3906923532485962,-0.0398904345929622,0.0758993923664093,0.0,0.0,0.2175663709640503,0.0396111011505126
-0.0338685028254985,0.1159838736057281,0.0009876352269202,-0.3822644650936126,-0.0361074656248092,0.0756596252322197,0.0,0.0,0.6396596431732178,-0.0407009720802307
-0.0337025634944438,0.1082848608493805,0.0121982051059603,-0.3420795500278473,-0.031766127794981,0.0868267118930816,0.0,0.0,0.1252850294113159,-0.2330966591835022
-0.0335364341735839,0.1007929146289825,0.0121076749637722,-0.3328877985477447,-0.0273260958492755,0.0888005942106247,0.0,0.0,0.2855665683746338,-0.2055588960647583
-0.0334458351135253,0.0938581526279449,0.0048418357037007,-0.3081385195255279,-0.023159697651863,0.0833280682563781,0.0,0.0,-0.2044273614883422,0.1515413522720337
-0.0333499908447265,0.0865485966205596,0.0051871282048523,-0.3248086869716644,-0.0188171472400426,0.0868510901927948,0.0,0.0,0.4191734790802002,0.2506667375564575
-0.0332818999886512,0.079832062125206,0.002445435617119,-0.2984665334224701,-0.0145095130428671,0.086152546107769,0.0,0.0,-0.0574277639389038,0.9606120586395264
-0.0331413261592388,0.0727460235357284,0.0111879985779523,-0.3149099946022033,-0.011670209467411,0.0567861907184124,0.0,0.0,0.6549862623214722,0.682725191116333
-0.0329601280391216,0.0660304129123687,0.0164865143597126,-0.2984595000743866,-0.0100673492997884,0.0320572480559349,0.0,0.0,0.3353563547134399,0.2977141141891479
-0.0328598022460937,0.0596703626215457,0.0086680520325899,-0.2826639115810394,-0.0087190046906471,0.0269668344408273,0.0,0.0,0.1911681890487671,0.9718585014343262
-0.0327975265681743,0.0534999929368495,0.0066597228869795,-0.2742385268211365,-0.0091397007927298,-0.0084142182022333,0.0,0.0,0.3947138786315918,0.5475256443023682
-0.0325788483023643,0.0478659234941005,0.0229856558144092,-0.2504129409790039,-0.0102435760200023,-0.0220775436609983,0.0,0.0,-0.1146432757377624,0.4603149890899658
-0.0323489196598529,0.0418567024171352,0.023925807327032,-0.2670819461345672,-0.0111633371561765,-0.0183951836079359,0.0,0.0,0.4883385896682739,0.1460781097412109
-0.0319684967398643,0.036501083523035,0.0381785407662391,-0.2380275130271911,-0.0112939411774277,-0.0026121479459106,0.0,0.0,-0.2457457780838012,-0.3721420764923095
-0.0315749160945415,0.0307703837752342,0.0392968766391277,-0.2546963393688202,-0.0112394113093614,0.0010908999247476,0.0,0.0,0.3984540700912475,-0.4083327054977417
-0.031038474291563,0.0257474277168512,0.0528312399983406,-0.2232347428798675,-0.0104406476020812,0.0159752294421196,0.0,0.0,0.1579548120498657,-0.7457683086395264
-0.0304810516536235,0.0209588631987571,0.0531841330230236,-0.2128099799156189,-0.0079136369749903,0.0505402870476245,0.0,0.0,0.3985720872879028,0.6083567142486572
-0.029860783368349,0.0168376304209232,0.0605097524821758,-0.1831607520580291,-0.0064240414649248,0.0297922678291797,0.0,0.0,-0.2575229406356811,-0.7945544123649597
-0.0292804725468158,0.0123488996177911,0.0548938401043415,-0.1994886249303817,-0.0033273503649979,0.0619336888194084,0.0,0.0,0.4242680072784424,0.4393806457519531
-0.028611946851015,0.0080777863040566,0.0632109194993972,-0.1898234188556671,0.0002768973063211,0.0720846205949783,0.0,0.0,0.3061647415161133,-0.206985592842102
-0.0280216224491596,0.0041650151833891,0.0556329600512981,-0.1739065796136856,0.0036200147587805,0.0668625086545944,0.0,0.0,0.4829226732254028,-0.1337426304817199
-0.0275290496647357,0.0005697107408195,0.0462228655815124,-0.1598006188869476,0.0066163768060505,0.0599271953105926,0.0,0.0,0.0431255102157592,0.2261854410171508
-0.0270323753356933,-0.0028666995931416,0.046515367925167,-0.1527483910322189,0.0097359642386436,0.0623915493488311,0.0,1.0,0.9188663959503174,0.910496711730957
-0.0263815876096487,-0.0046509765088558,0.0555702373385429,-0.0796501189470291,0.018127579241991,0.166584774851799,1.0,1.0,0.6042114496231079,-0.3254440426826477
-0.025730038061738,-0.0051299836486577,0.0565837919712066,-0.0214272495359182,0.0265954658389091,0.1693494319915771,1.0,1.0,0.2224565744400024,0.2310093641281128
-0.0252123828977346,-0.0045347474515438,0.0562703497707843,0.0265241172164678,0.0221474859863519,-0.0889708399772644,1.0,1.0,-0.5358855724334717,-0.9332318305969238
-0.0248082168400287,-0.0036689306143671,0.0467324033379554,0.0385553166270256,0.0159219391644001,-0.1245008930563926,1.0,1.0,-0.462589681148529,-0.8082360625267029
