x_pos,y_pos,x_vel,y_vel,angle,ang_vel,leg_1,leg_2,main_booster,lat_booster
-0.0014915466308593,1.403272271156311,-0.1509255021810531,-0.3399000167846679,0.0015913685783743,0.0313783250749111,0.0,0.0,0.0909015450334767,-0.677794539038471
-0.0029658316634595,1.3957492113113403,-0.150238037109375,-0.3343661725521087,0.0043733264319598,0.0556448325514793,0.0,0.0,-0.652028452297398,-0.6548300526753306
-0.0044482229277491,1.3878684043884275,-0.1518965065479278,-0.3502694368362427,0.0080043850466609,0.0726277455687522,0.0,0.0,-0.8418547372947114,0.6014242364342383
-0.0058604241348803,1.379634141921997,-0.1437791436910629,-0.3659832775592804,0.0105223841965198,0.0503645613789558,0.0,0.0,0.0796090844990529,0.9648945540331156
-0.0070691108703613,1.3716926574707031,-0.1213125586509704,-0.3529545068740845,0.0109702292829751,0.0089577808976173,0.0,0.0,-0.4036533769266273,-0.9172135615701076
-0.0083017349243164,1.3633968830108645,-0.1249749064445495,-0.3687189519405365,0.012665057554841,0.0338996276259422,0.0,0.0,0.0930843147708535,0.9774528002434724
-0.0094485282897949,1.3553231954574585,-0.1142824441194534,-0.3588299453258514,0.0122691998258233,-0.0079174982383847,0.0,0.0,-0.9069958141262756,-0.6152188839932173
-0.0106003759428858,1.3468981981277466,-0.1155596375465393,-0.3744416832923889,0.0126366103067994,0.0073488219641149,0.0,0.0,0.9271121854564222,-0.6547888824943755
-0.0118000982329249,1.339591145515442,-0.1214645355939865,-0.3247710168361664,0.0141049465164542,0.02936926856637,0.0,0.0,0.0494588417199586,0.9892940783821966
-0.0128981592133641,1.3326315879821775,-0.1091606840491294,-0.3093088865280151,0.0134601034224033,-0.0128978146240115,0.0,0.0,0.4693393842290616,0.9072654886479428
-0.0138143543154001,1.3261168003082275,-0.08909722417593,-0.2895280122756958,0.010973953641951,-0.0497276559472084,0.0,0.0,-0.7665380098744798,0.8520753526091374
-0.0146248815581202,1.319249391555786,-0.0764789134263992,-0.3051904439926147,0.0064516230486333,-0.0904551073908805,0.0,0.0,-0.7758872516739523,-0.8633012839365553
-0.0154583929106593,1.3120341300964355,-0.0799931138753891,-0.3206710517406463,0.0031236957293003,-0.0665646865963935,0.0,0.0,-0.2116878746854313,-0.8262943092123031
-0.0163197517395019,1.3044588565826416,-0.0840832665562629,-0.3366788923740387,0.001099489396438,-0.0404877290129661,0.0,0.0,-0.5813572732437222,-0.9096057840582628
-0.0172064788639545,1.2965407371520996,-0.0878683403134346,-0.3519149720668793,0.000312328338623,-0.0157448779791593,0.0,0.0,-0.6609579988144205,0.9773130973727536
-0.0179725643247365,1.2882591485977173,-0.073359340429306,-0.3680727183818817,-0.0029094058554619,-0.0644403919577598,0.0,0.0,-0.3496797376613494,0.7138453202968794
-0.0186404231935739,1.2796337604522705,-0.0616262629628181,-0.3833705186843872,-0.0080104507505893,-0.1020299419760704,0.0,0.0,-0.5093617163873176,-0.9537939196313182
-0.0193370822817087,1.2706490755081177,-0.0658321008086204,-0.3993444144725799,-0.0118031725287437,-0.0758613273501396,0.0,0.0,0.0492003318311236,-0.8349912892209149
-0.0199930183589458,1.262084722518921,-0.063316598534584,-0.3806533813476562,-0.0140523333102464,-0.044986791908741,0.0,0.0,-0.5492482701029007,0.7851255027172327
-0.0205672271549701,1.253166913986206,-0.0536531209945678,-0.3963901698589325,-0.0177850034087896,-0.0746603086590766,0.0,0.0,-0.0538161989597274,-0.764803906605467
-0.0211615562438964,1.2439039945602417,-0.0567367784678936,-0.4117192327976227,-0.0204478520900011,-0.0532616302371025,0.0,0.0,-0.9266441060174546,0.6992095601240644
-0.0216724388301372,1.234283447265625,-0.0468375980854034,-0.4276421368122101,-0.0246539618819952,-0.0841296911239624,0.0,0.0,-0.2139238066350663,-0.7263748034098085
-0.0222016330808401,1.2243117094039917,-0.0496958941221237,-0.4432457089424133,-0.0278485789895057,-0.0638978481292724,0.0,0.0,0.9682309479398612,-0.6726329313859267
-0.0226582530885934,1.2145365476608276,-0.0439002402126789,-0.4344837069511413,-0.0295941140502691,-0.0349135026335716,0.0,0.0,-0.1763215966583626,-0.8000208538095765
-0.0231674201786518,1.204414963722229,-0.0510189905762672,-0.4498466551303863,-0.0294876955449581,0.0021285195834934,0.0,0.0,0.9694760720457464,-0.7196847633681581
-0.0238713268190622,1.19519305229187,-0.0713727474212646,-0.4098478555679321,-0.028516374528408,0.0194263663142919,0.0,0.0,-0.1897303909183172,-0.7196037355759413
-0.024606991559267,1.1856259107589722,-0.0758864656090736,-0.4251614212989807,-0.0262269619852304,0.0457886233925819,0.0,0.0,-0.306889513046122,-0.7015208304302687
-0.0253858566284179,1.1757168769836426,-0.0818299502134323,-0.4403380453586578,-0.0223379395902156,0.0777803808450698,0.0,0.0,-0.0020373391083279,-0.9829128080951892
-0.0262355804443359,1.165467619895935,-0.0912297964096069,-0.4554497301578522,-0.0161632876843214,0.1234932914376258,0.0,0.0,-0.7336763402031714,-0.6398751102996999
-0.0271145813167095,1.1548656225204468,-0.0954072400927543,-0.471137136220932,-0.0087592341005802,0.1480813175439834,0.0,0.0,-0.5149159225799396,-0.9303271871322654
-0.0280424114316701,1.1439239978790283,-0.1020134910941124,-0.4862709641456604,0.0003566426748875,0.1823174953460693,0.0,0.0,0.7223176872963273,0.796979006810027
-0.0289745330810546,1.133311748504639,-0.1005927100777626,-0.4716757535934448,0.0076428572647273,0.1457242667675018,0.0,0.0,-0.043802263798925,0.7202775881006813
-0.0298360828310251,1.1223552227020264,-0.092215284705162,-0.4869957864284515,0.0136254169046878,0.1196513175964355,0.0,0.0,0.6085318361997343,-0.6591010795698187
-0.0308012012392282,1.1115654706954956,-0.10369573533535,-0.4796239733695984,0.0207102745771408,0.1416972130537033,0.0,0.0,0.6592089088106325,-0.8129427487125374
-0.0318054184317588,1.1013696193695068,-0.1092205792665481,-0.4533025622367859,0.0293906088918447,0.1736064106225967,0.0,0.0,-0.8477330205347569,0.8520951563996166
-0.0327208526432514,1.0908317565917969,-0.0985133871436119,-0.468502014875412,0.0362787321209907,0.1377626359462738,0.0,0.0,0.2649811926599517,-0.7763243153697631
-0.0337140075862407,1.0804567337036133,-0.1077834591269493,-0.4613456130027771,0.0446482226252555,0.1673898100852966,0.0,0.0,0.3021120278256552,-0.992427498295004
-0.0347593314945697,1.070634365081787,-0.1149812564253807,-0.4368939399719238,0.0549749098718166,0.2065335810184478,0.0,0.0,-0.6301831141857239,0.6930800320424108
-0.035736083984375,1.0604732036590576,-0.106792114675045,-0.4519732296466827,0.0639886930584907,0.1802756339311599,0.0,0.0,-0.0617680564668281,-0.8232590275251539
-0.0367578491568565,1.0499563217163086,-0.1128499060869216,-0.4679133594036102,0.0745499283075332,0.2112245261669159,0.0,0.0,0.1279135961352961,0.7522033978094576
-0.0378270149230957,1.039887309074402,-0.1159903407096862,-0.4479898512363434,0.0835334584116935,0.1796708554029464,0.0,0.0,-0.9730969071388244,0.9630019664764404
-0.0387887954711914,1.0294764041900637,-0.1029207855463028,-0.463099867105484,0.0902074724435806,0.1334803402423858,0.0,0.0,-0.9895102381706238,0.3627009391784668
-0.039735697209835,1.0187139511108398,-0.1014199629426002,-0.478751391172409,0.0968908220529556,0.1336669027805328,0.0,0.0,-0.9501832723617554,0.8805215358734131
-0.0405871383845806,1.0076099634170532,-0.0898438096046447,-0.4938258528709411,0.1015470251441001,0.0931239500641822,0.0,0.0,-0.9520879983901978,0.95119047164917
-0.0413542762398719,0.9961535334587096,-0.0796527117490768,-0.5093790888786316,0.1044631078839302,0.0583219826221466,0.0,0.0,-0.9899929165840148,0.0772325992584228
-0.0421083457767963,0.9843451380729676,-0.0783740133047103,-0.525027871131897,0.1074108928442001,0.0589554011821746,0.0,0.0,-0.9356587529182434,0.7754453420639038
-0.0427824035286903,0.9721915125846864,-0.0687069073319435,-0.5402581691741943,0.1086956039071083,0.025694191455841,0.0,0.0,-0.993000864982605,0.9427788257598876
-0.0433853156864643,0.9597055315971376,-0.0600772015750408,-0.5549083948135376,0.1084921509027481,-0.0040689106099307,0.0,0.0,-0.991020441055298,0.9807617664337158
-0.043917465955019,0.9468863010406494,-0.0515300333499908,-0.5696258544921875,0.106811910867691,-0.0336045771837234,0.0,0.0,-0.9975994229316713,0.7895121574401855
-0.044379137456417,0.93372243642807,-0.0430038571357727,-0.5848373174667358,0.1036713942885398,-0.0628102868795394,0.0,0.0,-0.9790984988212584,0.6719210147857666
-0.0447654724121093,0.9202168583869934,-0.0338671021163463,-0.5999245047569275,0.09893599152565,-0.0947079136967659,0.0,0.0,-0.940331757068634,-0.1005482077598571
-0.0451427474617958,0.9063594937324524,-0.0330183617770671,-0.6155747771263123,0.0942704379558563,-0.0933111310005188,0.0,0.0,-0.9931569695472716,-0.7630681395530701
-0.0455602630972862,0.8921393752098083,-0.0383853875100612,-0.6318022608757019,0.090926319360733,-0.0668824911117553,0.0,0.0,-0.7457419037818909,0.18618905544281
-0.0459699630737304,0.8775672912597656,-0.0376718118786811,-0.6474515199661255,0.0876624286174774,-0.065277598798275,0.0,0.0,-0.9075389504432678,-0.0618999004364013
-0.0463722236454486,0.8626433610916138,-0.0370235592126846,-0.6631008386611938,0.0844835638999939,-0.0635773539543151,0.0,0.0,-0.3528865575790405,0.6690809726715088
-0.0467232689261436,0.8473703265190125,-0.030852373689413,-0.6785675883293152,0.0802735611796379,-0.0841998383402824,0.0,0.0,0.3606870174407959,-0.8408494591712952
-0.0470998771488666,0.8327370882034302,-0.0352983847260475,-0.6502379775047302,0.0779265165328979,-0.0469404980540275,0.0,0.0,-0.8631474375724792,0.8550275564193726
-0.0473882667720317,0.8177651762962341,-0.0244491584599018,-0.6651912927627563,0.0735828429460525,-0.086873710155487,0.0,0.0,-0.1953120231628418,0.2752020359039306
-0.0476716049015522,0.8024417161941528,-0.0240447521209716,-0.6808412075042725,0.0693404451012611,-0.0848477631807327,0.0,0.0,-0.3414801359176636,-0.5858545303344727
-0.0480027198791503,0.7867661714553833,-0.0302570909261703,-0.6965668797492981,0.0665154457092285,-0.0565001480281353,0.0,0.0,0.3746790885925293,0.0143566131591796
-0.0483078956604003,0.7712039351463318,-0.0279588345438241,-0.6915399432182312,0.0639953985810279,-0.050401072949171,0.0,0.0,0.1144943237304687,-0.3911901712417602
-0.0487071052193641,0.7559916973114014,-0.037175066769123,-0.6759836077690125,0.0612732879817485,-0.0544421300292015,0.0,0.0,-0.7456503510475159,0.7370916604995728
-0.0490330681204795,0.7404323220252991,-0.0281706750392913,-0.6913551092147827,0.0568970814347267,-0.0875242501497268,0.0,0.0,-0.2971917390823364,-0.63824063539505
-0.0494049079716205,0.7245178818702698,-0.0341078639030456,-0.707193911075592,0.0538573488593101,-0.0607946589589118,0.0,0.0,0.0380182266235351,-0.8772501349449158
-0.0498513206839561,0.7086170315742493,-0.0434559248387813,-0.7066571712493896,0.0526832155883312,-0.0234826952219009,0.0,0.0,-0.1028155088424682,0.4206986427307129
-0.0502960197627544,0.6923642754554749,-0.0433972738683223,-0.7223055362701416,0.0516298078000545,-0.0210682209581136,0.0,0.0,-0.3056069612503052,-0.0696852803230285
-0.0507392883300781,0.6757596135139465,-0.0433784201741218,-0.7379539012908936,0.0506991446018219,-0.0186133198440074,0.0,0.0,0.2878203392028808,-0.1809203624725341
-0.0511290542781353,0.6591492295265198,-0.0384604968130588,-0.7382185459136963,0.0501890666782856,-0.0102017875760793,0.0,0.0,-0.0268498063087463,0.8085873126983643
-0.0514515861868858,0.6422013640403748,-0.0301654692739248,-0.7531708478927612,0.0481223315000534,-0.0413346998393535,0.0,0.0,0.2842090129852295,0.4913609027862549
-0.0518645271658897,0.6254475116729736,-0.0389836058020591,-0.7445420622825623,0.0458451211452484,-0.0455442778766155,0.0,0.0,0.152337908744812,0.7100536823272705
-0.0523153319954872,0.6090513467788696,-0.0413989089429378,-0.7286106944084167,0.0422031097114086,-0.0728402063250541,0.0,0.0,-0.1982386708259582,0.4575560092926025
-0.0527663230895996,0.5923032760620117,-0.0415403246879577,-0.7442598938941956,0.0386917889118194,-0.0702263563871383,0.0,0.0,-0.0484217405319213,0.9598088264465332
-0.0531581863760948,0.5752177834510803,-0.0342467986047267,-0.7592388987541199,0.0338098667562007,-0.0976384878158569,0.0,0.0,0.8048017024993896,-0.1448752880096435
-0.0534916892647743,0.5587301850318909,-0.0289178751409053,-0.7326849102973938,0.0294322576373815,-0.087551936507225,0.0,0.0,0.3502801656723022,0.7795267105102539
-0.0538044944405555,0.542365550994873,-0.0253729484975337,-0.727213442325592,0.023598201572895,-0.1166813150048255,0.0,0.0,-0.1619126796722412,0.383201003074646
-0.0541182532906532,0.5256492495536804,-0.0255950428545475,-0.7428643107414246,0.0178991090506315,-0.1139818653464317,0.0,0.0,0.5478084087371826,-0.1344842314720153
-0.0544681549072265,0.5090575218200684,-0.0292200595140457,-0.7373523116111755,0.012198862619698,-0.1140049323439598,0.0,0.0,0.3796210289001465,0.8254572153091431
-0.0547698959708213,0.4931163489818573,-0.0228621046990156,-0.7084569931030273,0.0049837566912174,-0.1443022936582565,0.0,0.0,0.5201644897460938,-0.0664418339729309
-0.05500278621912,0.4779502153396606,-0.0164689477533102,-0.6740458011627197,-0.0017534517683088,-0.1347442269325256,0.0,0.0,-0.0440680980682373,-0.4139320850372314
-0.0552369132637977,0.4624325037002563,-0.0167293064296245,-0.6896973252296448,-0.0083528440445661,-0.1319876164197921,0.0,0.0,0.6006450653076172,-0.5643222332000732
-0.0556492805480957,0.4470410048961639,-0.0354814901947975,-0.6841102838516235,-0.0140306148678064,-0.113555371761322,0.0,0.0,0.8015023469924927,0.5700924396514893
-0.0559586510062217,0.432593822479248,-0.0242963191121816,-0.6421715021133423,-0.0205755084753036,-0.1308979094028473,0.0,0.0,-0.5302401781082153,-0.2105931639671325
-0.056269071996212,0.417795181274414,-0.0245578531175851,-0.6578226685523987,-0.0269811898469924,-0.1281135380268097,0.0,0.0,0.8431816101074219,0.5720822811126709
-0.0565801635384559,0.4037821292877197,-0.0234331004321575,-0.6229599118232727,-0.0345642678439617,-0.1516616642475128,0.0,0.0,0.5743250846862793,0.0896075963973999
-0.0568806640803813,0.390417218208313,-0.0224635116755962,-0.5941911935806274,-0.0420602485537529,-0.1499195545911789,0.0,0.0,-0.649185836315155,-0.8899300694465637
-0.0572422966361045,0.3767046928405761,-0.0302530117332935,-0.6096241474151611,-0.0479020774364471,-0.1168364435434341,0.0,0.0,0.483407974243164,-0.8493691086769104
-0.0576335899531841,0.3630955219268799,-0.0351006835699081,-0.604985773563385,-0.0518832206726074,-0.0796228796243667,0.0,0.0,0.8974714279174805,0.0836055278778076
-0.0578951835632324,0.3498187959194183,-0.0227722711861133,-0.5901976823806763,-0.0552311949431896,-0.0669594183564186,0.0,0.0,0.9627768993377686,-0.8587235808372498
-0.0579966530203819,0.3371956646442413,-0.0090201767161488,-0.5610731244087219,-0.056338857859373,-0.0221532490104436,0.0,0.0,0.7086162567138672,0.0171124935150146
-0.0579314231872558,0.324818879365921,0.0068213217891752,-0.5500877499580383,-0.0566392168402671,-0.0060071554034948,0.0,0.0,0.792344331741333,0.093511939048767
-0.0578263290226459,0.3133110702037811,0.0106982383877038,-0.5114651918411255,-0.0568275675177574,-0.0037671369500458,0.0,0.0,0.506981372833252,-0.25482177734375
-0.0576537139713764,0.3024848699569702,0.0171857345849275,-0.4811616241931915,-0.0567450076341629,0.0016510427230969,0.0,0.0,-0.2601233720779419,-0.6878394484519958
-0.0575236305594444,0.2913128137588501,0.0116826677694916,-0.496489405632019,-0.0554358959197998,0.0261824838817119,0.0,0.0,0.3069560527801513,-0.1986587047576904
-0.0572989471256732,0.2801686823368072,0.0206312164664268,-0.4952283799648285,-0.0536176040768623,0.0363656245172023,0.0,0.0,0.3276997804641723,-0.1397001147270202
-0.0570935234427452,0.2692887783050537,0.0187610983848571,-0.4834887385368347,-0.0518547259271144,0.035257302224636,0.0,0.0,-0.042316198348999,0.8508381843566895
-0.0568097122013568,0.2580609321594238,0.028406273573637,-0.4990176558494568,-0.0518814511597156,-0.00053428823594,0.0,0.0,0.2792921066284179,-0.6762175559997559
-0.0565749183297157,0.2471465468406677,0.0220299307256937,-0.4850345849990845,-0.0504546351730823,0.0285363495349884,0.0,0.0,0.3618190288543701,-0.3065036535263061
-0.0564076416194438,0.2368700355291366,0.015632327646017,-0.4566943049430847,-0.0493631698191165,0.0218291208148002,0.0,0.0,-0.1376226544380188,0.5442185401916504
-0.0561885833740234,0.2262405455112457,0.0219143014401197,-0.4724231958389282,-0.0493719540536403,-0.0001752715616021,0.0,0.0,0.3912611007690429,-0.7315456867218018
-0.0560433380305767,0.2162187397480011,0.0129952207207679,-0.4453649520874023,-0.0478649847209453,0.0301394499838352,0.0,0.0,0.2457839250564575,-0.2750272750854492
-0.0559302344918251,0.2066951841115951,0.0099358698353171,-0.4232242703437805,-0.0465086735785007,0.0271262917667627,0.0,0.0,-0.1938820481300354,0.403164267539978
-0.0558135025203228,0.1968195736408233,0.0101550696417689,-0.4388716518878937,-0.0450149029493331,0.0298754777759313,0.0,0.0,0.1045788526535034,0.0170384645462036
-0.0557525642216205,0.1871996074914932,0.0048024002462625,-0.4275176227092743,-0.0437449850142002,0.0253985039889812,0.0,0.0,-0.2611939907073974,-0.615422248840332
-0.0557481758296489,0.1772300750017166,-0.0025228993035852,-0.4430039525032043,-0.0408085547387599,0.0587286949157714,0.0,0.0,0.4684410095214844,0.4243297576904297
-0.0556185729801654,0.1678600907325744,0.0094072017818689,-0.4163504540920257,-0.0373008027672767,0.0701550543308258,0.0,0.0,-0.0661969780921936,0.8919596672058105
-0.0554060935974121,0.158125951886177,0.0195444207638502,-0.4325875639915466,-0.035614039748907,0.0337350741028785,0.0,0.0,0.2195343971252441,0.4843626022338867
-0.05506057664752,0.148878201842308,0.0322036296129226,-0.4109575450420379,-0.0332974828779697,0.0463311746716499,0.0,0.0,0.2991735935211181,-0.310150146484375
-0.0547063834965229,0.1401941329240799,0.0330264791846275,-0.3859076499938965,-0.0309303179383277,0.0473433658480644,0.0,0.0,-0.2691015601158142,-0.574103832244873
-0.0543797500431537,0.131166324019432,0.0292465202510356,-0.4011698365211487,-0.0275580454617738,0.0674453005194664,0.0,0.0,0.3301699161529541,-0.1680548787117004
-0.0539714805781841,0.1224836930632591,0.0369918420910835,-0.3858271241188049,-0.0237693786621093,0.0757734030485153,0.0,0.0,0.4524877071380615,-0.4764977693557739
-0.0535445213317871,0.1145258247852325,0.0387537479400634,-0.3536258041858673,-0.0198786370456218,0.0778152048587799,0.0,0.0,-0.1585330963134765,-0.3567703366279602
-0.0531090721487998,0.1062160581350326,0.0394638590514659,-0.3692746460437774,-0.0158573314547538,0.0804261043667793,0.0,0.0,0.6392345428466797,0.3441518545150757
-0.0525775924324989,0.0982348024845123,0.0485687665641307,-0.3546811640262604,-0.0113365994766354,0.0904145985841751,0.0,0.0,0.1721121072769165,0.3565330505371094
-0.0521184913814067,0.0905611813068389,0.0416131801903247,-0.3410258591175079,-0.0070886467583477,0.084958866238594,0.0,0.0,0.3661396503448486,0.1680344343185424
-0.0517523773014545,0.083175241947174,0.0326690562069416,-0.3282510936260223,-0.0032041007652878,0.0776911079883575,0.0,0.0,0.4874904155731201,0.8084789514541626
-0.0513319000601768,0.0761979222297668,0.0396489389240741,-0.3100970983505249,-0.0008329578558914,0.0474225655198097,0.0,0.0,0.0801392793655395,0.9038236141204834
-0.0508085265755653,0.0693899691104888,0.0516350679099559,-0.3025749027729034,-0.0001327437494182,0.0140043105930089,0.0,0.0,0.2971110343933105,0.8107627630233765
-0.0500928871333599,0.0626460388302803,0.0722381547093391,-0.2997318208217621,-0.000795945758,-0.0132639650255441,0.0,0.0,-0.1867454051971435,-0.7387925982475281
-0.0494141578674316,0.05555335059762,0.0671718716621398,-0.3152301907539367,-0.0001049156780936,0.0138204377144575,0.0,0.0,0.6908972263336182,0.0225807428359985
-0.0486970916390419,0.0493469350039958,0.0707618966698646,-0.2758407294750213,0.0008263629279099,0.0186255387961864,0.0,0.0,0.3615942001342773,-0.2882797122001648
