x_pos,y_pos,x_vel,y_vel,angle,ang_vel,leg_1,leg_2,main_booster,lat_booster
-0.0014887809520587,1.4031044244766235,-0.1506144106388092,-0.3473687171936035,0.001548902830109,0.0305376164615154,0.0,0.0,0.2400944232940673,0.5509588718414307
-0.0028559684287756,1.395308494567871,-0.1370052993297577,-0.3464861214160919,0.0018365032738074,0.0057533322833478,0.0,0.0,-0.1360452771186828,0.8323310613632202
-0.0041055679321289,1.3869860172271729,-0.1229599714279174,-0.3698886632919311,-0.000137809998705,-0.0394899249076843,0.0,0.0,-0.3114885091781616,-0.0244998931884765
-0.0053162574768066,1.378143310546875,-0.1187883988022804,-0.3930082619190216,-0.0023876531049609,-0.0450012050569057,0.0,0.0,-0.1134299039840698,0.4517017602920532
-0.0064868927001953,1.3687806129455566,-0.1144847273826599,-0.4161266088485718,-0.0049378797411918,-0.0510095655918121,0.0,0.0,-0.2464297413825988,-0.0187082290649414
-0.0076164244674146,1.3588979244232178,-0.1100572720170021,-0.4392452239990234,-0.0078106122091412,-0.0574597306549549,0.0,0.0,0.2523366212844848,-0.2347251772880554
-0.0087177278473973,1.3491519689559937,-0.1068014502525329,-0.4331737756729126,-0.011108910664916,-0.0659719035029411,0.0,0.0,0.1701188087463379,0.1351410150527954
-0.0096652982756495,1.3395715951919556,-0.0915691629052162,-0.4258275032043457,-0.01426687464118,-0.0631651580333709,0.0,0.0,-0.6531497240066528,-0.6512743830680847
-0.0106216426938772,1.3294792175292969,-0.093378409743309,-0.4485730230808258,-0.0164923295378685,-0.0445128194987773,0.0,0.0,-0.1016650199890136,0.5302926301956177
-0.0114918705075979,1.3188692331314087,-0.0833082944154739,-0.4716000854969024,-0.020168337970972,-0.0735271871089935,0.0,0.0,-0.4878885746002197,-0.4437634944915771
-0.0123170856386423,1.3077393770217896,-0.0783867985010147,-0.4947200417518616,-0.0242613293230533,-0.0818671360611915,0.0,0.0,-0.4749493598937988,-0.8368136286735535
-0.0131548885256052,1.296090006828308,-0.0806927382946014,-0.5177991390228271,-0.0273236408829689,-0.061251550912857,0.0,0.0,0.1549270153045654,-0.8315261602401733
-0.0138936042785644,1.284656643867493,-0.0720559954643249,-0.5081852078437805,-0.0291110333055257,-0.0357512682676315,0.0,0.0,-0.8342077136039734,-0.1896516680717468
-0.0145856859162449,1.2727031707763672,-0.0669278651475906,-0.5313109755516052,-0.0313607715070247,-0.0449988879263401,0.0,0.0,-0.8599625825881958,-0.7134492993354797
-0.0152735710144042,1.2602392435073853,-0.0671284049749374,-0.5539876222610474,-0.0329991690814495,-0.0327711030840873,0.0,0.0,-0.3467227220535278,-0.772788405418396
-0.0159639362245798,1.2472487688064575,-0.0681608468294143,-0.5773732662200928,-0.0338703207671642,-0.017424676567316,0.0,0.0,-0.6192014217376709,-0.3034641742706299
-0.0166065208613872,1.2337384223937988,-0.0628685504198074,-0.6004927754402161,-0.0352386273443698,-0.0273685697466135,0.0,0.0,-0.6471715569496155,-0.6893538236618042
-0.017242431640625,1.2197043895721436,-0.0627531036734581,-0.6237508058547974,-0.0360688343644142,-0.0166056137531995,0.0,0.0,-0.2045499086380005,-0.9400460720062256
-0.0178916938602924,1.2051628828048706,-0.0651581659913063,-0.6462891101837158,-0.0358482040464878,0.0044129085727036,0.0,0.0,-0.682521402835846,-0.6340401768684387
-0.0185489654541015,1.1901041269302368,-0.0668612942099571,-0.6692531108856201,-0.0347245298326015,0.0224756523966789,0.0,0.0,-0.0935668349266052,-0.7105498909950256
-0.0192011836916208,1.1745330095291138,-0.0669467970728874,-0.6920139193534851,-0.0330200642347335,0.0340922251343727,0.0,0.0,-0.5506091117858887,-0.544115424156189
-0.019846249371767,1.1584409475326538,-0.0667578727006912,-0.7151555418968201,-0.0307955536991357,0.0444943346083164,0.0,0.0,-0.3825636506080627,-0.1373449563980102
-0.0204417221248149,1.141829013824463,-0.0612448155879974,-0.7382758855819702,-0.0291176587343215,0.0335610918700695,0.0,0.0,-0.5809552073478699,-0.484567642211914
-0.0209873206913471,1.124696969985962,-0.0557020828127861,-0.761396050453186,-0.027991909533739,0.0225169248878955,0.0,0.0,0.0725139379501342,-0.5509204268455505
-0.0216171257197856,1.1076793670654297,-0.0644997209310531,-0.7563164234161377,-0.0264973621815443,0.0298936776816844,0.0,0.0,-0.0123019218444824,-0.1264361143112182
-0.0221972465515136,1.0901200771331787,-0.0589452199637889,-0.7803922891616821,-0.0255658607929945,0.0186301153153181,0.0,0.0,0.1246231794357299,-0.5914823412895203
-0.0227579120546579,1.072787880897522,-0.0576426275074481,-0.7702949643135071,-0.0240203980356454,0.0309091918170452,0.0,0.0,-0.0830719470977783,-0.6898140907287598
-0.0233345031738281,1.054945468902588,-0.0603291913866996,-0.7929611802101135,-0.0213760118931531,0.0528877452015876,0.0,0.0,-0.3176952004432678,0.2775012254714966
-0.0238602645695209,1.0365830659866333,-0.0546774268150329,-0.816079318523407,-0.0193065553903579,0.041389275342226,0.0,0.0,0.6370751857757568,0.0528359413146972
-0.0243467334657907,1.0184259414672852,-0.0500598438084125,-0.806968629360199,-0.0179116129875183,0.0278988741338253,0.0,0.0,0.6001181602478027,-0.1999793648719787
-0.0247493740171194,1.0009779930114746,-0.0411817990243434,-0.7754504680633545,-0.0170141570270061,0.0179490484297275,0.0,0.0,-0.2226206660270691,-0.2923825979232788
-0.025101089850068,0.9830101728439332,-0.035490196198225,-0.7985678911209106,-0.0167007502168416,0.0062680467963218,0.0,0.0,0.3463221788406372,-0.7668470144271851
-0.025527000427246,0.9655126929283142,-0.0437565296888351,-0.777654230594635,-0.0155507028102874,0.0230007171630859,0.0,0.0,0.1965724229812622,-0.2207174301147461
-0.0259438510984182,0.9478879570961,-0.0420387461781501,-0.7833133935928345,-0.0152031145989894,0.0069518433883786,0.0,0.0,-0.2765249013900757,-0.0158407092094421
-0.0263094902038574,0.929743230342865,-0.0363204143941402,-0.8064307570457458,-0.0154464906081557,-0.004867248237133,0.0,0.0,-0.0207409262657165,-0.443790078163147
-0.0266239158809185,0.9110786318778992,-0.0305957682430744,-0.8295480608940125,-0.0162827149033546,-0.0167243592441082,0.0,0.0,0.7676886320114136,-0.1184920072555542
-0.0269071571528911,0.8926252722740173,-0.026747141033411,-0.8201640844345093,-0.0178434140980243,-0.0312140490859746,0.0,0.0,0.572576642036438,-0.54659104347229
-0.0271304138004779,0.8747430443763733,-0.0213437117636203,-0.7947801351547241,-0.01881411857903,-0.0194140952080488,0.0,0.0,0.1282351016998291,-0.8028086423873901
-0.0273859985172748,0.8572152853012085,-0.0255631748586893,-0.7790090441703796,-0.0188052672892808,0.0001771824754541,0.0,0.0,-0.2552988529205322,-0.0645520091056823
-0.0275901798158884,0.8391675353050232,-0.0198250636458396,-0.8021265864372253,-0.0193952340632677,-0.0117995049804449,0.0,0.0,-0.0183028578758239,0.1814446449279785
-0.0277431495487689,0.8205997347831726,-0.0140863973647356,-0.8252440094947815,-0.0205851942300796,-0.0237992163747549,0.0,0.0,0.0133620500564575,-0.4490760564804077
-0.0277625080198049,0.8019914031028748,-0.0004722659359686,-0.8270588517189026,-0.0220259800553321,-0.0288158990442752,0.0,0.0,0.7761251926422119,-0.7633910179138184
-0.0276694297790527,0.7833585143089294,0.0095931189134716,-0.8281333446502686,-0.0223129820078611,-0.0057401596568524,0.0,0.0,0.0079928636550903,-0.1241265535354614
-0.0274574272334575,0.7646873593330383,0.0218199025839567,-0.8298408389091492,-0.0229225344955921,-0.0121910199522972,0.0,0.0,-0.0996232032775878,-0.0338650345802307
-0.0271942131221294,0.7454962134361267,0.0275498777627944,-0.8529585599899292,-0.0241355635225772,-0.024260526522994,0.0,0.0,-0.0395111441612243,0.2731719017028808
-0.0268798824399709,0.7257850170135498,0.0332749299705028,-0.8760765194892883,-0.0259527098387479,-0.036342654377222,0.0,0.0,-0.2419167160987854,-0.3405681252479553
-0.0265144351869821,0.705554187297821,0.0389939323067665,-0.8991946578025818,-0.0283744744956493,-0.0484356246888637,0.0,0.0,0.3138108253479004,-0.4637939929962158
-0.0261685363948345,0.6858015060424805,0.0380733385682106,-0.8779674172401428,-0.0318148359656333,-0.0688071548938751,0.0,0.0,0.2953014373779297,-0.7729201316833496
-0.0259304046630859,0.6664708852767944,0.0264887697994709,-0.8592010140419006,-0.0344650484621524,-0.0530041344463825,0.0,0.0,0.2416589260101318,-0.7997089624404907
-0.0257098190486431,0.6471952795982361,0.0237660259008407,-0.8567296862602234,-0.0361483059823513,-0.0336651653051376,0.0,0.0,0.6625454425811768,-0.3443840742111206
-0.0252734180539846,0.6282534599304199,0.0452771410346031,-0.8418951034545898,-0.037769865244627,-0.0324311070144176,0.0,0.0,0.1495290994644165,-0.7801278829574585
-0.0248746871948242,0.609571635723114,0.0406017862260341,-0.8303251266479492,-0.0384820103645324,-0.0142432181164622,0.0,0.0,-0.1391909122467041,-0.8627877235412598
-0.0244813915342092,0.5903683304786682,0.0392403490841388,-0.8534773588180542,-0.0383963994681835,0.001712332246825,0.0,0.0,0.7059192657470703,-0.3541706204414367
-0.0240028388798236,0.5718795657157898,0.0483614988625049,-0.821733832359314,-0.0389018170535564,-0.0101085305213928,0.0,0.0,0.3025749921798706,-0.9201109409332277
-0.0233967788517475,0.5534401535987854,0.0597933828830719,-0.8195105195045471,-0.0380931124091148,0.016174217686057,0.0,0.0,0.2806453704833984,-0.5711147785186768
-0.0228531844913959,0.5350329875946045,0.05316673964262,-0.8180638551712036,-0.0369171872735023,0.0235184449702501,0.0,0.0,0.2048790454864502,-0.6236392855644226
-0.0222112648189067,0.5169815421104431,0.0622252114117145,-0.8022373914718628,-0.0349824950098991,0.03869404271245,0.0,0.0,0.5525788068771362,-0.9229573011398317
-0.0214242935180664,0.4993605315685272,0.0753137320280075,-0.7830855250358582,-0.0316379927098751,0.0668898969888687,0.0,0.0,0.0698599815368652,-0.638001561164856
-0.0205668453127145,0.4820254445075989,0.0816230550408363,-0.7703667283058167,-0.0275628045201301,0.0815037339925766,0.0,0.0,-0.1192612648010253,-0.8954205513000488
-0.0197399146854877,0.464181900024414,0.0771444886922836,-0.7929548621177673,-0.0220857765525579,0.109540544450283,0.0,0.0,0.8224993944168091,-0.0009710192680358
-0.0187987331300973,0.4464295208454132,0.0889206230640411,-0.7889277935028076,-0.0169520694762468,0.1026740670204162,0.0,0.0,0.8025103807449341,-0.6617801189422607
-0.0179663654416799,0.4293130338191986,0.0775962397456169,-0.7606793642044067,-0.011393092572689,0.1111795902252197,0.0,0.0,0.903068780899048,-0.5918200612068176
-0.0169741623103618,0.4125672578811645,0.0925951078534126,-0.7442206740379333,-0.0048439647071063,0.1309825032949447,0.0,0.0,0.5038919448852539,0.0439915657043457
-0.0159097667783498,0.3961386680603027,0.1003083437681198,-0.7301515340805054,0.0012017079861834,0.1209132298827171,0.0,0.0,0.7612931728363037,-0.1667414307594299
-0.0147901531308889,0.3798313438892364,0.1064132004976272,-0.7247813940048218,0.0066840969957411,0.1096477657556533,0.0,0.0,0.7452511787414551,-0.7917284369468689
-0.0138338087126612,0.3639392256736755,0.0893775895237922,-0.7063568234443665,0.0128585649654269,0.1234893649816513,0.0,0.0,0.9169952869415284,-0.0401635766029357
-0.0128186224028468,0.3490172028541565,0.095756858587265,-0.6632608771324158,0.0185483265668153,0.1137953624129295,0.0,0.0,0.6711766719818115,-0.3255716562271118
-0.0116795543581247,0.3340213000774383,0.1083556190133094,-0.6665636897087097,0.0240233559161424,0.1095005124807357,0.0,0.0,0.8903701305389404,-0.4519581794738769
-0.0104872705414891,0.3199713230133056,0.1141450852155685,-0.6245343089103699,0.0290438458323478,0.1004101485013961,0.0,0.0,0.3722922801971435,0.0301777124404907
-0.0093392375856637,0.3059873580932617,0.1106911301612854,-0.6215948462486267,0.0331065282225608,0.0812538042664527,0.0,0.0,0.8478914499282837,-0.5673385262489319
-0.0083258626982569,0.2926133573055267,0.0969876199960708,-0.5945026874542236,0.037399586290121,0.0858613848686218,0.0,0.0,0.5326335430145264,-0.2896502017974853
-0.007261371705681,0.2795861065387726,0.102569080889225,-0.5790889263153076,0.0412315726280212,0.0766395106911659,0.0,0.0,0.674755334854126,-0.5033361911773682
-0.0063675879500806,0.2673162519931793,0.0854875072836875,-0.5454387068748474,0.0450828708708286,0.077025793492794,0.0,0.0,0.5379855632781982,0.0275372266769409
-0.0053866384550929,0.2553362846374511,0.0944704413414001,-0.5325564742088318,0.0486611686646938,0.0715660080313682,0.0,0.0,0.2687278985977173,-0.6462515592575073
-0.0044576646760106,0.2432751506567001,0.088613674044609,-0.5361970663070679,0.0528911389410495,0.0845994651317596,0.0,0.0,0.628014326095581,-0.107350468635559
-0.0034372329246252,0.2311788201332092,0.0980441197752952,-0.5377625226974487,0.0568461418151855,0.0791001841425895,0.0,0.0,0.7778065204620361,-0.5444096922874451
-0.0024757385253906,0.2190968543291092,0.091739609837532,-0.537146270275116,0.06120290979743,0.0871354192495346,0.0,0.0,0.8810019493103027,-0.0471476316452026
-0.0015390396583825,0.2078458219766616,0.0898931622505188,-0.5002061724662781,0.0649359151721,0.0746602639555931,0.0,0.0,0.8464419841766357,-0.7142136693000793
-0.0005824089166708,0.1974501460790634,0.0908127203583717,-0.4622485935688019,0.0697371661663055,0.0960249379277229,0.0,0.0,0.8599543571472168,-0.6327710747718811
0.0001626968441996,0.1878979802131652,0.0693238005042076,-0.424793392419815,0.0748736262321472,0.1027290821075439,0.0,0.0,0.6547878980636597,-0.8302879929542542
0.0007118225330486,0.1782896667718887,0.0488776750862598,-0.4273485541343689,0.0808518007397651,0.1195633858442306,0.0,0.0,0.793021559715271,-0.4676761627197265
0.0012716293567791,0.1694491058588028,0.0503040365874767,-0.3932323753833771,0.086466483771801,0.1122936978936195,0.0,0.0,0.9403133392333984,-0.3713939189910888
0.0016895293956622,0.1610827594995498,0.0372520312666893,-0.3721091151237488,0.0909689143300056,0.0900486931204795,0.0,0.0,0.9326155185699464,-0.2139805555343628
0.0020056725479662,0.153371512889862,0.0279324986040592,-0.3429523408412933,0.0946174636483192,0.0729711502790451,0.0,0.0,0.8228695392608643,-0.2371439337730407
0.0022686957381665,0.1462898403406143,0.0232404079288244,-0.3149391710758209,0.0976526886224746,0.0607044920325279,0.0,0.0,0.5782855749130249,0.4015271663665771
0.002592182252556,0.1395293027162552,0.0294460747390985,-0.3006592392921448,0.1005263328552246,0.0574730113148689,0.0,0.0,0.7494063377380371,-0.7835506796836853
0.0028759003616869,0.1327762156724929,0.0243939533829689,-0.3004115521907806,0.1044785603880882,0.0790445730090141,0.0,0.0,0.4684586524963379,-0.0335248708724975
0.0032335282303392,0.1260492354631424,0.0319318957626819,-0.2992495894432068,0.1082774549722671,0.0759779661893844,0.0,0.0,0.282010555267334,-0.6821286678314209
0.0036438941024243,0.1194741129875183,0.0361867025494575,-0.2925873100757599,0.113104872405529,0.0965481251478195,0.0,0.0,0.1410461664199829,-0.1775434017181396
0.0041457177139818,0.1128006279468536,0.04539605230093,-0.2969672083854675,0.117857240140438,0.0950471386313438,0.0,0.0,0.0061992406845092,-0.8944017291069031
0.0045437812805175,0.106281504034996,0.033750481903553,-0.2902303338050842,0.1238803043961525,0.120461381971836,0.0,0.0,0.0224453210830688,-0.6327314376831055
0.0048788068816065,0.099940188229084,0.0266662035137414,-0.2824173271656036,0.1306845694780349,0.1360848695039749,0.0,0.0,0.5262001752853394,0.8295519351959229
0.0053478241898119,0.0940358936786651,0.0420377925038337,-0.2628474235534668,0.1355256885290146,0.0968222096562385,0.0,0.0,0.2897541522979736,-0.4905719757080078
0.0058807372115552,0.0880055725574493,0.0485638193786144,-0.2684511244297027,0.1402471214532852,0.0944286733865737,0.0,0.0,0.505481481552124,-0.6363447904586792
0.0062664030119776,0.0821205973625183,0.033138308674097,-0.2620776295661926,0.1456580013036728,0.1082175523042678,0.0,0.0,0.679946780204773,-0.0371418595314025
0.0066271782852709,0.0770356953144073,0.0307177994400262,-0.2265291661024093,0.1510060280561447,0.1069608330726623,0.0,0.0,-0.1139794588088989,0.1724580526351928
0.0070036887191236,0.0714300945401191,0.0327380672097206,-0.24964240193367,0.1559059768915176,0.0979991629719734,0.0,0.0,0.5085858106613159,0.2406668663024902
0.00716915121302,0.0663537085056305,0.0126066328957676,-0.2260376363992691,0.1598460525274276,0.0788013190031051,0.0,0.0,0.0569512844085693,0.5215389728546143
0.0073773385956883,0.0614446960389614,0.0182329304516315,-0.2184583097696304,0.1624277383089065,0.0516336075961589,0.0,0.0,0.319608211517334,0.3064481019973755
0.0074571608565747,0.0568914525210857,0.0060082119889557,-0.2025840729475021,0.1644079983234405,0.0396052747964859,0.0,0.0,-0.0266752839088439,0.8243224620819092
0.0076010702177882,0.0518368817865848,0.0142170768231153,-0.2246655076742172,0.1645740419626236,0.0033209763932973,0.0,0.0,0.7286381721496582,0.912018060684204
0.0077098845504224,0.0470400191843509,0.0129600195214152,-0.2129664123058319,0.1625018119812011,-0.0414443202316761,0.0,0.0,0.7238614559173584,0.7810783386230469
0.0076520917937159,0.04263461753726,-0.0015313526382669,-0.1953378170728683,0.1582556217908859,-0.084923580288887,0.0,0.0,0.5881600379943848,0.9211978912353516
0.0074306488968431,0.0384312719106674,-0.0155155044049024,-0.1861245930194854,0.1516292691230774,-0.1325270533561706,0.0,0.0,0.5332252979278564,0.9689819812774658
0.0072968481108546,0.034745130687952,-0.0046089547686278,-0.1629562824964523,0.1428674757480621,-0.1752354800701141,0.0,0.0,0.5719341039657593,0.9524989128112792
0.0072547914460301,0.0310828778892755,0.0067057646811008,-0.1617585271596908,0.1319968402385711,-0.2174124717712402,0.0,0.0,0.39052414894104,0.7465925216674805
0.0073208808898925,0.0279009193181991,0.0190971493721008,-0.1403625905513763,0.1195764169096946,-0.2484087496995926,0.0,0.0,0.0511748790740966,-0.2121954560279846
0.0073117255233228,0.0249332524836063,0.0118943778797984,-0.1309183984994888,0.1068524345755577,-0.2544798851013183,0.0,0.0,-0.0069782733917236,0.0490953922271728
0.0072992322966456,0.0214473828673362,0.0117874331772327,-0.1540465354919433,0.0939180552959442,-0.2586879432201385,0.0,0.0,0.1715109348297119,-0.3284876942634582
0.0072973249480128,0.018064722418785,0.012794280424714,-0.1495741009712219,0.0810501798987388,-0.2573571801185608,0.0,0.0,-0.0935863852500915,-0.2298547625541687
0.0072894096374511,0.0141640044748783,0.0123570021241903,-0.1727034151554107,0.0680261552333831,-0.2604808211326599,0.0,0.0,0.4971945285797119,-0.5494772791862488
0.0072410581633448,0.0108196111395955,0.007222406566143,-0.1481330394744873,0.0561110191047191,-0.2383027076721191,0.0,0.0,0.4117822647094726,-0.5972678065299988
0.0071903229691088,0.0075428104028105,0.005708651151508,-0.145262137055397,0.0454453416168689,-0.2133135497570037,0.0,0.0,0.5595159530639648,-0.5314891934394836
0.0069373128935694,0.0046114777214825,-0.015183201059699,-0.1300035864114761,0.0354475677013397,-0.1999553889036178,0.0,0.0,0.1932860612869262,0.0785274505615234
0.0065674781799316,0.0017137980321422,-0.0263807214796543,-0.1285662502050399,0.0249803345650434,-0.2093446552753448,0.0,0.0,0.3948569297790527,0.1101645231246948
0.0061111450195312,-0.0006781601696275,-0.0264970567077398,-0.106105200946331,0.0060604317113757,-0.3784240186214447,0.0,1.0,0.243243932723999,0.3474831581115722
0.0056716920807957,-0.0029832506552338,-0.0248767957091331,-0.1024833917617797,-0.0127693684771656,-0.376606673002243,1.0,1.0,0.8306083679199219,0.1806261539459228
0.0054005621932446,-0.0045620705932378,-0.014320227317512,-0.0705811008810997,-0.0243329592049121,-0.229938268661499,1.0,1.0,0.817328691482544,0.2962158918380737
0.0053353309631347,-0.0047486806288361,-0.0052795484662055,-0.0083256568759679,-0.0255460552871227,-0.0242344178259372,1.0,1.0,-0.7637696266174316,-0.0066762566566467
0.005308246705681,-0.0045234109275043,-0.0046173217706382,0.0100684585049748,-0.0236570592969656,0.0377762019634246,1.0,1.0,-0.3392000198364258,0.0153143405914306
0.0053114891052246,-0.0039432668127119,-0.004075706936419,0.0258452836424112,-0.0193082056939601,0.0869922190904617,1.0,1.0,0.2405006885528564,0.7375938892364502
