x_pos,y_pos,x_vel,y_vel,angle,ang_vel,leg_1,leg_2,main_booster,lat_booster
-0.0014988898765295,1.4033173322677612,-0.1518425047397613,-0.3379044830799103,0.00175217166543,0.0345623940229415,0.0,0.0,-0.1496866716834628,0.7376094435213029
-0.0029107094742357,1.3954269886016846,-0.1412954032421112,-0.350681334733963,0.0018681939691305,0.0023212004452943,0.0,0.0,0.4078739291991442,0.6910460149733787
-0.0041193007491528,1.3877408504486084,-0.1198325529694557,-0.3416066169738769,0.0008498897077515,-0.0203680656850337,0.0,0.0,0.8693455556937302,-0.5824692118569634
-0.0054951668716967,1.380593180656433,-0.1372781097888946,-0.3176758587360382,0.0005481495754793,-0.0060355835594236,0.0,0.0,0.7352910492678206,-0.6333207137166514
-0.0067528723739087,1.3741676807403564,-0.1271059960126876,-0.2855815887451172,0.0018597496673464,0.0262344442307949,0.0,0.0,0.0713151442820172,-0.8806951414495501
-0.0079547883942723,1.367961883544922,-0.1232738867402076,-0.2758170664310455,0.0049181245267391,0.0611731335520744,0.0,0.0,0.1799622439959403,0.5265992385531999
-0.0091146472841501,1.362067937850952,-0.1179555431008338,-0.261964738368988,0.0068670487962663,0.0389818325638771,0.0,0.0,-0.559673109284311,0.5877829125284212
-0.0101974485442042,1.3558690547943115,-0.1087536662817001,-0.2755127251148224,0.0073330570012331,0.0093211997300386,0.0,0.0,0.9612954214269068,0.6771098392287149
-0.0112313274294137,1.3508607149124146,-0.1024285331368446,-0.222585916519165,0.0063816956244409,-0.0190288331359624,0.0,0.0,-0.9123982052654728,-0.9030969674720302
-0.0123192789033055,1.3455498218536377,-0.1096047759056091,-0.2360398322343826,0.0071839950978755,0.0160474479198455,0.0,0.0,0.8129118029205551,0.8266363145162605
-0.0132267950102686,1.3409128189086914,-0.0900839120149612,-0.2060872465372085,0.0065204096026718,-0.0132730780169367,0.0,0.0,0.4347787135708447,-0.8216609235574787
-0.0141182895749807,1.3366549015045166,-0.0901767313480377,-0.1892473250627517,0.0075422758236527,0.0204391069710254,0.0,0.0,0.4996687604288479,-0.6280454021056179
-0.0149214742705225,1.3330461978912354,-0.082866333425045,-0.1604009568691253,0.0100514255464077,0.0501879453659057,0.0,0.0,0.7720535857728321,-0.8164047261267988
-0.0156994815915823,1.3296942710876465,-0.0820816904306411,-0.1490054726600647,0.014294221997261,0.0848635360598564,0.0,0.0,-0.1676546224488584,0.5017049918627516
-0.0164179801940917,1.3260416984558103,-0.0748433768749237,-0.1623728722333908,0.0172565411776304,0.0592515841126441,0.0,0.0,-0.0256947343688556,0.9391411108538252
-0.0170394890010356,1.322072982788086,-0.0628673881292343,-0.1763893216848373,0.0179647840559482,0.0141661241650581,0.0,0.0,-0.7849257186799641,-0.5374507877012136
-0.0176859851926565,1.317802667617798,-0.0661453455686569,-0.1898146122694015,0.0194410104304552,0.0295271910727024,0.0,0.0,0.577463106767862,-0.9490809095022
-0.0182544700801372,1.3137558698654177,-0.0603762194514274,-0.1799073070287704,0.0229365900158882,0.0699178427457809,0.0,0.0,-0.9923463139354288,0.6147770233958654
-0.0187619216740131,1.309409499168396,-0.0527994632720947,-0.1932010054588318,0.0249546281993389,0.0403644666075706,0.0,0.0,0.4183802953127851,-0.7262998739205047
-0.0194129943847656,1.3054792881011963,-0.0684076994657516,-0.1747314631938934,0.0282262451946735,0.0654381737112999,0.0,0.0,0.554182318530819,-0.9259046391338536
-0.0200204849243164,1.3023120164871216,-0.0660267025232315,-0.1408778876066208,0.0334455072879791,0.1043948754668235,0.0,0.0,-0.8335382287393998,-0.8900586103676011
-0.0206972118467092,1.2988293170928955,-0.0746477469801902,-0.1549570858478546,0.0403368845582008,0.137840136885643,0.0,0.0,0.9002699166756669,-0.5452706543303907
-0.0212861057370901,1.295984983444214,-0.067345030605793,-0.1266606003046035,0.0487098209559917,0.1674737185239792,0.0,0.0,0.599452713986057,0.7619489217840328
-0.0217584613710641,1.293288230895996,-0.0542441196739673,-0.1200980171561241,0.0556422993540763,0.1386621743440628,0.0,0.0,0.8792753299496292,0.886031302360403
-0.022385025396943,1.291374683380127,-0.0674709975719451,-0.0852401554584503,0.0604146681725978,0.095455914735794,0.0,0.0,0.1014461196316205,0.8316393404290152
-0.0230934135615825,1.2898352146148682,-0.0738724917173385,-0.0685401260852813,0.0634185075759887,0.0600766837596893,0.0,0.0,0.7062417863342982,0.6891168827553291
-0.0237993244081735,1.2891218662261963,-0.0721841976046562,-0.0317795388400554,0.0649952217936515,0.0315342582762241,0.0,0.0,-0.4376981153502477,-0.5721500832468602
-0.0245704650878906,1.2881017923355105,-0.0800552666187286,-0.0454677306115627,0.0678926929831504,0.0579495653510093,0.0,0.0,0.1262092142717572,0.9726066258793076
-0.0254181865602731,1.287569880485535,-0.0856821462512016,-0.0236853845417499,0.0687957629561424,0.0180612653493881,0.0,0.0,0.251845669900655,-0.9004594516395121
-0.0263936035335063,1.2872710227966309,-0.1001967936754226,-0.0134100448340177,0.0714172348380088,0.0524297766387462,0.0,0.0,0.3274299987767632,0.986447456757636
-0.0273373611271381,1.2877039909362793,-0.0949874445796012,0.0192130282521247,0.0720160081982612,0.0119753498584032,0.0,0.0,0.0353665351867675,0.2585046291351318
-0.0283655170351266,1.2882351875305176,-0.1031241044402122,0.023599648848176,0.0723253488540649,0.0061865923926234,0.0,0.0,-0.0120184421539306,-0.033095896244049
-0.0294108390808105,1.2884594202041626,-0.1047810539603233,0.0099476044997572,0.0725709646940231,0.0049125128425657,0.0,0.0,-0.2196555137634277,0.5667524337768555
-0.0304343216121196,1.2883756160736084,-0.1015182882547378,-0.0036894229706376,0.0717453509569168,-0.0165120996534824,0.0,0.0,-0.3115087151527405,0.4854271411895752
-0.0314774513244628,1.2879843711853027,-0.1034163683652877,-0.0173415224999189,0.0708566159009933,-0.0177750457078218,0.0,0.0,-0.5167973041534424,0.8629739284515381
-0.0324714668095111,1.2872999906539917,-0.0966491848230362,-0.0302901752293109,0.0681331381201744,-0.0544693991541862,0.0,0.0,-0.3500691056251526,-0.2634972333908081
-0.0334872230887413,1.2863082885742188,-0.098761573433876,-0.0439428649842739,0.0653473138809204,-0.0557166710495948,0.0,0.0,-0.7448389530181885,0.2543467283248901
-0.0345257744193077,1.285009741783142,-0.1009711772203445,-0.0575955957174301,0.0624995976686477,-0.056954525411129,0.0,0.0,-0.9174771308898926,0.7996528148651123
-0.03552932664752,0.0,-0.0959009006619453,-0.0705452337861061,0.0581006631255149,-0.0879787653684616,0.0,0.0,-0.8617146611213684,0.2666089534759521
-0.0365572944283485,1.281520128250122,-0.0982856452465057,-0.0841989815235138,0.0536409318447113,-0.0891946032643318,0.0,0.0,-0.948026478290558,0.2564649581909179
-0.0376104339957237,1.2793149948120115,-0.1007488220930099,-0.0978527963161468,0.0491210334002971,-0.0903979241847992,0.0,0.0,-0.8605351448059082,0.2880088090896606
-0.0386896133422851,1.276802897453308,-0.1032846793532371,-0.1115066930651664,0.0445416457951068,-0.0915877074003219,0.0,0.0,-0.906571090221405,0.3285566568374634
-0.0397953987121582,1.2739837169647217,-0.1058877259492874,-0.1251606494188308,0.0399035029113292,-0.0927628874778747,0.0,0.0,-0.7697901725769043,0.205649733543396
-0.040928553789854,1.270857810974121,-0.1085527688264846,-0.1388146877288818,0.0352073870599269,-0.0939224436879158,0.0,0.0,-0.8435042500495911,-0.0042013525962829
-0.0420893654227256,1.2674248218536377,-0.1112749427556991,-0.1524688154458999,0.030454121530056,-0.0950653478503227,0.0,0.0,-0.9576044678688048,0.2173163890838623
-0.0432785972952842,1.26368510723114,-0.1140496879816055,-0.1661229580640792,0.025644589215517,-0.0961905047297477,0.0,0.0,-0.9490403532981871,-0.0995755195617675
-0.0444966331124305,1.2596383094787598,-0.1168727278709411,-0.1797771900892257,0.0207797475159168,-0.0972968339920044,0.0,0.0,-0.9409294724464417,0.2256715297698974
-0.0457438454031944,1.2552846670150757,-0.1197401136159896,-0.193431481719017,0.0158605985343456,-0.0983832105994224,0.0,0.0,-0.9090332388877868,0.2584201097488403
-0.0470207221806049,0.0,-0.1226481646299362,-0.2070858478546142,0.0108881890773773,-0.0994485467672348,0.0,0.0,-0.8231856226921082,0.1888587474822998
-0.0483275428414344,1.2456570863723757,-0.1255934834480285,-0.2207402884960174,0.0058635985478758,-0.1004917025566101,0.0,0.0,-0.9928626418113708,0.6640214920043945
-0.0495996475219726,1.240383505821228,-0.1204088553786277,-0.2343707978725433,-0.0008469874155707,-0.1342116594314575,0.0,0.0,-0.98069566488266,0.2950422763824463
-0.0509022697806358,1.234803318977356,-0.1234195232391357,-0.2480269968509674,-0.0076073384843766,-0.1352069079875946,0.0,0.0,-0.9822556972503662,0.1943892240524292
-0.0522357933223247,1.2289166450500488,-0.1264587938785553,-0.2616832852363586,-0.0144161721691489,-0.1361766755580902,0.0,0.0,-0.9074514508247375,-0.0275097489356994
-0.0536005981266498,1.222723364830017,-0.1295242458581924,-0.2753396332263946,-0.0212721563875675,-0.1371198147535324,0.0,0.0,-0.956455945968628,0.691547155380249
-0.0549283996224403,1.2162189483642578,-0.1240532621741294,-0.2892332673072815,-0.0298897754400968,-0.1723524928092956,0.0,0.0,-0.9732909202575684,0.0855771303176879
-0.0562877655029296,1.2094085216522217,-0.1271646171808242,-0.3028919994831085,-0.0385517105460166,-0.1732386648654937,0.0,0.0,-0.8837636709213257,0.8231569528579712
-0.0576033592224121,1.2022953033447266,-0.1208336576819419,-0.3164573311805725,-0.0491486266255378,-0.2119386941194534,0.0,0.0,-0.987342119216919,0.8228373527526855
-0.058870792388916,1.1948740482330322,-0.1139416247606277,-0.3302998542785644,-0.0617987550795078,-0.2530026733875274,0.0,0.0,-0.9660916328430176,0.4534120559692383
-0.0601700767874717,1.1871477365493774,-0.1171087399125099,-0.3439658880233764,-0.0744884759187698,-0.2537943720817566,0.0,0.0,-0.953611433506012,0.0658444166183471
-0.0615015029907226,1.1791163682937622,-0.1202913671731948,-0.3576320111751556,-0.0872161388397216,-0.254553347826004,0.0,0.0,-0.9063509106636048,-0.0600055456161499
-0.0628651604056358,1.1707801818847656,-0.1234881728887558,-0.3712981939315796,-0.0999800786375999,-0.2552786469459533,0.0,0.0,-0.9255276918411256,0.5721360445022583
-0.0642232894897461,1.1621365547180176,-0.1219663843512535,-0.385148137807846,-0.1137282848358154,-0.2749641835689544,0.0,0.0,-0.8673014044761658,-0.5062625408172607
-0.0656455010175705,1.1531920433044434,-0.1291683316230774,-0.3985708355903625,-0.1267068237066269,-0.2595705091953277,0.0,0.0,-0.5682672262191772,0.0227917432785034
-0.0671001449227333,1.143942952156067,-0.1324009597301483,-0.4122375845909118,-0.1397163122892379,-0.2601896524429321,0.0,0.0,-0.9207004904747008,-0.0454957485198974
-0.0685872063040733,1.1343889236450195,-0.1356435567140579,-0.4259043931961059,-0.1527549177408218,-0.2607718706130981,0.0,0.0,-0.9000980854034424,-0.3655039072036743
-0.0701067894697189,1.1245298385620115,-0.1388952434062957,-0.4395712316036224,-0.1658207476139068,-0.261316567659378,0.0,0.0,-0.7014878392219543,0.0294210910797119
-0.0716589912772178,1.114365816116333,-0.1421552300453186,-0.4532380998134613,-0.1789119094610214,-0.2618230879306793,0.0,0.0,-0.7162307500839233,-0.3423475623130798
-0.0732439011335372,1.1038970947265625,-0.1454228162765503,-0.4669050276279449,-0.1920264363288879,-0.2622909247875213,0.0,0.0,-0.7219263315200806,-0.2597910761833191
-0.0748612433671951,1.0931236743927002,-0.1486973166465759,-0.4805719256401062,-0.2051624059677124,-0.2627195119857788,0.0,0.0,-0.7731011509895325,-0.230021059513092
-0.0765113830566406,1.082045078277588,-0.1519781053066253,-0.4942388236522674,-0.218317836523056,-0.2631085216999054,0.0,0.0,-0.9546603560447692,-0.7531004548072815
-0.0782605186104774,1.0706868171691897,-0.1636355221271515,-0.5065246224403381,-0.229741021990776,-0.2284636199474334,0.0,0.0,0.0693112611770629,-0.6473499536514282
-0.0799783691763877,1.0596221685409546,-0.1618266552686691,-0.4933492839336395,-0.2398484051227569,-0.2021477222442627,0.0,0.0,-0.9772967100143432,-0.7684288620948792
-0.0817992240190506,1.048285961151123,-0.1739858090877533,-0.5051715970039368,-0.2480795383453369,-0.1646227538585662,0.0,0.0,0.7047038078308105,-0.3265275955200195
-0.0834330543875694,1.0374820232391355,-0.155645340681076,-0.4815059304237366,-0.2559714913368225,-0.1578394472599029,0.0,0.0,-0.1564223170280456,-0.7740101218223572
-0.0851633995771408,1.0263900756835938,-0.1669019162654876,-0.494053304195404,-0.2622253894805908,-0.1250780671834945,0.0,0.0,0.7075662612915039,-0.1381226778030395
-0.086771585047245,1.015450954437256,-0.1550242751836776,-0.487234503030777,-0.2681615650653839,-0.1187237873673439,0.0,0.0,0.4599332809448242,-0.763205349445343
-0.0884228721261024,1.0046679973602295,-0.1607758849859237,-0.4800555109977722,-0.2726123631000519,-0.0890159830451011,0.0,0.0,0.7670931816101074,-0.7321240305900574
-0.0899423584342002,0.9948367476463318,-0.1490428447723388,-0.4374796748161316,-0.2755973637104034,-0.0596998408436775,0.0,0.0,0.1337250471115112,0.0342987775802612
-0.0912897139787674,0.9854843616485596,-0.1320787966251373,-0.4161714315414428,-0.2783295214176178,-0.0546434335410594,0.0,0.0,-0.8761758804321289,-0.476639986038208
-0.0926702469587326,0.9758247137069702,-0.1353889405727386,-0.4298244416713714,-0.2810608744621277,-0.0546271093189716,0.0,0.0,-0.5877234935760498,-0.5860818028450012
-0.0941389054059982,0.965875506401062,-0.1456072181463241,-0.4424278438091278,-0.2823505997657776,-0.0257942974567413,0.0,0.0,0.7227509021759033,-0.3049249649047851
-0.0953704863786697,0.9567890167236328,-0.1221000701189041,-0.4040492177009582,-0.2834410071372986,-0.0218073651194572,0.0,0.0,-0.4399858713150024,-0.3840969800949096
-0.0966350585222244,0.9473954439163208,-0.1254124045372009,-0.4177016019821167,-0.2845245897769928,-0.0216715615242719,0.0,0.0,-0.024942934513092,-0.3374735116958618
-0.0979328155517578,0.9376945495605468,-0.1287248879671096,-0.4313539266586303,-0.2855994403362274,-0.0214972086250782,0.0,0.0,0.1301311254501342,-0.7769700288772583
-999.0,0.92840838432312,-0.1267869770526886,-0.4126153290271759,-0.2850889265537262,0.0102103929966688,0.0,0.0,-0.5771089196205139,-0.6983591318130493
-0.100536823272705,0.9188352823257446,-0.1357900202274322,-0.4251497089862823,-0.2833533585071563,0.0347108393907547,0.0,0.0,0.593915581703186,-0.7694109082221985
-0.1018538475036621,0.9094380736351012,-0.1349649131298065,-0.4170255064964294,-0.2800050377845764,0.0669671148061752,0.0,0.0,-0.3905949592590332,-0.5958871841430664
-0.1032428741455078,0.8997461199760437,-0.1431675255298614,-0.4299424290657043,-0.27562215924263,0.0876567736268043,0.0,0.0,-0.6216118335723877,-0.4449527263641357
-0.104664608836174,0.8897470831871033,-0.1464760303497314,-0.4435959756374359,-0.2712215781211853,0.0880119949579238,0.0,0.0,0.4327985048294067,-0.287738561630249
-0.1059112548828125,0.8798868656158447,-0.1295162290334701,-0.4373392164707184,-0.2662423551082611,0.0995842665433883,0.0,0.0,-0.6515668630599976,-0.1957037448883056
-0.1071905121207237,0.8697196841239929,-0.1328204423189163,-0.450993150472641,-0.261242151260376,0.1000045537948608,0.0,0.0,-0.5845858454704285,0.7621209621429443
-0.1084404960274696,0.8592265844345093,-0.1283327639102935,-0.4657693803310394,-0.25783571600914,0.0681286603212356,0.0,0.0,-0.8560861945152283,-0.73089998960495
-0.1097668632864952,0.8484466671943665,-0.1371525079011917,-0.4783253371715545,-0.2532302141189575,0.0921101197600364,0.0,0.0,-0.9355507493019104,0.1207503080368042
-0.1111258491873741,0.8373594880104065,-0.140446662902832,-0.4919789433479309,-0.2485993504524231,0.0926176682114601,0.0,0.0,-0.8422006964683533,-0.6568194031715393
-0.1125723868608474,0.8259846568107605,-0.1506427675485611,-0.5045499205589294,-0.2425006181001663,0.1219744905829429,0.0,0.0,-0.92643940448761,-0.2368789911270141
-0.114051342010498,0.814302921295166,-0.1539283245801925,-0.5182048082351685,-0.2363739907741546,0.1225324496626854,0.0,0.0,-0.8703917860984802,-0.4473865032196045
-0.1155628189444542,0.8023144006729126,-0.1572084873914718,-0.5318596959114075,-0.2302183210849762,0.1231132894754409,0.0,0.0,-0.8155946135520935,-0.3143700361251831
-0.1171066313982009,0.790019154548645,-0.1604826599359512,-0.545514702796936,-0.2240326106548309,0.123714230954647,0.0,0.0,-0.8617827892303467,-0.7963343858718872
-0.1187344565987587,0.7774390578269958,-0.1702882349491119,-0.557993471622467,-0.216440349817276,0.151845097541809,0.0,0.0,-0.510907769203186,0.190035343170166
-0.1203944236040115,0.7645524740219116,-0.1735488623380661,-0.5716500878334045,-0.2088161408901214,0.1524837911128997,0.0,0.0,-0.6529167890548706,0.4082098007202148
-0.1220865249633789,0.7513594031333923,-0.1768013089895248,-0.585306704044342,-0.2011592388153076,0.153138130903244,0.0,0.0,-0.5713585019111633,0.6702361106872559
-0.1237611770629882,0.7378422617912292,-0.1738208085298538,-0.5999107360839844,-0.1947617977857589,0.1279489547014236,0.0,0.0,0.0278264284133911,-0.0475466251373291
-0.1254665404558181,0.7245901226997375,-0.1765986979007721,-0.5882022380828857,-0.1886661052703857,0.1219140067696571,0.0,0.0,-0.400478184223175,0.0023043155670166
-0.1272037476301193,0.7110311388969421,-0.1798207014799118,-0.6018571257591248,-0.1825359314680099,0.1226034983992576,0.0,0.0,-0.5128694176673889,-0.2714824676513672
-0.1289726197719574,0.6971653699874878,-0.1830306947231292,-0.6155120730400085,-0.1763709038496017,0.1233004331588745,0.0,0.0,0.0791175365447998,0.3584766387939453
-0.1306912451982498,0.6833381652832031,-0.1782381534576416,-0.6137962937355042,-0.1699854284524917,0.1277093589305877,0.0,0.0,0.3202252388000488,0.5247611999511719
-0.1321727782487869,0.6700670123100281,-0.1537966579198837,-0.5891907811164856,-0.1643308103084564,0.1130924969911575,0.0,0.0,-0.1267771124839782,0.3282465934753418
-0.1336855888366699,0.6564891934394836,-0.1569630056619644,-0.6028454303741455,-0.1586408615112304,0.1137988567352294,0.0,0.0,-0.0626696348190307,0.2432179450988769
-0.1352293938398361,0.6426043510437012,-0.1601119339466095,-0.6165000796318054,-0.1529156565666198,0.1145038604736328,0.0,0.0,0.3677810430526733,0.6726133823394775
-0.1366093605756759,0.6290960311889648,-0.1425420343875885,-0.5999110341072083,-0.1483794897794723,0.0907230377197265,0.0,0.0,-0.1375799775123596,0.7510992288589478
-0.1379613876342773,0.6152750253677368,-0.1382879018783569,-0.6139604449272156,-0.14528888463974,0.0618118532001972,0.0,0.0,-0.0030683279037475,0.2846144437789917
-0.1393437385559082,0.601146936416626,-0.1413735449314117,-0.6276132464408875,-0.142163947224617,0.0624988079071044,0.0,0.0,0.4748245477676391,0.4867022037506103
-0.1406271904706955,0.5873041749000549,-0.1318474113941192,-0.6149038672447205,-0.1386725157499313,0.0698286741971969,0.0,0.0,0.5549564361572266,0.5954412221908569
-0.1419369727373123,0.5740358829498291,-0.1330255270004272,-0.5895117521286011,-0.1366283297538757,0.0408832877874374,0.0,0.0,-0.3501909971237182,0.2674033641815185
-0.1432764083147049,0.5604604482650757,-0.1360286176204681,-0.6031640768051147,-0.1345518231391906,0.0415300354361534,0.0,0.0,-0.1085061430931091,0.8185243606567383
-0.1445834189653396,0.5465647578239441,-0.1312358379364013,-0.617538332939148,-0.1340211033821106,0.0106140300631523,0.0,0.0,0.3234677314758301,0.4794685840606689
-0.1458417922258377,0.5329928398132324,-0.1264940351247787,-0.6031342148780823,-0.1333638578653335,0.0131450574845075,0.0,0.0,0.2253861427307129,-0.008758544921875
-0.1469973623752594,0.5194909572601318,-0.1166915521025657,-0.5999820232391357,-0.1322293877601623,0.0226895622909069,0.0,0.0,-0.1637331247329712,0.1263625621795654
-0.1481810510158538,0.5056818723678589,-0.1195441856980323,-0.6136342287063599,-0.1310670375823974,0.0232469365000724,0.0,0.0,0.6644537448883057,0.2661941051483154
-0.1492613852024078,0.4927691519260406,-0.1093411445617675,-0.5737842917442322,-0.1297615319490432,0.0261104293167591,0.0,0.0,0.2365272045135498,0.6574769020080566
