x_pos,y_pos,x_vel,y_vel,angle,ang_vel,leg_1,leg_2,main_booster,lat_booster
-0.0014763831859454,1.403488278388977,-0.1490362882614135,-0.330301284790039,0.0012476866832002,0.0245735272765159,0.0,0.0,-0.1563297510147094,0.8085424900054932
-0.0028367042541503,1.3959397077560425,-0.1350141763687133,-0.3354921042919159,0.0002427380823064,-0.0201001800596714,0.0,0.0,0.3394404649734497,0.6131230592727661
-0.0039829253219068,1.388741374015808,-0.1121486648917198,-0.3199258148670196,-0.0021974530536681,-0.0488084703683853,0.0,0.0,-0.2518680095672607,0.3432751893997192
-0.0050822258926928,1.3814069032669067,-0.1069921106100082,-0.3259844779968261,-0.0051036858931183,-0.0581300556659698,0.0,0.0,-0.0880722403526306,-0.0727376937866211
-0.0061348914168775,1.373936414718628,-0.1018741950392723,-0.3320345282554626,-0.0084665035828948,-0.0672625973820686,0.0,0.0,-0.5489423871040344,0.013892650604248
-0.0071413991972804,1.3663301467895508,-0.096798688173294,-0.3380855619907379,-0.0122755886986851,-0.0761882960796356,0.0,0.0,-0.6797517538070679,-0.7787718772888184
-0.0081656454131007,1.3585890531539917,-0.0997456461191177,-0.3440724611282348,-0.0149206547066569,-0.0529060289263725,0.0,0.0,-0.7181719541549683,0.0598804950714111
-0.0091444011777639,1.3507119417190552,-0.0947730094194412,-0.3501242995262146,-0.0179902799427509,-0.061398196965456,0.0,0.0,-0.9175695180892944,0.0148098468780517
-0.0100781442597508,1.3426989316940308,-0.0898559913039207,-0.3561762869358063,-0.02147095836699,-0.0696199387311935,0.0,0.0,-0.4336403608322143,-0.3139986991882324
-0.0109673496335744,1.334550142288208,-0.0850006639957428,-0.3622286915779114,-0.0253497250378131,-0.0775823220610618,0.0,0.0,-0.7445670366287231,-0.6060134172439575
-0.011853408999741,1.3262674808502195,-0.0853449925780296,-0.3681755661964416,-0.0285829622298479,-0.0646705776453018,0.0,0.0,-0.8287155032157898,-0.557855486869812
-0.0127350809052586,1.3178495168685913,-0.0855037569999694,-0.374186635017395,-0.0312095414847135,-0.0525362491607666,0.0,0.0,-0.7367358803749084,0.2451605796813964
-0.0135738374665379,1.3092957735061646,-0.0808759480714798,-0.3802390694618225,-0.0341895148158073,-0.0596050210297107,0.0,0.0,-0.9760782718658448,-0.5869066119194031
-0.0144119262695312,1.3006025552749634,-0.0814868807792663,-0.3864175081253052,-0.0364754013717174,-0.0457220152020454,0.0,0.0,-0.7720725536346436,-0.3354685306549072
-0.0152087211608886,1.291773557662964,-0.0770451202988624,-0.3924699127674103,-0.0390803478658199,-0.0521038547158241,0.0,0.0,-0.8090865612030029,-0.800366222858429
-0.0160171501338481,1.2828023433685305,-0.0792090445756912,-0.3987711071968078,-0.0406865291297435,-0.0321267805993557,0.0,0.0,-0.781466007232666,-0.4219679236412048
-0.0167860984802246,1.2736949920654297,-0.0749870985746383,-0.4048233330249786,-0.0425735227763652,-0.0377431213855743,0.0,0.0,-0.7895801663398743,-0.6536164283752441
-0.0175562854856252,1.2644485235214231,-0.0758421495556831,-0.4109822511672973,-0.0437293276190757,-0.0231185611337423,0.0,0.0,-0.8027376532554626,0.0766451358795166
-0.0182891841977834,1.2550662755966189,-0.0718759149312973,-0.4170345664024353,-0.0451235212385654,-0.0278865732252597,0.0,0.0,-0.7176881432533264,-0.7113907337188721
-0.0190495494753122,1.2455519437789917,-0.0760384052991867,-0.422861635684967,-0.0451302863657474,-0.0001351690734736,0.0,0.0,-0.7686002850532532,-0.1743711233139038
-0.019775390625,1.2359015941619873,-0.0723701491951942,-0.4289136528968811,-0.045329749584198,-0.0039897374808788,0.0,0.0,-0.8232241272926331,-0.3761855363845825
-0.0204677581787109,1.226115107536316,-0.0688639283180236,-0.434965580701828,-0.0456965379416942,-0.0073366262950003,0.0,0.0,-0.9806677103042604,-0.3717771172523498
-0.0211281776428222,1.2161924839019775,-0.0655315592885017,-0.4410175085067749,-0.0462058000266552,-0.0101858843117952,0.0,0.0,-0.8841910362243652,-0.2442480325698852
-0.0217582695186138,1.2061338424682615,-0.0623839721083641,-0.4470693171024322,-0.0468315444886684,-0.0125158596783876,0.0,0.0,-0.870945930480957,0.0736606121063232
-0.0223598480224609,1.1959391832351685,-0.059432316571474,-0.4531211256980896,-0.0475471056997776,-0.0143129155039787,0.0,0.0,-0.9451304078102112,-0.376440167427063
-0.0229352954775095,1.1855870485305786,-0.0567554011940956,-0.4601254463195801,-0.0483253449201583,-0.015564864501357,0.0,0.0,-0.953973114490509,0.0137770175933837
-0.0234857555478811,1.1750986576080322,-0.0542305707931518,-0.4661747813224792,-0.0491383709013462,-0.0162604041397571,0.0,0.0,-0.9191187024116516,-0.6891231536865234
-0.024079417809844,1.164486289024353,-0.0602277629077434,-0.4716337025165558,-0.048287883400917,0.0170097984373569,0.0,0.0,-0.8525573015213013,-0.381691038608551
-0.0246521942317485,1.1537376642227173,-0.0581685118377208,-0.4776827692985534,-0.0474152825772762,0.0174520704895257,0.0,0.0,-0.913821280002594,-0.4487037658691406
-0.0252063758671283,1.1428532600402832,-0.0563556179404258,-0.483731746673584,-0.0464918427169323,0.0184689238667488,0.0,0.0,-0.955902636051178,0.5148671865463257
-0.0257020946592092,1.1318352222442627,-0.0495132692158222,-0.4896861612796783,-0.0465440973639488,-0.0010449914261698,0.0,0.0,-0.948612630367279,0.4865493774414062
-0.0261837001889944,1.1206811666488647,-0.0482156313955783,-0.4957348704338074,-0.0464880391955375,0.0011209395015612,0.0,0.0,-0.9810920357704164,-0.1406618356704712
-0.0266535766422748,1.1093909740447998,-0.0471846386790275,-0.5017834901809692,-0.0462952069938182,0.0038563616108149,0.0,0.0,-0.7914695143699646,-0.8842095136642456
-0.0271918289363384,1.0979617834091189,-0.0561478957533836,-0.5078890919685364,-0.0439933389425277,0.0460371933877468,0.0,0.0,-0.9798144698143004,-0.0193732976913452
-0.027723217383027,1.0863966941833496,-0.0556617900729179,-0.5139379501342773,-0.0414988510310649,0.0498898513615131,0.0,0.0,-0.9303157329559326,0.6038327217102051
-0.0282009132206439,1.0746967792510986,-0.0492668189108371,-0.5199567079544067,-0.0400214940309524,0.0295472238212823,0.0,0.0,-0.9171060919761658,0.3027145862579345
-0.0286767967045307,1.0628607273101809,-0.0493313744664192,-0.526005208492279,-0.0382977910339832,0.0344736315310001,0.0,0.0,-0.9400901794433594,-0.0865953564643859
-0.0291532520204782,1.0508882999420166,-0.0496697910130023,-0.5320537090301514,-0.0363020002841949,0.039915807545185,0.0,0.0,-0.6892384886741638,0.9696106910705566
-0.0295608527958393,1.0387866497039795,-0.0412600710988044,-0.5378416180610657,-0.0358105413615703,0.0098293628543615,0.0,0.0,-0.9183189272880554,0.8245608806610107
-0.0299057010561227,1.0265460014343262,-0.0335670746862888,-0.5440477728843689,-0.0367150083184242,-0.0180891621857881,0.0,0.0,-0.899495542049408,-0.1833387017250061
-0.0302584655582904,1.014169216156006,-0.0347042195498943,-0.5500959753990173,-0.0372751094400882,-0.0112023269757628,0.0,0.0,-0.6794281601905823,0.3242251873016357
-0.030621338635683,1.0016560554504397,-0.0360958240926265,-0.5561439990997314,-0.0374687016010284,-0.0038717724382877,0.0,0.0,-0.9023104310035706,-0.0177581906318664
-0.0309967994689941,0.9890065789222716,-0.0377342067658901,-0.562191903591156,-0.037274595350027,0.0038822691421955,0.0,0.0,-0.946669101715088,0.2903896570205688
-0.0313867554068565,0.976220965385437,-0.0396108329296112,-0.5682397484779358,-0.0366726443171501,0.0120392506942152,0.0,0.0,-0.910531520843506,0.404720664024353
-0.0317934975028038,0.9632988572120668,-0.0417164675891399,-0.5742875933647156,-0.0356437265872955,0.0205784682184457,0.0,0.0,-0.9583041071891784,0.2071772813796997
-0.0322189331054687,0.9502405524253844,-0.0440413281321525,-0.5803355574607849,-0.0341697745025157,0.029479106888175,0.0,0.0,-0.972583830356598,0.6486155986785889
-0.0326086059212684,0.93703955411911,-0.0394943691790103,-0.5867028832435608,-0.0336551070213317,0.0102935554459691,0.0,0.0,-0.7574170231819153,0.0246332883834838
-0.0330208763480186,0.9237020015716552,-0.0422268956899642,-0.5927507281303406,-0.032662309706211,0.0198558252304792,0.0,0.0,-0.9335762858390808,-0.5201495289802551
-0.0335074439644813,0.9102354645729064,-0.0514366999268531,-0.5984574556350708,-0.0299132950603961,0.0549802184104919,0.0,0.0,-0.9009023308753968,0.6160807609558105
-0.0339728370308876,0.896628737449646,-0.0486384518444538,-0.6047027111053467,-0.0278395749628543,0.0414744056761264,0.0,0.0,-0.8167011737823486,0.493537425994873
-0.0344655029475688,0.8828858137130737,-0.0519037134945392,-0.6107509732246399,-0.0252454318106174,0.0518830195069313,0.0,0.0,-0.9592648148536682,0.7665305137634277
-0.0349322333931922,0.8690095543861389,-0.0484356358647346,-0.6166881918907166,-0.023496925830841,0.0349702015519142,0.0,0.0,-0.8539683222770691,0.944177508354187
-0.0353408828377723,0.8549888134002686,-0.0409385152161121,-0.6231437921524048,-0.0234234239906072,0.0014698717277497,0.0,0.0,-0.6573460102081299,-0.6445897817611694
-0.0358316414058208,0.8408395051956177,-0.050999991595745,-0.6288281679153442,-0.0215195287019014,0.0380778834223747,0.0,0.0,-0.9602063894271852,0.5495200157165527
-0.0363007560372352,0.8265502452850342,-0.0480320677161216,-0.6350662112236023,-0.0204144213348627,0.0221018195152282,0.0,0.0,-0.8573620915412903,-0.6129712462425232
-0.036859892308712,0.812123715877533,-0.0590397492051124,-0.6411399245262146,-0.0173232741653919,0.0618229024112224,0.0,0.0,-0.9537142515182496,0.3983477354049682
-0.0374537482857704,0.7975611090660095,-0.0631038695573806,-0.6471890807151794,-0.0136498212814331,0.0734688490629196,0.0,0.0,-0.9883627891540528,0.5530521869659424
-0.0380294807255268,0.782863438129425,-0.0605191215872764,-0.6532002687454224,-0.0107380133122205,0.0582359619438648,0.0,0.0,-0.926698625087738,0.3478012084960937
-0.0386417396366596,0.7680297493934631,-0.0647811964154243,-0.6592496037483215,-0.0072288350202143,0.0701838582754135,0.0,0.0,-0.9373363852500916,0.5439386367797852
-0.0392537117004394,0.7530645728111267,-0.0644110813736915,-0.6651113033294678,-0.0040603415109217,0.0633701086044311,0.0,0.0,-0.9720278978347778,0.5446958541870117
-0.0398571006953716,0.7379582524299622,-0.0629756897687912,-0.6713870763778687,-0.0014568920014426,0.0520691201090812,0.0,0.0,-0.8260993361473083,0.0967607498168945
-0.0404993072152137,0.7227158546447754,-0.0674827098846435,-0.6774367094039917,0.0017625211039558,0.0643884465098381,0.0,0.0,-0.8870947360992432,0.75478196144104
-0.04110898822546,0.7073357105255127,-0.0630270913243293,-0.6835610270500183,0.0037943837232887,0.0406373627483844,0.0,0.0,-0.736478865146637,0.1424875259399414
-0.0417587272822856,0.6918198466300964,-0.0676677078008651,-0.6896106600761414,0.0064522973261773,0.0531584024429321,0.0,0.0,-0.517376184463501,0.8019149303436279
-0.0423847213387489,0.6761624217033386,-0.0642988383769989,-0.6958898305892944,0.0081254756078124,0.0334634035825729,0.0,0.0,-0.8215630650520325,0.6303105354309082
-0.0430121421813964,0.660369873046875,-0.064080998301506,-0.7018968462944031,0.0094374325126409,0.0262392647564411,0.0,0.0,-0.4927988052368164,0.6927378177642822
-0.0436245910823345,0.644450306892395,-0.061766467988491,-0.7075427770614624,0.0099607529118657,0.0104663679376244,0.0,0.0,0.0863875150680542,0.7687995433807373
-0.0441576950252056,0.6286757588386536,-0.0529830642044544,-0.7010893225669861,0.0096387034282088,-0.0064412401989102,0.0,0.0,-0.1170746088027954,0.7595582008361816
-0.0446703918278217,0.6127747893333435,-0.0500006675720214,-0.7066976428031921,0.0083830188959836,-0.0251136422157287,0.0,0.0,0.1070195436477661,0.5816209316253662
-0.0452527999877929,0.5972108244895935,-0.056332916021347,-0.6917223334312439,0.0065077892504632,-0.0375046767294406,0.0,0.0,-0.557553768157959,0.8379113674163818
-0.0458220466971397,0.5815148949623108,-0.0542499348521232,-0.6975860595703125,0.0038708639331161,-0.0527387484908103,0.0,0.0,-0.5115180015563965,0.8217873573303223
-0.0463662147521972,0.565684974193573,-0.0506730303168296,-0.7035452127456665,0.0001692468649707,-0.0740320831537246,0.0,0.0,0.0981943607330322,0.7871270179748535
-0.0469907745718956,0.5505701303482056,-0.0577277652919292,-0.6717795133590698,-0.0045036412775516,-0.0934577137231826,0.0,0.0,-0.3128079175949096,0.9454801082611084
-0.0475753769278526,0.5353188514709473,-0.0522508099675178,-0.6778618693351746,-0.0106287626549601,-0.1225026026368141,0.0,0.0,-0.6586794853210449,-0.0634814500808715
-0.0482041351497173,0.5199319124221802,-0.0573325753211975,-0.68391352891922,-0.0160946678370237,-0.1093181744217872,0.0,0.0,-0.5461408495903015,0.324249267578125
-0.0488771423697471,0.5044090747833252,-0.0624370202422142,-0.6899643540382385,-0.0208996627479791,-0.0960998088121414,0.0,0.0,0.7704930305480957,0.2317578792572021
-0.049621008336544,0.4892967939376831,-0.0700276717543602,-0.6717249155044556,-0.025198807939887,-0.0859831124544143,0.0,0.0,0.2969363927841186,0.7155029773712158
-0.0503444671630859,0.4749867618083954,-0.0672115087509155,-0.6360963582992554,-0.0302672255784273,-0.1013683080673217,0.0,0.0,-0.7185008525848389,0.5358281135559082
-0.0510645881295204,0.4605438709259033,-0.0663360506296157,-0.6420300006866455,-0.0358773805201053,-0.1122033596038818,0.0,0.0,-0.7057785987854004,0.5866844654083252
-0.0517918579280376,0.445968896150589,-0.0667603760957717,-0.6479312181472778,-0.0417701415717601,-0.1178549975156784,0.0,0.0,-0.2585556507110595,0.2174022197723388
-0.0525641441345214,0.43125781416893,-0.0719493329524993,-0.6539809107780457,-0.046995609998703,-0.1045092716813087,0.0,0.0,0.8510324954986572,0.7058584690093994
-0.0532353408634662,0.4177366197109222,-0.0611931756138801,-0.6011401414871216,-0.0528412871062755,-0.1169135570526123,0.0,0.0,0.886101245880127,0.520153284072876
-0.0539983734488487,0.4050698578357696,-0.069652609527111,-0.5632147192955017,-0.0594140440225601,-0.1314554363489151,0.0,0.0,-0.5399089455604553,-0.8677815794944763
-0.0548814758658409,0.3922772407531738,-0.0842429623007774,-0.5687302350997925,-0.0634319707751274,-0.0803587511181831,0.0,0.0,-0.9100484251976012,0.3113532066345215
-0.0558100715279579,0.3793480396270752,-0.0894709005951881,-0.5747772455215454,-0.0667796432971954,-0.0669537037611007,0.0,0.0,-0.3269585371017456,0.5461537837982178
-0.0567347519099712,0.3662774562835693,-0.0885099917650222,-0.5810953974723816,-0.0707013383507728,-0.0784341245889663,0.0,0.0,0.7163931131362915,0.8078774213790894
-0.0575895309448242,0.3535849750041961,-0.0806151181459426,-0.5643495321273804,-0.0755119547247886,-0.0962119102478027,0.0,0.0,-0.4807366132736206,0.5471463203430176
-0.0584403052926063,0.3407463431358337,-0.0796265080571174,-0.570889413356781,-0.0809096917510032,-0.1079546958208084,0.0,0.0,0.012620210647583,-0.2472562193870544
-0.0592185966670513,0.3282835781574249,-0.0734760612249374,-0.5541423559188843,-0.0852185860276222,-0.0861781165003776,0.0,0.0,0.4935300350189209,-0.674299955368042
-0.0599277503788471,0.3162009119987488,-0.0688765794038772,-0.5371246337890625,-0.0872418880462646,-0.0404660440981388,0.0,0.0,0.4841092824935913,0.416239857673645
-0.0606287941336631,0.3049905598163605,-0.0687262788414955,-0.4983216226100921,-0.0886168107390403,-0.0274983048439025,0.0,0.0,-0.7834044098854065,-0.0972939729690551
-0.0613757148385047,0.2936432361602783,-0.0739742964506149,-0.5043659210205078,-0.0893197879195213,-0.0140598015859723,0.0,0.0,-0.3782051801681518,0.2742325067520141
-0.0621682181954383,0.2821590900421142,-0.0792206972837448,-0.5104100704193115,-0.0893509536981582,-0.0006230853614397,0.0,0.0,-0.5315024256706238,0.6291120052337646
-0.0629488974809646,0.2705236673355102,-0.0772391185164451,-0.5171810388565063,-0.0901762023568153,-0.0165048465132713,0.0,0.0,0.7564263343811035,-0.0815023183822631
-0.0637821182608604,0.2595676779747009,-0.0829047411680221,-0.4869600236415863,-0.0905884280800819,-0.0082445759326219,0.0,0.0,-0.8553258180618286,0.5759927034378052
-0.0646087676286697,0.2484744936227798,-0.0816013664007186,-0.4930927455425262,-0.0916365832090377,-0.0209632981568574,0.0,0.0,-0.3181517124176025,0.5058751106262207
-0.0654425621032714,0.2372389584779739,-0.0820225104689598,-0.4994392395019531,-0.0929833650588989,-0.0269355420023202,0.0,0.0,0.01288902759552,0.8406698703765869
-0.0662994384765625,0.2266059070825576,-0.0833124443888664,-0.47272989153862,-0.0953397080302238,-0.0471270978450775,0.0,0.0,-0.4656364917755127,0.938790798187256
-0.0671168342232704,0.2158286422491073,-0.0778742060065269,-0.4792417883872986,-0.0991668105125427,-0.0765420943498611,0.0,0.0,-0.4186877012252807,-0.0649536848068237
-0.0679794326424598,0.2049145549535751,-0.0830778703093528,-0.4852865934371948,-0.1023251935839653,-0.0631676241755485,0.0,0.0,0.7632961273193359,-0.4706341028213501
-0.0688933357596397,0.1950695663690567,-0.0884765163064003,-0.4377582371234894,-0.1052241250872612,-0.0579784326255321,0.0,0.0,-0.8601681590080261,0.5745489597320557
-0.0698092430830001,0.1850788742303848,-0.0882306471467018,-0.4442698061466217,-0.1085553839802742,-0.0666253641247749,0.0,0.0,-0.6445886492729187,0.2748533487319946
-0.0707699805498123,0.1749512702226638,-0.0933975726366043,-0.4503138363361358,-0.1112208068370819,-0.0533084273338317,0.0,0.0,-0.0562127232551574,-0.2091178297996521
-0.0717757195234298,0.1646866351366043,-0.0985495001077652,-0.4563573896884918,-0.1132215782999992,-0.0400155149400234,0.0,0.0,-0.0919981598854065,0.7460892200469971
-0.0727566704154014,0.1542775928974151,-0.094995304942131,-0.4628619253635406,-0.1163077875971794,-0.0617241039872169,0.0,0.0,0.4918570518493652,0.5868966579437256
-0.0736380591988563,0.1442042887210846,-0.0846618488430976,-0.447975218296051,-0.1197685897350311,-0.0692162364721298,0.0,0.0,0.593726634979248,-0.3243080377578735
-0.0743369087576866,0.1350649744272232,-0.0677228197455406,-0.4063694179058075,-0.121921919286251,-0.0430663973093032,0.0,0.0,-0.2260953783988952,-0.4218888282775879
-0.0750800147652626,0.1257883906364441,-0.0727995112538337,-0.4124122560024261,-0.1234168782830238,-0.0298989564180374,0.0,0.0,0.7514090538024902,0.1980483531951904
-0.0756053924560546,0.1176952719688415,-0.0523910522460937,-0.3597077131271362,-0.1235556751489639,-0.0027761389501392,0.0,0.0,-0.2628779411315918,-0.4219493269920349
-0.0761743560433387,0.1094649657607078,-0.057419829070568,-0.3657501339912414,-0.1230402737855911,0.0103078363463282,0.0,0.0,0.4192107915878296,-0.7532355785369873
-0.0767661109566688,0.1021612733602523,-0.0618482455611228,-0.3243882060050964,-0.1203766167163848,0.0532730892300605,0.0,0.0,-0.2076239585876464,0.1726113557815551
-0.0774009674787521,0.094720609486103,-0.0668215304613113,-0.3304314017295837,-0.117063783109188,0.0662567764520645,0.0,0.0,0.5961422920227051,0.8972388505935669
-0.077870175242424,0.0877705439925193,-0.0492215454578399,-0.3087095916271209,-0.1147766560316085,0.0457426980137825,0.0,0.0,0.4503278732299804,0.5204145908355713
-0.078393742442131,0.0815061181783676,-0.053981490433216,-0.2782994210720062,-0.1131702437996864,0.0321283750236034,0.0,0.0,0.3551559448242187,0.9439942836761476
-0.0789584144949913,0.0757392272353172,-0.0567461848258972,-0.2562834918498993,-0.1128942221403122,0.0055200764909386,0.0,0.0,-0.0033833980560302,0.9971582889556884
-0.0794895142316818,0.0698219165205955,-0.0520979650318622,-0.2630691230297088,-0.1139009892940521,-0.0201353039592504,0.0,0.0,0.3165727853775024,0.8692803382873535
-0.0799222961068153,0.064383752644062,-0.0411654040217399,-0.2418585866689682,-0.1159902513027191,-0.0417851321399211,0.0,0.0,0.014259934425354,0.9534823894500732
-0.0802005752921104,0.0590990148484706,-0.0243920646607875,-0.235146552324295,-0.1194004565477371,-0.068204328417778,0.0,0.0,0.1019253730773925,0.5865147113800049
-0.080346867442131,0.054337989538908,-0.0107703860849142,-0.2119173258543014,-0.123246818780899,-0.0769270956516265,0.0,0.0,0.2194380760192871,0.5774905681610107
-0.0803943648934364,0.0503196083009243,-0.0003803924191743,-0.1789601892232895,-0.1275893300771713,-0.0868503525853157,0.0,0.0,-0.2318018674850464,0.6407499313354492
