x_pos,y_pos,x_vel,y_vel,angle,ang_vel,leg_1,leg_2,main_booster,lat_booster
-0.0016638755332678,1.4032526016235352,-0.1682139188051223,-0.3407794535160064,0.001635065418668,0.0322435721755027,0.0,0.0,0.989008022014958,-0.9753413334289076
-0.0034779547713696,1.3960646390914917,-0.1848662495613098,-0.3194724917411804,0.0050681266002357,0.0686683803796768,0.0,0.0,-0.4041912164231345,-0.8439487884768833
-0.0054854392074048,1.388497829437256,-0.2053191214799881,-0.33632692694664,0.0095818676054477,0.0902834683656692,0.0,0.0,0.5996676305869106,-0.9459286305954594
-0.0078443530946969,1.3812789916992188,-0.2419429719448089,-0.3208861351013183,0.0155710102990269,0.1197937503457069,0.0,0.0,-0.7067399324861758,-0.7988208685796823
-0.0103952409699559,1.3736900091171265,-0.262197881937027,-0.3373765051364898,0.0225974731147289,0.1405425816774368,0.0,0.0,-0.110333513560235,-0.976388557190741
-0.0131483078002929,1.3657264709472656,-0.2837302684783935,-0.354080319404602,0.0309183802455663,0.166433647274971,0.0,0.0,-0.712074863238177,0.9713893960485124
-0.0159711837768554,1.3573951721191406,-0.2886262834072113,-0.3704236149787903,0.0371953770518302,0.1255516111850738,0.0,0.0,0.9598063878772116,0.7783356729865665
-0.01871233060956,1.3498591184616089,-0.2791840434074402,-0.335070252418518,0.0422097705304622,0.1002969592809677,0.0,0.0,-0.3524557581584024,-0.9605216142039176
-0.02167434617877,1.3419569730758667,-0.3030481934547424,-0.3514193296432495,0.0489864535629749,0.1355460733175277,0.0,0.0,0.3405841056682848,-0.9143670002214856
-0.0248818397521972,1.334566950798035,-0.3292425274848938,-0.3287444710731506,0.0574029237031936,0.1683452129364013,0.0,0.0,0.5868973999223528,0.8754592652669098
-0.0281044002622365,1.3276751041412354,-0.3289903700351715,-0.3065744340419769,0.0640644282102584,0.1332422494888305,0.0,0.0,0.1285678026812351,-0.999516533715572
-0.0315151214599609,1.3209478855133057,-0.3496354222297668,-0.2993713319301605,0.0725519582629203,0.1697660386562347,0.0,0.0,0.6465506037422935,0.6348202474964582
-0.0349303260445594,1.3149163722991943,-0.349003255367279,-0.2684440612792969,0.0799714103341102,0.1484023034572601,0.0,0.0,-0.4638659676437697,-0.9958023518132396
-0.038558293133974,1.3084959983825684,-0.3719097971916199,-0.28585946559906,0.089006558060646,0.1807194203138351,0.0,0.0,-0.7122013491644761,-0.6993721923410572
-0.0423731803894043,1.3017065525054932,-0.3915112018585205,-0.3023849725723266,0.0989721417427063,0.1993295550346374,0.0,0.0,-0.9229658483872412,0.8001823045417006
-0.0462572090327739,1.2945475578308103,-0.3964213132858276,-0.3187211751937866,0.1069366857409477,0.1593050956726074,0.0,0.0,0.0307474048168492,-0.7524998886901619
-0.0503029823303222,1.28782856464386,-0.4140418469905853,-0.2993176579475403,0.1163432225584983,0.1881482005119323,0.0,0.0,-0.4924547759247217,-0.8208450801369416
-0.0545415878295898,1.280723214149475,-0.4344567656517029,-0.3166497349739074,0.1268936246633529,0.2110273540019989,0.0,0.0,-0.2662599272586048,-0.9173233976954708
-0.0589855201542377,1.2732445001602173,-0.4564011693000793,-0.3334475755691528,0.1388757973909378,0.2396650612354278,0.0,0.0,0.4320236406985711,0.6211007101418126
-0.0636687278747558,1.266118407249451,-0.4788185656070709,-0.3177353739738464,0.1493669897317886,0.2098429501056671,0.0,0.0,0.8193269873280788,-0.6778626165621693
-0.0685224533081054,1.2598764896392822,-0.4974983632564544,-0.2786767780780792,0.1614981293678283,0.24264457821846,0.0,0.0,-0.1332156198241696,-0.9341845364627024
-0.0735910385847091,1.2532418966293335,-0.5207242965698242,-0.2964332699775696,0.1753900647163391,0.27786386013031,0.0,0.0,0.3670086654738351,-0.6191738103324969
-0.0788144096732139,1.246920824050903,-0.537559449672699,-0.2828109860420227,0.1906896531581878,0.3060197234153747,0.0,0.0,0.515942026836478,0.9344228003279018
-0.0840909928083419,1.2406834363937378,-0.5410109758377075,-0.2789927721023559,0.2041437327861786,0.2691059708595276,0.0,0.0,-0.1020738415427677,-0.941317686704452
-0.089601993560791,1.23405122756958,-0.5666626691818237,-0.2969898879528045,0.2198868244886398,0.3148896098136902,0.0,0.0,-0.1755679874490179,0.8176684448290537
-0.0952064543962478,1.2270492315292358,-0.5747091770172119,-0.313390851020813,0.2343388050794601,0.2890397608280182,0.0,0.0,-0.0860567032173742,0.8040280163120139
-0.1008928269147872,1.2197048664093018,-0.5812205076217651,-0.3284733593463897,0.2471237331628799,0.2556989789009094,0.0,0.0,0.8282933914788051,0.9461222416284372
-0.1070308685302734,1.21329665184021,-0.6241887807846069,-0.2866009771823883,0.2577109634876251,0.2117447853088379,0.0,0.0,-0.636255244050485,0.7131180800886002
-0.1132700890302658,1.2065401077270508,-0.6331526637077332,-0.3019408881664276,0.2671464085578918,0.1887086182832718,0.0,0.0,-0.0137059624048436,-0.7455346275512764
-0.1197099685668945,1.1993861198425293,-0.6547119617462158,-0.3199444711208343,0.2781372964382171,0.2198178023099899,0.0,0.0,-0.3407251299089184,0.92389019029791
-0.1262219399213791,1.191902756690979,-0.6599986553192139,-0.3343035578727722,0.2871832847595215,0.1809199005365371,0.0,0.0,0.9534778366597882,-0.8697027455554168
-0.1331840455532074,1.184717297554016,-0.7065232396125793,-0.3214218914508819,0.2978070080280304,0.212475299835205,0.0,0.0,-0.253742346836483,0.6750225495255304
-0.1402452439069748,1.177187442779541,-0.7152692675590515,-0.3365568816661834,0.3072501718997955,0.1888634413480758,0.0,0.0,0.0987941062768762,-0.9345559800005754
-0.1476368904113769,1.169566035270691,-0.7501229047775269,-0.341093897819519,0.3186279237270355,0.2275558710098266,0.0,0.0,-0.8645940483677279,-0.9508264509806308
-0.1552391946315765,1.1615424156188965,-0.7729945778846741,-0.3594681322574615,0.3319141864776611,0.2657250761985779,0.0,0.0,-0.6881652028504281,-0.9379948707291492
-0.1630517989397049,1.1531211137771606,-0.7957595586776733,-0.3776781857013702,0.3470813632011413,0.3033434748649597,0.0,0.0,0.365647886501365,-0.7298993533154343
-0.1712090522050857,1.144817352294922,-0.831568717956543,-0.3729719817638397,0.3637482225894928,0.3333378434181213,0.0,0.0,-0.5944089755233188,0.7873565889112971
-0.1794467866420745,1.1361854076385498,-0.8379260897636414,-0.3872970044612884,0.378727376461029,0.2995833456516266,0.0,0.0,0.5543569502028087,-0.9398868624818422
-0.1882278472185135,1.1282356977462769,-0.8939639925956726,-0.3576299548149109,0.3956307172775268,0.3380666375160217,0.0,0.0,-0.8831064344581567,-0.7814984929863824
-0.1972027719020843,1.1198852062225342,-0.9147197008132936,-0.3760422468185425,0.4141222238540649,0.3698298335075378,0.0,0.0,0.8292399696663049,0.9223710872254868
-0.2067196816205978,1.1123223304748535,-0.9668680429458618,-0.3406650424003601,0.4305374026298523,0.3283038735389709,0.0,0.0,-0.9965175986289978,0.9990336894989014
-0.216288611292839,1.1044477224349976,-0.9697209596633912,-0.3539766669273376,0.4445106983184814,0.2794659435749054,0.0,0.0,-0.9915404319763184,0.9999948740005492
-0.2259096652269363,1.0962523221969604,-0.972713589668274,-0.367655336856842,0.4561406373977661,0.2325990945100784,0.0,0.0,-0.9633746147155762,0.9999221563339232
-0.2355848252773285,1.0877450704574585,-0.9759230613708496,-0.3808762729167938,0.4654059112071991,0.1853051483631134,0.0,0.0,-0.9849278330802916,0.999980926513672
-0.2453267127275467,1.0789060592651367,-0.9808780550956726,-0.3951102495193481,0.4728066623210907,0.1480153948068618,0.0,0.0,-0.9489864110946656,0.9999997615814208
-0.2551251351833343,1.069744348526001,-0.9845549464225768,-0.4087995290756225,0.4780397415161133,0.1046613603830337,0.0,0.0,-0.9564878940582277,0.9999618530273438
-0.2649789750576019,1.0602660179138184,-0.988088607788086,-0.4221895933151245,0.4810467660427093,0.0601404979825019,0.0,0.0,-0.9902281165122986,0.9998335838317872
-0.2749124467372894,1.050470232963562,-0.9945741891860962,-0.4358024001121521,0.4824105501174927,0.0272759310901165,0.0,0.0,-0.9793829321861268,1.0
-0.2849262356758117,1.0403530597686768,-1.001193881034851,-0.4495870471000671,0.4822068512439728,-0.0040737353265285,0.0,0.0,-0.9852674007415771,0.9999992847442628
-0.2950024604797363,1.0299144983291626,-1.005702018737793,-0.4632652997970581,0.4800666868686676,-0.0428025461733341,0.0,0.0,-0.9918304085731506,0.999974489212036
-0.3051217198371887,1.0191715955734253,-1.0077396631240845,-0.4760161638259887,0.4754153490066528,-0.0930269956588745,0.0,0.0,-0.9662436246871948,0.9999470710754396
-0.3153077065944671,1.0081123113632202,-1.012769103050232,-0.489540547132492,0.4689477980136871,-0.1293515861034393,0.0,0.0,-0.9400526285171508,0.9999942779541016
-0.3255356252193451,0.9967400431632996,-1.0147864818572998,-0.502755880355835,0.4601053595542907,-0.1768487989902496,0.0,0.0,-0.9688382744789124,0.972283124923706
-0.3358222842216491,0.9850565195083618,-1.0188333988189695,-0.5160577297210693,0.4492999613285064,-0.2161081284284591,0.0,0.0,-0.9436976909637452,0.999786615371704
-0.3461425900459289,0.9730636477470398,-1.0198569297790527,-0.5291579365730286,0.4359924495220184,-0.2661501765251159,0.0,0.0,-0.8962634205818176,0.9955406188964844
-0.3565230965614319,0.9607395529747008,-1.024277925491333,-0.5435364246368408,0.4210443496704101,-0.2989620566368103,0.0,0.0,-0.9578803181648254,0.99347722530365
-0.366942822933197,0.9481106996536256,-1.0259721279144287,-0.5566018223762512,0.4037969708442688,-0.3449480831623077,0.0,0.0,-0.978259027004242,0.7666242122650146
-0.3774120807647705,0.935160994529724,-1.029060125350952,-0.5705742239952087,0.3846935331821441,-0.3820694088935852,0.0,0.0,-0.953596830368042,-0.2622885704040527
-0.3879953026771545,0.9218443632125854,-1.0404125452041626,-0.5871328115463257,0.3656884431838989,-0.38010174036026,0.0,0.0,-0.7659493088722229,0.6305043697357178
-0.3986505568027496,0.9081894159317015,-1.0464956760406494,-0.6021576523780823,0.3456421196460724,-0.4009272456169128,0.0,0.0,-0.9424266815185548,-0.1519588828086853
-0.4094137251377105,0.8941680788993835,-1.0572463274002075,-0.618719220161438,0.3256924450397491,-0.39899343252182,0.0,0.0,-0.9648221731185912,-0.5682430863380432
-0.4203314185142517,0.879757821559906,-1.0739611387252808,-0.6365611553192139,0.3071883916854858,-0.3700809478759765,0.0,0.0,-0.6744018197059631,-0.1966556310653686
-0.4313498139381408,0.8649801015853882,-1.0840096473693848,-0.6531180739402771,0.2887771725654602,-0.3682245314121246,0.0,0.0,-0.6887887716293335,0.2370407581329345
-0.4424647688865661,0.8498353958129883,-1.093663454055786,-0.6696747541427612,0.2704561352729797,-0.3664210438728332,0.0,0.0,-0.2401989698410034,-0.7156956195831299
-0.4537247121334076,0.8342957496643066,-1.1095610857009888,-0.6877079606056213,0.2536582350730896,-0.3359575271606445,0.0,0.0,-0.7273485064506531,-0.2002294659614563
-0.4650722444057464,0.8183881640434265,-1.1183357238769531,-0.7042598724365234,0.2369435727596283,-0.3342928290367126,0.0,0.0,0.1754959821701049,-0.5504730939865112
-0.4766724109649658,0.8029968738555908,-1.1447243690490725,-0.6816714406013489,0.2214442640542984,-0.3099861741065979,0.0,0.0,-0.6215314865112305,-0.8855178356170654
-0.4884072244167328,0.7872064709663391,-1.1597506999969482,-0.699790894985199,0.2075676918029785,-0.2775313258171081,0.0,0.0,0.0056127309799194,-0.893869936466217
-0.5003723502159119,0.7718035578727722,-1.1845803260803225,-0.68293696641922,0.1955453157424926,-0.2404470890760421,0.0,0.0,0.1768946647644043,-0.7119568586349487
-0.5125980973243713,0.7564855217933655,-1.212016463279724,-0.679448127746582,0.1849315464496612,-0.2122753411531448,0.0,0.0,0.297237753868103,-0.8376864790916443
-0.5251277089118958,0.7415434122085571,-1.2440377473831177,-0.6630102396011353,0.175975814461708,-0.1791142523288726,0.0,0.0,0.8256807327270508,0.0857150554656982
-0.537797749042511,0.7272551655769348,-1.258267521858215,-0.6340261697769165,0.1672275960445404,-0.1749646514654159,0.0,0.0,0.6784371137619019,-0.949404239654541
-0.5508773922920227,0.7138199210166931,-1.300960659980774,-0.5963480472564697,0.1602194011211395,-0.1401635557413101,0.0,0.0,0.8349645137786865,-0.449315071105957
-0.5640186667442322,0.7009829878807068,-1.3075292110443115,-0.5698415637016296,0.153624340891838,-0.1319015622138977,0.0,0.0,0.8165850639343262,0.6608079671859741
-0.5772458910942078,0.6884099245071411,-1.3147257566452026,-0.5579976439476013,0.1456402391195297,-0.1596820652484893,0.0,0.0,0.9359503984451294,0.4848337173461914
-0.5904751420021057,0.6760485768318176,-1.3153023719787598,-0.5486705303192139,0.1380442529916763,-0.1519200503826141,0.0,0.0,0.8641777038574219,0.8184120655059814
-0.6037489175796509,0.6638826727867126,-1.3180495500564575,-0.5398772358894348,0.1287485808134079,-0.1859133243560791,0.0,0.0,0.897499680519104,-0.9132632613182068
-0.617233157157898,0.6526932120323181,-1.340894103050232,-0.4966828227043152,0.1212561726570129,-0.1498481333255767,0.0,0.0,0.908611297607422,0.9893760681152344
-0.6306554675102234,0.6425786018371582,-1.3328588008880615,-0.4488040506839752,0.1119426637887954,-0.1862700283527374,0.0,0.0,0.8166109323501587,0.8171286582946777
-0.6442446112632751,0.6334294676780701,-1.3476009368896484,-0.4058211147785187,0.1007125899195671,-0.2246014773845672,0.0,0.0,0.8474923372268677,0.9984855651855468
-0.6579404473304749,0.624440610408783,-1.3559843301773071,-0.3986491560935974,0.0872285440564155,-0.269680917263031,0.0,0.0,0.4893101453781128,-0.7601678371429443
-0.6716988682746887,0.6161509156227112,-1.3637887239456177,-0.3677731454372406,0.0752889066934585,-0.2387927770614624,0.0,0.0,0.2282602787017822,0.9999732971191406
-0.6854720711708069,0.6081303358078003,-1.363181471824646,-0.3558186590671539,0.061299979686737,-0.2797786295413971,0.0,0.0,-0.1622195839881897,-0.120257019996643
-0.6992111802101135,0.5997405648231506,-1.3597052097320557,-0.3723620474338531,0.0472570806741714,-0.2808581292629242,0.0,0.0,0.0793688297271728,0.9788646697998048
-0.7128629088401794,0.5916761755943298,-1.3489198684692385,-0.3579848706722259,0.0312044844031333,-0.3210520148277282,0.0,0.0,-0.1536719799041748,0.9851257801055908
-0.7263774871826172,0.5832481384277344,-1.3328561782836914,-0.3742927014827728,0.012835482135415,-0.367380142211914,0.0,0.0,-0.0630936622619628,-0.1665968894958496
-0.739837646484375,0.574452817440033,-1.327325701713562,-0.390848159790039,-0.0056159938685595,-0.3690296113491058,0.0,0.0,0.173099398612976,0.9926234483718872
-0.7530790567398071,0.5657109618186951,-1.3033522367477417,-0.3887337148189544,-0.0261328984051942,-0.4103382527828216,0.0,0.0,0.2618317604064941,-0.9148842096328736
-0.7661846876144409,0.5572538375854492,-1.291603922843933,-0.3763083815574646,-0.0448561236262321,-0.3744645714759826,0.0,0.0,0.3924442529678345,-0.2437067031860351
-0.7790855765342712,0.548919677734375,-1.2715907096862793,-0.3710626363754272,-0.0631462410092353,-0.3658024966716766,0.0,0.0,0.6397886276245117,-0.3178555965423584
-0.7918673157691956,0.5413350462913513,-1.2595441341400146,-0.3379851579666137,-0.081581674516201,-0.3687089085578918,0.0,0.0,0.0937902927398681,-0.3945761919021606
-0.8045048713684082,0.5341314673423767,-1.2451224327087402,-0.3212795555591583,-0.1000504270195961,-0.3693750500679016,0.0,0.0,0.215514063835144,-0.8170962929725647
-0.8169655203819275,0.5272897481918335,-1.2290548086166382,-0.3052991330623626,-0.1169387325644493,-0.3377661108970642,0.0,0.0,0.357340931892395,-0.5860658288002014
-0.8292595148086548,0.5204656720161438,-1.2136377096176147,-0.3046040534973144,-0.132617712020874,-0.313579797744751,0.0,0.0,0.1418008804321289,-0.0964187383651733
-0.8414469957351685,0.5138036608695984,-1.2026950120925903,-0.2975920438766479,-0.1486179232597351,-0.3200041353702545,0.0,0.0,0.1859031915664672,-0.7506687045097351
-0.8534323573112488,0.5076987147331238,-1.1839401721954346,-0.2728555798530578,-0.1632032394409179,-0.2917061448097229,0.0,0.0,-0.1972724199295044,-0.8531864285469055
-0.8653836846351624,0.5012414455413818,-1.182165265083313,-0.2884626090526581,-0.1761830598115921,-0.2595965266227722,0.0,0.0,0.1629165410995483,-0.8313729166984558
-0.8772936463356018,0.4952930212020874,-1.1794946193695068,-0.2657826840877533,-0.1877287179231643,-0.230913370847702,0.0,0.0,-0.6758712530136108,-0.8324484825134277
-0.8891489505767822,0.4889945983886719,-1.175290584564209,-0.2812605500221252,-0.1980262994766235,-0.2059517204761505,0.0,0.0,-0.7176851630210876,-0.7948407530784607
-0.9009583592414856,0.4823517501354217,-1.172261118888855,-0.296421468257904,-0.206772118806839,-0.1749164164066314,0.0,0.0,-0.7965283393859863,-0.4008016586303711
-0.912653148174286,0.4753385782241821,-1.1606184244155884,-0.3129585087299347,-0.2157157957553863,-0.1788736283779144,0.0,0.0,-0.8413694500923157,-0.6272967457771301
-0.924281656742096,0.4679695963859558,-1.1551048755645752,-0.3286609947681427,-0.2235509157180786,-0.1567025333642959,0.0,0.0,-0.7561478614807129,-0.8073785305023193
-0.9358652234077454,0.4602560698986053,-1.1523280143737793,-0.3437472879886627,-0.2296549826860427,-0.1220814436674118,0.0,0.0,-0.9180623292922974,-0.688381552696228
-0.9473941922187804,0.4521934986114502,-1.148371934890747,-0.3590519726276397,-0.2342432588338852,-0.0917655080556869,0.0,0.0,-0.9343034029006958,-0.5399495959281921
-0.9588340520858764,0.4437752068042755,-1.140136480331421,-0.3747633397579193,-0.2381549179553985,-0.0782333314418792,0.0,0.0,-0.8878963589668274,-0.2107613086700439
-0.9701496362686156,0.4349859952926636,-1.127482295036316,-0.3912964165210724,-0.2422959506511688,-0.0828205570578575,0.0,0.0,-0.953357756137848,-0.2169798612594604
-0.981339395046234,0.4258259534835815,-1.1146742105484009,-0.4078298509120941,-0.2466720193624496,-0.0875213593244552,0.0,0.0,-0.9555374383926392,0.216760516166687
-0.992401957511902,0.4162950813770294,-1.1017252206802368,-0.4243636429309845,-0.2512886226177215,-0.0923320204019546,0.0,0.0,-0.9580209255218506,0.1073009967803955
-1.0033361911773682,0.406393438577652,-1.0886473655700684,-0.4408978223800659,-0.256151020526886,-0.0972477942705154,0.0,0.0,-0.9580209255218506,0.1073009967803955
