x_pos,y_pos,x_vel,y_vel,angle,ang_vel,leg_1,leg_2,main_booster,lat_booster
-0.0016191483009606,1.403287410736084,-0.1632446944713592,-0.3392335176467895,0.0011790309799835,0.0232145581394433,0.0,0.0,-0.0491325855255126,0.5369338989257812
-0.0032896040938794,1.3953381776809692,-0.1663824468851089,-0.3533004820346832,0.0005172452656552,-0.0132360178977251,0.0,0.0,0.0892668962478637,0.6874599456787109
-0.0049037933349609,1.3874459266662598,-0.158824622631073,-0.3507656753063202,-0.0020396022591739,-0.0511417165398597,0.0,0.0,0.4225243330001831,0.0245919227600097
-0.0067175864242017,1.3798621892929075,-0.1776343286037445,-0.3370632827281952,-0.0057476283982396,-0.0741676315665245,0.0,0.0,-0.4151422381401062,0.0274741649627685
-0.0086298938840627,1.3719415664672852,-0.1868193298578262,-0.3520511090755462,-0.0101161375641822,-0.0873780325055122,0.0,0.0,-0.6918591856956482,0.1815310716629028
-0.0106411930173635,1.3636844158172607,-0.1960515528917312,-0.367033839225769,-0.0151467015966773,-0.1006203144788742,0.0,0.0,-0.6961824297904968,0.4645869731903076
-0.0127520561218261,1.355090618133545,-0.2053270787000656,-0.3820185959339142,-0.0208401102572679,-0.1138783693313598,0.0,0.0,-0.5046889781951904,0.8153939247131348
-0.0148826595395803,1.3461604118347168,-0.2045954912900924,-0.3970390558242798,-0.029211401939392,-0.1674413681030273,0.0,0.0,-0.8430144190788269,0.9577617645263672
-0.0170392040163278,1.3369016647338867,-0.2046521455049514,-0.4117469191551208,-0.0401040762662887,-0.2178737819194793,0.0,0.0,-0.451241135597229,0.6144077777862549
-0.0192478187382221,1.3273091316223145,-0.2079574167728424,-0.426732450723648,-0.0528761148452758,-0.2554641664028168,0.0,0.0,-0.4033340215682983,-0.2293359637260437
-0.0215571410953998,1.3173822164535522,-0.2173595875501632,-0.4417301714420318,-0.0663123279809951,-0.2687492966651916,0.0,0.0,-0.6136932969093323,0.6151375770568848
-0.0239132884889841,1.3071149587631226,-0.2200156897306442,-0.4570873081684112,-0.0817774459719657,-0.3093307614326477,0.0,0.0,-0.7869940996170044,0.1231195926666259
-0.0263705253601074,1.296514630317688,-0.2294682711362838,-0.4720934629440307,-0.0979064330458641,-0.3226092457771301,0.0,0.0,-0.8026668429374695,-0.6250362992286682
-0.028972815722227,1.2855820655822754,-0.244432732462883,-0.4870037734508514,-0.1136019378900528,-0.3139392733573913,0.0,0.0,-0.6651489734649658,-0.1136847138404846
-0.0316764824092388,1.2743167877197266,-0.2539342045783996,-0.5020136833190918,-0.129962608218193,-0.3272436559200287,0.0,0.0,-0.225860059261322,0.2855892181396484
-0.0344816222786903,1.2627190351486206,-0.263453871011734,-0.5170260667800903,-0.1469876319169998,-0.3405312001705169,0.0,0.0,-0.2010200023651123,-0.6726980209350586
-0.0374279990792274,1.2508060932159424,-0.2779983282089233,-0.5311964750289917,-0.1636372357606887,-0.3330225348472595,0.0,0.0,-0.2416983842849731,-0.7878945469856262
-0.0405237190425396,1.2385656833648682,-0.2935065329074859,-0.5458604097366333,-0.1797527223825454,-0.3223389983177185,0.0,0.0,-0.4745128154754638,0.1361092329025268
-0.0437212958931922,1.225993514060974,-0.3030770719051361,-0.560877799987793,-0.1965326815843582,-0.335629791021347,0.0,0.0,-0.807951033115387,-0.922091543674469
-0.0471016876399517,1.2131125926971436,-0.3228289484977722,-0.5745691061019897,-0.2118792682886123,-0.3069596588611603,0.0,0.0,-0.6420048475265503,-0.5502117872238159
-0.0506168380379676,1.1999142169952393,-0.3365732133388519,-0.5888098478317261,-0.2270158678293228,-0.3027594685554504,0.0,0.0,-0.2984780073165893,-0.6653637886047363
-0.0542848594486713,1.1863970756530762,-0.3525386452674866,-0.6030214428901672,-0.2415050715208053,-0.2898100614547729,0.0,0.0,-0.4082168340682983,-0.7440173625946045
-0.0580999366939067,1.1725629568099976,-0.3677912950515747,-0.6171615123748779,-0.2554809749126434,-0.2795429229736328,0.0,0.0,-0.0945853590965271,-0.8590156435966492
-0.0620766654610633,1.1584094762802124,-0.3848617374897003,-0.6313217282295227,-0.2685930430889129,-0.262264996767044,0.0,0.0,-0.2757033705711365,-0.3974454402923584
-0.0661556273698806,1.1439236402511597,-0.3944835066795349,-0.6463400721549988,-0.2823675572872162,-0.2755150198936462,0.0,0.0,0.2215960025787353,0.0019088983535766
-0.0702993422746658,1.1298800706863403,-0.3998611271381378,-0.6270370483398438,-0.297302782535553,-0.2987043559551239,0.0,0.0,-0.7329059839248657,-0.0749964118003845
-0.0745452865958213,1.1155049800872805,-0.409519612789154,-0.6420525908470154,-0.3129013180732727,-0.3119713068008423,0.0,0.0,-0.3035322427749634,-0.793220043182373
-0.0789640396833419,1.100841045379639,-0.4281342029571533,-0.6547537446022034,-0.3271867930889129,-0.2857097685337066,0.0,0.0,-0.7784052491188049,-0.619281530380249
-0.0835399627685546,1.0858789682388306,-0.4447659850120544,-0.6679498553276062,-0.3405908048152923,-0.2680801749229431,0.0,0.0,-0.3943758010864258,-0.9145822525024414
-0.0882890671491622,1.0706186294555664,-0.4633509218692779,-0.6810141205787659,-0.3527244031429291,-0.2426711320877075,0.0,0.0,-0.1089757084846496,-0.1026466488838195
-0.0931403189897537,1.055026292800903,-0.4729852080345154,-0.6960262060165405,-0.3655210137367248,-0.2559325098991394,0.0,0.0,0.0229237079620361,-0.5124359726905823
-0.0980846434831619,1.03952956199646,-0.4826396107673645,-0.6918065547943115,-0.3780172765254974,-0.2499254047870636,0.0,0.0,0.0307790040969848,-0.39649498462677
-0.1029939651489257,1.0244266986846924,-0.4783541560173034,-0.6746243238449097,-0.3914141356945038,-0.2679373621940613,0.0,0.0,-0.7737356424331665,-0.2714314460754394
-0.1080046668648719,1.0089925527572632,-0.4879519939422607,-0.6896408200263977,-0.4054727852344513,-0.2811730206012726,0.0,0.0,0.2630860805511474,-0.7724021077156067
-0.1129698753356933,0.993916928768158,-0.4843501448631286,-0.6735650300979614,-0.4185769855976105,-0.2620842158794403,0.0,0.0,0.3083387613296509,-0.9066678285598756
-0.1178404837846756,0.9793699383735656,-0.476112425327301,-0.6498269438743591,-0.4304410815238952,-0.2372814416885376,0.0,0.0,-0.6914346814155579,-0.0884953737258911
-0.1228119879961013,0.9644911885261536,-0.4856491088867187,-0.6648421883583069,-0.4429648220539093,-0.250474750995636,0.0,0.0,-0.0317903757095336,-0.115385890007019
-0.1278838217258453,0.9492812752723694,-0.4951615333557129,-0.6798591613769531,-0.4561472237110138,-0.2636481821537018,0.0,0.0,0.6197724342346191,-0.4547193646430969
-0.1327263861894607,0.9348781704902648,-0.4715568423271179,-0.6443566679954529,-0.4701656103134155,-0.2803679704666137,0.0,0.0,-0.795789897441864,-0.9413902759552002
-0.1377307921648025,0.9201929569244384,-0.4889291822910309,-0.6566358804702759,-0.4829576015472412,-0.2558396756649017,0.0,0.0,0.569517970085144,-0.9541844129562378
-0.1426561325788498,0.9062976837158204,-0.4822024405002594,-0.621214747428894,-0.4945004284381866,-0.2308562695980072,0.0,0.0,0.0008704662322998,-0.7884274125099182
-0.1475078612565994,0.8924698233604431,-0.475799411535263,-0.617975115776062,-0.5050327181816101,-0.2106452882289886,0.0,0.0,-0.3479068875312805,-0.0707130432128906
-0.1524581015110016,0.8783104419708252,-0.4851349890232086,-0.6329910159111023,-0.516216516494751,-0.2236756384372711,0.0,0.0,0.832247257232666,-0.8934845924377441
-0.1571725904941558,0.8645442128181458,-0.4628726840019226,-0.6151008009910583,-0.5259639024734497,-0.194947212934494,0.0,0.0,0.9425058364868164,-0.7349152565002441
-0.1619080603122711,0.8509702086448669,-0.4657034873962402,-0.6063526272773743,-0.534929096698761,-0.1793034970760345,0.0,0.0,0.9351255893707277,-0.7960292100906372
-0.1665468215942382,0.8375651836395264,-0.4570850729942322,-0.5984886288642883,-0.5427401065826416,-0.1562201082706451,0.0,0.0,0.6135818958282471,-0.3944528102874756
-0.1710055321455001,0.824342668056488,-0.4387970566749573,-0.5905420780181885,-0.5509170889854431,-0.1635401844978332,0.0,0.0,-0.3558072447776794,0.1836996078491211
-0.1755599975585937,0.8107881546020508,-0.4478493332862854,-0.6055563688278198,-0.5597324967384338,-0.1763077825307846,0.0,0.0,0.3323523998260498,-0.8184210658073425
-0.180025577545166,0.7978630661964417,-0.4398868083953857,-0.5772663950920105,-0.5675316452980042,-0.155983418226242,0.0,0.0,0.7392072677612305,-0.6611886024475098
-0.184361845254898,0.7853425145149231,-0.4276025891304016,-0.5590516924858093,-0.5746027231216431,-0.1414228975772857,0.0,0.0,0.2928142547607422,-0.299518346786499
-0.1884542405605316,0.7729611396789551,-0.4031470417976379,-0.5529361367225647,-0.5817810893058777,-0.1435677856206894,0.0,0.0,0.9182220697402954,-0.4612823724746704
-0.1922245919704437,0.7613748908042908,-0.3701847791671753,-0.5179745554924011,-0.5898903012275696,-0.1621847599744796,0.0,0.0,0.8520662784576416,-0.904445230960846
-0.1957566291093826,0.7500196099281311,-0.3476779162883758,-0.5071669220924377,-0.5964649319648743,-0.1314926296472549,0.0,0.0,0.7095842361450195,-0.9264013767242432
-999.0,0.7394208312034607,-0.3168205320835113,-0.4730241596698761,-0.6016350388526917,-0.1034016013145446,0.0,0.0,0.8382585048675537,-0.7146197557449341
-0.2018599510192871,0.7290530204772949,-0.2859819829463959,-0.462262898683548,-0.6054866909980774,-0.0770332068204879,0.0,0.0,0.9292858839035034,-0.8820223808288574
-0.2046846896409988,0.7191913723945618,-0.2801676392555237,-0.4393626451492309,-0.6082514524459839,-0.0552961230278015,0.0,0.0,0.8104640245437622,-0.8006593585014343
-0.2070517987012863,0.7100346684455872,-0.2355446815490722,-0.4075025618076324,-0.6096564531326294,-0.0281001087278127,0.0,0.0,0.9300854206085204,-0.884311854839325
-0.2089618742465973,0.7014243006706238,-0.1912062913179397,-0.3825942575931549,-0.6094167232513428,0.0047944509424269,0.0,0.0,0.8303589820861816,-0.7289494872093201
-0.2104022055864334,0.6935805082321167,-0.1452328413724899,-0.3480531573295593,-0.607972264289856,0.028889525681734,0.0,0.0,0.7698123455047607,-0.8821612000465393
-0.2115696370601654,0.6865824460983276,-0.1189602613449096,-0.3099927604198456,-0.6053056120872498,0.053333431482315,0.0,0.0,0.5863919258117676,-0.9078521132469176
-0.2126289904117584,0.6796970963478088,-0.1093771457672119,-0.3044383823871612,-0.6011803150177002,0.0825059115886688,0.0,0.0,0.8734078407287598,-0.8820838332176208
-0.2134726494550705,0.6736307144165039,-0.088794857263565,-0.2676038742065429,-0.5958901047706604,0.1058036312460899,0.0,0.0,0.3614932298660278,-0.8925613164901733
-0.2141132801771164,0.6677195429801941,-0.0697431489825248,-0.2601681053638458,-0.5891271233558655,0.135259672999382,0.0,0.0,0.4806647300720215,-0.9358595609664916
-0.2145598828792572,0.6622026562690735,-0.0516615621745586,-0.2421085089445114,-0.5808377861976624,0.1657870560884475,0.0,0.0,-0.1361505389213562,-0.929060161113739
-0.215137094259262,0.6564059257507324,-0.0660073682665824,-0.2540359199047088,-0.5710830092430115,0.1950959265232086,0.0,0.0,-0.0480051636695861,-0.9355930685997008
-0.2158532589673996,0.6503486037254333,-0.0816183164715766,-0.2649819254875183,-0.5593855977058411,0.2339478731155395,0.0,0.0,0.1182552576065063,-0.9131222367286682
-0.2163659036159515,0.644747257232666,-0.0626456514000892,-0.2442519962787628,-0.5461780428886414,0.264150857925415,0.0,0.0,0.0495610237121582,-0.8208202719688416
-0.2168467044830322,0.6390465497970581,-0.0606869384646415,-0.248333603143692,-0.5316705107688904,0.2901503443717956,0.0,0.0,-0.0535616874694824,-0.6635593771934509
-0.2174222469329834,0.6330581307411194,-0.0711003094911575,-0.2609225511550903,-0.5162192583084106,0.309025228023529,0.0,0.0,-0.1365710496902465,-0.4953556656837463
-0.2180488109588623,0.6267380118370056,-0.0759807676076889,-0.2759374976158142,-0.5011593699455261,0.3011972904205322,0.0,0.0,0.2209113836288452,-0.5824888348579407
-0.2185868322849273,0.6208328604698181,-0.0678891390562057,-0.2573892772197723,-0.4853601455688476,0.3159843981266022,0.0,0.0,-0.2797793745994568,-0.1175500154495239
-0.2191677093505859,0.6145958304405212,-0.0719921514391899,-0.2724024355411529,-0.469901978969574,0.3091632127761841,0.0,0.0,-0.3123343586921692,0.0381407737731933
-0.2197872102260589,0.6080262064933777,-0.0756769031286239,-0.2874135375022888,-0.4547575414180755,0.3028894364833832,0.0,0.0,0.331592321395874,-0.332127034664154
-0.2201831340789795,0.6017120480537415,-0.0534092187881469,-0.2762006819248199,-0.4396240413188934,0.3026700615882873,0.0,0.0,0.2833304405212402,-0.2601432800292969
-0.2205027639865875,0.5954940319061279,-0.0455343797802925,-0.2721737921237945,-0.4248664975166321,0.2951509356498718,0.0,0.0,0.176803708076477,-0.1120526194572448
-0.2207072675228119,0.5892293453216553,-0.034111488610506,-0.2743846476078033,-0.4101083874702453,0.2951623797416687,0.0,0.0,0.1996747255325317,0.1721583604812622
-0.2208539545536041,0.5829838514328003,-0.0281367357820272,-0.2737390697002411,-0.3956473767757416,0.2892201840877533,0.0,0.0,0.3814870119094848,0.1932451725006103
-0.2207656353712082,0.577326774597168,-0.0045425966382026,-0.2477698177099228,-0.381376177072525,0.285423994064331,0.0,0.0,0.1002496480941772,0.2331044673919677
-0.2204345166683197,0.5720622539520264,0.0195417143404483,-0.2304161638021469,-0.3669815361499786,0.2878927886486053,0.0,0.0,-0.3543428182601928,-0.000575304031372
-0.2201069891452789,0.5664637684822083,0.0191959552466869,-0.2454164326190948,-0.3526750206947326,0.2861304581165313,0.0,0.0,-0.5569339990615845,0.7317583560943604
-0.2197369635105133,0.5605002045631409,0.0245471205562353,-0.2620454430580139,-0.3396085798740387,0.2613289952278137,0.0,0.0,-0.5258538126945496,0.3970420360565185
-0.2193597853183746,0.5542018413543701,0.0252267066389322,-0.2770408093929291,-0.326558917760849,0.260993480682373,0.0,0.0,-0.8898676633834839,0.5899739265441895
-0.2189334332942962,0.5475497245788574,0.031034106388688,-0.2930800020694732,-0.3144926428794861,0.2413257360458374,0.0,0.0,-0.3478788137435913,0.1859098672866821
-0.2184891253709793,0.540562093257904,0.0327308923006057,-0.3080716133117676,-0.3023715317249298,0.2424218207597732,0.0,0.0,-0.7524502277374268,0.4512555599212646
-0.2180215418338775,0.53323894739151,0.0349259749054908,-0.323062539100647,-0.2901602983474731,0.2442245930433273,0.0,0.0,-0.6723783612251282,0.5607082843780518
-0.2174771279096603,0.5255582928657532,0.043722279369831,-0.3392649590969085,-0.2791281938552856,0.2206418961286544,0.0,0.0,-0.7210967540740967,0.2846975326538086
-0.2168991565704345,0.5175415873527527,0.0468828417360782,-0.3542525470256805,-0.2679370939731598,0.2238211184740066,0.0,0.0,-0.9144205451011658,0.7343463897705078
-0.2162193357944488,0.5091568231582642,0.0585294775664806,-0.3709564507007599,-0.2582754790782928,0.1932319104671478,0.0,0.0,-0.8471136689186096,0.5356719493865967
-0.2154456675052642,0.5004149675369263,0.0689978152513504,-0.3870743215084076,-0.2497383058071136,0.1707438379526138,0.0,0.0,-0.8957588076591492,0.4216785430908203
-0.2146243155002594,0.4913362264633178,0.0734949931502342,-0.402056336402893,-0.2409461587667465,0.1758429259061813,0.0,0.0,-0.8692343831062317,0.4533922672271728
-0.213750883936882,0.481920450925827,0.0784008726477623,-0.4170383512973785,-0.2318695485591888,0.1815321445465088,0.0,0.0,-0.8708270192146301,0.3800463676452636
-0.2128212451934814,0.4721677899360657,0.0836956650018692,-0.4320204555988312,-0.2224803566932678,0.1877835541963577,0.0,0.0,-0.2361934185028076,0.639866828918457
-0.2117716819047927,0.4620602130889892,0.0968754738569259,-0.448026955127716,-0.2143054753541946,0.163497656583786,0.0,0.0,-0.8455978035926819,0.3684377670288086
-0.2106582224369049,0.4516153335571289,0.1028874069452285,-0.4630073606967926,-0.2057661563158035,0.1707864701747894,0.0,0.0,-0.8099976181983948,0.439685583114624
-0.2094773352146148,0.4408334493637085,0.1092264056205749,-0.4779881238937378,-0.1968387067317962,0.1785490363836288,0.0,0.0,-0.1206381916999816,0.7445828914642334
-0.2081588208675384,0.4297033548355102,0.1242595314979553,-0.4936810135841369,-0.1892006695270538,0.1527609378099441,0.0,0.0,-0.5457041263580322,0.2685251235961914
-0.2067665159702301,0.4182357788085937,0.1311921924352646,-0.5086604356765747,-0.181131511926651,0.1613828539848327,0.0,0.0,-0.4397793412208557,0.4437692165374756
-0.2052976638078689,0.4064310789108276,0.1383916437625885,-0.5236403942108154,-0.1726119518280029,0.1703910529613495,0.0,0.0,0.6085952520370483,0.2900160551071167
-0.2035492956638336,0.3952714204788208,0.1654687523841858,-0.4949222207069397,-0.1632320582866668,0.1875979304313659,0.0,0.0,-0.90298330783844,0.560259222984314
-0.201678842306137,0.3837688267230987,0.178191676735878,-0.510275661945343,-0.1543870866298675,0.1768994033336639,0.0,0.0,-0.52098548412323,0.2951691150665283
-0.199724480509758,0.3719292879104614,0.1860813796520233,-0.5252571702003479,-0.145041823387146,0.186905175447464,0.0,0.0,-0.6736949682235718,0.080128788948059
-0.1976838111877441,0.359752893447876,0.194167211651802,-0.5402396321296692,-0.1351821422576904,0.1971938163042068,0.0,0.0,-0.0136002302169799,-0.3154146671295166
-0.1955551207065582,0.3472398519515991,0.2024337500333786,-0.5552231669425964,-0.1247950047254562,0.2077427357435226,0.0,0.0,0.087038516998291,0.1462461948394775
-0.1933918893337249,0.3349215984344482,0.2057935446500778,-0.546629786491394,-0.1143263727426529,0.2093729674816131,0.0,0.0,0.2631072998046875,0.1105521917343139
-0.1909939795732498,0.3230718672275543,0.2283169478178024,-0.5258144736289978,-0.1029327362775802,0.2278728187084198,0.0,0.0,-0.1406674981117248,0.056319236755371
-0.1885029822587967,0.3108860552310943,0.2370427548885345,-0.5408018827438354,-0.090978667140007,0.2390815764665603,0.0,0.0,-0.3242784738540649,-0.3247653245925903
-0.1859176605939865,0.298364520072937,0.2458971440792083,-0.555790901184082,-0.0784549340605735,0.2504743933677673,0.0,0.0,0.102622389793396,0.4027343988418579
-0.1832111328840255,0.2862837612628937,0.2574793696403503,-0.5362843871116638,-0.0654237791895866,0.2606235444545746,0.0,0.0,-0.4590308666229248,-0.3662623167037964
-0.1804078072309494,0.2738677263259887,0.2665594816207886,-0.5512768030166626,-0.0518068373203277,0.2723389267921448,0.0,0.0,0.2869337797164917,0.2114455699920654
-0.1774238646030426,0.2617886066436767,0.2837346792221069,-0.5364078283309937,-0.0373221971094608,0.2896928787231445,0.0,0.0,0.1370465755462646,0.0019100904464721
-0.1743250787258148,0.2502176463603973,0.2946298718452453,-0.5139579176902771,-0.0222612265497446,0.3012194037437439,0.0,0.0,0.4761765003204345,-0.0509233474731445
-0.1710566580295562,0.2393660694360733,0.3107156753540039,-0.4821328222751617,-0.0063443984836339,0.3183364272117615,0.0,0.0,-0.2770900726318359,-0.0591707825660705
-0.1676878035068512,0.2281807512044906,0.3201432824134826,-0.4971351623535156,0.010182898491621,0.3305459320545196,0.0,0.0,0.3345005512237549,0.260058045387268
-0.1643216162919998,0.2174097895622253,0.3197168111801147,-0.4789100587368011,0.0268686804920434,0.3337156474590301,0.0,0.0,0.3535196781158447,0.3619056940078735
-0.1609701216220855,0.2069337964057922,0.3181255459785461,-0.4659911394119262,0.0436880216002464,0.3363870084285736,0.0,0.0,0.6815812587738037,0.2856955528259277
-0.1575631201267242,0.1969833672046661,0.323152482509613,-0.4428443908691406,0.0610300824046134,0.3468410670757293,0.0,0.0,0.3054487705230713,0.4603052139282226
-0.1540585458278656,0.1873335689306259,0.3322063088417053,-0.4297264218330383,0.0790948942303657,0.3612962663173675,0.0,0.0,0.4536213874816894,0.6733837127685547
-0.1502961218357086,0.177839770913124,0.3584890365600586,-0.4229795038700104,0.0966920107603073,0.3519423604011535,0.0,0.0,0.5233738422393799,0.2415299415588379
-0.1464013159275055,0.168968454003334,0.3706943988800049,-0.3956045508384704,0.1153393536806106,0.3729467988014221,0.0,0.0,0.6191089153289795,0.1862356662750244
-0.1424689292907714,0.1609478592872619,0.3737298846244812,-0.3580907583236694,0.1347378343343734,0.3879691958427429,0.0,0.0,0.3667274713516235,0.0317745208740234
