x_pos,y_pos,x_vel,y_vel,angle,ang_vel,leg_1,leg_2,main_booster,lat_booster
-0.0015675544273108,1.403535008430481,-0.1588572561740875,-0.3282273411750793,0.0018728851573541,0.0369529351592063,0.0,0.0,-0.3529873363248148,-0.0949595622845963
-0.0031783103477209,1.3960834741592407,-0.1629902571439743,-0.3311766684055328,0.0037697944790124,0.0379423573613166,0.0,0.0,-0.1911441739012367,-0.0978781994376495
-0.0048303604125976,1.3885421752929688,-0.1672021597623825,-0.3351768851280212,0.0057368767447769,0.0393456295132637,0.0,0.0,-0.3520564461846409,0.9499052294794836
-0.0064622880890965,1.380908727645874,-0.1637338101863861,-0.3392663598060608,0.0062665301375091,0.0105938483029603,0.0,0.0,0.9442158746495466,0.6778707048072972
-0.0079207420349121,1.3743411302566528,-0.1455360352993011,-0.2918960750102997,0.0059666647575795,-0.0059980163350701,0.0,0.0,0.643041308938024,-0.7576710116095127
-0.0093281744047999,1.368493676185608,-0.1423488110303878,-0.2598950564861297,0.0075484458357095,0.0316387228667736,0.0,0.0,0.5731919548876203,-0.255559074816802
-0.0107958791777491,1.3633811473846436,-0.148331731557846,-0.2272261977195739,0.0090965004637837,0.0309639181941747,0.0,0.0,0.9832074665741548,-0.6319911036730302
-0.0121611598879098,1.359347939491272,-0.1399846374988556,-0.1792774945497512,0.012510840781033,0.0682930499315261,0.0,0.0,-0.5616938028846357,-0.8522961508309231
-0.0136255268007516,1.3552334308624268,-0.151702418923378,-0.1829214990139007,0.0177140701562166,0.1040741801261901,0.0,0.0,0.7858864917995607,0.5577114110480462
-0.01508932095021,1.3522119522094729,-0.150583729147911,-0.1343390494585037,0.0218768715858459,0.0832636207342147,0.0,0.0,0.6855147084065714,0.9207051253968812
-0.0164215080440044,1.3500168323516846,-0.1358168423175811,-0.0976016893982887,0.0244391020387411,0.0512494444847106,0.0,0.0,0.6303255519262891,0.0557805717830927
-0.0177205093204975,1.3485167026519775,-0.1328823417425155,-0.0667323097586631,0.0273982547223567,0.0591883361339569,0.0,0.0,0.3394613396677437,-0.7988032601016232
-0.0190000534057617,1.3477838039398191,-0.1327676475048065,-0.0326681919395923,0.0321625880897045,0.095295138657093,0.0,0.0,-0.7213991684072991,0.9936004594981718
-0.020210837945342,1.3469566106796265,-0.1237347275018692,-0.0368274934589862,0.0347943417727947,0.0526398196816444,0.0,0.0,0.3928698782498254,0.5310285839396367
-0.0212912559509277,1.3470962047576904,-0.1100247055292129,0.0061621638014912,0.0367496013641357,0.039108783006668,0.0,0.0,-0.6973871065228598,0.688912658836161
-0.022320557385683,1.3471418619155884,-0.1033355444669723,0.0020142025314271,0.0371511057019233,0.0080307926982641,0.0,0.0,0.932541438593644,-0.4822066691870919
-0.0232362747192382,1.3486069440841677,-0.0928011685609817,0.0650844722986221,0.0383701436221599,0.0243829730898141,0.0,0.0,0.8159333471731156,-0.1658760032701395
-0.0240187644958496,1.3506087064743042,-0.0802794322371482,0.0889119058847427,0.0403805151581764,0.0402111150324344,0.0,0.0,-0.3794433507325174,0.5136735839160036
-0.0247587207704782,1.352528691291809,-0.0748910084366798,0.0853093415498733,0.0412615463137626,0.0176224038004875,0.0,0.0,-0.1523325943798821,0.4874392656266425
-0.0255001075565814,1.3543593883514404,-0.075081430375576,0.0813342407345771,0.0421981438994407,0.0187335275113582,0.0,0.0,0.7660494900551615,0.4557400642995139
-0.0261372569948434,1.3573137521743774,-0.0653602480888366,0.1312563866376876,0.0438234508037567,0.0325089842081069,0.0,0.0,-0.5197294136948383,0.509431058201334
-0.0267283432185649,1.3601782321929932,-0.0597576722502708,0.1272915154695511,0.0444668680429458,0.0128697855398058,0.0,0.0,-0.0505796379457894,-0.1773231909602126
-0.0273110382258892,1.3629533052444458,-0.0589771047234535,0.1233184784650802,0.0451595447957515,0.0138550447300076,0.0,0.0,-0.8923221658514346,-0.3389354166104542
-0.0278821941465139,1.365639090538025,-0.057862102985382,0.1193410083651542,0.0458983182907104,0.0147767663002014,0.0,0.0,0.0765484146918149,0.0033476484068603
-0.0285499580204486,1.3688571453094482,-0.0671433582901954,0.1430221945047378,0.0462519340217113,0.0070730438455939,0.0,0.0,0.1366609961724547,0.7869007808755983
-0.0292743686586618,1.3726907968521118,-0.0711608752608299,0.1704221367835998,0.0449960082769393,-0.0251187738031148,0.0,0.0,0.9580261945484544,-0.2147999911627724
-0.0300110820680856,1.3777254819869995,-0.0724554136395454,0.2237985283136367,0.0438001751899719,-0.0239169243723154,0.0,0.0,-0.1287080513528788,-0.6303367458794459
-0.0307832714170217,1.3826731443405151,-0.0775920003652572,0.2198913246393203,0.0441662929952144,0.0073224045336246,0.0,0.0,0.0182834753384455,-0.1825182797374611
-0.031628131866455,1.3882415294647217,-0.0845166593790054,0.2474871575832367,0.0441947653889656,0.0005695133586414,0.0,0.0,0.1667986889187385,-0.6676027815382892
-0.0325253494083881,1.394229531288147,-0.0911064073443412,0.2660904824733734,0.0455615483224391,0.027335787191987,0.0,0.0,-0.4720544250567506,0.9800666461110712
-0.0333073623478412,1.4001445770263672,-0.0775790736079216,0.2629105746746063,0.0449455082416534,-0.012320889160037,0.0,0.0,-0.3177494406700134,-0.5183537602424622
-0.0340965278446674,1.4059640169143677,-0.0794935896992683,0.2586268484592438,0.0455216988921165,0.0115234311670064,0.0,0.0,-0.4555412530899048,-0.178130030632019
-0.0348430648446083,1.411694049835205,-0.0752679035067558,0.2546515166759491,0.0461226664483547,0.0120194898918271,0.0,0.0,-0.5391422510147095,0.044269323348999
-0.0355438217520713,1.417334794998169,-0.0707025304436683,0.2506762444972992,0.0467460490763187,0.0124676097184419,0.0,0.0,-0.5225489139556885,0.0062147378921508
-0.0361953750252723,1.4228860139846802,-0.0658018290996551,0.2467009574174881,0.0473894588649272,0.0128682907670736,0.0,0.0,-0.2952762842178345,-0.3211110830307007
-0.0367943756282329,1.4283477067947388,-0.0605709664523601,0.2427256852388382,0.0480505563318729,0.0132219213992357,0.0,0.0,-0.5540878176689148,-0.1543329954147339
-0.0373376831412315,1.4337201118469238,-0.0550158843398094,0.2387504279613495,0.0487270094454288,0.0135291274636983,0.0,0.0,-0.2597449421882629,-0.1117260456085205
-0.0378221496939659,1.4390029907226562,-0.0491431877017021,0.2347751557826995,0.0494165383279323,0.0137904807925224,0.0,0.0,-0.1594956517219543,-0.3464549779891968
-0.0382446274161338,1.4441965818405151,-0.0429601371288299,0.2307998985052108,0.050116878002882,0.0140066873282194,0.0,0.0,-0.1367954611778259,-0.1017691493034362
-0.0386022552847862,1.4493006467819214,-0.03647455945611,0.2268246561288833,0.0508258007466793,0.0141786094754934,0.0,0.0,-0.3397344946861267,0.3371503353118896
-0.0388919822871685,1.4543153047561646,-0.0296947918832302,0.2228493839502334,0.0515411645174026,0.0143070770427584,0.0,0.0,-0.4290252923965454,-0.2398496866226196
-0.0391110405325889,1.4592405557632446,-0.0226296074688434,0.2188741415739059,0.0522608235478401,0.0143929366022348,0.0,0.0,-0.2268764376640319,-0.1912118196487426
-0.0392565727233886,1.4640763998031616,-0.0152881424874067,0.2148988842964172,0.0529826767742633,0.014437111094594,0.0,0.0,-0.4202191233634949,-0.358792781829834
-0.0393260940909385,1.468822717666626,-0.0076798289082944,0.2109236717224121,0.0537047088146209,0.0144405588507652,0.0,0.0,-0.2634227871894836,0.2700316905975342
-0.0393169410526752,1.4734796285629272,0.0001856699527706,0.2069484740495681,0.0544249266386032,0.0144042503088712,0.0,0.0,-0.2190951704978943,0.0150182247161865
-0.0392267219722271,1.4780471324920654,0.0082985311746597,0.2029732763767242,0.0551413856446743,0.0143291354179382,0.0,0.0,-0.2584288120269775,-0.016899287700653
-0.0390530601143837,1.482525110244751,0.016648830845952,0.1989980638027191,0.0558521933853626,0.0142161641269922,0.0,0.0,-0.4616076946258545,0.1526613235473632
-0.0387936607003212,1.486913800239563,0.0252266135066747,0.1950228810310363,0.0565554946660995,0.0140662565827369,0.0,0.0,-0.3142569065093994,0.3074122667312622
-0.0384465232491493,1.4912129640579224,0.034021932631731,0.1910476833581924,0.0572495125234127,0.0138803524896502,0.0,0.0,-0.312157392501831,0.3716219663619995
-0.0380093567073345,1.495422601699829,0.0430249162018299,0.1870725005865097,0.0579324848949909,0.0136593058705329,0.0,0.0,-0.1123993396759033,0.181638479232788
-0.037480354309082,1.4995429515838623,0.0522257983684539,0.1830973476171493,0.058602686971426,0.0134039623662829,0.0,0.0,-0.244596242904663,0.5740684270858765
-0.036816693842411,1.5035812854766846,0.0667468011379242,0.1794934421777725,0.0582242421805858,-0.0075688986107707,0.0,0.0,-0.3795120120048523,0.259110689163208
-0.0360575690865516,1.5075300931930542,0.0763148441910743,0.1755183339118957,0.0578297041356563,-0.0078906416893005,0.0,0.0,-0.2529608607292175,0.1195654869079589
-0.0352012626826763,1.5113894939422607,0.0860525518655777,0.1715432256460189,0.0574174709618091,-0.0082446355372667,0.0,0.0,-0.2850898504257202,0.2407147884368896
-0.0342461578547954,1.515159249305725,0.0959509834647178,0.1675681322813034,0.0569859631359577,-0.0086302682757377,0.0,0.0,-0.339306116104126,0.6358480453491211
-0.0331483855843544,1.5188405513763428,0.1113156229257583,0.16366907954216,0.0554694831371307,-0.030329804867506,0.0,0.0,-0.2892376184463501,0.218935489654541
-0.0319488532841205,1.5224324464797974,0.1215097308158874,0.1596938073635101,0.0539306066930294,-0.0307772196829319,0.0,0.0,-0.4105812311172485,0.2495884895324707
-0.0306463241577148,1.5259346961975098,0.131839320063591,0.1557185500860214,0.0523678660392761,-0.0312548950314521,0.0,0.0,-0.4167457818984985,0.0532258749008178
-0.0292393676936626,1.5293477773666382,0.1422966420650482,0.1517432779073715,0.0507797375321388,-0.0317626297473907,0.0,0.0,-0.3416800498962402,0.4954739809036255
-0.02772693708539,1.532671332359314,0.1528741419315338,0.1477680206298828,0.0491647273302078,-0.0323001220822334,0.0,0.0,-0.4327172040939331,0.4395900964736938
-0.0261079780757427,1.5359055995941162,0.1635646373033523,0.1437927335500717,0.0475213788449764,-0.0328671932220459,0.0,0.0,-0.4949913024902344,0.6691024303436279
-0.0243372917175292,1.5390567779541016,0.1798819452524185,0.1401471346616745,0.0447378791868686,-0.0556695945560932,0.0,0.0,-0.3874870538711548,0.22296142578125
-0.0224579814821481,1.542118787765503,0.1907781213521957,0.1361714005470276,0.0419230945408344,-0.0562956221401691,0.0,0.0,-0.2005822658538818,0.4809458255767822
-0.0204690936952829,1.5450916290283203,0.2017675638198852,0.1321956664323806,0.039075531065464,-0.0569511763751506,0.0,0.0,-0.388323426246643,0.0316299200057983
-0.0183698646724224,1.5479748249053955,0.2128442972898483,0.1282199174165725,0.0361937172710895,-0.0576363913714885,0.0,0.0,-0.5765894055366516,0.7773408889770508
-0.0161105152219533,1.5507718324661257,0.2301297485828399,0.1244116872549057,0.0320476181805133,-0.0829221829771995,0.0,0.0,-0.1910158395767212,0.6329597234725952
-0.0136876106262207,1.5534896850585938,0.2478545606136322,0.1209021657705307,0.0265594683587551,-0.1097631305456161,0.0,0.0,-0.3560563921928406,-0.1575740575790405
-0.0111519815400242,1.5561184883117676,0.2591600716114044,0.1169245392084121,0.0210325513035058,-0.1105383187532424,0.0,0.0,-0.1345791816711425,-0.0330788493156433
-0.0085030551999807,1.558658242225647,0.2705315947532654,0.1129468753933906,0.0154653573408722,-0.1113440990447998,0.0,0.0,-0.5415604710578918,0.40426766872406
-0.0057402611710131,1.5611090660095217,0.281964510679245,0.1089691445231437,0.0098563190549612,-0.1121807470917701,0.0,0.0,-0.4163068532943725,-0.5742819309234619
-0.0029153823852539,1.5634722709655762,0.2868814766407013,0.1050547137856483,0.0055198920890688,-0.0867283791303634,0.0,0.0,-0.26988685131073,0.4486124515533447
2.4509430659236383e-05,1.5657463073730469,0.2984240353107452,0.1010779663920402,0.0011385036632418,-0.0876279398798942,0.0,0.0,-0.1261562705039978,0.337571382522583
0.00307979574427,1.5679311752319336,0.3100152611732483,0.0971011817455291,-0.0032894592732191,-0.0885593965649604,0.0,0.0,-0.6246586441993713,-0.5039185285568237
0.006215953733772,1.570026993751526,0.3172583878040313,0.0931339338421821,-0.0068858619779348,-0.0719279870390892,0.0,0.0,-0.6791566014289856,0.5814136266708374
0.0095117567107081,1.572028636932373,0.3343834280967712,0.0889308229088783,-0.0116236684843897,-0.0947559177875518,0.0,0.0,-0.8059594035148621,0.1816420555114746
0.0129242893308401,1.5739411115646362,0.3460983335971832,0.0849537104368209,-0.016412928700447,-0.095785304903984,0.0,0.0,-0.8328765034675598,-0.1751048564910888
0.0164536479860544,1.5757646560668943,0.357847511768341,0.0809765383601188,-0.0212553162127733,-0.0968479812145233,0.0,0.0,-0.8499372601509094,-0.3488889932632446
0.0201003067195415,1.5774987936019895,0.3696277737617492,0.0769992992281913,-0.0261525139212608,-0.0979442819952964,0.0,0.0,-0.8044494390487671,-0.8975346088409424
0.0238031391054391,1.579155206680298,0.3737269937992096,0.0735548287630081,-0.0295576360076665,-0.0681024640798568,0.0,0.0,-0.882579505443573,-0.3799003362655639
0.0276236534118652,1.580722451210022,0.3855602145195007,0.0695785284042358,-0.033020980656147,-0.0692668408155441,0.0,0.0,-0.7312890887260437,-0.7433303594589233
0.0314905159175396,1.5821962356567385,0.3884370326995849,0.0654587522149086,-0.0347489789128303,-0.0345597080886364,0.0,0.0,-0.8179008960723877,-0.8835017681121826
0.0354105941951274,1.5835916996002195,0.3921500444412231,0.0620229430496692,-0.0348980240523815,-0.0029807486571371,0.0,0.0,-0.972581684589386,-0.2089236974716186
0.0394488349556922,1.5848978757858276,0.4040412008762359,0.0580475740134716,-0.0351104401051998,-0.0042483061552047,0.0,0.0,-0.8626395463943481,-0.3859815597534179
0.0436055175960063,1.5861146450042725,0.4159462451934814,0.054072193801403,-0.0353879816830158,-0.0055508464574813,0.0,0.0,-0.7261330485343933,-0.8630371689796448
0.0478111281991004,1.5872502326965332,0.4191388487815857,0.0504985228180885,-0.0339810326695442,0.0281389616429805,0.0,0.0,-0.8721729516983032,-0.8738752007484436
0.0520762428641319,1.5882995128631592,0.423647940158844,0.0466980226337909,-0.0311561338603496,0.0564981214702129,0.0,0.0,-0.8876744508743286,-0.8364300727844238
0.056396197527647,1.589254379272461,0.4275873601436615,0.0425214432179927,-0.026804257184267,0.0870376080274581,0.0,0.0,-0.9694167971611024,-0.9253453016281128
0.060772705823183,1.5901157855987549,0.4317398071289062,0.0383821353316307,-0.0209681261330842,0.1167226806282997,0.0,0.0,-0.9466450810432434,-0.7668837904930115
0.0652218833565712,1.590889573097229,0.4379217624664306,0.0344751738011837,-0.0140531631186604,0.1382991522550583,0.0,0.0,-0.9123730659484864,-0.8259007334709167
0.0697394385933876,1.5915696620941162,0.4435476660728454,0.0302732996642589,-0.0059516192413866,0.1620305478572845,0.0,0.0,-0.853186845779419,-0.6881863474845886
0.0743205100297927,1.592166543006897,0.4485815167427063,0.0265426281839609,0.0034544246736913,0.1881209313869476,0.0,0.0,-0.886102020740509,0.5156073570251465
0.0790629386901855,1.5926793813705444,0.4658857882022857,0.0227463450282812,0.0117039000615477,0.1649896800518036,0.0,0.0,-0.9018660187721252,-0.1453052163124084
0.0839237198233604,1.5931036472320557,0.4777982234954834,0.0187655389308929,0.0198734030127525,0.1633901298046112,0.0,0.0,-0.7457497715950012,-0.3845086097717285
0.0889026671648025,1.5934391021728516,0.4896981716156006,0.0147848986089229,0.0279614608734846,0.1617614179849624,0.0,0.0,-0.84661865234375,-0.7619644403457642
0.0939340591430664,1.5936814546585083,0.4933641850948334,0.0105542503297328,0.0376146100461483,0.1930628418922424,0.0,0.0,-0.6229085326194763,-0.9464423060417176
0.0990185737609863,1.5938434600830078,0.4971315264701843,0.006871526595205,0.0488000325858593,0.2237083613872528,0.0,0.0,-0.8794626593589783,-0.8738805651664734
0.1041488647460937,1.5939122438430786,0.4999752044677734,0.0025794843677431,0.0617060959339141,0.2581210434436798,0.0,0.0,-0.9181793928146362,-0.5152660012245178
0.1093470603227615,1.5938938856124878,0.5056147575378418,-0.0014541962882503,0.0757618620991706,0.281115710735321,0.0,0.0,-0.9521547555923462,-0.6897810697555542
0.1146155372262001,1.5937871932983398,0.5115477442741394,-0.0055868388153612,0.0909039080142974,0.3028407692909241,0.0,0.0,-0.9105339646339417,-0.3769549131393432
0.1200005561113357,1.593593955039978,0.5233091115951538,-0.0095804911106824,0.1059569641947746,0.30106121301651,0.0,0.0,-0.9099682569503784,-0.0654632449150085
0.1255015432834625,1.5933141708374023,0.5350350141525269,-0.0135737722739577,0.1209201216697692,0.2992631196975708,0.0,0.0,-0.9804446697235109,0.4956903457641601
0.1311182975769043,1.5929477214813232,0.546721339225769,-0.0175666790455579,0.1357925087213516,0.2974482178688049,0.0,0.0,-0.9568841457366944,-0.774081826210022
0.1367776840925216,1.5924808979034424,0.5492652058601379,-0.0223532449454069,0.1524194031953811,0.3325378000736236,0.0,0.0,-0.9490211606025696,-0.5780287981033325
0.1424952447414398,1.5919139385223389,0.5537818670272827,-0.0271336305886507,0.1704001575708389,0.3596151471138,0.0,0.0,-0.9729102849960328,-0.2755886316299438
0.1483268737792968,1.5912617444992063,0.5653245449066162,-0.0311342403292655,0.1882880926132202,0.3577588498592376,0.0,0.0,-0.9811617136001588,-0.1585275530815124
0.1542716920375824,1.5905240774154663,0.576808750629425,-0.0351343527436256,0.2060828208923339,0.3558944165706634,0.0,0.0,-0.9764173030853271,-0.2960762977600097
0.1603291481733322,1.5897009372711182,0.588228702545166,-0.0391339547932148,0.2237840443849563,0.3540240228176117,0.0,0.0,-0.9693590998649596,0.0113484859466552
0.1664984673261642,1.5887919664382937,0.599578320980072,-0.0431330539286136,0.2413915395736694,0.3521498441696167,0.0,0.0,-0.9849642515182496,0.8002235889434814
0.1728533804416656,1.5878336429595947,0.6202515363693237,-0.0451635271310806,0.2568992674350738,0.3101544976234436,0.0,0.0,-0.8549437522888184,-0.3648019433021545
0.1793185174465179,1.5867886543273926,0.631438136100769,-0.0491562522947788,0.2723132669925689,0.3082807660102844,0.0,0.0,-0.9140970706939696,0.8259193897247314
0.1859535276889801,1.5856906175613403,0.6501940488815308,-0.0513406060636043,0.2859720885753631,0.2731766104698181,0.0,0.0,-0.8334369659423828,-0.4960398077964782
0.1926969587802887,1.5845052003860474,0.6611871719360352,-0.055328618735075,0.2995375990867615,0.2713097333908081,0.0,0.0,-0.8898395299911499,-0.7719777226448059
0.1994982659816742,1.5832054615020752,0.6657991409301758,-0.0607867687940597,0.3143742680549621,0.2967332601547241,0.0,0.0,-0.7221054434776306,-0.7634373307228088
0.206336498260498,1.5817867517471311,0.6678612232208252,-0.066603235900402,0.3309894800186157,0.3323040902614593,0.0,0.0,-0.8866506218910217,-0.607262372970581
0.2132248878479004,1.580252170562744,0.6716140508651733,-0.0722509548068046,0.3490201234817505,0.3606129884719848,0.0,0.0,-0.7513641119003296,-0.2696216106414795
0.2202161848545074,1.5786317586898804,0.6821182370185852,-0.076249212026596,0.3669592440128326,0.3587817549705505,0.0,0.0,-0.707974910736084,0.181188702583313
0.2273091375827789,1.57692551612854,0.6924713253974915,-0.0802469477057457,0.384807676076889,0.3569678664207458,0.0,0.0,-0.6314082145690918,0.242550253868103
0.234501838684082,1.5751333236694336,0.7026606798171997,-0.0842441543936729,0.4025663733482361,0.3551738858222961,0.0,0.0,-0.2166820764541626,0.6098463535308838
0.2418432235717773,1.57328999042511,0.7190821170806885,-0.0862900763750076,0.4187666773796081,0.3240062296390533,0.0,0.0,-0.0413204431533813,0.0981899499893188
0.2492809295654297,1.5713597536087036,0.7288997173309326,-0.090282455086708,0.4348796904087066,0.322260707616806,0.0,0.0,0.084587812423706,0.5061359405517578
0.2568058967590332,1.56967031955719,0.7386983633041382,-0.0794373303651809,0.4499427378177643,0.3012609481811523,0.0,0.0,0.5590754747390747,-0.030633807182312
0.2642529606819153,1.5687410831451416,0.7306948900222778,-0.0458941422402858,0.4653496146202087,0.3081375658512115,0.0,0.0,0.5437734127044678,-0.2820243835449219
