x_pos,y_pos,x_vel,y_vel,angle,ang_vel,leg_1,leg_2,main_booster,lat_booster
-0.00150728225708,1.4032858610153198,-0.1518227159976959,-0.3393041491508484,0.0009783414425328,0.0192402452230453,0.0,0.0,-0.120174234609139,-0.6304348744534057
-0.0030444145668298,1.3953328132629397,-0.1550431102514267,-0.353470116853714,0.0022887662053108,0.0262119527906179,0.0,0.0,0.2078587388067931,-0.6322051410823943
-0.0045085907913744,1.387479305267334,-0.1484245806932449,-0.3490538001060486,0.0042609614320099,0.0394480861723423,0.0,0.0,-0.111042795591862,-0.9396515369159848
-0.0060476302169263,1.3792831897735596,-0.1573608070611953,-0.3642822206020355,0.0076778787188231,0.0683449357748031,0.0,0.0,0.7750905936265351,-0.9813656537397268
-0.0075015067122876,1.3718034029006958,-0.1502622067928314,-0.3324617445468902,0.0125043671578168,0.0965387374162674,0.0,0.0,0.0612094689157214,-0.8639668943499439
-0.008912181481719,1.3645076751708984,-0.1469274759292602,-0.3243103921413421,0.0182925164699554,0.1157735735177993,0.0,0.0,-0.6656108172829949,0.9076054792522346
-0.0102434158325195,1.3568753004074097,-0.1364295184612274,-0.3392601311206817,0.0215704645961523,0.0655650645494461,0.0,0.0,-0.1996961629056166,0.7375465144052408
-0.0114921573549509,1.3489086627960205,-0.1255592554807663,-0.3540851771831512,0.0222479254007339,0.0135502964258193,0.0,0.0,0.254420245223744,-0.9636193635585748
-0.0128324506804347,1.3415634632110596,-0.1358646005392074,-0.3264813423156738,0.0240496974438428,0.0360388830304145,0.0,0.0,-0.456804957032793,-0.9866296389524288
-0.0142427440732717,1.3338826894760132,-0.1440288126468658,-0.3414248824119568,0.0270290747284889,0.0595928356051445,0.0,0.0,0.9506050056586668,0.7764144275279623
-0.0154930111020803,1.32692289352417,-0.125960424542427,-0.3093431293964386,0.0279544442892074,0.0185090117156505,0.0,0.0,-0.617370387906722,0.8159625135818384
-0.0166650768369436,1.3196251392364502,-0.1155235394835472,-0.3243107199668884,0.0262972079217433,-0.0331478603184223,0.0,0.0,0.199496535042603,-0.766872004695571
-0.0177977569401264,1.3127559423446655,-0.1124657541513443,-0.3052864074707031,0.0255043972283601,-0.0158578753471374,0.0,0.0,-0.8360873425246467,-0.7134707343677159
-0.0189755447208881,1.3055390119552612,-0.1174601465463638,-0.3207465410232544,0.0251898318529129,-0.0062919915653765,0.0,0.0,-0.4421741444769451,0.994732181226737
-0.0200530048459768,1.2979973554611206,-0.1041815429925918,-0.3351345360279083,0.021666144952178,-0.0704802796244621,0.0,0.0,0.2185266596526134,0.8057652098850753
-0.0209760665893554,1.2904412746429443,-0.0864452943205833,-0.3357481956481933,0.0158640053123235,-0.1160532608628273,0.0,0.0,0.3209416212629206,-0.8772347088617245
-0.0218512527644634,1.2835841178894043,-0.0827553421258926,-0.3047200441360473,0.0111520094797015,-0.0942484885454177,0.0,0.0,-0.1101126102433038,-0.6080271591175345
-0.0227619167417287,1.2763824462890625,-0.0864508152008056,-0.3200455009937286,0.0065924380905926,-0.0911996215581893,0.0,0.0,0.9132619771725984,0.6123493769084218
-0.0235095974057912,1.2702443599700928,-0.068486638367176,-0.2727880477905273,0.0003809032205026,-0.1242418140172958,0.0,0.0,-0.2063829092948328,-0.8614797551753812
-0.0243348125368356,1.2637673616409302,-0.0774302035570144,-0.2878769934177398,-0.0046552554704248,-0.1007320061326026,0.0,0.0,0.3342633882554493,0.6615914282678225
-0.0249919891357421,1.2578667402267456,-0.058725357055664,-0.2622870206832886,-0.011566980741918,-0.1382472217082977,0.0,0.0,0.7831118917498525,-0.9633947197241604
-0.0257075317203998,1.2523398399353027,-0.0657581537961959,-0.2456976473331451,-0.0173032265156507,-0.1147349700331687,0.0,0.0,0.3244930526258227,0.9174088728679124
-0.0262260437011718,1.2471232414245603,-0.0435255244374275,-0.2319605201482772,-0.0255315601825714,-0.1645815223455429,0.0,0.0,0.1381435837168541,0.926782868160958
-0.0266124717891216,1.2418766021728516,-0.0277119316160678,-0.2334029525518417,-0.0363489389419555,-0.2163669317960739,0.0,0.0,0.9377757813519368,-0.768950939510873
-0.0272170063108205,1.2374401092529297,-0.0498846806585788,-0.1974708437919616,-0.0468009635806083,-0.2090592086315155,0.0,0.0,0.4573645574883465,0.912419085772902
-0.0278713218867778,1.233586311340332,-0.0521077215671539,-0.1717506200075149,-0.0599749833345413,-0.2634798586368561,0.0,0.0,-0.9896176770700662,0.8031362359595452
-0.0284669883549213,0.0,-0.0438688322901725,-0.1869190037250518,-0.0755060911178588,-0.3106225132942199,0.0,0.0,0.2606599512707697,0.709354136979298
-0.0290762893855571,1.2258275747299194,-0.0429125018417835,-0.1596058756113052,-0.0933490172028541,-0.3568584322929382,0.0,0.0,-0.7715524379484964,0.7076401676044796
-0.0296478271484375,1.2219258546829224,-0.0373114421963691,-0.17477348446846,-0.113037958741188,-0.3937788605690002,0.0,0.0,0.7491067002525424,-0.8523347796450895
-0.0302596092224121,1.218472957611084,-0.0422927476465702,-0.1549950242042541,-0.1318108290433883,-0.3754575550556183,0.0,0.0,0.0901065749258815,0.7246091266341715
-0.030733298510313,1.2155126333236694,-0.0263807922601699,-0.1335590332746505,-0.1527514159679412,-0.4188118875026703,0.0,0.0,0.0981607126538495,0.8851910822697527
-0.0311616901308298,1.212646245956421,-0.0193800441920757,-0.1299668550491333,-0.1762083917856216,-0.4691394865512848,0.0,0.0,-0.3541637372586148,0.6842092825394884
-0.0315506942570209,1.2094447612762451,-0.0136555228382349,-0.1454789042472839,-0.2015726715326309,-0.5072861909866333,0.0,0.0,-0.8129181794634264,0.9017634742544264
-0.0318858139216899,1.205888748168945,-0.006085273809731,-0.1620216220617294,-0.229286253452301,-0.5542716979980469,0.0,0.0,-0.2087101734993484,0.7756477884549833
-0.0321668609976768,1.2019871473312378,0.0014351831050589,-0.1782789975404739,-0.2593222260475158,-0.6007192134857178,0.0,0.0,0.0709975764755983,0.9836242559213012
-0.0322391502559185,1.1984446048736572,0.0247014705091714,-0.1634222120046615,-0.2920595109462738,-0.6547466516494751,0.0,0.0,-0.0340998107294292,0.7474442499417422
-0.0322646126151084,1.1945527791976929,0.0311432033777236,-0.1801038831472396,-0.3269596695899963,-0.6980034112930298,0.0,0.0,0.8318110288659561,0.6963190919090133
-0.031928539276123,1.1914973258972168,0.0688206255435943,-0.144198328256607,-0.3638707995414734,-0.7382230758666992,0.0,0.0,0.0859885182283615,0.7057780641973537
-0.0313739776611328,1.1888940334320068,0.0921882838010788,-0.1255168616771698,-0.4029406607151031,-0.7813977599143982,0.0,0.0,0.9681319903274443,-0.8133663056382702
-0.0305644981563091,1.1869902610778809,0.1160928979516029,-0.0950834527611732,-0.4409343898296356,-0.7598753571510315,0.0,0.0,0.4191141676336687,-0.8172996975732738
-0.0296227447688579,1.1857887506484983,0.1278788596391677,-0.0644622966647148,-0.4780150949954986,-0.7416147589683533,0.0,0.0,-0.734592080116272,-0.9987560510635376
-0.0287405960261821,1.1843092441558838,0.1203913688659668,-0.0773113518953323,-0.5141018629074097,-0.7217367887496948,0.0,0.0,-0.1298791766166687,-0.999186396598816
-0.0279229171574115,1.1825488805770874,0.1123618334531784,-0.090182714164257,-0.549094557762146,-0.6998542547225952,0.0,0.0,-0.0573351979255676,-0.9990223050117492
-0.0271648410707712,1.1805169582366943,0.1048006191849708,-0.102541834115982,-0.5829644799232483,-0.6773993968963623,0.0,0.0,-0.4401265978813171,-0.992521107196808
-0.0264832489192485,1.178221583366394,0.0951654762029647,-0.1142734959721565,-0.6152209043502808,-0.645128607749939,0.0,0.0,0.2515450716018677,-0.9954974055290222
-0.0256930347532033,1.1759366989135742,0.1042317524552345,-0.1137718632817268,-0.6459761261940002,-0.6151039600372314,0.0,0.0,-0.2108772993087768,-0.9839123487472534
-0.0249628070741891,1.173385500907898,0.0966168642044067,-0.1255787014961242,-0.675434410572052,-0.5891657471656799,0.0,0.0,-0.1108251214027404,-0.9937683343887328
-0.0243021957576274,1.1706026792526243,0.0875488743185997,-0.1354554444551468,-0.7028945684432983,-0.5492030382156372,0.0,0.0,0.136410117149353,-0.9943416118621826
-0.0234315879642963,1.168299913406372,0.1067986115813255,-0.1137605831027031,-0.7286763787269592,-0.5156363248825073,0.0,0.0,0.1584206819534301,-0.980690062046051
-0.0223970413208007,1.1661595106124878,0.1215414032340049,-0.1061277389526367,-0.7528570294380188,-0.4836131632328033,0.0,0.0,0.4328587055206299,-0.975404977798462
-0.0209778789430856,1.1641640663146973,0.1584006547927856,-0.0991949737071991,-0.7753676772117615,-0.4502133429050445,0.0,0.0,0.3274214267730713,-0.9888282418251038
-0.0192362777888774,1.162614107131958,0.189084306359291,-0.0788254737854003,-0.7961954474449158,-0.4165557026863098,0.0,0.0,0.2201282978057861,-0.9854838848114014
-0.017251968383789,1.1610548496246338,0.211899846792221,-0.0786348357796669,-0.8153701424598694,-0.3834942281246185,0.0,0.0,0.1023740768432617,-0.9928043484687804
-0.0149280549958348,1.1597987413406372,0.2443858087062835,-0.0644556060433387,-0.8327915668487549,-0.3484288454055786,0.0,0.0,-0.1104664802551269,-0.9928249716758728
-0.012646198272705,1.158272385597229,0.2391518801450729,-0.0759951397776603,-0.8490110635757446,-0.3243899345397949,0.0,0.0,0.0061135292053222,-0.992115318775177
-0.0102489469572901,1.1568603515625,0.2492567598819732,-0.0700735673308372,-0.8633519411087036,-0.2868172824382782,0.0,0.0,0.1139684915542602,-0.9840179681777954
-0.0074393274262547,1.1556453704833984,0.2891919612884521,-0.0604887977242469,-0.8759284615516663,-0.2515317797660827,0.0,0.0,0.1361267566680908,-0.9827799797058104
-0.0042477608658373,1.154502272605896,0.3261367678642273,-0.0564309135079383,-0.8867425918579102,-0.2162826061248779,0.0,0.0,0.1091188192367553,-0.9749708771705629
-0.0006314277416095,1.1535730361938477,0.3673657178878784,-0.0460182763636112,-0.8957392573356628,-0.1799327731132507,0.0,0.0,-0.2202537655830383,-0.9880204796791076
0.0029376030433923,1.1524144411087036,0.361189067363739,-0.0550833567976951,-0.9025250673294068,-0.135716050863266,0.0,0.0,-0.2627911567687988,-0.9609214067459106
0.0064626694656908,1.1509950160980225,0.3557145595550537,-0.0658040568232536,-0.9076396822929382,-0.1022925376892089,0.0,0.0,-0.3991457223892212,-0.992234468460083
0.0099391937255859,1.1493477821350098,0.3493580222129822,-0.0746736899018287,-0.910385012626648,-0.054905742406845,0.0,0.0,-0.4328445196151733,-0.9933316707611084
0.0133812902495265,1.1474347114562988,0.3449636697769165,-0.0856688246130943,-0.9115961194038392,-0.0242218170315027,0.0,0.0,-0.585780680179596,-0.9960891008377076
0.0167844779789447,1.145273208618164,0.3398551344871521,-0.0956683680415153,-0.9108476042747498,0.0149705614894628,0.0,0.0,-0.7238644361495972,-0.9835472702980042
0.0201445575803518,1.1428587436676023,0.3342920541763305,-0.1058366373181343,-0.9080930352211,0.0550919361412525,0.0,0.0,-0.6210527420043945,-0.995435118675232
0.0234560016542673,1.1402164697647097,0.3278111815452575,-0.1145979613065719,-0.9027579426765442,0.1067022904753685,0.0,0.0,-0.7503387928009033,-0.99388587474823
0.026737118139863,1.1373308897018433,0.3234478235244751,-0.1243406236171722,-0.895353376865387,0.1480913013219833,0.0,0.0,-0.8168127536773682,-0.9773518443107604
0.0299819950014352,1.1341766119003296,0.3186333775520324,-0.1353511959314346,-0.8861560225486755,0.1839476525783538,0.0,0.0,-0.863411009311676,-0.9964939951896667
0.0331986434757709,1.1307772397994995,0.3143854737281799,-0.1451886594295501,-0.8748486042022705,0.2261495292186737,0.0,0.0,-0.9113337993621826,-0.9871726632118224
0.0363706573843956,1.1271392107009888,0.3081356883049011,-0.1545534431934356,-0.8609964847564697,0.2770428657531738,0.0,0.0,-0.9523959159851074,-0.9958990216255188
0.0395027175545692,1.1232671737670898,0.302262008190155,-0.1637122184038162,-0.8445461392402649,0.3290071785449981,0.0,0.0,-0.9675265550613404,-0.9924548864364624
0.0426051132380962,1.1191414594650269,0.2976023554801941,-0.1740456968545913,-0.8259497880935669,0.3719266057014465,0.0,0.0,-0.9769758582115172,-0.9788087606430054
0.0456701293587684,1.1147881746292114,0.2917028367519378,-0.1829807758331298,-0.8046085238456726,0.4268253743648529,0.0,0.0,-0.982589066028595,-0.972240149974823
0.048710823059082,1.110170841217041,0.2875069975852966,-0.1939696967601776,-0.7812811136245728,0.4665482938289642,0.0,0.0,-0.988603413105011,-0.9084044098854064
0.0517188087105751,1.105293035507202,0.2822053134441376,-0.2047865688800811,-0.75572270154953,0.5111680626869202,0.0,0.0,-0.98750901222229,-0.8306277394294739
0.0547063834965229,1.100134015083313,0.2783933281898498,-0.2168004959821701,-0.728416919708252,0.5461157560348511,0.0,0.0,-0.9887385964393616,-0.6996050477027893
0.057675264775753,1.09469473361969,0.2746596038341522,-0.2288680970668792,-0.699343204498291,0.5814747214317322,0.0,0.0,-0.9918936491012572,-0.5410250425338745
0.0606427192687988,1.0889689922332764,0.2728538513183594,-0.2414534538984298,-0.6688777804374695,0.6093091368675232,0.0,0.0,-0.9916242361068726,-0.4525762796401977
0.0636404007673263,1.0829124450683594,0.2751395404338836,-0.2565551400184631,-0.6382125616073608,0.6133029460906982,0.0,0.0,-0.9896140694618224,-0.5222453474998474
0.0666337013244628,1.0765734910964966,0.2728069424629211,-0.2690212428569793,-0.6059646010398865,0.6449593901634216,0.0,0.0,-0.9929993152618408,-0.3668868541717529
0.0696604698896408,1.0699052810668943,0.2753404974937439,-0.2841319143772125,-0.5734657049179077,0.6499782800674438,0.0,0.0,-0.988844871520996,-0.1367291808128357
0.0727220550179481,1.062908172607422,0.2780013382434845,-0.2992448210716247,-0.5406916737556458,0.6554800868034363,0.0,0.0,-0.9891168475151062,-0.485898494720459
0.0758197754621505,1.055582880973816,0.2807891964912414,-0.3143602013587951,-0.5076196193695068,0.661442756652832,0.0,0.0,-0.992733120918274,-0.2342507243156433
0.0789547935128212,1.0479296445846558,0.2837035059928894,-0.32947838306427,-0.4742274284362793,0.6678436994552612,0.0,0.0,-0.9874374270439148,-0.7381698489189148
0.0820776000618934,1.039993166923523,0.2801976799964905,-0.3421715199947357,-0.4389092028141022,0.7063649296760559,0.0,0.0,-0.9794344902038574,-0.5135775804519653
0.0852097496390342,1.031753659248352,0.2794062793254852,-0.3560636639595032,-0.4023155570030212,0.7318732142448425,0.0,0.0,-0.9918397665023804,-0.9153872132301332
0.0883179679512977,1.0232234001159668,0.2744085192680359,-0.3692932724952698,-0.3635355830192566,0.7755999565124512,0.0,0.0,-0.979950189590454,-0.6386852264404297
0.0914286598563194,1.014390230178833,0.2726759016513824,-0.3833720088005066,-0.3232554495334625,0.8056033849716187,0.0,0.0,-0.992891788482666,-0.6883795857429504
0.0945449844002723,1.0052573680877686,0.271286129951477,-0.3974543213844299,-0.2815019488334656,0.8350707292556763,0.0,0.0,-0.9943609237670898,-0.2279936671257019
0.0977066978812217,0.9958065152168274,0.274920105934143,-0.4126358926296234,-0.2393219321966171,0.8436012268066406,0.0,0.0,-0.9788963198661804,0.1342664957046508
0.1009147614240646,0.9860389828681946,0.2786747813224792,-0.4278232753276825,-0.1967009156942367,0.8524209260940552,0.0,0.0,-0.9564295411109924,0.3329405784606933
0.1041697487235069,0.9759557247161864,0.2825483977794647,-0.4430166482925415,-0.1536253839731216,0.8615113496780396,0.0,0.0,-0.9959357380867004,0.6222419738769531
0.1075310707092285,0.9655451774597168,0.2939334809780121,-0.4588742852210998,-0.1115840822458267,0.8408271074295044,0.0,0.0,-0.9689299464225768,0.8917537927627563
0.1110215187072753,0.9547945857048036,0.3082476854324341,-0.4752508699893951,-0.0711442083120346,0.8087981939315796,0.0,0.0,-0.9613825082778932,0.8912279605865479
0.1146244034171104,0.9437167048454284,0.3205157220363617,-0.4909325540065765,-0.0318335704505443,0.7862139940261841,0.0,0.0,-0.6339172124862671,0.4071857929229736
0.1182762160897255,0.9323207139968872,0.3248467743396759,-0.5061128735542297,0.0079793836921453,0.7962598204612732,0.0,0.0,-0.7141404151916504,0.7404849529266357
0.1220336928963661,0.9206069707870485,0.3363520801067352,-0.5212723016738892,0.0468886271119117,0.7781855463981628,0.0,0.0,-0.4609279036521911,0.968364953994751
0.1259016990661621,0.908587634563446,0.3484848737716675,-0.535822331905365,0.0847889557480812,0.7580069303512573,0.0,0.0,0.3011617660522461,0.7808680534362793
0.129912182688713,0.8970919251441956,0.3638017773628235,-0.5134457945823669,0.1217544674873352,0.7393108010292053,0.0,0.0,0.669739842414856,0.8289910554885864
0.1338869035243988,0.8864118456840515,0.3616056740283966,-0.4779858589172363,0.1574979424476623,0.7148697376251221,0.0,0.0,0.8426574468612671,0.4458186626434326
0.1376912146806717,0.8766264319419861,0.3446456789970398,-0.4390836060047149,0.1933614015579223,0.7172694802284241,0.0,0.0,-0.7953372597694397,0.8321022987365723
0.1416099518537521,0.8665357828140259,0.357367992401123,-0.4533568918704986,0.2281778752803802,0.6963304281234741,0.0,0.0,-0.4433417320251465,0.950006365776062
0.1456400901079177,0.8561446666717529,0.3697594404220581,-0.4673305153846741,0.2620095312595367,0.6766330003738403,0.0,0.0,0.7269294261932373,0.993367314338684
0.1494872123003006,0.8461835980415344,0.353362500667572,-0.4486424326896667,0.2941741049289703,0.6432923674583435,0.0,0.0,-0.2097885608673095,0.9910364151000975
0.1534751951694488,0.8359441161155701,0.3694788813591003,-0.4613042771816253,0.3245355784893036,0.6072300672531128,0.0,0.0,0.5408852100372314,0.9955606460571288
0.1575462371110916,0.8259291052818298,0.3794076442718506,-0.4515910148620605,0.3535082340240478,0.5794536471366882,0.0,0.0,0.652621865272522,0.9924360513687134
0.1616337746381759,0.8167950510978699,0.3825532793998718,-0.412657082080841,0.3811981379985809,0.5537987947463989,0.0,0.0,0.8679637908935547,0.9530081748962402
0.1654919683933258,0.8085886240005493,0.3612346053123474,-0.3715160489082336,0.4074555933475494,0.525149941444397,0.0,0.0,0.9003201723098755,0.9969654083251952
0.1692538261413574,0.8015741109848022,0.3530081510543823,-0.3186361193656921,0.4324932396411896,0.5007538199424744,0.0,0.0,0.8409490585327148,0.9925928115844728
0.1729592382907867,0.7952194809913635,0.3488505780696869,-0.2892896234989166,0.4561912417411804,0.4739606976509094,0.0,0.0,0.8161545991897583,0.9518179893493652
0.1763835847377777,0.7897964119911194,0.3222659528255462,-0.2477835863828659,0.4784712195396423,0.4455998539924621,0.0,0.0,0.7893872261047363,0.99745774269104
0.1796057671308517,0.7852921485900879,0.3035407960414886,-0.2067938894033432,0.4993375241756439,0.4173263907432556,0.0,0.0,0.8900606632232666,0.9863789081573486
0.1827954351902008,0.7812733054161072,0.3016688227653503,-0.1850408464670181,0.518882691860199,0.3909030556678772,0.0,0.0,0.5989717245101929,0.9798517227172852
0.1856979429721832,0.7776618003845215,0.274537444114685,-0.1665999591350555,0.5368310809135437,0.3589677512645721,0.0,0.0,0.8986239433288574,0.972404718399048
0.1882840096950531,0.7744120955467224,0.244521290063858,-0.150107130408287,0.5530838370323181,0.3250557780265808,0.0,0.0,0.8346748352050781,0.9910562038421632
0.190645694732666,0.7716692686080933,0.2235345542430877,-0.1271826922893524,0.5677986145019531,0.294295996427536,0.0,0.0,0.752084493637085,0.9926998615264891
0.1928566992282867,0.7693954706192017,0.2098377496004104,-0.1059140712022781,0.5810391306877136,0.2648103535175323,0.0,0.0,0.9820716381072998,0.8760608434677124
0.1950964033603668,0.7675207853317261,0.2135911285877227,-0.087916798889637,0.5933415293693542,0.2460475862026214,0.0,0.0,0.9798067808151244,0.9424285888671876
0.1971063613891601,0.766505241394043,0.1917068511247635,-0.0493514388799667,0.6044334769248962,0.2218391150236129,0.0,0.0,0.9917269945144652,0.9775575399398804
0.1987129151821136,0.766457736492157,0.1526466161012649,-0.0058225155808031,0.6140663623809814,0.1926573812961578,0.0,0.0,0.9881234169006348,0.9756444692611694
0.2003018409013748,0.7666676044464111,0.1520452350378036,0.0060796262696385,0.6223534941673279,0.1657423824071884,0.0,0.0,0.9666085243225098,0.9915157556533812
