x_pos,y_pos,x_vel,y_vel,angle,ang_vel,leg_1,leg_2,main_booster,lat_booster
-0.0016543387901037,1.403045892715454,-0.1677062213420868,-0.3499606549739837,0.0020309602841734,0.0400823876261711,0.0,0.0,-0.2080856561660766,0.7111517190933228
-0.0033794404007494,1.394613265991211,-0.1731444299221038,-0.3747869729995727,0.0026639082934707,0.0126607837155461,0.0,0.0,0.4861199855804443,0.8190625905990601
-0.0050374986603856,1.3861414194107056,-0.1652131080627441,-0.3765203654766083,0.0020837236661463,-0.0116047579795122,0.0,0.0,-0.1666142344474792,0.887531042098999
-0.0067697525955736,1.37708842754364,-0.171415627002716,-0.4023574590682983,0.0002900379477068,-0.0358772650361061,0.0,0.0,0.5279783010482788,0.2458429336547851
-0.0085127828642725,1.3683615922927856,-0.1732732951641082,-0.3878563940525055,-0.0007290492067113,-0.0203837510198354,0.0,0.0,0.1670616865158081,0.9505311250686646
-0.01019630394876,1.359630107879639,-0.1656615436077118,-0.3880683779716491,-0.003384381532669,-0.0531118288636207,0.0,0.0,0.374476671218872,0.942126989364624
-0.0119544025510549,1.3510407209396362,-0.1714435517787933,-0.3817677199840545,-0.0077074039727449,-0.0864683240652084,0.0,0.0,-0.4178023338317871,0.6526957750320435
-0.013776684179902,1.341874122619629,-0.1764618754386901,-0.4074392914772033,-0.0134194856509566,-0.1142517700791359,0.0,0.0,-0.3987132310867309,0.5344948768615723
-0.0156855583190917,1.33213472366333,-0.1842888593673706,-0.4329369664192199,-0.0199400763958692,-0.1304238885641098,0.0,0.0,-0.1135011911392211,0.807712197303772
-0.0176579467952251,1.321820616722107,-0.1892617344856262,-0.4585318565368652,-0.0278247632086277,-0.1577085107564926,0.0,0.0,-0.1889976263046264,0.785844087600708
-0.019685935229063,1.3109264373779297,-0.1932709813117981,-0.4843862354755401,-0.0372504144906997,-0.1885301321744918,0.0,0.0,-0.2966846823692322,0.9912607669830322
-0.0217524524778127,1.2994482517242432,-0.1951470375061035,-0.5104653835296631,-0.0486285910010337,-0.2275843322277069,0.0,0.0,-0.0443282127380371,0.905911922454834
-0.0238567348569631,1.2873917818069458,-0.1969846189022064,-0.5363311171531677,-0.0619432292878627,-0.266317069530487,0.0,0.0,-0.0005354285240173,0.8704001903533936
-0.0260088928043842,1.2747443914413452,-0.2000888288021087,-0.5628103613853455,-0.0769333094358444,-0.2998295426368713,0.0,0.0,0.2231135368347168,0.7466728687286377
-0.028059959411621,1.2624213695526123,-0.1889068186283111,-0.5486049056053162,-0.0930042937397956,-0.3214488625526428,0.0,0.0,-0.330651044845581,-0.011703073978424
-0.0302329063415527,1.249522686004639,-0.201368972659111,-0.5743427872657776,-0.1088171452283859,-0.3162858188152313,0.0,0.0,-0.4191396832466125,0.6445281505584717
-0.0324637405574321,1.2360460758209229,-0.2058769166469574,-0.6003053188323975,-0.1259429007768631,-0.3425463736057281,0.0,0.0,0.1762657165527343,0.2928484678268432
-0.034679889678955,1.2223719358444214,-0.2051809281110763,-0.6092046499252319,-0.1423293054103851,-0.3277581632137298,0.0,0.0,0.272341251373291,-0.0605484843254089
-0.0368524566292762,1.2090240716934204,-0.201473668217659,-0.594817578792572,-0.1581013053655624,-0.3154686093330383,0.0,0.0,0.3761682510375976,-0.2962348461151123
-0.0391338355839252,1.1958144903182983,-0.2123547494411468,-0.5888456106185913,-0.1739206910133361,-0.316416323184967,0.0,0.0,0.0560340881347656,-0.679864764213562
-0.0414081588387489,1.182733416557312,-0.2133934944868087,-0.5830885767936707,-0.1880151033401489,-0.2819134593009949,0.0,0.0,0.2823694944381714,-0.7360774874687195
-0.043779470026493,1.1695905923843384,-0.224881574511528,-0.5857245326042175,-0.2003546208143234,-0.2468128502368927,0.0,0.0,-0.1114310026168823,-0.5952872037887573
-0.0462990775704383,1.155880570411682,-0.2409335374832153,-0.6108688116073608,-0.2114876061677932,-0.2226797640323639,0.0,0.0,0.2166731357574463,-0.0951521396636962
-0.048830222338438,1.1419135332107544,-0.2426204234361648,-0.6222890019416809,-0.2221118211746215,-0.2125033885240554,0.0,0.0,0.8632800579071045,0.2160567045211792
-0.0514657013118267,1.128483533859253,-0.2526204288005829,-0.5985679030418396,-0.2332083135843277,-0.2219495773315429,0.0,0.0,0.7069739103317261,-0.4763656854629516
-0.0541889183223247,1.1155688762664795,-0.260969340801239,-0.5758233666419983,-0.2447313070297241,-0.2304596602916717,0.0,0.0,0.6180765628814697,-0.1970088481903076
-0.0568394660949707,1.1031105518341064,-0.2540293931961059,-0.5555768609046936,-0.2559689581394195,-0.2247523963451385,0.0,0.0,0.3654030561447143,-0.8953048586845398
-0.0596042647957801,1.09114670753479,-0.2674078345298767,-0.5333369374275208,-0.2652275264263153,-0.1851720511913299,0.0,0.0,-0.5789506435394287,-0.8515322804450989
-0.0625446289777755,1.0786430835723877,-0.2872993350028991,-0.556946337223053,-0.2721163630485534,-0.13777656853199,0.0,0.0,0.746232271194458,0.0280083417892456
-0.0654627829790115,1.066314458847046,-0.2852490544319153,-0.5491812825202942,-0.2788437008857727,-0.1345468461513519,0.0,0.0,-0.0836589336395263,-0.3034068346023559
-0.0684723854064941,1.0534067153930664,-0.2946731746196747,-0.5748873353004456,-0.2853085100650787,-0.1292960941791534,0.0,0.0,0.8902140855789185,-0.6805124878883362
-0.0715731605887413,1.0407012701034546,-0.3051588535308838,-0.5656639933586121,-0.2903682589530945,-0.1011952757835388,0.0,0.0,0.670262336730957,0.3986052274703979
-0.0746058449149131,1.0286171436309814,-0.2982441186904907,-0.5380840301513672,-0.2955556809902191,-0.1037484854459762,0.0,0.0,-0.4668906927108764,-0.692375659942627
-0.0777775794267654,1.0159741640090942,-0.3138924241065979,-0.5625789165496826,-0.2989365458488464,-0.0676170364022255,0.0,0.0,0.4465523958206177,0.1830776929855346
-0.0808493643999099,1.003532648086548,-0.3042253255844116,-0.5535610318183899,-0.3019978702068329,-0.0612264573574066,0.0,0.0,-0.1068774461746215,0.4620541334152221
-0.083992101252079,0.9905120730400084,-0.3115597367286682,-0.5792639255523682,-0.3048081994056701,-0.0562067404389381,0.0,0.0,-0.2010226249694824,0.8014998435974121
-0.0871440917253494,0.9768811464309692,-0.311212956905365,-0.6066648364067078,-0.3089354634284973,-0.0825450867414474,0.0,0.0,0.1768609285354614,0.7532289028167725
-0.0901047736406326,0.9634101390838624,-0.2908800542354584,-0.5998230576515198,-0.3143178820610046,-0.1076475754380226,0.0,0.0,0.3867599964141845,0.3215314149856567
-0.0929335579276084,0.9503843188285828,-0.2777722775936126,-0.5800387263298035,-0.3196114897727966,-0.1058722734451294,0.0,0.0,0.7308080196380615,0.283294677734375
-0.0955835357308387,0.9376723766326904,-0.2602775692939758,-0.5660301446914673,-0.3245301246643066,-0.0983727872371673,0.0,0.0,0.2338171005249023,0.2931017875671386
-0.0981675162911415,0.9252459406852722,-0.2535394430160522,-0.5533773899078369,-0.3295832276344299,-0.1010629162192344,0.0,0.0,0.7576029300689697,0.5927078723907471
-0.1004316359758377,0.9129387140274048,-0.2209740877151489,-0.5482404828071594,-0.3352595567703247,-0.1135266050696373,0.0,0.0,0.6049666404724121,0.3995904922485351
-0.1025376319885253,0.9004372954368591,-0.2058123350143432,-0.5567386746406555,-0.3402727246284485,-0.1002635732293129,0.0,0.0,0.8485623598098755,-0.3971867561340332
-0.1043664962053299,0.8881375193595886,-0.1788022816181183,-0.5476285815238953,-0.3445494771003723,-0.0855358093976974,0.0,0.0,0.8157168626785278,-0.7093287110328674
-0.1062045097351074,0.8757602572441101,-0.1812042742967605,-0.5507230758666992,-0.347273051738739,-0.0544716343283653,0.0,0.0,0.7814040184020996,-0.8999460339546204
-0.1079487800598144,0.863311231136322,-0.1738690435886383,-0.5534211993217468,-0.3478603065013885,-0.0117448437958955,0.0,0.0,0.7420811653137207,-0.9309110641479492
-0.1095401793718338,0.8509433269500732,-0.1606961786746978,-0.5493082404136658,-0.3462313115596771,0.032580591738224,0.0,0.0,0.8991436958312988,-0.806250810623169
-0.1109950989484787,0.8394606113433838,-0.1485565900802612,-0.509608805179596,-0.3430238962173462,0.0641481876373291,0.0,0.0,0.8273546695709229,-0.8077335953712463
-0.1123583763837814,0.8287500739097595,-0.1408626735210418,-0.4749523997306824,-0.3382671177387237,0.0951357036828994,0.0,0.0,0.8646409511566162,-0.5135723948478699
-0.1135786995291709,0.8183040618896484,-0.1277064383029937,-0.4629457294940948,-0.3323375582695007,0.1185913458466529,0.0,0.0,0.8551654815673828,-0.6599061489105225
-0.1144538894295692,0.8081291317939758,-0.0950808376073837,-0.4505032002925873,-0.324442595243454,0.1578992009162902,0.0,0.0,0.1587215662002563,-0.1702138781547546
-0.1151749640703201,0.7981295585632324,-0.0797043144702911,-0.4427455961704254,-0.3165459632873535,0.1579329073429107,0.0,0.0,-0.5814241766929626,0.2943551540374756
-0.1158624663949012,0.7875516414642334,-0.0765306949615478,-0.4684542417526245,-0.3084649741649627,0.1616196632385254,0.0,0.0,-0.4377900958061218,-0.3112505674362182
-0.1165101081132888,0.7763953804969788,-0.0727540627121925,-0.4941633343696594,-0.3002037703990936,0.1652238517999649,0.0,0.0,-0.6335216164588928,0.0340586900711059
-0.1171123534440994,0.7646607756614685,-0.06839469820261,-0.5198728442192078,-0.2917663753032684,0.168747216463089,0.0,0.0,-0.7611172795295715,-0.1397730112075805
-0.1176635771989822,0.7523480653762817,-0.0634746477007865,-0.5455828905105591,-0.2831568419933319,0.1721907258033752,0.0,0.0,-0.7512040734291077,0.3952863216400146
-0.1181583404541015,0.7394571304321289,-0.0580173656344413,-0.5712934136390686,-0.2743788957595825,0.17555832862854,0.0,0.0,-0.8145920038223267,0.5651767253875732
-0.1185384765267372,0.7259681224822998,-0.0453626587986946,-0.5981526970863342,-0.2668424248695373,0.150728553533554,0.0,0.0,-0.94927179813385,0.3560161590576172
-0.1188521385192871,0.7119008898735046,-0.0389042720198631,-0.623862087726593,-0.2591449320316314,0.1539499908685684,0.0,0.0,-0.5823160409927368,0.4569710493087768
-0.119095042347908,0.6972553133964539,-0.0319838263094425,-0.64957195520401,-0.2512898445129394,0.1571019440889358,0.0,0.0,-0.5815730094909668,0.0999670028686523
-0.1192625984549522,0.6820316910743713,-0.0246268827468156,-0.6752821803092957,-0.2432805001735687,0.1601867377758026,0.0,0.0,-0.6252923607826233,0.2976447343826294
-0.1193509101867675,0.6662298440933228,-0.016858797520399,-0.70099276304245,-0.2351201623678207,0.1632067710161209,0.0,0.0,-0.2884343266487121,0.7037959098815918
-0.1192912086844444,0.6498247385025024,-0.0005387786077335,-0.7280890941619873,-0.22852423787117,0.1319185197353363,0.0,0.0,-0.3145036697387695,-0.4941776990890503
-0.119144819676876,0.6328415274620056,0.0079781683161854,-0.7537983059883118,-0.2217834144830703,0.1348165571689605,0.0,0.0,0.5788716077804565,-0.3030790090560913
-0.11881685256958,0.6158379316329956,0.0259562171995639,-0.7546995282173157,-0.214866042137146,0.1383474320173263,0.0,0.0,0.4173917770385742,-0.2240984439849853
-0.1183913201093673,0.5990332961082458,0.036049984395504,-0.7459448575973511,-0.208300769329071,0.1313053518533706,0.0,0.0,0.7755898237228394,-0.3148208856582641
-0.1176569014787674,0.5829930305480957,0.0666900649666786,-0.7119665741920471,-0.2014923840761184,0.1361677497625351,0.0,0.0,0.5374300479888916,-0.3804185390472412
-0.1166943535208702,0.5667515397071838,0.0890093445777893,-0.7208725214004517,-0.1941968351602554,0.1459109038114547,0.0,0.0,0.1315634250640869,-0.2434290647506714
-0.1154993996024131,0.5507872700691223,0.1120183616876602,-0.7085636258125305,-0.1866844147443771,0.1502483189105987,0.0,0.0,0.0691292285919189,-0.6660213470458984
-0.1142639145255088,0.5347275733947754,0.1146774142980575,-0.7126708626747131,-0.1777815818786621,0.1780564188957214,0.0,0.0,-0.12703937292099,-0.6314423680305481
-0.1129788383841514,0.5181082487106323,0.1180400997400283,-0.7374165654182434,-0.167291834950447,0.2097948491573333,0.0,0.0,-0.0489341020584106,-0.5612409710884094
-0.1116272956132888,0.5009235143661499,0.1234828978776931,-0.7624990940093994,-0.1556109935045242,0.2336165606975555,0.0,0.0,0.5568583011627197,-0.4285448789596557
-0.1101624518632888,0.4843691885471344,0.1352213025093078,-0.7346078753471375,-0.1443706005811691,0.2248081415891647,0.0,0.0,-0.0662901997566223,-0.6487053632736206
-0.1086307540535926,0.4672477543354034,0.1406289935111999,-0.7597829699516296,-0.1318727284669876,0.2499570399522781,0.0,0.0,0.6560940742492676,-0.1688330173492431
-0.1069680228829383,0.4501393437385559,0.1537550389766693,-0.759312629699707,-0.119415059685707,0.2491533309221267,0.0,0.0,0.7048122882843018,-0.5083840489387512
-0.1051170378923416,0.432942658662796,0.1712139695882797,-0.7632430791854858,-0.1056213453412056,0.2758743166923523,0.0,0.0,0.9264836311340332,-0.4485025405883789
-0.1031451225280761,0.4157661497592926,0.1833402514457702,-0.7624804973602295,-0.0918870568275451,0.2746861577033996,0.0,0.0,0.8497482538223267,0.0146949291229248
-0.1009841933846473,0.3993413150310516,0.2021721303462982,-0.729194700717926,-0.0780876502394676,0.2759881317615509,0.0,0.0,0.6100378036499023,0.0992879867553711
-0.0985652953386306,0.3835202753543854,0.2274723052978515,-0.7024675607681274,-0.0638217031955719,0.2853188216686249,0.0,0.0,0.4639788866043091,0.011651873588562
-0.0960804000496864,0.3682170212268829,0.2344247102737426,-0.6796045303344727,-0.0499126762151718,0.2781805694103241,0.0,0.0,0.6464178562164307,-0.1253516674041748
-0.0935877785086631,0.3528418838977813,0.2356846332550048,-0.6829420924186707,-0.0364997722208499,0.2682581543922424,0.0,0.0,0.7589409351348877,-0.2593348026275635
-0.0909008011221885,0.3381499648094177,0.2548250555992126,-0.6526955366134644,-0.0227908175438642,0.2741790413856506,0.0,0.0,0.6683045625686646,-0.1296806335449218
-0.0881812125444412,0.3237568736076355,0.2584584355354309,-0.6395387649536133,-0.0094607537612319,0.2666013538837433,0.0,0.0,0.3337002992630005,-0.4851299524307251
-0.0853783637285232,0.3096091151237488,0.2668920457363128,-0.6287587881088257,0.0037558835465461,0.2643328607082367,0.0,0.0,0.8228772878646851,-0.392145037651062
-0.0824687033891677,0.2960424423217773,0.2775472700595855,-0.603049635887146,0.0169994831085205,0.2648718357086181,0.0,0.0,0.3667187690734863,-0.4107966423034668
-0.0793716460466384,0.2826234400272369,0.2958679795265198,-0.5966134667396545,0.0306613221764564,0.2732369601726532,0.0,0.0,0.8375842571258545,-0.2722980976104736
-0.076136015355587,0.2692005932331085,0.3095334768295288,-0.5969164967536926,0.0445261262357234,0.2772961258888244,0.0,0.0,0.847478985786438,-0.4564290046691894
-0.072692297399044,0.2558836042881012,0.3297801613807678,-0.59236079454422,0.0589479580521583,0.2884366512298584,0.0,0.0,0.958184003829956,-0.555533230304718
-0.0690226554870605,0.2430172264575958,0.3506454229354858,-0.5725609064102173,0.0750851705670356,0.3227440416812897,0.0,0.0,0.868140459060669,-0.5834388136863708
-0.065139390528202,0.2302526980638504,0.370327889919281,-0.5683145523071289,0.0929146036505699,0.356588751077652,0.0,0.0,0.9718559980392456,-0.5048741698265076
-0.0612610802054405,0.218250572681427,0.3688095211982727,-0.5347214341163635,0.11179169267416,0.3775421380996704,0.0,0.0,0.9154214859008788,-0.1684814691543579
-0.0573195442557334,0.2069916576147079,0.3749358057975769,-0.5019426941871643,0.130894660949707,0.3820593655109405,0.0,0.0,0.8748548030853271,-0.3767800331115722
-0.0532109253108501,0.1963129639625549,0.3909809589385986,-0.4764752388000488,0.15070641040802,0.396235316991806,0.0,0.0,0.8130719661712646,-0.583535373210907
-0.0489583015441894,0.1856029331684112,0.4039202332496643,-0.4783019721508026,0.1720552891492843,0.4269775748252868,0.0,0.0,0.9773250818252563,-0.4388357996940613
-0.0447461120784282,0.1752050518989563,0.400203138589859,-0.4647013247013092,0.1931580603122711,0.4220550060272217,0.0,0.0,0.9393599033355712,-0.1425964832305908
-0.0405047424137592,0.1657543778419494,0.4027009010314941,-0.4229719936847687,0.2147596031427383,0.4320308268070221,0.0,0.0,0.6927088499069214,0.1892273426055908
-0.036285113543272,0.1565782874822616,0.4007119536399841,-0.4110614955425262,0.2362843155860901,0.4304943680763244,0.0,0.0,0.9022879600524902,-0.1496812105178833
-0.0322931297123432,0.1481150984764099,0.378671795129776,-0.3795721232891083,0.2571741044521332,0.4177960455417633,0.0,0.0,0.3886778354644775,0.4428915977478027
-0.0282536502927541,0.1399580389261245,0.3831854462623596,-0.366315484046936,0.2784239947795868,0.4249981045722961,0.0,0.0,0.7150707244873047,0.3900781869888305
-0.0243556983768939,0.1323287636041641,0.3693855702877044,-0.3431071043014526,0.2994322180747986,0.4201649725437164,0.0,0.0,0.7571486234664917,-0.0262425541877746
-0.0206508636474609,0.1252291351556778,0.3505858778953552,-0.3197698295116424,0.3200423717498779,0.4122035503387451,0.0,0.0,0.6652584075927734,0.1579962968826294
-0.017002010717988,0.1182591766119003,0.34523406624794,-0.3142504096031189,0.3405388295650482,0.409928947687149,0.0,0.0,0.3833680152893066,0.2209924459457397
-0.0134878158569335,0.1113789901137352,0.3323473036289215,-0.3104216158390045,0.3605788350105285,0.4008001685142517,0.0,0.0,0.516777515411377,0.0609272718429565
-0.0101469038054347,0.1045269072055816,0.3157670199871063,-0.3092635571956634,0.3799682259559631,0.3877876996994018,0.0,0.0,0.6087121963500977,0.1452200412750244
-0.0068444251082837,0.0981330946087837,0.3116447031497955,-0.2892480790615082,0.3998157978057861,0.3969515562057495,0.0,0.0,0.4901348352432251,-0.1001866459846496
-0.003495407057926,0.091657817363739,0.3162412047386169,-0.2931808531284332,0.4198931455612182,0.4015468657016754,0.0,0.0,0.7010724544525146,0.4747840166091919
-0.0002053260832326,0.0857761204242706,0.3099012672901153,-0.2672308683395386,0.4406276643276214,0.4146901071071625,0.0,0.0,0.5058536529541016,0.6729757785797119
0.0029329298995435,0.0803044140338897,0.2962722182273865,-0.2488292902708053,0.4598674774169922,0.3847964406013489,0.0,0.0,0.4684418439865112,0.095818281173706
0.0059721944853663,0.0753639340400695,0.286049485206604,-0.2256137430667877,0.4796455502510071,0.3955616056919098,0.0,0.0,0.3034520149230957,0.3170533180236816
0.0089777950197458,0.0704996213316917,0.2826722860336303,-0.2225382775068283,0.4996463060379028,0.400015115737915,0.0,0.0,0.2796224355697632,0.5875835418701172
0.0118370056152343,0.0659269914031028,0.2694021761417389,-0.2093641310930252,0.5183245539665222,0.3735648989677429,0.0,0.0,0.4006191492080688,0.7709434032440186
0.014589118771255,0.0617424584925174,0.2602775692939758,-0.1917602121829986,0.5353625416755676,0.3407597839832306,0.0,0.0,0.0655761957168579,0.4683501720428467
0.0173583030700683,0.0574035011231899,0.2620057761669159,-0.1988460123538971,0.5525634288787842,0.3440174460411072,0.0,0.0,0.3972640037536621,0.9492915868759156
0.0199932102113962,0.0544651597738266,0.2645324766635895,-0.1301448047161102,0.5514231324195862,-0.0227064564824104,0.0,1.0,0.9691176414489746,0.9982187747955322
0.0221397392451763,0.0526131503283977,0.2329623699188232,-0.0749602988362312,0.5303348302841187,-0.4217523634433746,0.0,1.0,0.9769659042358398,0.0419214963912963
0.023748779669404,0.0514575093984603,0.1915524303913116,-0.0398111604154109,0.4955713152885437,-0.6952836513519287,0.0,1.0,0.956368923187256,-0.8413251042366028
0.0249854084104299,0.0506435483694076,0.1560766398906707,-0.0249460041522979,0.459505021572113,-0.7213322520256042,0.0,1.0,0.783841609954834,-0.7322974801063538
0.0261737816035747,0.0498231500387191,0.1484857201576233,-0.0270371194928884,0.4270770847797394,-0.6485592722892761,0.0,1.0,0.788698673248291,-0.6830407977104187
0.0271061901003122,0.0494874827563762,0.121771790087223,-0.0065772915259003,0.3963223099708557,-0.6150960922241211,0.0,0.0,-0.999788761138916,-0.9649032950401306
0.0280899051576852,0.0485502816736698,0.1255707889795303,-0.0343425348401069,0.3673703968524933,-0.5790383219718933,0.0,0.0,-0.9993740916252136,-0.9282299280166626
0.0291360858827829,0.0469991080462932,0.1305852830410003,-0.0625189691781997,0.340032696723938,-0.5467537641525269,0.0,0.0,-0.996654748916626,-0.8356299996376038
