x_pos,y_pos,x_vel,y_vel,angle,ang_vel,leg_1,leg_2,main_booster,lat_booster
-0.0016276359092444,1.4032049179077148,-0.1647486239671707,-0.3429059088230133,0.0017749449471011,0.0350133515894413,0.0,0.0,-0.3596429824829101,0.8645064830780029
-0.0032853125594556,1.3950889110565186,-0.1655761152505874,-0.3607098758220672,0.0015923912869766,-0.0036505374591797,0.0,0.0,0.2467895746231079,0.5933642387390137
-0.0048879622481763,1.3870060443878174,-0.1590773165225982,-0.3592375218868255,0.0004146781284362,-0.023556400090456,0.0,0.0,-0.0709180235862732,0.6728143692016602
-0.006549262907356,1.378501057624817,-0.1638234853744506,-0.3779965937137604,-0.0018685447284951,-0.0456685945391655,0.0,0.0,-0.1038389801979065,0.4699839353561401
-0.0083105089142918,1.3695765733718872,-0.173777550458908,-0.3966503143310547,-0.0041792360134422,-0.0462182611227035,0.0,0.0,-0.212690532207489,0.8929610252380371
-0.0100839613005518,1.360230565071106,-0.1727928668260574,-0.4153933823108673,-0.0086781680583953,-0.0899872407317161,0.0,0.0,0.3965492248535156,0.4818481206893921
-0.0119691845029592,1.351197600364685,-0.183881476521492,-0.4014979600906372,-0.0132776442915201,-0.0919980257749557,0.0,0.0,0.1772984266281128,0.8153426647186279
-0.0137574197724461,1.3424354791641235,-0.1726483702659607,-0.3895018398761749,-0.0193865075707435,-0.1221883445978164,0.0,0.0,-0.7717398405075073,0.3413915634155273
-0.0156397819519042,1.3332538604736328,-0.1820640712976455,-0.4081624448299408,-0.0254893694072961,-0.1220686808228492,0.0,0.0,-0.0403362512588501,0.6573672294616699
-0.0175629612058401,1.323655366897583,-0.1848397552967071,-0.4267459213733673,-0.0328801348805427,-0.147828921675682,0.0,0.0,-0.1841266751289367,0.8283464908599854
-0.0195023529231548,1.313634991645813,-0.184595376253128,-0.4455846548080444,-0.0421269163489341,-0.1849528700113296,0.0,0.0,-0.1821852922439575,0.6609369516372681
-0.0214727409183979,1.303191065788269,-0.186248168349266,-0.464512288570404,-0.0528111346065998,-0.2137040197849273,0.0,0.0,-0.3988170027732849,0.8424906730651855
-0.023449707776308,1.292327046394348,-0.1848875433206558,-0.4833422899246216,-0.0654942020773887,-0.2536846697330475,0.0,0.0,-0.31104177236557,0.6832221746444702
-0.0254525188356637,1.281033635139465,-0.1859917491674423,-0.5026218295097351,-0.0796513259410858,-0.2831688821315765,0.0,0.0,-0.6619334816932678,0.1356872320175171
-0.0275388713926076,1.2693228721618652,-0.1944030970335006,-0.5212935209274292,-0.0937644317746162,-0.2822880744934082,0.0,0.0,-0.1406450271606445,0.7017085552215576
-0.029642105102539,1.2571780681610107,-0.1945060938596725,-0.5408426523208618,-0.109481394290924,-0.3143678605556488,0.0,0.0,-0.1420164108276367,0.8457610607147217
-0.031742475926876,1.2446134090423584,-0.192235380411148,-0.5598337054252625,-0.1272096037864685,-0.3545963764190674,0.0,0.0,-0.0262793898582458,-0.3230328559875488
-0.0339202880859375,1.231632947921753,-0.2000623047351837,-0.5785167813301086,-0.1448805183172226,-0.353450208902359,0.0,0.0,0.2250856161117553,0.0989294052124023
-0.0360159873962402,1.219104290008545,-0.1923012882471084,-0.5585930943489075,-0.1621548980474472,-0.3455187380313873,0.0,0.0,-0.046268343925476,-0.6624090075492859
-0.0382433906197547,1.2061734199523926,-0.2070702314376831,-0.5764958262443542,-0.177865445613861,-0.3142397105693817,0.0,0.0,0.7810800075531006,-0.8767407536506653
-0.040315818041563,1.1940062046051023,-0.1937023252248764,-0.5424436926841736,-0.1914824843406677,-0.2723651528358459,0.0,0.0,-0.2605193257331848,-0.5019932985305786
-0.0424957275390625,1.181429386138916,-0.2055242955684662,-0.5606318712234497,-0.2040492594242096,-0.2513579726219177,0.0,0.0,0.2082841396331787,-0.6364486813545227
-0.0446072593331337,1.169001579284668,-0.200223758816719,-0.5538951754570007,-0.2151054143905639,-0.2211429178714752,0.0,0.0,0.5371124744415283,-0.7550196051597595
-0.0467106811702251,1.1565682888031006,-0.2011049091815948,-0.5539571046829224,-0.2244568467140197,-0.1870449185371399,0.0,0.0,0.096027135848999,-0.5307208299636841
-0.0489233955740928,1.14439058303833,-0.2129952013492584,-0.542510449886322,-0.2328559160232544,-0.1679963320493698,0.0,0.0,0.5423303842544556,-0.5892603993415833
-0.0512358658015728,1.1328022480010986,-0.2238751649856567,-0.5162180662155151,-0.2403394132852554,-0.1496700942516327,0.0,0.0,-0.0360797047615051,-0.8039389252662659
-0.0536664947867393,1.1208220720291138,-0.2373577654361724,-0.5333993434906006,-0.2461416721343994,-0.1160450354218483,0.0,0.0,0.6089844703674316,-0.62754225730896
-0.0561373718082904,1.109666347503662,-0.2423979490995407,-0.4966037571430206,-0.250921219587326,-0.0955911129713058,0.0,0.0,0.5444307327270508,0.4422430992126465
-0.0585995689034462,1.0991886854171753,-0.2410419434309005,-0.4665722846984863,-0.2562035322189331,-0.1056459695100784,0.0,0.0,-0.5760418772697449,0.4457473754882812
-0.0611123070120811,1.0882914066314695,-0.2461551129817962,-0.4852270781993866,-0.2614264488220215,-0.1044585704803466,0.0,0.0,-0.2916266918182373,-0.3909693956375122
-0.0636729225516319,1.076974391937256,-0.2510176301002502,-0.5038818120956421,-0.2665925920009613,-0.1033226996660232,0.0,0.0,-0.3949179649353027,0.247598648071289
-0.0662792176008224,1.065238118171692,-0.2556284964084625,-0.52253657579422,-0.2717049121856689,-0.1022461503744125,0.0,0.0,0.9318838119506836,-0.1936853528022766
-0.0687698349356651,1.0544753074645996,-0.2436930388212204,-0.4793473184108734,-0.2772134244441986,-0.1101700067520141,0.0,0.0,0.1434088945388794,-0.6455461382865906
-0.0713303536176681,1.0436888933181765,-0.2519398629665375,-0.4801866710186004,-0.2814371883869171,-0.0844753757119178,0.0,0.0,0.7480008602142334,-0.39369797706604
-0.0737281814217567,1.0334317684173584,-0.2357861995697021,-0.4566443562507629,-0.2855387330055237,-0.0820309296250343,0.0,0.0,0.4941860437393188,-0.0417454838752746
-0.0759531036019325,1.0237326622009275,-0.2186176031827926,-0.4318374395370483,-0.2895260453224182,-0.0797464698553085,0.0,0.0,0.5581910610198975,-0.4642943143844604
-0.078112319111824,1.0142418146133425,-0.2119740545749664,-0.4226067662239074,-0.293594479560852,-0.0813687294721603,0.0,0.0,0.4332754611968994,-0.0535475015640258
-0.0800795555114746,1.005265235900879,-0.1929589807987213,-0.399728387594223,-0.2974819242954254,-0.0777486935257911,0.0,0.0,0.1836967468261718,-0.1569212675094604
-0.0819251984357833,0.9967470765113832,-0.1806982159614563,-0.379379540681839,-0.3014769554138183,-0.0799007043242454,0.0,0.0,0.0583866834640502,-0.2791604995727539
-0.0836640372872352,0.9883589744567872,-0.1701132506132125,-0.3735859990119934,-0.3053711652755737,-0.0778843387961387,0.0,0.0,-0.127601146697998,-0.2053967118263244
-0.0854265242815017,0.9795514941215516,-0.1725036799907684,-0.3922406136989593,-0.3092543482780456,-0.0776635855436325,0.0,0.0,-0.0183338522911071,-0.3371591567993164
-0.0872106552124023,0.9703243970870972,-0.1746619641780853,-0.410895437002182,-0.3131328225135803,-0.0775696113705635,0.0,0.0,-0.3592175841331482,-0.1182695627212524
-0.0890139564871788,0.9606778621673584,-0.1765927821397781,-0.4295503795146942,-0.3170132040977478,-0.0776078253984451,0.0,0.0,-0.6516991257667542,-0.4588150382041931
-0.0908343344926834,0.9506117701530457,-0.1783012449741363,-0.4482055604457855,-0.3209023773670196,-0.0777834430336952,0.0,0.0,-0.6932271718978882,-0.5958811640739441
-0.0927187949419021,0.9401430487632751,-0.1859382092952728,-0.4658302068710327,-0.3235169351100921,-0.0522909983992576,0.0,0.0,-0.0912875533103942,-0.4261150956153869
-0.0946163162589073,0.929254949092865,-0.1872186362743377,-0.4844851195812225,-0.3261547386646271,-0.0527559705078601,0.0,0.0,-0.5716684460639954,-0.7783985733985901
-0.0965779274702072,0.9179696440696716,-0.1949691027402877,-0.5018350481987,-0.3273992240428924,-0.0248895697295665,0.0,0.0,0.4854542016983032,-0.6902384161949158
-0.0984626784920692,0.9074165225028992,-0.188404843211174,-0.4690459072589874,-0.3274683356285095,-0.0013821298489347,0.0,0.0,0.7394411563873291,-0.6914907693862915
-0.1002815216779708,0.8977274894714355,-0.1828135102987289,-0.4304118156433105,-0.3264995217323303,0.0193760581314563,0.0,0.0,0.7791166305541992,-0.8449135422706604
-0.1020174995064735,0.8884390592575073,-0.1760868579149246,-0.4122615456581116,-0.3239070475101471,0.0518497750163078,0.0,0.0,0.1307379007339477,-0.4422274827957153
-0.1035398468375206,0.8792399764060974,-0.1551012694835662,-0.4082027375698089,-0.3209234178066253,0.0596726909279823,0.0,0.0,0.7351610660552979,-0.291515588760376
-0.1048776656389236,0.8707516193389893,-0.1363186240196228,-0.3766997754573822,-0.3182909190654754,0.0526501834392547,0.0,0.0,0.7090374231338501,-0.845367431640625
-0.1060176864266395,0.8624672293663025,-0.118310235440731,-0.3672509491443634,-0.3138087689876556,0.0896421372890472,0.0,0.0,0.0618708133697509,-0.7974070310592651
-0.1070543304085731,0.8545305132865906,-0.1094839572906494,-0.3515057563781738,-0.3077809810638428,0.120555892586708,0.0,0.0,-0.3325603008270263,-0.1665264368057251
-0.1080888733267784,0.8461747169494629,-0.1091818660497665,-0.3701649010181427,-0.3018505275249481,0.118609108030796,0.0,0.0,-0.719913899898529,-0.2910707592964172
-0.109119988977909,0.837399959564209,-0.1087427884340286,-0.3888241052627563,-0.2960262298583984,0.1164859905838966,0.0,0.0,-0.6845643520355225,0.2377088069915771
-0.1101463288068771,0.828206479549408,-0.1081751137971878,-0.4074833989143371,-0.2903169691562652,0.1141853928565979,0.0,0.0,-0.242411196231842,0.1284469366073608
-0.1111670508980751,0.8185943365097046,-0.1074872463941574,-0.4261426925659179,-0.2847316265106201,0.1117066368460655,0.0,0.0,-0.7935763001441956,0.1415179967880249
-0.1121808066964149,0.8085632920265198,-0.1066877394914627,-0.4448020756244659,-0.2792791426181793,0.1090494245290756,0.0,0.0,-0.1661231517791748,-0.5066832304000854
-0.1132292747497558,0.7981361746788025,-0.1111547723412513,-0.4622304737567901,-0.2728064656257629,0.1294539868831634,0.0,0.0,-0.3005524277687073,-0.0769479870796203
-0.1142690628767013,0.7872904539108276,-0.1101581454277038,-0.4808909296989441,-0.2664844691753387,0.1264401972293853,0.0,0.0,-0.8014050722122192,-0.1765613555908203
-0.1152995079755783,0.77602618932724,-0.1090756505727768,-0.4995514452457428,-0.2603220045566559,0.1232491508126258,0.0,0.0,-0.5429520010948181,-0.2914867997169494
-0.1163200363516807,0.7643432021141052,-0.107915922999382,-0.5182119607925415,-0.2543278932571411,0.1198820620775222,0.0,0.0,-0.7195063829421997,-0.1057467460632324
-0.11732979118824,0.7522414922714233,-0.1066875681281089,-0.5368723273277283,-0.248510867357254,0.1163404583930969,0.0,0.0,-0.941704273223877,0.1446781158447265
-0.1183284744620323,0.7397212386131287,-0.1053992137312889,-0.555532693862915,-0.2428795546293258,0.1126262545585632,0.0,0.0,-0.7422788739204407,0.0690728425979614
-0.1193155273795127,0.7267820835113525,-0.1040594428777694,-0.574193000793457,-0.2374424934387207,0.1087416261434555,0.0,0.0,-0.9357432723045348,-0.8021671175956726
-0.1203484535217285,0.7134551405906677,-0.1099991351366043,-0.5912440419197083,-0.2306395918130874,0.1360583156347274,0.0,0.0,-0.6756719946861267,-0.504056453704834
-0.1214035972952842,0.6997156739234924,-0.1128835901618003,-0.6095073223114014,-0.2231747508049011,0.1492965817451477,0.0,0.0,-0.6506754755973816,0.2117449045181274
-0.1224463433027267,0.6855579018592834,-0.1114415302872657,-0.6281697750091553,-0.2159289121627807,0.1449167728424072,0.0,0.0,-0.1351710557937622,-0.3015339374542236
-0.1234766021370887,0.6709815859794617,-0.1099818795919418,-0.6468318104743958,-0.2089100033044815,0.1403785347938537,0.0,0.0,-0.5086296200752258,0.1413767337799072
-0.1244944557547569,0.6559869647026062,-0.1085129380226135,-0.6654936671257019,-0.2021257281303405,0.1356858015060424,0.0,0.0,0.4331643581390381,0.1918013095855713
-0.1253652572631836,0.6413590908050537,-0.0937115103006362,-0.6492375135421753,-0.1954601854085922,0.1333108693361282,0.0,0.0,-0.3122072219848633,-0.1709234714508056
-0.1262239515781402,0.6263128519058228,-0.0922486633062362,-0.667898952960968,-0.18904410302639,0.1283213496208191,0.0,0.0,0.0467633008956909,0.5524139404296875
-0.1269081085920334,0.6113600134849548,-0.0735195130109787,-0.6639301776885986,-0.1839133501052856,0.1026151999831199,0.0,0.0,-0.215958833694458,-0.7006044983863831
-0.1276387274265289,0.5959991812705994,-0.0793846994638443,-0.6819335222244263,-0.1775653809309005,0.1269592940807342,0.0,0.0,0.878032922744751,-0.0509977936744689
-0.1282165497541427,0.5807448029518127,-0.0642111897468566,-0.6772155165672302,-0.1711298823356628,0.1287099123001098,0.0,0.0,0.3717195987701416,0.3441174030303955
-0.1287614852190017,0.5654951333999634,-0.0605204105377197,-0.6770793199539185,-0.1650920957326889,0.1207557469606399,0.0,0.0,0.574946403503418,0.69329833984375
-0.1291256844997406,0.5509403347969055,-0.0407668352127075,-0.6464024186134338,-0.1607392281293869,0.0870574116706848,0.0,0.0,-0.128846526145935,0.6714742183685303
-0.1294200867414474,0.5359588265419006,-0.0319827124476432,-0.6655735373497009,-0.1581937372684478,0.050909649580717,0.0,0.0,0.5855880975723267,-0.9452500939369202
-0.129774659872055,0.521776020526886,-0.0394636876881122,-0.6299261450767517,-0.1541903018951416,0.0800687745213508,0.0,0.0,-0.7982160449028015,0.0411224365234375
-0.1301209479570388,0.5071743130683899,-0.0383376590907573,-0.6485851407051086,-0.1504857689142227,0.0740907043218612,0.0,0.0,0.4117871522903442,-0.4956896305084228
-0.1303243637084961,0.4931476712226867,-0.0239089615643024,-0.6230480670928955,-0.1469256579875946,0.0712023302912712,0.0,0.0,0.1255897283554077,-0.3507412672042846
-0.1305319815874099,0.4792990982532501,-0.0237076058983802,-0.6152068972587585,-0.1439933031797409,0.0586467571556568,0.0,0.0,0.2579864263534546,-0.6575157642364502
-0.1307570487260818,0.465821623802185,-0.0263806339353323,-0.5986302495002747,-0.1401311308145523,0.0772434026002883,0.0,0.0,0.6500569581985474,0.769719123840332
-0.1308321952819824,0.4529563784599304,-0.0095104472711682,-0.5716049075126648,-0.1381469964981079,0.039682563394308,0.0,0.0,-0.1951445937156677,-0.5363112688064575
-0.1309396773576736,0.4396795928478241,-0.0133363399654626,-0.5898402333259583,-0.1355666518211364,0.0516071543097496,0.0,0.0,0.5994936227798462,0.1543545722961425
-0.130977064371109,0.4264715909957886,-0.0061119375750422,-0.586804986000061,-0.13320392370224,0.0472545027732849,0.0,0.0,0.8226531744003296,-0.5928518772125244
-0.1308923661708831,0.413488358259201,0.0049471366219222,-0.5767259001731873,-0.1296947598457336,0.0701831430196762,0.0,0.0,0.5263540744781494,-0.2699082493782043
-0.1306043565273285,0.4008444249629974,0.0249649323523044,-0.5616253614425659,-0.1258864253759384,0.0761667937040329,0.0,0.0,0.6974334716796875,-0.3005048036575317
-0.1301245689392089,0.388357549905777,0.0438194870948791,-0.5546267032623291,-0.1217474937438964,0.0827788487076759,0.0,0.0,0.7913188934326172,-0.4572865962982178
-0.1295543611049652,0.3766656219959259,0.05322702601552,-0.5193363428115845,-0.1179709583520889,0.0755306184291839,0.0,0.0,0.2533032894134521,0.1198930740356445
-0.1288968026638031,0.3654077053070068,0.0621839687228202,-0.5000746846199036,-0.1144215315580368,0.0709884390234947,0.0,0.0,-0.3981643319129944,-0.2311823368072509
-0.128244400024414,0.3537307381629944,0.0620070323348045,-0.5187326669692993,-0.1112091615796089,0.0642475560307502,0.0,0.0,0.5810749530792236,-0.3320327997207641
-0.1274680197238922,0.3420842885971069,0.0742990225553512,-0.5173733830451965,-0.1078884303569793,0.0664144903421402,0.0,0.0,0.606966495513916,-0.7702887058258057
-0.1267630606889724,0.3307742476463318,0.0660431757569313,-0.5023528337478638,-0.10347331315279,0.08830226957798,0.0,0.0,0.3307321071624756,0.1294505596160888
-0.1259281188249588,0.3200714588165283,0.07907335460186,-0.4753772020339966,-0.0990820080041885,0.0878259763121604,0.0,0.0,-0.3572819232940674,-0.3161448836326599
-0.1251042336225509,0.3089497089385986,0.0783082842826843,-0.4940353631973266,-0.0950298607349395,0.0810426771640777,0.0,0.0,0.7254073619842529,-0.3477893471717834
-0.1243433952331543,0.298667848110199,0.0729434192180633,-0.4567738175392151,-0.0919177234172821,0.0622427053749561,0.0,0.0,-0.4165771007537842,-0.5794057846069336
-0.1236354857683181,0.2879751920700073,0.0669832825660705,-0.4750004708766937,-0.08815498650074,0.07525485008955,0.0,0.0,0.3189276456832886,0.1222620010375976
-0.1229332908987999,0.2777639925479889,0.0669644847512245,-0.4536437094211578,-0.0849270671606063,0.0645584985613823,0.0,0.0,0.2722749710083008,-0.361748456954956
-0.122262954711914,0.2680034637451172,0.064410001039505,-0.4336539208889007,-0.0823296159505844,0.0519493706524372,0.0,0.0,-0.1100237369537353,-0.225501537322998
-0.1216115951538086,0.2578236758708954,0.0628505125641822,-0.4523105323314667,-0.0800661146640777,0.045269701629877,0.0,0.0,0.1330900192260742,0.4500319957733154
-0.1210275664925575,0.2478509247303009,0.0568261258304119,-0.4431509673595428,-0.0785046368837356,0.0312298443168401,0.0,0.0,0.1557227373123169,0.0121259689331054
-0.1205419525504112,0.2380190193653106,0.0478115975856781,-0.4369323551654815,-0.0777594447135925,0.0149034736678004,0.0,0.0,0.2790398597717285,0.2418712377548217
-0.1199550628662109,0.2285902351140976,0.0578768253326416,-0.4190163314342499,-0.0769615247845649,0.0159586481750011,0.0,0.0,-0.1112535595893859,0.1673039197921753
-0.1193936318159103,0.218742087483406,0.0556618347764015,-0.4376722276210785,-0.0764869302511215,0.0094920378178358,0.0,0.0,0.4590977430343628,-0.0475916862487793
-0.1186800003051757,0.2094675153493881,0.0706085190176963,-0.412162721157074,-0.0757394954562187,0.0149486530572175,0.0,0.0,0.1543023586273193,-0.4368706941604614
-0.1179698929190635,0.2005863934755325,0.0706522986292839,-0.3946995735168457,-0.0753817409276962,0.0071548344567418,0.0,0.0,-0.4572155475616455,-0.9002809524536133
-0.1173436194658279,0.1913023740053177,0.0611996836960315,-0.4125496745109558,-0.0739644765853881,0.0283452421426773,0.0,0.0,0.1089593172073364,0.1701304912567138
-0.1166691780090332,0.1821753531694412,0.066080555319786,-0.4055801033973694,-0.0726169049739837,0.0269516501575708,0.0,0.0,0.0893744230270385,-0.7634790539741516
-0.1160542517900466,0.173449233174324,0.0589002557098865,-0.3877077996730804,-0.0700521916151046,0.051294095814228,0.0,0.0,0.2011623382568359,-0.1984553933143615
-0.1153900176286697,0.1651557832956314,0.0639262050390243,-0.3684808909893036,-0.0675792023539543,0.0494598411023616,0.0,0.0,-0.2000408172607422,-0.5300760269165039
-0.1147983521223068,0.156444102525711,0.0560346357524395,-0.3870487809181213,-0.0644824132323265,0.0619358345866203,0.0,0.0,0.3948495388031006,-0.2183507680892944
-0.1143136993050575,0.1481044441461563,0.0460960045456886,-0.3705531060695648,-0.0621465109288692,0.0467181913554668,0.0,0.0,0.1687237024307251,-0.2279877662658691
-0.1139363273978233,0.139898881316185,0.0360910482704639,-0.3646210432052612,-0.060506884008646,0.032792467623949,0.0,0.0,0.3729821443557739,0.1712651252746582
-0.113588809967041,0.1319769918918609,0.0334491208195686,-0.3520330488681793,-0.059218943119049,0.0257586948573589,0.0,0.0,0.2893259525299072,-0.1245899200439453
-0.1132381409406662,0.1242571696639061,0.033928282558918,-0.343059629201889,-0.0580983161926269,0.0224127788096666,0.0,0.0,0.4201960563659668,-0.3864415884017944
-0.1128005981445312,0.1165709570050239,0.0423554591834545,-0.3415561318397522,-0.0567110925912857,0.027744248509407,0.0,0.0,0.3717824220657348,-0.2876772284507751
-0.1122942939400672,0.1093086078763008,0.0490931458771228,-0.3227139413356781,-0.0551934465765953,0.0303528122603893,0.0,0.0,0.1977790594100952,-0.2409180402755737
-0.1117831245064735,0.102501094341278,0.0497386381030082,-0.3025052845478058,-0.0538263581693172,0.0273414365947246,0.0,0.0,0.1432944536209106,0.0806895494461059
