x_pos,y_pos,x_vel,y_vel,angle,ang_vel,leg_1,leg_2,main_booster,lat_booster
-0.0014294624561443,1.4029622077941897,-0.1455451548099517,-0.3536831438541412,0.0023349323309957,0.0461009927093982,0.0,0.0,0.4205750756613307,-0.8896146503429212
-0.002786636352539,1.3949559926986694,-0.1404955089092254,-0.3558452427387237,0.007059431169182,0.0944996997714042,0.0,0.0,-0.7184325277654402,-0.7303603801618561
-0.0040984153747558,1.3862816095352173,-0.1377328485250473,-0.3855701982975006,0.0135327652096748,0.1294787228107452,0.0,0.0,-0.4679703581022303,-0.728478341453378
-0.0053914068266749,1.3769422769546509,-0.138224259018898,-0.4151903092861175,0.022358164191246,0.1765246093273162,0.0,0.0,0.776224267186046,-0.6718840185502979
-0.0065183639526367,1.3679988384246826,-0.1239783614873886,-0.3976890742778778,0.0335202254354953,0.2232619225978851,0.0,0.0,0.1408439391366081,-0.9236584697306478
-0.0075374604202806,1.3589584827423096,-0.1157060042023658,-0.4021675884723663,0.0471769087016582,0.2731587290763855,0.0,0.0,0.7548949531087357,0.9682725775708882
-0.0084572788327932,1.350180983543396,-0.1044276133179664,-0.3905500769615173,0.0595027282834053,0.2465392053127288,0.0,0.0,0.2639326717017354,-0.852690488089933
-0.0092668533325195,1.3414934873580933,-0.0958757624030113,-0.3867729008197784,0.0742778927087783,0.2955307066440582,0.0,0.0,0.4217497316388843,-0.9612144292251844
-0.0101449964568018,1.3332257270812988,-0.1052611321210861,-0.368416279554367,0.091577336192131,0.3460208177566528,0.0,0.0,0.0346324338540424,0.6821300064326015
-0.0109426500275731,1.3249911069869995,-0.0964529365301132,-0.3670863509178161,0.1081546619534492,0.3315771520137787,0.0,0.0,0.7727926581665396,0.903784682966748
-0.0115700718015432,1.3170788288116455,-0.0784168019890785,-0.3528730571269989,0.1237546056509018,0.3120276629924774,0.0,0.0,0.1090096941364386,-0.7346978742947373
-0.0121817588806152,1.3090344667434692,-0.0789678767323494,-0.3591004610061645,0.1415091156959533,0.3551230132579803,0.0,0.0,0.2639082691274375,-0.79919406541504
-0.012760067358613,1.3011431694030762,-0.077940359711647,-0.3527597188949585,0.1616199165582656,0.4022526144981384,0.0,0.0,0.5350373882307518,-0.8963916243768413
-0.0133332256227731,1.2930777072906494,-0.0798769444227218,-0.361080527305603,0.1842632591724395,0.4529081881046295,0.0,0.0,-0.2437841459614338,0.7031380084294774
-0.0137880323454737,1.284383773803711,-0.0668685883283615,-0.3891997933387756,0.2058069854974746,0.4309134483337402,0.0,0.0,-0.204327883393923,0.7493378924951335
-0.0141248703002929,1.2750476598739624,-0.0538593307137489,-0.4178710579872131,0.2262257486581802,0.4084123969078064,0.0,0.0,0.7193847743858002,-0.8577395937492441
-0.0145290372893214,1.266399383544922,-0.0630945041775703,-0.3880186975002289,0.2492866516113281,0.4612604677677154,0.0,0.0,0.0644179270991716,0.9334621650496084
-0.0147733688354492,1.2575078010559082,-0.045768242329359,-0.3989508748054504,0.2711023688316345,0.4363534450531006,0.0,0.0,-0.6278510376108255,-0.8191401243952818
-0.0150339128449559,1.2479486465454102,-0.049230296164751,-0.4293258786201477,0.2949510216712951,0.4770165085792541,0.0,0.0,0.8135688451030894,-0.9518126474410256
-0.0156076429411768,1.238553166389465,-0.0827158465981483,-0.4229255616664886,0.3212266862392425,0.5255609154701233,0.0,0.0,0.4697081016240909,0.6510128132747817
-0.0161977764219045,1.229546070098877,-0.0837243571877479,-0.4060141146183014,0.3470688760280609,0.5168904066085815,0.0,0.0,0.8345240360395614,0.9409653062058316
-0.0168450362980365,1.2206203937530518,-0.0880321562290191,-0.402516096830368,0.3716664612293243,0.491996705532074,0.0,0.0,-0.4819003875442,-0.8729804609374991
-0.0175201408565044,1.211012840270996,-0.0925293415784835,-0.433728814125061,0.3983293175697326,0.5333048105239868,0.0,0.0,0.7614782984846349,-0.8074403859759552
-0.0182872768491506,1.2012184858322144,-0.1037450060248375,-0.4431672692298889,0.4274792075157165,0.5830504298210144,0.0,0.0,0.1343700091951516,-0.6981881800558087
-0.0193750374019145,1.1912782192230225,-0.1372674852609634,-0.4507645964622497,0.4586231708526611,0.6229345202445984,0.0,0.0,-0.0053047451296126,0.7243963314147832
-0.0204092971980571,1.1807034015655518,-0.131080612540245,-0.479411244392395,0.4892725050449371,0.6129871606826782,0.0,0.0,0.8308888558762784,-0.6832424699000371
-0.0218602176755666,1.1705175638198853,-0.1741394698619842,-0.4633857309818268,0.5220258831977844,0.655068039894104,0.0,0.0,-0.4083992531998428,-0.6370000315577153
-0.0233637802302837,1.1596477031707764,-0.1808525621891021,-0.4952310621738434,0.5570743680000305,0.7009703516960144,0.0,0.0,-0.3819408716591903,-0.8711316138217434
-0.024942684918642,1.1480756998062134,-0.1901778876781463,-0.5282242894172668,0.5950372219085693,0.7592580914497375,0.0,0.0,0.6458603918663361,0.8493324583355024
-0.0267637260258197,1.1364989280700684,-0.2126040756702423,-0.5287860631942749,0.6318051815032959,0.7353600263595581,0.0,0.0,0.9477156051735752,-0.9075527448776288
-0.0292261131107807,1.1254558563232422,-0.2780511081218719,-0.5068960785865784,0.6712300181388855,0.788496732711792,0.0,0.0,-0.1249909344699349,0.6042902196844786
-0.0316698066890239,1.1138075590133667,-0.2748190760612488,-0.534416139125824,0.7101690173149109,0.7787814736366272,0.0,0.0,-0.7406336582693467,0.6871310551197334
-0.0340994819998741,1.1015673875808716,-0.2719274163246155,-0.5611969828605652,0.748445987701416,0.7655395865440369,0.0,0.0,-0.6595665449619263,-0.844307547818502
-0.0365999229252338,1.0886075496673584,-0.2799836099147796,-0.5952271819114685,0.789481520652771,0.8207114934921265,0.0,0.0,-0.9880854125302136,0.7904383727908542
-0.0390828140079975,1.0750744342803955,-0.2762034237384796,-0.6209189891815186,0.829342782497406,0.7972264289855957,0.0,0.0,0.4337461277920771,-0.6501308211818633
-0.0421031937003135,1.061532974243164,-0.3301791846752167,-0.6231324672698975,0.871359646320343,0.840337872505188,0.0,0.0,0.1351795881717457,-0.9919486065095232
-0.0454563125967979,1.0475393533706665,-0.3639445602893829,-0.6455630660057068,0.91633403301239,0.8994894027709961,0.0,0.0,0.6713897332113707,0.745710718999336
-0.0494006164371967,1.0337307453155518,-0.4208419322967529,-0.637612521648407,0.9602879881858826,0.8790802955627441,0.0,0.0,0.8409565290535204,0.9719325472018864
-0.054145336151123,1.0201256275177002,-0.4983419775962829,-0.6283557415008545,1.0025417804718018,0.845075249671936,0.0,0.0,-0.7041801327515569,0.993439054324858
-0.0588896758854389,1.0059783458709717,-0.495842695236206,-0.6520546674728394,1.0429821014404297,0.8088055849075317,0.0,0.0,0.1187722070403658,-0.9708030408530468
-0.0642186179757118,0.9913843870162964,-0.5543151497840881,-0.6742537617683411,1.0864392518997192,0.8691459894180298,0.0,0.0,-0.8534862399101257,0.999621033668518
-0.0695509910583496,0.9762667417526244,-0.5519894361495972,-0.6967626810073853,1.1276452541351318,0.8241233825683594,0.0,0.0,-0.8870466351509094,0.9930894374847412
-0.0748875588178634,0.9606167674064636,-0.5500050187110901,-0.7195809483528137,1.1667113304138184,0.7813215255737305,0.0,0.0,-0.820402979850769,0.985081434249878
-0.0802381485700607,0.9444382786750792,-0.5491859316825867,-0.7421245574951172,1.2036163806915283,0.7381014227867126,0.0,0.0,-0.8756338953971863,0.9892034530639648
-0.0856064781546592,0.9277042746543884,-0.5491458177566528,-0.7661030292510986,1.23890221118927,0.7057167291641235,0.0,0.0,-0.8800344467163086,0.9835011959075928
-0.0909936875104904,0.9104304313659668,-0.5492371916770935,-0.7891002893447876,1.2722142934799194,0.6662424802780151,0.0,0.0,-0.6730321049690247,0.9849371910095216
-0.0964052230119705,0.8926214575767517,-0.5500390529632568,-0.8117750287055969,1.3034650087356567,0.6250174045562744,0.0,0.0,-0.6526440978050232,0.9557089805603028
-0.1018603295087814,0.8742477893829346,-0.553135097026825,-0.8361623287200928,1.333384990692139,0.5983989834785461,0.0,0.0,-0.6433095335960388,0.9570293426513672
-0.1073613166809082,0.8553056716918945,-0.5565563440322876,-0.8607402443885803,1.3620405197143557,0.57310950756073,0.0,0.0,-0.5865338444709778,0.9295201301574708
-0.1129006370902061,0.8358089327812195,-0.5592814087867737,-0.8844139575958252,1.389051914215088,0.5402289032936096,0.0,0.0,-0.7324874401092529,0.9348748922348022
-0.118478775024414,0.8157866597175598,-0.5620537996292114,-0.9063208103179932,1.4137526750564575,0.4940163493156433,0.0,0.0,-0.8426493406295776,0.8702497482299805
-0.1241063103079795,0.7951986193656921,-0.5662028193473816,-0.9305871725082396,1.4370521306991575,0.4659886956214905,0.0,0.0,-0.6771115660667419,0.9378445148468018
-0.1297745704650879,0.7740789651870728,-0.569479763507843,-0.9527844190597534,1.4581385850906372,0.4217299520969391,0.0,0.0,-0.6907835006713867,0.8409051895141602
-0.1354964226484298,0.7523996829986572,-0.5742396116256714,-0.9766288995742798,1.477651596069336,0.3902603983879089,0.0,0.0,-0.7891518473625183,0.9393820762634276
-0.1412635743618011,0.7301959991455078,-0.5781952142715454,-0.9983474612236024,1.494762659072876,0.3422201871871948,0.0,0.0,-0.745775043964386,0.7545859813690186
-0.1470808088779449,0.7074078321456909,-0.5828484296798706,-1.0236172676086426,1.51080584526062,0.3208667337894439,0.0,0.0,-0.6733720302581787,0.8673393726348877
-0.1529551446437835,0.684076726436615,-0.5882007479667664,-1.0464003086090088,1.5248403549194336,0.2806889414787292,0.0,0.0,-0.7084366679191589,0.7433193922042847
-0.1588848084211349,0.6601923704147339,-0.5934633612632751,-1.0697848796844482,1.5370762348175049,0.2447177618741989,0.0,0.0,-0.6173338294029236,0.5637457370758057
-0.1648733168840408,0.6357231736183167,-0.5991669297218323,-1.095027208328247,1.5482017993927002,0.2225123196840286,0.0,0.0,-0.6418079733848572,0.4897525310516357
-0.17091865837574,0.610598087310791,-0.6047355532646179,-1.124497890472412,1.5597951412200928,0.2318696975708007,0.0,0.0,-0.6856963038444519,0.4285492897033691
-0.1770214140415191,0.5848169326782227,-0.6103300452232361,-1.1539669036865234,1.5718395709991455,0.2408886849880218,0.0,0.0,-0.6832969188690186,0.5826932191848755
-0.1831836700439453,0.558433473110199,-0.6161495447158813,-1.1801973581314087,1.583095669746399,0.2251208573579788,0.0,0.0,-0.6301458477973938,0.3889347314834595
-0.1894035339355468,0.5313934087753296,-0.621776282787323,-1.2096630334854126,1.5947659015655518,0.2334047108888626,0.0,0.0,-0.4712188243865967,0.4448174238204956
-0.1956811845302581,0.5036962628364563,-0.6274064779281616,-1.2391269207000732,1.6068304777145386,0.2412911653518676,0.0,0.0,-0.6930684447288513,0.791327953338623
-0.2020147740840912,0.4754315614700317,-0.6329310536384583,-1.2632404565811155,1.6172523498535156,0.2084368467330932,0.0,0.0,-0.5141924619674683,0.6642798185348511
-0.2084078341722488,0.4465682804584503,-0.638822078704834,-1.289188027381897,1.626699447631836,0.1889410316944122,0.0,0.0,-0.389853298664093,0.5972458124160767
-0.2148652076721191,0.4171156883239746,-0.6452374458312988,-1.314547777175903,1.6349225044250488,0.1644609421491623,0.0,0.0,-0.336594820022583,0.3726603984832763
-0.2213793247938156,0.3870048522949219,-0.6508225202560425,-1.3440039157867432,1.64345121383667,0.1705733835697174,0.0,0.0,-0.3166769742965698,0.4737787246704101
-0.2279499024152755,0.3562356233596802,-0.6563761830329895,-1.3734580278396606,1.6522612571716309,0.1762000620365142,0.0,0.0,-0.4527665376663208,0.4298452138900757
-0.2345766574144363,0.3248074352741241,-0.661891758441925,-1.4029098749160769,1.6613274812698364,0.181324303150177,0.0,0.0,-0.3137491345405578,0.4038403034210205
-0.2412591874599456,0.2927199900150299,-0.667362630367279,-1.4323595762252808,1.670624017715454,0.1859316676855087,0.0,0.0,-0.2158260941505432,0.1154111623764038
-0.2479970455169677,0.259972870349884,-0.672782301902771,-1.4618068933486938,1.6801245212554932,0.1900095492601394,0.0,0.0,-0.1107038259506225,0.0048778057098388
-0.2547895908355713,0.2265658527612686,-0.6781443953514099,-1.4912517070770264,1.6898019313812256,0.1935479938983917,0.0,0.0,-0.2028701305389404,-0.4193786382675171
-0.2616362571716308,0.192498430609703,-0.6834428906440735,-1.5206942558288574,1.6996287107467651,0.1965363621711731,0.0,0.0,-0.1730535626411438,-0.4378972053527832
-0.2685363888740539,0.1577701866626739,-0.6886715888977051,-1.550134301185608,1.7095770835876465,0.1989684849977493,0.0,0.0,0.0071426630020141,-0.6495019793510437
-0.2756808698177337,0.1223384216427803,-0.7127465605735779,-1.582550048828125,1.7212505340576172,0.2334682196378708,0.0,0.0,-0.2005173563957214,-0.6740233302116394
-0.2828652858734131,0.0861674398183822,-0.7163076996803284,-1.6166133880615234,1.734761357307434,0.2702158093452453,0.0,0.0,-0.0897428393363952,-0.8030775785446167
-0.2885727286338806,0.0541181899607181,0.1644258946180343,-0.2775602340698242,1.714852809906006,-3.458426713943481,0.0,1.0,-0.0897428393363952,-0.8030775785446167
