x_pos,y_pos,x_vel,y_vel,angle,ang_vel,leg_1,leg_2,main_booster,lat_booster
-0.0014575005043298,1.4032443761825562,-0.1475855261087417,-0.3411477506160736,0.0016391575336456,0.0323249846696853,0.0,0.0,-0.032364010810852,0.7870018482208252
-0.002779769944027,1.3952078819274902,-0.1320491433143615,-0.3571785092353821,0.0014594848034903,-0.003593161702156,0.0,0.0,0.2410165071487426,0.629379391670227
-0.0038717270363122,1.3872416019439695,-0.107884369790554,-0.3540546000003814,0.0001564317062729,-0.0260632988065481,0.0,0.0,0.0622026920318603,0.4879875183105469
-0.0049688341096043,1.379377007484436,-0.1079277247190475,-0.3495438396930694,-0.0015977424336597,-0.0350867211818695,0.0,0.0,-0.4482805728912353,0.496656060218811
-0.0059926034882664,1.3711318969726562,-0.1005177721381187,-0.3664433360099792,-0.0034336687531322,-0.0367220491170883,0.0,0.0,-0.1662914752960205,0.1085788011550903
-0.0069415094330906,1.3625069856643677,-0.0929551646113395,-0.3833394646644592,-0.0053498637862503,-0.0383273623883724,0.0,0.0,-0.6944386959075928,0.2457538843154907
-0.007814216427505,1.3535019159317017,-0.0852448046207428,-0.4002360105514526,-0.0073442752473056,-0.0398924015462398,0.0,0.0,-0.2817161083221435,-0.0274813175201416
-0.0086091039702296,1.3441165685653689,-0.0773918628692627,-0.417133629322052,-0.0094150593504309,-0.0414194390177726,0.0,0.0,-0.505090594291687,-0.151210606098175
-0.0093248365446925,1.3343513011932373,-0.0694016963243484,-0.4340313076972961,-0.0115602482110261,-0.0429077222943306,0.0,0.0,-0.4942142963409424,-0.0251598358154296
-0.0099601745605468,1.3242058753967283,-0.0612796060740947,-0.450929045677185,-0.0137778613716363,-0.0443564616143703,0.0,0.0,-0.2804099917411804,-0.53250652551651
-0.0105496402829885,1.3136813640594482,-0.057541936635971,-0.4677686393260956,-0.015161438845098,-0.0276742670685052,0.0,0.0,-0.3338189721107483,-0.2494025230407714
-0.0110560413450002,1.3027766942977903,-0.0491748675704002,-0.4846661984920501,-0.0166139565408229,-0.0290529690682888,0.0,0.0,-0.2637249827384949,-0.781214714050293
-0.0115264896303415,1.2914971113204956,-0.0467441566288471,-0.5013192892074585,-0.0169183127582073,-0.0060874060727655,0.0,0.0,-0.7403720021247864,-0.8141608834266663
-0.011968707665801,1.2798311710357666,-0.0452944934368133,-0.5184736847877502,-0.0158586278557777,0.0211958549916744,0.0,0.0,-0.7842877507209778,-0.9344642758369446
-0.0123809818178415,1.2677960395812988,-0.0436766818165779,-0.5348653793334961,-0.0134416921064257,0.0483430474996566,0.0,0.0,-0.8580538034439087,-0.7650442123413086
-0.0127555849030613,1.2553731203079224,-0.0410935059189796,-0.5521078109741211,-0.0098447054624557,0.0719462484121322,0.0,0.0,-0.6370947957038879,-0.8167728185653687
-0.0130916591733694,1.2425802946090698,-0.0384475365281105,-0.5685412883758545,-0.005056569352746,0.0957710742950439,0.0,0.0,-0.5985942482948303,-0.5253508687019348
-0.0133703229948878,1.2294036149978638,-0.0334582105278968,-0.5856258869171143,0.0004699788696598,0.1105411872267723,0.0,0.0,-0.5794359445571899,0.5301936864852905
-0.0135105131193995,1.215851902961731,-0.0183103904128074,-0.6023016571998596,0.0047183935530483,0.0849756672978401,0.0,0.0,-0.7453508377075195,-0.1415328979492187
-0.0135598182678222,1.2019202709197998,-0.0091791031882166,-0.6192008852958679,0.0089137479662895,0.0839147865772247,0.0,0.0,-0.7738041281700134,-0.183323860168457
-0.0135176656767725,1.1876087188720703,2.6481677195988595e-05,-0.6360999941825867,0.0130569478496909,0.0828714519739151,0.0,0.0,-0.7612705230712891,0.625851035118103
-0.0133327487856149,1.1729145050048828,0.0156323220580816,-0.6531013250350952,0.0158824492245912,0.0565150678157806,0.0,0.0,-0.5231176018714905,-0.1589447855949401
-0.0130548477172851,1.1578402519226074,0.0249767899513244,-0.669999897480011,0.0186602249741554,0.0555608384311199,0.0,0.0,-0.5188263654708862,-0.4474669694900512
-0.0126833915710449,1.1423858404159546,0.0343811027705669,-0.6868983507156372,0.021391162648797,0.0546235628426075,0.0,0.0,-0.4915609359741211,0.2353824377059936
-0.0122178075835108,1.126551389694214,0.0438410080969333,-0.7037968039512634,0.0240770392119884,0.0537225380539894,0.0,0.0,-0.7603758573532104,-0.4514908790588379
-0.0116571430116891,1.110315203666687,0.0533865578472614,-0.721648633480072,0.0267196949571371,0.0528531894087791,0.0,0.0,-0.1091120243072509,-0.2726430892944336
-0.011001300998032,1.0936989784240725,0.0629505962133407,-0.738544762134552,0.0293214283883571,0.0520349815487861,0.0,0.0,-0.2169127464294433,-0.8381897211074829
-0.010330582037568,1.0767080783843994,0.0624148063361644,-0.7552522420883179,0.0339123122394084,0.0918174386024475,0.0,0.0,-0.1826051473617553,0.5156705379486084
-0.009532069787383,1.0593429803848269,0.0760559737682342,-0.7718696594238281,0.0376624166965484,0.0750022009015083,0.0,0.0,-0.6094651818275452,-0.5597458481788635
-0.0086829187348485,1.041593313217163,0.0799877494573593,-0.789004385471344,0.0425303615629673,0.0973590165376663,0.0,0.0,-0.3500714302062988,0.6003577709197998
-0.0076883314177393,1.023473620414734,0.0958117991685867,-0.8054268956184387,0.0461328998208045,0.0720507353544235,0.0,0.0,0.0902881622314453,-0.1366589069366455
-0.0066614151000976,1.0054036378860474,0.0993157550692558,-0.8032141923904419,0.0494670011103153,0.0666818469762802,0.0,0.0,-0.1858565211296081,0.0771253108978271
-0.0055374144576489,0.9869537949562072,0.1090593785047531,-0.8201106190681458,0.052771933376789,0.0660988464951515,0.0,0.0,-0.0870737433433532,0.557776689529419
-0.0042764665558934,0.9681218266487122,0.1237803101539611,-0.8370577692985535,0.0550579354166984,0.0457199662923812,0.0,0.0,-0.1730648875236511,0.4572610855102539
-0.0029182434082031,0.9489097595214844,0.1335476636886596,-0.8539537191390991,0.0573181919753551,0.0452049523591995,0.0,0.0,-0.34747976064682,0.5147910118103027
-0.0014205932384356,0.9293250441551208,0.1485630273818969,-0.8704773187637329,0.0584979504346847,0.0235950890928506,0.0,0.0,0.0484553575515747,-0.7713289856910706
7.743835158180445e-05,0.9097819924354552,0.1470991671085357,-0.8686919808387756,0.0611809454858303,0.0536598041653633,0.0,0.0,-0.27431321144104,-0.7081809043884277
0.0016203880077227,0.8898595571517944,0.1502707600593567,-0.8856147527694702,0.0651620626449585,0.0796223506331443,0.0,0.0,-0.6220254898071289,-0.5334490537643433
0.0032155991066247,0.8695587515830994,0.1543739140033722,-0.9024937152862548,0.0702534019947052,0.1018266454339027,0.0,0.0,-0.451803982257843,0.2990807294845581
0.0049079894088208,0.8488779664039612,0.1641198098659515,-0.9193914532661438,0.0753264129161834,0.1014602929353714,0.0,0.0,-0.2687727212905884,-0.5635349750518799
0.0066449167206883,0.8278164267539978,0.1672541946172714,-0.9364091157913208,0.0817023739218711,0.1275191605091095,0.0,0.0,0.3679687976837158,0.2207828760147094
0.0085453037172555,0.8070358037948608,0.1831295043230056,-0.9239771962165833,0.088535338640213,0.1366594284772873,0.0,0.0,0.4825042486190796,-0.6676849722862244
0.0105604175478219,0.7862945199012756,0.1930983662605285,-0.9223539233207704,0.096875287592411,0.166798934340477,0.0,0.0,0.11414635181427,0.1635267734527588
0.0127039905637502,0.7657158970832825,0.2056436985731125,-0.9151893258094788,0.1055117174983024,0.1727284342050552,0.0,0.0,-0.1278004050254821,0.2771902084350586
0.0149433137848973,0.7447583079338074,0.2152441442012787,-0.932090938091278,0.114136055111885,0.1724869757890701,0.0,0.0,0.501039981842041,-0.6835653781890869
0.0172357559204101,0.7238656878471375,0.2191182374954223,-0.929366648197174,0.1242052689194679,0.2013845741748809,0.0,0.0,0.8954293727874756,0.3215032815933227
0.0196290016174316,0.7033705115318298,0.228891372680664,-0.9118028879165648,0.1345883905887603,0.2076628655195236,0.0,0.0,0.8494001626968384,-0.0319309830665588
0.0218666084110736,0.6838584542274475,0.2139332294464111,-0.8681203126907349,0.1443807780742645,0.195848137140274,0.0,0.0,0.5971236228942871,0.7563076019287109
0.0240068435668945,0.6650872826576233,0.2059895545244217,-0.8350756764411926,0.1523897349834442,0.1601790189743042,0.0,0.0,-0.527903139591217,0.2908569574356079
0.0262398719787597,0.6459367275238037,0.2152996808290481,-0.8519766330718994,0.1603921502828598,0.1600482761859893,0.0,0.0,-0.0940061807632446,0.8879473209381104
0.0286509506404399,0.6264272928237915,0.2353133410215377,-0.8677254319190979,0.1661881059408188,0.1159187108278274,0.0,0.0,0.8727855682373047,-0.1865574121475219
0.030950928106904,0.6077573299407959,0.2245125472545623,-0.8304041028022766,0.1716776192188263,0.1097903475165367,0.0,0.0,0.8458278179168701,-0.0283243656158447
0.0333767905831337,0.5894728899002075,0.236552283167839,-0.8133500814437866,0.1777285933494568,0.1210196018218994,0.0,0.0,0.782581090927124,-0.0721983313560485
0.0357433333992958,0.5720804333686829,0.2306144684553146,-0.7737353444099426,0.1837929636240005,0.1212877482175827,0.0,0.0,-0.1279754638671875,0.4257583618164062
0.0381982810795307,0.5543082356452942,0.2394568622112274,-0.7906340956687927,0.1898557692766189,0.1212561503052711,0.0,0.0,0.740502119064331,0.7395050525665283
0.0405965819954872,0.5368697047233582,0.2355018556118011,-0.775607168674469,0.1942056268453598,0.0869971439242363,0.0,0.0,0.6588904857635498,-0.2631245851516723
0.043018914759159,0.5202564597129822,0.2374851256608963,-0.7389993667602539,0.1989925354719162,0.0957378819584846,0.0,0.0,0.1452480554580688,-0.7354742288589478
0.0454829223453998,0.5039688944816589,0.2400826960802078,-0.7247539758682251,0.2053600847721099,0.1273510307073593,0.0,0.0,-0.3330135941505432,0.7255357503890991
0.0480919852852821,0.4873286485671997,0.256223052740097,-0.7402263879776001,0.2100848257541656,0.0944949686527252,0.0,0.0,0.2601276636123657,-0.1082695126533508
0.050600815564394,0.471169501543045,0.2464628517627716,-0.7188156843185425,0.2145441025495529,0.0891856700181961,0.0,0.0,0.3946713209152221,-0.4907552003860473
0.0531651489436626,0.4551025032997131,0.251814991235733,-0.7147657871246338,0.2192075550556183,0.0932690799236297,0.0,0.0,0.6539335250854492,-0.2596372365951538
0.0555567741394043,0.4396510422229767,0.235008955001831,-0.6873576045036316,0.2234119176864624,0.0840872079133987,0.0,0.0,0.4983968734741211,-0.3029340505599975
0.0580297484993934,0.4245429039001465,0.242636352777481,-0.6721847057342529,0.2281407862901687,0.094577319920063,0.0,0.0,-0.1722806692123413,-0.8486647605895996
0.0605139732360839,0.4090345203876495,0.242127776145935,-0.6902489066123962,0.2345194816589355,0.1275740563869476,0.0,0.0,0.5273942947387695,-0.3786529302597046
0.0629908591508865,0.3936897218227386,0.2413683384656906,-0.6830117106437683,0.2409401535987854,0.1284132897853851,0.0,0.0,0.8184385299682617,-0.4825818538665771
0.0652497261762619,0.3788641691207886,0.2201832085847854,-0.6598615050315857,0.2467402219772339,0.1160011515021324,0.0,0.0,0.5771175622940063,-0.1891888380050659
0.0673959702253341,0.3648547530174255,0.2088252604007721,-0.6236280202865601,0.2526459395885467,0.1181143969297409,0.0,0.0,0.5105271339416504,-0.0450896620750427
0.0696123093366622,0.3508821725845337,0.2155048102140426,-0.6220752000808716,0.2589109539985657,0.1252999603748321,0.0,0.0,0.394980788230896,0.8014630079269409
0.0717901214957237,0.3376181125640869,0.2131985425949096,-0.5903318524360657,0.2635923624038696,0.0936279445886612,0.0,0.0,0.191557765007019,-0.6747604608535767
0.0738133415579795,0.3244152665138244,0.1964916288852691,-0.5878521203994751,0.2695564925670624,0.1192827820777893,0.0,0.0,0.6619687080383301,0.1154032945632934
0.0756217986345291,0.3117807805538177,0.1754242926836013,-0.5625433325767517,0.2751094102859497,0.1110581159591674,0.0,0.0,0.8117287158966064,0.5437487363815308
0.0773729309439659,0.2997847199440002,0.1706591099500656,-0.5339999794960022,0.2796761989593506,0.091335617005825,0.0,0.0,0.4170653820037842,0.4986448287963867
0.078866958618164,0.2884075045585632,0.1454339474439621,-0.5064203143119812,0.2837508916854858,0.0814940929412841,0.0,0.0,0.6226125955581665,0.8538050651550293
0.0803894028067588,0.2775291204452514,0.1498320698738098,-0.4839589297771454,0.2862354218959808,0.0496908314526081,0.0,0.0,0.4250938892364502,0.7368946075439453
0.0818841904401779,0.2667614221572876,0.1485480964183807,-0.4787470400333404,0.2872006595134735,0.0193050112575292,0.0,0.0,0.8252384662628174,0.5839474201202393
0.0834376364946365,0.256178081035614,0.1553251594305038,-0.4703738391399383,0.2872234284877777,0.0004552611499093,0.0,0.0,0.9589293003082277,0.443089485168457
0.0848752036690712,0.2457776814699173,0.1438707262277603,-0.4622127711772918,0.287098228931427,-0.0025040858890861,0.0,0.0,0.8903012275695801,0.0423344373703002
0.0860762596130371,0.2362989038228988,0.1202528700232505,-0.4212545752525329,0.2869558036327362,-0.0028484675567597,0.0,0.0,0.9432501792907716,0.3977813720703125
0.0871216803789138,0.2278603911399841,0.1042269244790077,-0.3751050233840942,0.2872776687145233,0.0064372248016297,0.0,0.0,0.9711518287658693,0.0644974708557128
0.0877835303544998,0.2203877568244934,0.0664398670196533,-0.3320651352405548,0.2870108187198639,-0.0053368895314633,0.0,0.0,0.9549155235290528,0.3438549041748047
0.0882041007280349,0.2130339294672012,0.0429734848439693,-0.3266554474830627,0.2860682308673858,-0.0188517607748508,0.0,0.0,0.624597430229187,0.7743507623672485
0.0885163322091102,0.2064697295427322,0.0335716493427753,-0.2912855148315429,0.2836590409278869,-0.0481835529208183,0.0,0.0,0.9989399909973145,0.2019954919815063
0.08852319419384,0.2004768997430801,0.0035499900113791,-0.2657962739467621,0.2807190120220184,-0.0588008649647235,0.0,0.0,0.8904376029968262,0.8264002799987793
0.0883134827017784,0.1952239125967025,-0.0163725949823856,-0.2325886040925979,0.2759994864463806,-0.0943905115127563,0.0,0.0,0.92006516456604,0.976067066192627
0.0879380255937576,0.1907942593097686,-0.0310239382088184,-0.1956596821546554,0.2693111598491668,-0.1337666660547256,0.0,0.0,-0.3058807849884033,0.7793614864349365
0.0876228362321853,0.1860134154558181,-0.023261783644557,-0.2109815329313278,0.2608572840690613,-0.1690772920846939,0.0,0.0,0.5431206226348877,0.1999866962432861
0.087234117090702,0.1813254207372665,-0.030741024762392,-0.206927478313446,0.2525498867034912,-0.166148230433464,0.0,0.0,0.1930460929870605,0.97209894657135
0.0869070068001747,0.1767322570085525,-0.0226825103163719,-0.2024468928575515,0.2423368692398071,-0.2042602002620697,0.0,0.0,0.63878333568573,0.9891743659973145
0.0866574272513389,0.1726728975772857,-0.0131565285846591,-0.178522989153862,0.230362206697464,-0.239493578672409,0.0,0.0,0.7712241411209106,0.8643883466720581
0.0865123718976974,0.1689265370368957,-0.0012951341923326,-0.1644967496395111,0.216988131403923,-0.2674817144870758,0.0,0.0,-0.4921663999557495,0.9199707508087158
0.0864043235778808,0.1648325473070144,0.0042169308289885,-0.1798177659511566,0.2018263489007949,-0.3032356202602386,0.0,0.0,-0.5908711552619934,0.0296617746353149
0.0862593650817871,0.1603614836931228,0.0005089183105155,-0.1967330873012542,0.1867183744907379,-0.3021592199802398,0.0,0.0,-0.4476135373115539,-0.5641471743583679
0.0860376358032226,0.1555054783821106,-0.0080602522939443,-0.2141058146953582,0.1725625246763229,-0.28311687707901,0.0,0.0,-0.2681323289871216,-0.8516892790794373
0.0857157707214355,0.1502485573291778,-0.019530214369297,-0.232217252254486,0.1598904430866241,-0.2534418702125549,0.0,0.0,-0.2975120544433594,-0.7843750715255737
0.0852770805358886,0.1445952504873275,-0.0329488925635814,-0.2501243054866791,0.1489857286214828,-0.2180943936109542,0.0,0.0,0.4104150533676147,-0.8561820983886719
0.0846873298287391,0.1396689265966415,-0.0499099865555763,-0.2180624902248382,0.1399418860673904,-0.1808767616748809,0.0,0.0,-0.124735414981842,-0.8751031160354614
0.0839676856994628,0.1343482136726379,-0.0647781267762184,-0.2358185201883316,0.1327768415212631,-0.1433007419109344,0.0,0.0,0.2470335960388183,-0.2747727036476135
0.083012580871582,0.1295222342014312,-0.0879344642162323,-0.2138313800096511,0.1252404898405075,-0.1507271379232406,0.0,0.0,-0.5255101323127747,0.8649981021881104
0.0820682495832443,0.1243362054228782,-0.0849373489618301,-0.2297211736440658,0.1157897189259529,-0.1890151351690292,0.0,0.0,-0.5248427391052246,-0.3088489174842834
0.0810534507036209,0.1187712997198104,-0.0920281857252121,-0.2466248124837875,0.1064046174287796,-0.1877019554376602,0.0,0.0,-0.7007032632827759,-0.722954273223877
0.0798996910452842,0.1128220856189727,-0.1076272502541542,-0.263877123594284,0.098724216222763,-0.1536080539226532,0.0,0.0,-0.3794170022010803,0.8468751907348633
0.0787329673767089,0.1065004467964172,-0.1073652282357215,-0.2803731858730316,0.0894938334822654,-0.1846078187227249,0.0,0.0,-0.6491264700889587,-0.2366619706153869
0.0774858444929122,0.0997998565435409,-0.1154629215598106,-0.2972764074802398,0.0803320482373237,-0.1832357048988342,0.0,0.0,-0.2726084589958191,0.455254316329956
0.0761553794145584,0.0927202552556991,-0.1238618865609169,-0.3141794800758362,0.0712396651506424,-0.1818476319313049,0.0,0.0,0.1580855846405029,0.6202242374420166
0.0748343467712402,0.0860332548618316,-0.121863268315792,-0.296743780374527,0.0611076019704341,-0.2026411741971969,0.0,0.0,-0.2541544437408447,-0.3344689607620239
0.0734244361519813,0.0789675340056419,-0.1308142244815826,-0.3136483132839203,0.0510463006794452,-0.2012260258197784,0.0,0.0,0.7630171775817871,0.0544918775558471
0.0720362663269043,0.0727543905377388,-0.1294338405132293,-0.2758464515209198,0.0417722724378109,-0.1854806542396545,0.0,0.0,0.5870770215988159,-0.3359279632568359
0.0705013275146484,0.0672781094908714,-0.1440760791301727,-0.2431534081697464,0.0324683114886283,-0.1860793679952621,0.0,0.0,-0.3631497621536255,0.4059089422225952
0.0688705444335937,0.0614228807389736,-0.1537356525659561,-0.2600564360618591,0.0232364926487207,-0.1846361458301544,0.0,0.0,0.3017454147338867,0.1508724689483642
0.0671913176774978,0.0558755733072757,-0.1589331328868866,-0.2464330345392227,0.0143552357330918,-0.177625298500061,0.0,0.0,0.3119245767593384,0.091076374053955
0.0653970688581466,0.0509215705096721,-0.1704658716917038,-0.2201219648122787,0.0055202590301632,-0.1766994893550872,0.0,0.0,-0.223658800125122,-0.1113739609718322
0.0635013580322265,0.0455884076654911,-0.1807037740945816,-0.2370241433382034,-0.0032417068723589,-0.1752392649650573,0.0,0.0,0.4490928649902344,0.0238211154937744
0.0615741722285747,0.0404789075255394,-0.1842407882213592,-0.2271317839622497,-0.0116035658866167,-0.167237251996994,0.0,0.0,0.7621331214904785,0.178725004196167
0.0594194419682025,0.0359815917909145,-0.2064670026302337,-0.1999749690294265,-0.020495556294918,-0.1778400689363479,0.0,0.0,0.7084169387817383,0.5644253492355347
0.0570716857910156,0.0319050662219524,-0.2243202477693557,-0.181351289153099,-0.0308114606887102,-0.2063180953264236,0.0,0.0,0.1067186594009399,0.1583597660064697
0.0546136870980262,0.0280166491866111,-0.2353674471378326,-0.1730644553899765,-0.041120495647192,-0.2061807662248611,0.0,0.0,0.1309186220169067,0.221182107925415
0.0520796775817871,0.0242956727743148,-0.2431333810091018,-0.1656920462846756,-0.0512736514210701,-0.203062891960144,0.0,0.0,0.437479019165039,0.6131172180175781
0.0496238693594932,0.020645722746849,-0.2344084233045578,-0.1626366674900055,-0.0623131655156612,-0.2207903414964676,0.0,0.0,0.3497359752655029,-0.3148826360702514
0.0471714027225971,0.0174460262060165,-0.2345345467329025,-0.1426881849765777,-0.0729105398058891,-0.2119477987289428,0.0,0.0,0.537238597869873,-0.2185651659965515
0.0446849837899208,0.014987907372415,-0.2381275445222854,-0.1097977384924888,-0.0833262354135513,-0.2083137929439544,0.0,0.0,-0.0130744576454162,-0.1115128993988037
0.04208555072546,0.0121509172022342,-0.2494973838329315,-0.1267018914222717,-0.093668021261692,-0.2068357169628143,0.0,0.0,0.3258072137832641,-0.3268198370933532
