x_pos,y_pos,x_vel,y_vel,angle,ang_vel,leg_1,leg_2,main_booster,lat_booster
-0.0016021728515625,1.4029096364974976,-0.1629728972911834,-0.3560222089290619,0.0024726544506847,0.0488278716802597,0.0,0.0,-0.8631158464294568,-0.7418736804374589
-0.003335952758789,1.394203782081604,-0.1778219491243362,-0.386938214302063,0.0068741152063012,0.0880381539463996,0.0,0.0,-0.7812248984496433,0.571079241377365
-0.0050921440124511,1.384779453277588,-0.1793301850557327,-0.4188874959945678,0.0105461729690432,0.0734478682279586,0.0,0.0,-0.8466784108869347,-0.0508590485076559
-0.0069246292114257,1.3746402263641355,-0.1876221001148224,-0.450663685798645,0.0148729914799332,0.0865439772605896,0.0,0.0,0.6224956364197227,0.9541573979384596
-0.0086242677643895,1.3647550344467163,-0.1732947379350662,-0.4393824338912964,0.0181706715375185,0.0659599229693412,0.0,0.0,-0.3774940856508415,-0.8414764839759282
-0.0104492185637354,1.3541526794433594,-0.1877942830324173,-0.4712949693202972,0.0234145168215036,0.1048861145973205,0.0,0.0,-0.4108066136704777,-0.266690211678137
-0.0123472213745117,1.3428360223770142,-0.195768341422081,-0.5030655860900879,0.0293177459388971,0.1180752366781234,0.0,0.0,0.9453730685180136,0.7028700957570055
-0.0140944477170705,1.3319604396820068,-0.1804551631212234,-0.4834886193275451,0.0349844731390476,0.1133451089262962,0.0,0.0,0.951564986816112,-0.6238501922042698
-0.0160112380981445,1.3218556642532349,-0.199276328086853,-0.4492920339107513,0.0425064526498317,0.1504533290863037,0.0,0.0,-0.3864192925787832,0.0395926943715814
-0.0179968830198049,1.3110371828079224,-0.2068438082933426,-0.4810775816440582,0.0506921634078025,0.1637294292449951,0.0,0.0,0.441071070507161,-0.0442247838248749
-0.0200013164430856,1.300287842750549,-0.2097290456295013,-0.478085309267044,0.0598997250199317,0.1841682344675064,0.0,0.0,0.4561803840792897,-0.95205899547902
-0.0221030227839946,1.289520502090454,-0.2221162021160125,-0.4790708124637604,0.0717355012893676,0.2367369681596756,0.0,0.0,0.2770151171477228,-0.5957667681085261
-0.024243926629424,1.2788599729537964,-0.2281051129102707,-0.4745356440544128,0.085638552904129,0.2780861258506775,0.0,0.0,-0.2223557259663675,0.5133402022011491
-0.0264016147702932,1.267488718032837,-0.2293005287647247,-0.5062205791473389,0.0990716367959976,0.2686863541603088,0.0,0.0,-0.3849607070423435,-0.5900321456549349
-0.0286551471799612,1.2554068565368652,-0.2404367625713348,-0.5380346775054932,0.1140679866075515,0.2999541461467743,0.0,0.0,0.9611476536570414,-0.8984496168755268
-0.0309341438114643,1.2431424856185913,-0.2457054108381271,-0.5465379953384399,0.1318086236715316,0.3548453748226166,0.0,0.0,-0.445094287995357,0.3720467573634647
-0.0332685485482215,1.2301688194274902,-0.2518787086009979,-0.5783481597900391,0.1502124965190887,0.3681109547615051,0.0,0.0,0.3111340032053187,0.4482787278785443
-0.0355887413024902,1.2169526815414429,-0.2515882551670074,-0.5894814729690552,0.1698102056980133,0.3919897675514221,0.0,0.0,-0.9461532012453816,0.7847632529429015
-0.0378891937434673,1.2030531167984009,-0.2483959197998047,-0.6199594736099243,0.1882421970367431,0.3686731159687042,0.0,0.0,0.18974438669982,0.7485335743256506
-0.0403199195861816,1.1890428066253662,-0.2604605555534363,-0.6249846816062927,0.2057655751705169,0.3504993319511413,0.0,0.0,0.1395275170361789,-0.2678653872733866
-0.0428145416080951,1.175112009048462,-0.2678437829017639,-0.6218159794807434,0.224359780550003,0.3719180226325989,0.0,0.0,-0.6326323494759631,-0.542028524214047
-0.0453904159367084,1.1604559421539309,-0.2775991559028625,-0.6545530557632446,0.2446836233139038,0.4065131247043609,0.0,0.0,-0.4455905587295214,-0.0467242018984908
-0.0480040535330772,1.1450923681259155,-0.2819068133831024,-0.6863766312599182,0.2656629681587219,0.4196250438690185,0.0,0.0,0.2002457009255109,0.9339281719431668
-0.0505811683833599,1.129392147064209,-0.2769584357738495,-0.7014070153236389,0.2854315936565399,0.3954080939292907,0.0,0.0,-0.6902167581145724,0.878821638029936
-0.0531380660831928,1.1130084991455078,-0.2741385102272033,-0.7318822145462036,0.3044866919517517,0.3811354637145996,0.0,0.0,0.2360925643286651,0.7642293465354508
-0.0559358596801757,1.096625566482544,-0.2971319556236267,-0.7318699359893799,0.3225045800209045,0.3603578209877014,0.0,0.0,-0.8504755349783177,-0.8652052225709469
-0.0588202476501464,1.0795083045959473,-0.3079968690872192,-0.7652601599693298,0.3429207503795624,0.4083229005336761,0.0,0.0,0.4271113073141623,-0.534503605828899
-0.062117576599121,1.0626142024993896,-0.3505151271820068,-0.7559505105018616,0.3647864460945129,0.4373145699501037,0.0,0.0,0.8613604940433055,-0.3611132882932837
-0.0658766776323318,1.0461585521697998,-0.3964884579181671,-0.736758291721344,0.3866147100925445,0.436565488576889,0.0,0.0,-0.6654701375643166,0.3354225139160994
-0.0696445479989051,1.0289971828460691,-0.3977768421173095,-0.768585741519928,0.4090825319290161,0.4493567049503326,0.0,0.0,0.3070930662336464,0.9233593626982106
-0.0736038237810134,1.0121150016784668,-0.4155305922031402,-0.7561365365982056,0.4302685558795929,0.4237209260463714,0.0,0.0,-0.688950777053833,0.999199628829956
-0.0774987190961837,0.9945639967918396,-0.4078478217124939,-0.7857933044433594,0.4502856135368347,0.4003410935401916,0.0,0.0,-0.7399633526802063,0.99604070186615
-0.0813304930925369,0.9763585925102234,-0.400285392999649,-0.8147622346878052,0.4691242575645447,0.3767727017402649,0.0,0.0,-0.8176589608192444,0.9907429218292236
-0.0850872993469238,0.9574849605560304,-0.3915400803089142,-0.8442850112915039,0.4867455661296844,0.352426141500473,0.0,0.0,-0.3731155395507812,0.9943195581436156
-0.0887589454650878,0.937961757183075,-0.3815316259860992,-0.8728541731834412,0.5028385519981384,0.3218597769737243,0.0,0.0,-0.5075811743736267,0.9891204833984376
-0.0923434272408485,0.917794406414032,-0.3713177442550659,-0.901123046875,0.5173889994621277,0.2910094857215881,0.0,0.0,-0.6537953019142151,0.993199348449707
-0.0958369225263595,0.8969689011573792,-0.3609010577201843,-0.93001526594162,0.5305525660514832,0.2632699906826019,0.0,0.0,-0.3860369920730591,0.9739946126937866
-0.0992339104413986,0.8755022287368774,-0.3497703969478607,-0.9580609798431396,0.5421183705329895,0.2313158065080642,0.0,0.0,-0.0123656392097473,0.9104318618774414
-0.1025435477495193,0.8533861041069031,-0.3399196267127991,-0.9865695238113404,0.5524661540985107,0.2069559842348098,0.0,0.0,-0.3639440536499023,0.9800949096679688
-0.1057469397783279,0.830624520778656,-0.3278923332691192,-1.014755129814148,0.5612289309501648,0.1752559393644333,0.0,0.0,0.1192693710327148,0.8692505359649658
-0.1092052459716796,0.8078157305717468,-0.3522353768348694,-1.0164307355880735,0.5687191486358643,0.1498047858476638,0.0,0.0,-0.268925130367279,0.898521900177002
-0.1125448197126388,0.784363329410553,-0.3388786911964416,-1.044440507888794,0.5744938254356384,0.1154932230710983,0.0,0.0,-0.4667175412178039,0.6771395206451416
-0.1157793998718261,0.7602443099021912,-0.3274447619915008,-1.0736851692199707,0.5791906714439392,0.0939375609159469,0.0,0.0,-0.2030085325241089,0.870269775390625
-0.1188927665352821,0.7354783415794373,-0.3139719367027282,-1.1018695831298828,0.582306981086731,0.0623263716697692,0.0,0.0,-0.0858246088027954,0.7565405368804932
-0.1218987479805946,0.7100396752357483,-0.3024635016918182,-1.131427526473999,0.5845116972923279,0.044093832373619,0.0,0.0,0.2701730728149414,0.8149387836456299
-0.1248955726623535,0.6842905879020691,-0.3005964159965515,-1.1448010206222534,0.5855937600135803,0.0216407291591167,0.0,0.0,0.1291220188140869,0.9018106460571288
-0.127895638346672,0.6583073735237122,-0.2997817695140838,-1.1547067165374756,0.5853233337402344,-0.0054090903140604,0.0,0.0,0.3288707733154297,0.9120755195617676
-0.1312297880649566,0.6324329972267151,-0.3319580852985382,-1.1493271589279177,0.5836010575294495,-0.0344456955790519,0.0,0.0,0.2992140054702759,0.6298775672912598
-0.1348925530910492,0.6065738797187805,-0.3639947175979614,-1.148294448852539,0.5809048414230347,-0.0539237856864929,0.0,0.0,0.5561791658401489,-0.1811622381210327
-0.1387620866298675,0.5805884599685669,-0.3850774765014648,-1.1540852785110474,0.5786852836608887,-0.0443910136818885,0.0,0.0,-0.2649495601654053,-0.6783678531646729
-0.1425901353359222,0.553859293460846,-0.3823391497135162,-1.1877630949020386,0.5781394839286804,-0.010915445163846,0.0,0.0,-0.1530234813690185,-0.824198842048645
-0.1464016884565353,0.5263663530349731,-0.3828034996986389,-1.2226264476776123,0.5800820589065552,0.0388512760400772,0.0,0.0,0.0895661115646362,-0.6109118461608887
-0.1502656042575836,0.498555064201355,-0.3896955847740173,-1.2375069856643677,0.5839923024177551,0.0782048180699348,0.0,0.0,-0.3948789834976196,-0.8572142720222473
-0.1541067063808441,0.4699850380420685,-0.3894037902355194,-1.2721278667449951,0.5902717113494873,0.1255880296230316,0.0,0.0,-0.2852188348770141,-0.6439670324325562
-0.1578954756259918,0.4406713545322418,-0.3854829668998718,-1.3058050870895386,0.5981432795524597,0.1574307978153228,0.0,0.0,-0.8677921295166016,-0.552740216255188
-0.1616401672363281,0.4106037318706512,-0.3826551139354706,-1.3400877714157104,0.6079393625259399,0.1959219276905059,0.0,0.0,-0.8249624967575073,-0.6955074667930603
-0.1653395593166351,0.379792720079422,-0.3795364201068878,-1.37388014793396,0.6195268034934998,0.2317487448453903,0.0,0.0,-0.8795080184936523,-0.6196753978729248
-0.1689836531877517,0.3482424318790436,-0.3752070963382721,-1.4074338674545288,0.632672905921936,0.2629211544990539,0.0,0.0,-0.8946546912193298,-0.6342940330505371
-0.1725777685642242,0.3159505724906921,-0.3714960217475891,-1.4411863088607788,0.6475366353988647,0.2972747683525085,0.0,0.0,-0.9056845903396606,-0.7489125728607178
-0.1761385947465896,0.2828966677188873,-0.3699073195457458,-1.4761415719985962,0.664743185043335,0.3441308140754699,0.0,0.0,-0.9077919125556946,-0.3999580144882202
-0.1796107292175293,0.2491353154182434,-0.361246258020401,-1.5079573392868042,0.6824575066566467,0.3542866110801697,0.0,0.0,-0.809235692024231,0.2689311504364013
-0.1829933226108551,0.2146667093038559,-0.35248464345932,-1.5397742986679075,0.7006717920303345,0.3642856478691101,0.0,0.0,-0.8080242872238159,0.7641526460647583
-0.1862304657697677,0.1795578747987747,-0.3365385830402374,-1.5677165985107422,0.7173483371734619,0.3335305154323578,0.0,0.0,-0.6358954906463623,0.8538632392883301
-0.1893252432346344,0.1438094675540924,-0.3210024237632751,-1.5956157445907593,0.7325387001037598,0.3038077652454376,0.0,0.0,-0.5788241624832153,0.9332902431488036
-0.1922704726457595,0.1074205487966537,-0.3046895861625671,-1.623457670211792,0.7461113929748535,0.2714541554450989,0.0,0.0,-0.514324963092804,0.7359983921051025
-0.1950899064540863,0.0703687965869903,-0.2913601696491241,-1.6526161432266235,0.7588403224945068,0.2545790076255798,0.0,1.0,0.9896254539489746,0.999918818473816
-0.1948751509189605,0.0594862550497055,-0.1186425909399986,-0.6466516852378845,0.9282028079032898,3.003623008728028,0.0,1.0,-0.9966353178024292,-0.989363729953766
-0.19525146484375,0.0463080257177352,-0.1200563162565231,-0.6843563914299011,1.0815260410308838,3.0469038486480717,0.0,1.0,-0.9902220368385316,-0.9794185161590576
-0.1958684921264648,0.0326856933534145,-0.1213979348540306,-0.7217461466789246,1.241014838218689,3.0963287353515625,0.0,1.0,-0.9882391095161438,-0.9562603235244752
-0.1970652639865875,0.019816456362605,-0.1201455220580101,-0.7612767815589905,1.4217042922973633,3.1479294300079346,0.0,1.0,-0.9824151992797852,-0.9199228286743164
-0.1982154846191406,0.0048725460655987,-0.1169622987508773,-0.8002635836601257,1.5906769037246704,3.1947884559631348,0.0,0.0,-0.485482394695282,0.5228844881057739
-0.1973805427551269,0.0051033948548138,0.1033719331026077,-0.0447488948702812,1.5863189697265625,-0.2255494892597198,0.0,0.0,-0.485482394695282,0.5228844881057739
