x_pos,y_pos,x_vel,y_vel,angle,ang_vel,leg_1,leg_2,main_booster,lat_booster
-0.0015026092296466,1.403501033782959,-0.1520470380783081,-0.3297338783740997,0.0016011861152946,0.0315725319087505,0.0,0.0,0.6887400141936593,-0.8877915265102486
-0.0029948235023766,1.3966847658157349,-0.1525266021490097,-0.3029517531394958,0.0048732198774814,0.0654474049806594,0.0,0.0,0.0297013096533527,-0.8262726903495934
-0.0044329641386866,1.3901166915893557,-0.1486641764640808,-0.2919405400753021,0.0096766632050275,0.0960774198174476,0.0,0.0,-0.5524428717423409,0.7404115162304972
-0.0058010099455714,1.3834234476089478,-0.1403286606073379,-0.2974987924098968,0.0131725715473294,0.0699245184659957,0.0,0.0,0.1007836973599838,-0.8777852633179312
-0.0071188928559422,1.3772623538970947,-0.136998251080513,-0.2738841474056244,0.0183238554745912,0.1030351668596267,0.0,0.0,-0.8733074524322291,-0.7959613768651677
-0.0084604267030954,1.3709756135940552,-0.1404750049114227,-0.2794999182224273,0.0245768055319786,0.1250706017017364,0.0,0.0,-0.7149697787881089,0.8404045864717775
-0.0097128869965672,1.3645683526992798,-0.1298451721668243,-0.2848527133464813,0.0291216503828763,0.0909054577350616,0.0,0.0,-0.4018133068816831,-0.804900042048615
-0.010986995883286,1.3580381870269775,-0.1331246644258499,-0.2903495132923126,0.0347689874470233,0.1129569187760353,0.0,0.0,0.8964129946092909,0.6091085524044214
-0.0122349737212061,1.352833271026611,-0.1291511356830597,-0.2314369827508926,0.0390762872993946,0.0861542969942092,0.0,0.0,0.4619482413111107,0.897367627956477
-0.0134110450744628,1.348477840423584,-0.120087906718254,-0.1936374306678772,0.0415228232741355,0.0489352121949195,0.0,0.0,0.2902467882510275,0.9041586106773388
-0.0144300460815429,1.3447046279907229,-0.1025500148534774,-0.1677112579345703,0.0421673357486724,0.0128914508968591,0.0,0.0,-0.3220544247894508,-0.753763909905622
-0.0154729839414358,1.3408033847808838,-0.1062161922454834,-0.1734505146741867,0.0440667085349559,0.0379911884665489,0.0,0.0,-0.2828827240837326,0.6585229172979231
-0.016424274072051,1.3367862701416016,-0.0953737273812294,-0.1785496920347213,0.044318713247776,0.0050406185910105,0.0,0.0,0.112338739196111,-0.8223189460751067
-0.0173672679811716,1.3329955339431765,-0.0962004587054252,-0.1685305088758468,0.0461870022118091,0.0373694710433483,0.0,0.0,-0.1510922988147292,0.6976671131030785
-0.0182130821049213,1.329093337059021,-0.0846972614526748,-0.1734346598386764,0.0463014841079711,0.0022899974137544,0.0,0.0,-0.942175680370472,-0.8792564392259798
-0.019085120409727,1.3250534534454346,-0.0887261405587196,-0.1795953214168548,0.0478111207485199,0.0301957130432128,0.0,0.0,-0.3910071680189813,0.6213573257960603
-0.019866656512022,1.320901870727539,-0.0781170427799224,-0.1845171153545379,0.0477735139429569,-0.0007521252846345,0.0,0.0,-0.772985711469153,0.9128119473479204
-0.0205280296504497,1.316625475883484,-0.0638102144002914,-0.1899893432855606,0.0454743131995201,-0.0459883697330951,0.0,0.0,-0.3162540933692834,0.971518755024962
-0.021069336682558,1.3122410774230957,-0.0495206452906131,-0.194727137684822,0.0409172549843788,-0.0911495462059974,0.0,0.0,-0.3335227438050854,0.6265968070350618
-0.0215359684079885,1.3077359199523926,-0.0409616641700267,-0.2000791281461715,0.0352726466953754,-0.1129024475812912,0.0,0.0,0.1069761291067141,0.7242288955601793
-0.0218337066471576,1.3038767576217651,-0.0227028746157884,-0.1713691800832748,0.0282783210277557,-0.139899268746376,0.0,0.0,-0.1779254996251758,0.6879075859708931
-0.0220436099916696,1.2998933792114258,-0.0125056328251957,-0.1769044250249862,0.0198923572897911,-0.1677342355251312,0.0,0.0,0.9183297440697392,-0.6917686039060491
-0.0221255309879779,1.2967376708984375,-0.0015192683786153,-0.1401756703853607,0.0132929384708404,-0.1320001780986786,0.0,0.0,-0.4497064215878299,0.9765222996706724
-0.0220883376896381,1.2934499979019165,0.0125802773982286,-0.1460572183132171,0.0045372508466243,-0.1751294732093811,0.0,0.0,0.0066501010248258,0.9232627893563392
-0.0220503807067871,1.2906309366226196,0.0144592355936765,-0.1252913624048233,-0.0060055856592953,-0.2108756303787231,0.0,0.0,-0.2892188334037868,-0.8981469989196844
-0.0220674518495798,1.2876737117767334,0.0067003956064581,-0.1314845979213714,-0.0143112940713763,-0.1661138534545898,0.0,0.0,0.354386129576314,0.9673155786878131
-0.0219624526798725,1.285491943359375,0.0208330303430557,-0.09710094332695,-0.0245162211358547,-0.2040987312793731,0.0,0.0,-0.1834085076907177,-0.9781803154290422
-0.0219179149717092,1.2832014560699463,0.0123567478731274,-0.101947046816349,-0.0323274247348308,-0.1562238484621048,0.0,0.0,0.2372564155496286,0.8065592170164377
-0.0218686107546091,1.2816673517227173,0.0145457219332456,-0.0684205815196037,-0.0418183654546737,-0.1898187845945358,0.0,0.0,-0.9447280654963146,-0.7374428540589527
-0.0218458175659179,1.280011773109436,0.0103167686611413,-0.0738220885396003,-0.0497605800628662,-0.1588441431522369,0.0,0.0,0.4537547145344598,-0.7811677810434033
-0.0217950828373432,1.2793617248535156,0.0114762727171182,-0.0291174557060003,-0.0560859404504299,-0.1265071630477905,0.0,0.0,0.5797317415167567,-0.7623191615047713
-0.0218291282653808,1.2792236804962158,0.001569241285324,-0.0063241492025554,-0.0610083229839801,-0.0984476953744888,0.0,0.0,-0.4090030215048839,-0.6365617672046606
-0.0218859668821096,1.2789738178253174,-0.0021986712235957,-0.0112504996359348,-0.0644523948431015,-0.0688815936446189,0.0,0.0,-0.9840344241607836,0.6517018205285277
-0.0218626968562603,1.2785905599594116,0.0069411396980285,-0.0172441862523555,-0.0690207183361053,-0.0913661643862724,0.0,0.0,0.4123230061874758,0.7249292713779449
-0.021695327013731,1.278880596160889,0.0227438081055879,0.0125987734645605,-0.0749690160155296,-0.118966020643711,0.0,0.0,-0.8244279432152641,-0.6258433263806423
-0.0215412136167287,1.2790576219558716,0.020162945613265,0.0076229954138398,-0.079669564962387,-0.0940109714865684,0.0,0.0,-0.7317397518667461,0.9609477290390828
-0.0212803836911916,1.2790981531143188,0.0326466560363769,0.0014373839367181,-0.0861647874116897,-0.1299045383930206,0.0,0.0,0.9594904111384448,0.600280447412059
-0.0208115577697753,1.2803573608398438,0.0544642433524131,0.0555102862417697,-0.0936847701668739,-0.1503995656967163,0.0,0.0,0.7820775803126907,-0.8706636880091255
-0.0203378684818744,1.282876968383789,0.0532535538077354,0.1116042807698249,-0.0995137318968772,-0.1165793165564537,0.0,0.0,0.5721932488206776,0.6393408436938443
-0.0196924209594726,1.2861261367797852,0.0715987831354141,0.1439188122749328,-0.1065188348293304,-0.1401018947362899,0.0,0.0,0.2716393530020959,0.7926134717020819
-0.0189785957336425,1.2901580333709717,0.0800990462303161,0.178551509976387,-0.1151705980300903,-0.1730353236198425,0.0,0.0,-0.6043127775192261,-0.8655380010604858
-0.0182842258363962,1.2940748929977417,0.0767281353473663,0.1735007166862487,-0.122421033680439,-0.1450088322162628,0.0,0.0,-0.3685659170150757,-0.9717114567756652
-0.0176201816648244,1.2978700399398804,0.0720435827970504,0.1681995540857315,-0.1280233711004257,-0.1120466589927673,0.0,0.0,-0.5107369422912598,-0.8960103988647461
-0.0169802661985158,1.3015515804290771,0.0680942609906196,0.1632668673992157,-0.1321098208427429,-0.0817286670207977,0.0,0.0,-0.2788578867912292,-0.2321248054504394
-0.0163057334721088,1.305109977722168,0.071531169116497,0.1577838212251663,-0.1361778676509857,-0.0813606604933738,0.0,0.0,-0.5109727382659912,-0.567482590675354
-0.0156383514404296,1.3085479736328125,0.0697587728500366,0.1525170505046844,-0.1391873359680175,-0.0601893551647663,0.0,0.0,-0.5741079449653625,-0.2096385955810547
-0.0149365421384572,1.3118627071380615,0.0731950923800468,0.147034540772438,-0.1421877443790435,-0.0600084289908409,0.0,0.0,-0.18000328540802,-0.4863613247871399
-0.0142003055661916,1.3150540590286257,0.0766300037503242,0.1415519714355468,-0.1451844722032547,-0.0599347427487373,0.0,0.0,-0.5657393932342529,-0.345309853553772
-0.0134297367185354,1.318122386932373,0.0800627619028091,0.1360693424940109,-0.1481833308935165,-0.0599773600697517,0.0,0.0,-0.3493702411651611,-0.6601471900939941
-0.0126785282045602,1.3210773468017578,0.0767623037099838,0.1311708241701126,-0.1498249471187591,-0.0328324213624,0.0,0.0,-0.3128091096878052,-0.167825162410736
-0.0118932723999023,1.323909044265747,0.0801885947585105,0.1256885677576065,-0.1514816731214523,-0.0331346876919269,0.0,0.0,-0.4339715838432312,-0.1600477695465088
-0.0110739711672067,1.3266175985336304,0.083610400557518,0.120206207036972,-0.1531606763601303,-0.0335800796747207,0.0,0.0,-0.3208475112915039,-0.3085730075836181
-0.0102209094911813,1.3292027711868286,0.087026871740818,0.114723727107048,-0.1548695415258407,-0.0341772399842739,0.0,0.0,-0.4359637498855591,-0.3578097820281982
-0.0093339923769235,1.331664800643921,0.090437114238739,0.1092411503195762,-0.1566162705421447,-0.0349347069859504,0.0,0.0,-0.6167497038841248,-0.7951552271842957
-0.0084606166929006,1.334011793136597,0.0879393070936203,0.1042448207736015,-0.1572134047746658,-0.0119427926838397,0.0,0.0,-0.1257150769233703,-0.2255625128746032
-0.0075537683442234,1.336235523223877,0.0913342460989952,0.0987622216343879,-0.1578656882047653,-0.0130456490442156,0.0,0.0,-0.3823633790016174,0.1523425579071045
-0.0066137313842773,1.3383359909057615,0.0947199612855911,0.0932794883847236,-0.158582329750061,-0.0143332090228796,0.0,0.0,-0.0775078535079956,-0.3395799398422241
-0.0056406976655125,1.3403133153915403,0.0980953276157379,0.087796613574028,-0.1593729853630066,-0.0158130340278148,0.0,0.0,-0.515529990196228,0.070350170135498
-0.0046348571777343,1.3421674966812134,0.1014591455459594,0.0823136046528816,-0.1602476090192794,-0.0174925196915864,0.0,0.0,-0.0621029138565063,0.1159095764160156
-0.0035964965354651,1.3438984155654907,0.1048101186752319,0.0768304318189621,-0.1612165570259094,-0.0193786807358264,0.0,0.0,-0.1610676646232605,-0.0688741207122802
-0.002525710966438,1.3455064296722412,0.108146846294403,0.07134710252285,-0.1622904688119888,-0.0214781928807497,0.0,0.0,-0.588946521282196,-0.4346870183944702
-0.0014229774242267,1.3469911813735962,0.1114678755402565,0.0658635944128036,-0.1634803563356399,-0.0237973779439926,0.0,0.0,-0.5922852754592896,-0.6724370718002319
-0.0003302574041299,1.348361611366272,0.1095157712697982,0.0608812980353832,-0.1637281328439712,-0.0049555134028196,0.0,0.0,-0.3363434076309204,-0.7435663342475891
0.0007383346674032,1.3496239185333252,0.1058120131492614,0.0562169924378395,-0.1626833826303482,0.0208949949592351,0.0,0.0,-0.3402349948883056,0.0324093103408813
0.0018379210960119,1.3507633209228516,0.1090758591890335,0.0507330186665058,-0.1617892235517501,0.0178828686475753,0.0,0.0,-0.1010798811912536,-0.8381555080413818
0.0028896331787109,1.351799488067627,0.1024182066321373,0.0463473536074161,-0.1590344011783599,0.0550964586436748,0.0,0.0,-0.4513086676597595,-0.7692940831184387
0.0039149285294115,1.3527355194091797,0.0984538346529007,0.04203412681818,-0.1549644470214843,0.0813990235328674,0.0,0.0,-0.5219469666481018,0.5721280574798584
0.0050203325226902,1.3535301685333252,0.1079513430595398,0.0355840474367141,-0.1523865461349487,0.05155810713768,0.0,0.0,-0.6880913972854614,-0.3936105966567993
0.0061552999541163,1.3542020320892334,0.111109972000122,0.0300991162657737,-0.1500085443258285,0.0475601330399513,0.0,0.0,-0.5796418190002441,-0.5155545473098755
-999.0,1.3547593355178833,0.1083603128790855,0.0251050535589456,-0.1466519236564636,0.067131794989109,0.0,0.0,-0.7219619154930115,-0.1180111169815063
0.0084182741120457,1.355193853378296,0.1114507764577865,0.0196195188909769,-0.1435207277536392,0.0626240372657775,0.0,0.0,-0.2202341556549072,0.5452570915222168
0.0096372608095407,1.3554970026016235,0.1201454848051071,0.013636415824294,-0.1417730897665023,0.0349526405334472,0.0,0.0,-0.6231862306594849,-0.6953200101852417
0.0108184814453125,1.355699062347412,0.1149304136633873,0.0092832678928971,-0.1385853737592697,0.0637539327144622,0.0,0.0,-0.3010457158088684,-0.3931092023849487
0.0120267868041992,1.355778455734253,0.1178944855928421,0.0037975297309458,-0.1356616914272308,0.0584737248718738,0.0,0.0,-0.8020270466804504,0.1253272294998169
0.0132615091279149,1.355734944343567,0.1208089739084243,-0.0016881559276953,-0.1330148726701736,0.0529362633824348,0.0,0.0,-0.8230974078178406,-0.4750075340270996
0.0145218847319483,1.3555688858032229,0.123669683933258,-0.0071737947873771,-0.130657747387886,0.0471426881849765,0.0,0.0,-0.6029648780822754,-0.4494279026985168
0.0158072467893362,0.0,0.1264721304178238,-0.0126593969762325,-0.1286030113697052,0.0410946831107139,0.0,0.0,-0.6577292680740356,-0.8459322452545166
0.0170503612607717,1.3548890352249146,0.1208298578858375,-0.0170797500759363,-0.1251468956470489,0.0691227093338966,0.0,0.0,-0.8823201060295105,-0.6204075217247009
0.0182751659303903,1.354389786720276,0.1182521730661392,-0.0218483172357082,-0.1209413707256317,0.0841102823615074,0.0,0.0,-0.5502783060073853,-0.5596094131469727
0.0194709785282611,1.3537830114364624,0.1143503785133361,-0.0265566818416118,-0.1157480031251907,0.1038674712181091,0.0,0.0,-0.4885362386703491,-0.2417895197868347
0.0206884387880563,1.3530535697937012,0.1168687343597412,-0.032044168561697,-0.110906533896923,0.0968295931816101,0.0,0.0,-0.5673637390136719,-0.090345025062561
0.0219265930354595,1.3522018194198608,0.1193021163344383,-0.0375313311815261,-0.106428824365139,0.0895539969205856,0.0,0.0,-0.7179040908813477,0.5986040830612183
0.0232234951108694,1.351220965385437,0.1265602856874466,-0.043370496481657,-0.1033196300268173,0.0621841661632061,0.0,0.0,-0.7848185896873474,-0.7366405129432678
0.0244759563356637,1.3501304388046265,0.1208880320191383,-0.0481708645820617,-0.0989934578537941,0.0865235775709152,0.0,0.0,-0.746924877166748,0.6996517181396484
0.0258000381290912,0.0,0.1298281848430633,-0.0539482980966568,-0.096431128680706,0.0512465834617614,0.0,0.0,-0.1197271943092346,-0.1162194013595581
0.0271403305232524,1.3475724458694458,0.1318573951721191,-0.0594339817762374,-0.0942774787545204,0.0430729612708091,0.0,0.0,-0.07169771194458,-0.7973698377609253
0.0284346584230661,1.3461099863052368,0.1261472254991531,-0.0647899061441421,-0.0910189151763916,0.0651710405945777,0.0,0.0,-0.9491036534309388,-0.0129967331886291
0.0297425277531147,1.3445250988006592,0.1279333531856537,-0.0702759027481079,-0.0881896689534187,0.056585032492876,0.0,0.0,-0.5823177695274353,0.4084655046463012
0.0310625080019235,1.342817306518555,0.1295876055955886,-0.0757616460323333,-0.0857995077967643,0.047803096473217,0.0,0.0,-0.831419050693512,0.3808043003082275
0.0323930755257606,1.340986728668213,0.1311031430959701,-0.0812471807003021,-0.0838578790426254,0.0388322807848453,0.0,0.0,-0.6380626559257507,-0.6570042371749878
0.0336808189749717,1.3390446901321411,0.1259378641843795,-0.0861529558897018,-0.0810512751340866,0.0561319775879383,0.0,0.0,-0.4098552465438843,-0.5725197792053223
0.0349334701895713,1.3369897603988647,0.1218045800924301,-0.0911551341414451,-0.077627956867218,0.0684664696455001,0.0,0.0,-0.728623628616333,-0.1353167295455932
0.0361918434500694,1.3348119258880615,0.1228653788566589,-0.0966410413384437,-0.0746793150901794,0.0589725375175476,0.0,0.0,-0.7059395909309387,0.7864255905151367
0.0375265106558799,1.3324949741363523,0.132813960313797,-0.102946750819683,-0.0740440562367439,0.0127052664756774,0.0,0.0,-0.7451502084732056,-0.9491162300109864
0.0387818329036235,1.3300615549087524,0.1233120411634445,-0.1080466732382774,-0.0718448609113693,0.0439838841557502,0.0,0.0,-0.8508687019348145,-0.7935522198677063
0.0399843230843544,1.327520489692688,0.1171604841947555,-0.1127872988581657,-0.0687827542424202,0.0612422004342079,0.0,0.0,-0.874306321144104,-0.754610002040863
0.0411237701773643,1.324863076210022,0.1097771078348159,-0.1179279536008834,-0.0646645799279213,0.0823636129498481,0.0,0.0,-0.7170281410217285,-0.532762348651886
0.0422095283865928,1.3220925331115725,0.1036325544118881,-0.1229231432080268,-0.0597765371203422,0.0977609604597091,0.0,0.0,-0.8959148526191711,-0.6844382882118225
0.0432441718876361,1.3192071914672852,0.097867727279663,-0.1280248910188675,-0.0542395412921905,0.1107398122549057,0.0,0.0,-0.6140093803405762,-0.5996621251106262
0.0442206375300884,1.316208004951477,0.0912538841366767,-0.1330846846103668,-0.0479253120720386,0.126284971833229,0.0,0.0,-0.8615003824234009,-0.4295409917831421
0.0451884269714355,1.3130862712860107,0.0909185409545898,-0.1385719776153564,-0.0421395972371101,0.1157142966985702,0.0,0.0,-0.862826406955719,-0.3887113332748413
0.0461456291377544,1.309841871261597,0.0904046446084976,-0.144058495759964,-0.036887627094984,0.105039581656456,0.0,0.0,-0.813797116279602,0.1468348503112793
0.0470905303955078,1.306474685668945,0.089714378118515,-0.1495443135499954,-0.0321742631494998,0.0942670330405235,0.0,0.0,-0.4320636987686157,-0.4287896156311035
0.0480213165283203,1.3029844760894775,0.0888508409261703,-0.1550294905900955,-0.0280041377991437,0.0834024995565414,0.0,0.0,-0.7467249035835266,-0.4559670090675354
0.0489360801875591,1.2993714809417725,0.0878179818391799,-0.1605140715837478,-0.0243815556168556,0.0724516734480857,0.0,0.0,-0.650582492351532,-0.6650649309158325
0.0497859939932823,1.2956314086914062,0.0806819349527359,-0.1661599278450012,-0.0201231352984905,0.0851684957742691,0.0,0.0,-0.6001577973365784,-0.4443809986114502
0.0506168380379676,1.2917684316635132,0.0793251246213913,-0.1716441959142685,-0.0164200700819492,0.0740612372756004,0.0,0.0,-0.8716735243797302,-0.7648770213127136
0.0513641349971294,1.287790298461914,0.0699398890137672,-0.1767589449882507,-0.0116967065259814,0.0944673269987106,0.0,0.0,-0.4292924404144287,-0.1677800416946411
0.0520891174674034,1.2836893796920776,0.0682827606797218,,-0.0075354990549385,0.0832240134477615,0.0,0.0,-0.192201554775238,0.1928637027740478
0.0527904517948627,1.2794651985168457,0.0664854124188423,-0.1877268254756927,-0.0039395168423652,0.0719199478626251,0.0,0.0,-0.8043672442436218,-0.628990650177002
0.0534163489937782,1.275124430656433,0.0582364723086357,-0.1929133981466293,0.0003542327322065,0.0858753323554992,0.0,0.0,-0.5837317705154419,-0.8749290108680725
0.0539535507559776,1.2706682682037354,0.0483676046133041,-0.1980563253164291,0.0056418580934405,0.1057527512311935,0.0,0.0,-0.5761816501617432,-0.2541374564170837
0.0544632896780967,1.2660892009735107,0.0461920835077762,-0.2035402506589889,0.0103565212339162,0.0942934453487396,0.0,0.0,-0.7713174223899841,-0.3694966435432434
0.0549443252384662,1.2613869905471802,0.043904859572649,-0.2090234458446502,0.0144960731267929,0.0827911347150802,0.0,0.0,-0.3053759932518005,-0.5443403720855713
0.0553433410823345,1.2565590143203735,0.0349580571055412,-0.214632973074913,0.0193718709051609,0.0975158736109733,0.0,0.0,-0.7713468074798584,-0.148652970790863
0.055711556226015,1.2516076564788818,0.0324685201048851,-0.2201158702373504,0.0236688777804374,0.085940197110176,0.0,0.0,-0.6352236270904541,0.4483940601348877
0.0560481064021587,1.2465332746505735,0.0298879798501729,-0.2255981117486953,0.0273855850100517,0.0743340402841568,0.0,0.0,-0.5531147718429565,-0.0605544447898864
0.0563521385192871,1.241335153579712,0.027222890406847,-0.2310797721147537,0.0305206626653671,0.0627016052603721,0.0,0.0,-0.738025426864624,-0.2725241184234619
0.0566227920353412,1.236013889312744,0.0244794152677059,-0.2365609556436538,0.033073004335165,0.0510469190776348,0.0,0.0,-0.5461394786834717,-0.3775860071182251
0.0568593963980674,1.2305688858032229,0.0216634292155504,-0.2420417219400406,0.0350416973233222,0.0393741391599178,0.0,0.0,-0.5282596349716187,-0.8056995868682861
0.0570044517517089,1.2249884605407717,0.011651374399662,-0.2480874508619308,0.0378604047000408,0.0563742518424987,0.0,0.0,-0.6920828819274902,-0.0352363586425781
