x_pos,y_pos,x_vel,y_vel,angle,ang_vel,leg_1,leg_2,main_booster,lat_booster
-0.0015607833629474,1.4032106399536133,-0.1574786156415939,-0.3426418304443359,0.0012474417453631,0.0245687011629343,0.0,0.0,0.910071872517711,-0.813946013986211
-0.0031588554847985,1.3959064483642578,-0.1622699201107025,-0.3246296942234039,0.0036937571130692,0.0489319190382957,0.0,0.0,0.6249524022999038,-0.0880563944203635
-0.0046652792952954,1.3887847661972046,-0.1532427221536636,-0.3165300488471985,0.0062621482647955,0.0513724386692047,0.0,0.0,-0.89233817116559,-0.3649311137664962
-0.0062104226090013,1.3812490701675415,-0.156626209616661,-0.3349267542362213,0.008344798348844,0.0416571125388145,0.0,0.0,-0.9398242578122138,-0.6481579873952402
-0.0078347204253077,1.3733012676239014,-0.1650954484939575,-0.353253424167633,0.0109734693542122,0.0525780022144317,0.0,0.0,-0.3786541913984589,-0.7614582753517538
-0.0095448493957519,1.3649380207061768,-0.1743964701890945,-0.3717361092567444,0.0143274720758199,0.067086361348629,0.0,0.0,0.3981158953641532,0.7899327236100412
-0.0112607954069972,1.356894612312317,-0.1729559749364853,-0.3574973344802856,0.0156710036098957,0.0268732514232397,0.0,0.0,0.4696412974660642,-0.4855818991182081
-0.0128926280885934,1.3493036031723022,-0.1647954732179641,-0.337399959564209,0.0172619484364986,0.031821995973587,0.0,0.0,-0.0592482892801922,-0.9017461903804912
-0.0146370884031057,1.341306447982788,-0.1775283962488174,-0.3554644286632538,0.0203136466443538,0.0610396936535835,0.0,0.0,-0.6868749731973058,-0.0257179817160464
-0.0164216998964548,1.3328956365585327,-0.1812115907669067,-0.3738526403903961,0.0230335257947444,0.0544026494026184,0.0,0.0,0.9287967813663472,-0.8695623700557109
-0.0182207114994525,1.3251140117645264,-0.1843153834342956,-0.3459271788597107,0.027406295761466,0.0874631330370903,0.0,0.0,-0.9175346129550854,-0.1616844758757031
-0.0200600624084472,1.3169182538986206,-0.1880770176649093,-0.3643279671669006,0.0315063558518886,0.0820090472698211,0.0,0.0,-0.0391468200308018,0.5481431293586172
-0.021887207403779,1.308314323425293,-0.1852863579988479,-0.3824531733989715,0.034044362604618,0.0507645197212696,0.0,0.0,0.5056446577590012,0.370331719056902
-0.0237027164548635,1.299785017967224,-0.1842149049043655,-0.3791438639163971,0.0366714857518672,0.0525476261973381,0.0,0.0,-0.259154061310876,0.1227314638090261
-0.0255584716796875,1.290841817855835,-0.1880590319633484,-0.3975396156311035,0.0391221530735492,0.0490178391337394,0.0,0.0,0.6307126115428632,0.0968335029545119
-0.0273577682673931,1.2819308042526243,-0.1827733963727951,-0.3961153030395508,0.0419388525187969,0.0563391931354999,0.0,0.0,0.7112241885621182,-0.4222013287232363
-0.0290916450321674,1.2739431858062744,-0.1767880171537399,-0.3551129996776581,0.0453155376017093,0.0675396844744682,0.0,0.0,-0.8285104830353411,0.940998441188781
-0.0307731628417968,1.2655396461486816,-0.1691545248031616,-0.3735212385654449,0.046306274831295,0.0198164377361536,0.0,0.0,-0.18018882324021,-0.5848907082530433
-0.0325330719351768,1.2567250728607178,-0.1779359430074691,-0.3918125927448272,0.0482293181121349,0.0384643450379371,0.0,0.0,0.3082346915042426,-0.3622043825882334
-0.0344176292419433,1.2481639385223389,-0.190093532204628,-0.3805570006370544,0.0498436763882637,0.0322902388870716,0.0,0.0,0.9107858687341912,0.5856044850491513
-0.0361812599003315,1.2405109405517578,-0.1772907674312591,-0.3401623368263244,0.0507596172392368,0.0183206778019666,0.0,0.0,-0.2797798808119613,0.7962418323866934
-0.0379193313419818,1.2324442863464355,-0.173156589269638,-0.3584896624088287,0.050119299441576,-0.012807659804821,0.0,0.0,0.4792294442322053,0.6235193180125509
-0.0395440086722373,1.224706768989563,-0.1609371751546859,-0.3438353240489959,0.0486026927828788,-0.030335059389472,0.0,0.0,0.5777624366528231,0.3978302435577051
-0.0411543846130371,1.217007040977478,-0.1599374413490295,-0.3421764373779297,0.0475172027945518,-0.0217118058353662,0.0,0.0,0.0433183412363242,0.0387753368528912
-0.0429110527038574,1.2094961404800415,-0.1743008345365524,-0.3337751924991607,0.0461682192981243,-0.0269822534173727,0.0,0.0,-0.6616722937813999,-0.2299183375857507
-0.0447039604187011,1.2015501260757446,-0.1781121492385864,-0.3531210124492645,0.0450024716556072,-0.0233147852122783,0.0,0.0,-0.5618335368637262,0.1427731589431776
-0.0465332977473735,1.1931904554367063,-0.181973859667778,-0.3715115487575531,0.0440487787127494,-0.0190737787634134,0.0,0.0,-0.5205501199620042,0.0738240076432101
-0.0483986847102642,1.1844171285629272,-0.1858109086751938,-0.3899020850658417,0.0433354191482067,-0.0142672043293714,0.0,0.0,0.8058594498628198,-0.9933421810704736
-0.0505743026733398,1.1764919757843018,-0.2188794165849685,-0.3522759974002838,0.044633001089096,0.0259517766535282,0.0,0.0,-0.63110031652527,0.1440989790602269
-0.0527847297489643,1.168152928352356,-0.2226531952619552,-0.370666891336441,0.0462244488298893,0.0318287946283817,0.0,0.0,0.4298056545332953,0.0702512438543261
-0.0550470352172851,1.1604995727539062,-0.2282298505306244,-0.3402157127857208,0.0482098646461963,0.0397080965340137,0.0,0.0,-0.4560338854789734,0.9586900472640992
-0.0572765357792377,1.1524319648742676,-0.2236230373382568,-0.3585890829563141,0.0488781481981277,0.0133654279634356,0.0,0.0,-0.2781339883804321,0.993794560432434
-0.0594712272286415,1.1439648866653442,-0.2187904864549636,-0.3762884736061096,0.0482043400406837,-0.0134758530184626,0.0,0.0,-0.406122624874115,0.990638017654419
-0.0616276748478412,1.1350805759429932,-0.2135649621486663,-0.3947966992855072,0.0461573973298072,-0.0409389063715934,0.0,0.0,-0.3094943761825561,0.976109743118286
-0.0637359619140625,1.125790238380432,-0.2071565836668014,-0.4127916991710663,0.0425239279866218,-0.0726692602038383,0.0,0.0,-0.8151012659072876,0.9893317222595216
-0.0657942742109298,1.1160993576049805,-0.2005305290222168,-0.4305678308010101,0.0372895747423172,-0.1046869903802871,0.0,0.0,-0.8347712755203247,0.5299935340881348
-0.067841812968254,1.105994701385498,-0.1988882571458816,-0.448956549167633,0.0314937196671962,-0.1159173399209976,0.0,0.0,-0.915774703025818,0.9372098445892334
-0.0698391944169998,1.0954880714416504,-0.1923319846391677,-0.4668219983577728,0.0241788458079099,-0.1462975293397903,0.0,0.0,-0.9659183025360109,0.3956848382949829
-0.0718641281127929,1.0845686197280884,-0.1955687254667282,-0.4852170646190643,0.0173441860824823,-0.1366930305957794,0.0,0.0,-0.9777597188949584,0.9924048185348512
-0.0738332718610763,1.07323956489563,-0.1884040832519531,-0.5034358501434326,0.0089387306943535,-0.1681094169616699,0.0,0.0,-0.9919649958610536,0.5389270782470703
-0.0757928863167762,1.0615029335021973,-0.1870597898960113,-0.5216037034988403,0.0001612584601389,-0.1755495965480804,0.0,0.0,-0.983616292476654,0.6875476837158203
-0.0777111053466796,1.0493521690368652,-0.181789144873619,-0.5400679707527161,-0.0097404578700661,-0.198034256696701,0.0,0.0,-0.9981243014335632,-0.1225629448890686
-0.0796524062752723,1.0367887020111084,-0.1846389174461364,-0.5584653615951538,-0.0191064942628145,-0.1873206794261932,0.0,0.0,-0.997699499130249,0.2514576911926269
-0.0816154479980468,1.0238125324249268,-0.1873763352632522,-0.5768614411354065,-0.027925306931138,-0.1763762831687927,0.0,0.0,-0.9815573692321776,0.0047845840454101
-0.0835989937186241,1.010423183441162,-0.1899949014186859,-0.5952562689781189,-0.0361862182617187,-0.1652180254459381,0.0,0.0,-0.9783039689064026,0.3696306943893432
-0.085601806640625,0.996620774269104,-0.1924881041049957,-0.6136499643325806,-0.0438793040812015,-0.1538620740175247,0.0,0.0,-0.999017298221588,-0.5713613033294678
-0.0876628905534744,0.982404351234436,-0.1999520361423492,-0.6320321559906006,-0.0499744303524494,-0.1219025403261184,0.0,0.0,-0.9561663269996644,-0.7267746925354004
-0.0898083671927452,0.9677870869636536,-0.2107012718915939,-0.6497908234596252,-0.0537668652832508,-0.0758486166596412,0.0,0.0,-0.6885863542556763,0.535542368888855
-0.0919353514909744,0.9527578353881836,-0.2086213380098343,,-0.0577964223921299,-0.0805914625525474,0.0,0.0,-0.8342435359954834,-0.7262264490127563
-0.0941350013017654,0.9373176097869872,-0.2180069684982299,-0.6863114833831787,-0.0597303323447704,-0.0386781841516494,0.0,0.0,-0.9811083674430848,0.0828999280929565
-0.0963461846113205,0.9214632511138916,-0.2197742909193039,-0.704698383808136,-0.061057910323143,-0.0265517681837081,0.0,0.0,-0.8314438462257385,0.2146872282028198
-0.0985672026872634,0.9051944613456726,-0.2213769704103469,-0.7230849862098694,-0.0617734044790267,-0.014310042373836,0.0,0.0,-0.2482460141181945,-0.5367240905761719
-0.1008311286568641,0.8885117173194885,-0.2271744757890701,-0.7414245009422302,-0.0609979070723056,0.0155100030824542,0.0,0.0,-0.3065967559814453,0.5889155864715576
-0.1030542403459549,0.8714157938957214,-0.2225390374660492,-0.7598088383674622,-0.0607777945697307,0.0044024782255291,0.0,0.0,-0.3245205879211426,0.1476243734359741
-0.1052818298339843,0.8539054989814758,-0.2236106842756271,-0.778195321559906,-0.059931643307209,0.0169230941683053,0.0,0.0,-0.5417916178703308,0.6829203367233276
-0.1074665039777755,0.8359739184379578,-0.2188104838132858,-0.7969446182250977,-0.0596001558005809,0.0066297948360443,0.0,0.0,0.0738294124603271,0.7638285160064697
-0.1094898208975792,0.81839919090271,-0.2018166482448578,-0.7811259627342224,-0.0601093918085098,-0.010184783488512,0.0,0.0,0.3837416172027588,0.3357632160186767
-0.1113622635602951,0.801245391368866,-0.1879137605428695,-0.7623632550239563,-0.0594484284520149,0.0132194366306066,0.0,0.0,-0.4053304195404053,0.8804123401641846
-0.1131526008248329,0.7836795449256897,-0.1783536970615387,-0.7807365655899048,-0.0601176247000694,-0.0133839966729283,0.0,0.0,-0.2306504249572754,0.6726682186126709
-0.1148905754089355,0.7657008767127991,-0.1725833117961883,-0.7990962266921997,-0.0613155774772167,-0.0239589866250753,0.0,0.0,0.8926374912261963,0.7928600311279297
-0.1164685264229774,0.7479247450828552,-0.1557701975107193,-0.7901372909545898,-0.0633150562644004,-0.0399899370968341,0.0,0.0,0.1560322046279907,-0.2457252740859985
-0.1180754676461219,0.730475664138794,-0.1589874178171157,-0.7755871415138245,-0.0649969652295112,-0.0336378924548625,0.0,0.0,-0.3850905299186706,0.5940799713134766
-0.1196136474609375,0.7126052975654602,-0.1513315737247467,-0.794347882270813,-0.0674615874886512,-0.0492924414575099,0.0,0.0,0.7014012336730957,0.8361576795578003
-0.1210020035505294,0.6952573657035828,-0.1353639364242553,-0.7711851596832275,-0.0709002763032913,-0.0687736049294471,0.0,0.0,0.6926450729370117,-0.3120754957199096
-0.1223367676138877,0.6781086325645447,-0.1306809037923813,-0.7622982859611511,-0.0736585110425949,-0.0551646836102008,0.0,0.0,-0.3246290683746338,-0.0155290365219116
-0.1236526519060134,0.6605457067489624,-0.1294473111629486,-0.7806845903396606,-0.0757736265659332,-0.0423025488853454,0.0,0.0,0.7608575820922852,0.3820980787277221
-0.1248554214835167,0.6439300179481506,-0.1189077869057655,-0.7385470271110535,-0.0771403387188911,-0.0273342542350292,0.0,0.0,0.7580935955047607,-0.0136547684669494
-0.1259239166975021,0.6273550987243652,-0.1065273880958557,-0.7366753816604614,-0.0774612575769424,-0.0064183017238974,0.0,0.0,0.7637872695922852,0.5356698036193848
-0.126823142170906,0.6117266416549683,-0.0892538055777549,-0.6946389079093933,-0.0781211331486702,-0.0131973233073949,0.0,0.0,0.0281001329421997,0.5179774761199951
-0.1276956498622894,0.5961247086524963,-0.0860807076096534,-0.6934823393821716,-0.0792837813496589,-0.0232527963817119,0.0,0.0,0.5852429866790771,0.1654195785522461
-0.1285747587680816,0.5810902714729309,-0.0869627594947815,-0.6682469248771667,-0.0802163854241371,-0.0186522714793682,0.0,0.0,0.2184417247772216,0.7320452928543091
-0.1293016374111175,0.5663189888000488,-0.0709467828273773,-0.6565946936607361,-0.0819406658411026,-0.0344854816794395,0.0,0.0,0.6193193197250366,-0.306171715259552
-0.1300524771213531,0.5523862838745117,-0.0733930170536041,-0.6193249821662903,-0.0836154520511627,-0.03349569439888,0.0,0.0,-0.5025062561035156,0.4280736446380615
-0.1307670623064041,0.5380391478538513,-0.070414163172245,-0.6377105116844177,-0.0846591144800186,-0.0208731889724731,0.0,0.0,0.2106825113296508,-0.0883477926254272
-0.131443977355957,0.5237090587615967,-0.0671532079577446,-0.6369255185127258,-0.0851885601878166,-0.0105889942497015,0.0,0.0,0.6828498840332031,0.3062372207641601
-0.1319835633039474,0.5094504356384277,-0.0543739609420299,-0.6336914300918579,-0.084771953523159,0.0083320373669266,0.0,0.0,0.3898507356643677,0.3061747550964355
-0.1324833929538726,0.4952075481414795,-0.0509028621017932,-0.6329658627510071,-0.0838558003306388,0.0183230303227901,0.0,0.0,0.7775121927261353,0.209119439125061
-0.1328767836093902,0.4818269610404968,-0.0408414974808692,-0.5946110486984253,-0.0823620930314064,0.0298740360885858,0.0,0.0,-0.3772072792053222,-0.5261251926422119
-0.1332601606845855,0.4680416285991668,-0.041378516703844,-0.6125154495239258,-0.0793425217270851,0.0603915639221668,0.0,0.0,0.4590268135070801,0.9853317737579346
-0.1335737258195877,0.4549353420734405,-0.032957412302494,-0.5824159979820251,-0.0777637436985969,0.031575433909893,0.0,0.0,0.1563050746917724,0.6854994297027588
-0.1338685005903244,0.4417599737644195,-0.0301729403436183,-0.5855372548103333,-0.0770701318979263,0.0138721466064453,0.0,0.0,-0.3885572552680969,0.6713230609893799
-0.1340556144714355,0.4281696081161499,-0.0185904521495103,-0.6040225625038147,-0.077198140323162,-0.0025599696673452,0.0,0.0,0.4668402671813965,-0.5074028968811035
-0.1342877447605133,0.4149448275566101,-0.0244487021118402,-0.5877040028572083,-0.0759628266096115,0.0247062835842371,0.0,0.0,0.5116379261016846,0.6995357275009155
-0.1344186812639236,0.4022362232208252,-0.0134279998019337,-0.5648115277290344,-0.0756310746073722,0.006635217461735,0.0,0.0,-0.3015482425689697,0.592475414276123
-0.1344484388828277,0.3891110718250274,-0.0027503790333867,-0.5833538770675659,-0.0758660286664962,-0.0046988846734166,0.0,0.0,0.5877338647842407,-0.0316909551620483
-0.1342959403991699,0.3763982653617859,0.0145035283640027,-0.5649758577346802,-0.0751295983791351,0.0147285582497715,0.0,0.0,0.825721025466919,0.4330315589904785
-0.1340312957763672,0.3638339340686798,0.0250144340097904,-0.5583401322364807,-0.0736938491463661,0.02871516905725,0.0,0.0,0.7899234294891357,0.0735372304916381
-0.133575439453125,0.3514968454837799,0.0430865064263343,-0.5481939315795898,-0.0712208598852157,0.0494597256183624,0.0,0.0,0.8855459690093994,0.8113887310028076
-0.1327660530805587,0.3396939933300018,0.079113095998764,-0.5244872570037842,-0.0694154128432273,0.0361088477075099,0.0,0.0,0.7241370677947998,0.677872896194458
-0.1316562592983245,0.3280655145645141,0.1095830649137497,-0.5167564749717712,-0.0680407062172889,0.0274943355470895,0.0,0.0,0.5098849534988403,-0.333274245262146
-0.1304430067539215,0.3170508444309234,0.1194021850824356,-0.4894547462463379,-0.0661368742585182,0.0380768440663814,0.0,0.0,0.0510501861572265,-0.3629517555236816
-0.1291152983903885,0.3063423335552215,0.1302068084478378,-0.4758232235908508,-0.0635958760976791,0.0508196838200092,0.0,0.0,-0.249695599079132,-0.356439471244812
-0.1277237832546234,0.2952196598052978,0.1360429674386978,-0.4942105412483215,-0.0605161264538764,0.0615948215126991,0.0,0.0,0.1691302061080932,-0.3586468696594238
-0.1261823624372482,0.2840224206447601,0.1501561105251312,-0.4975005686283111,-0.0565751120448112,0.0788205415010452,0.0,0.0,0.2269603013992309,0.0871599912643432
-0.1245930641889572,0.2729809284210205,0.1545913070440292,-0.4905767440795898,-0.0522914007306098,0.0856742486357688,0.0,0.0,0.1773066520690918,-0.6689344644546509
-0.1228904724121093,0.2624534368515014,0.163962572813034,-0.467680424451828,-0.0460682027041912,0.124464139342308,0.0,0.0,-0.4307737350463867,0.0783963203430175
-0.1211211234331131,0.2515124678611755,0.1701245158910751,-0.4860712885856628,-0.0393386557698249,0.1345911920070648,0.0,0.0,0.2053077220916748,-0.3299249410629272
-0.1193522438406944,0.2410333305597305,0.1699941307306289,-0.4655755758285522,-0.0325315929949283,0.1361411958932876,0.0,0.0,0.3698858022689819,-0.0968997478485107
-0.1174244880676269,0.2310047894716262,0.1850501894950866,-0.4455621540546417,-0.024902481585741,0.1525823771953582,0.0,0.0,-0.288963258266449,0.1732553243637085
-0.1154282540082931,0.2205632030963897,0.1914081573486328,-0.4639556109905243,-0.0167947579175233,0.1621545106172561,0.0,0.0,0.1210968494415283,-0.2565915584564209
-0.1134107559919357,0.2104721665382385,0.1933283805847168,-0.4484207928180694,-0.0084780035540461,0.1663351655006408,0.0,0.0,-0.082816481590271,-0.6946085095405579
-0.1113811507821083,0.1999667733907699,0.1926144659519195,-0.4668781161308288,0.0017354292795062,0.2042686492204666,0.0,0.0,0.3833842277526855,0.0017142295837402
-0.109380342066288,0.1898040622472763,0.189736932516098,-0.4517158567905426,0.0119448658078908,0.2041886150836944,0.0,0.0,0.2132254838943481,0.5877017974853516
-0.1073896437883377,0.1798032075166702,0.1896913945674896,-0.4445835053920746,0.0212034936994314,0.1851725727319717,0.0,0.0,0.1832702159881591,0.1263911724090576
-0.1052636131644249,0.1701641380786895,0.2024410516023636,-0.4285747110843658,0.0312388557940721,0.2007072418928146,0.0,0.0,0.2924953699111938,-0.2358856201171875
-0.1030279174447059,0.1605479568243026,0.2127632796764373,-0.4276442229747772,0.041910495609045,0.2134329080581665,0.0,0.0,0.5639628171920776,-0.0896954536437988
-0.1006144508719444,0.1516109108924865,0.2295048534870147,-0.3975743949413299,0.0536197982728481,0.2341859340667724,0.0,0.0,0.2114897966384887,-0.2377247810363769
-0.0981770530343055,0.1431132405996322,0.2315845936536789,-0.3781522810459137,0.0656418576836586,0.2404410541057586,0.0,0.0,-0.2028287649154663,0.5381102561950684
-0.0956160575151443,0.1342152506113052,0.2449103593826294,-0.3959899544715881,0.076715238392353,0.2214675843715667,0.0,0.0,0.6965597867965698,0.0214203596115112
-0.092951014637947,0.1258048415184021,0.2545841038227081,-0.3744474351406097,0.0885163769125938,0.2360227555036544,0.0,0.0,0.719357967376709,-0.3295062780380249
-0.0902970284223556,0.1182515248656272,0.253179669380188,-0.3364686667919159,0.1006353050470352,0.2423787117004394,0.0,0.0,0.2622153759002685,-0.2286626100540161
-0.0875855460762977,0.11119195073843,0.2583749294281006,-0.3146671950817108,0.1133080199360847,0.2534542679786682,0.0,0.0,-0.1391986012458801,-0.5339025855064392
-0.0848385840654373,0.1037125885486602,0.2606995105743408,-0.3335370421409607,0.1272305697202682,0.2784510254859924,0.0,0.0,0.5333852767944336,0.2887167930603027
-0.0822051987051963,0.0966547355055809,0.2495772391557693,-0.314912736415863,0.1409405320882797,0.2741993367671966,0.0,0.0,0.2345521450042724,-0.0938232541084289
-0.0796488747000694,0.0897372066974639,0.2420343160629272,-0.3087882101535797,0.1545056998729705,0.2713033556938171,0.0,0.0,-0.0808360576629638,-0.0972049236297607
-0.0770207419991493,0.0824089869856834,0.2489644289016723,-0.3271967768669128,0.1683559864759445,0.2770056128501892,0.0,0.0,0.535886287689209,0.0821012258529663
-0.0743800178170204,0.0754095613956451,0.2498723268508911,-0.3127554953098297,0.1825891733169555,0.2846637666225433,0.0,0.0,0.5158418416976929,-0.1684510111808776
-0.0716094970703125,0.068519078195095,0.262077122926712,-0.3081532716751098,0.1976338624954223,0.3008938431739807,0.0,0.0,0.3551533222198486,-0.0251393914222717
-0.0687990188598632,0.0620670430362224,0.2655165195465088,-0.2889048159122467,0.2132915705442428,0.3131541013717651,0.0,0.0,0.3381202220916748,-0.1432859301567077
-0.0660353675484657,0.0561694018542766,0.2605715990066528,-0.2644774615764618,0.2292722761631012,0.3196141123771667,0.0,0.0,0.2192236185073852,-0.5832300782203674
-0.0632457733154296,0.0501942262053489,0.2617571949958801,-0.268332690000534,0.2467418909072876,0.3493923544883728,0.0,0.0,0.3408459424972534,-0.3721499443054199
