x_pos,y_pos,x_vel,y_vel,angle,ang_vel,leg_1,leg_2,main_booster,lat_booster
-0.0016137122875079,1.403040885925293,-0.1633807718753814,-0.3501816093921661,0.0018049638019874,0.03560721129179,0.0,0.0,-0.6779132063861786,-0.3663963516342555
-0.003319167997688,1.3946014642715454,-0.1723023355007171,-0.3750849962234497,0.0035377617459744,0.0346600785851478,0.0,0.0,0.8810551836390688,-0.0581343738699954
-0.0049669267609715,1.3862690925598145,-0.1672417074441909,-0.370340496301651,0.0059742135927081,0.0487333834171295,0.0,0.0,0.5906558203871204,-0.6700810976549673
-0.0068891523405909,1.378070592880249,-0.1956998109817505,-0.3643843531608581,0.0094215152785182,0.068952277302742,0.0,0.0,-0.0991947093765381,-0.8954045206119519
-0.0089612957090139,1.3692911863327026,-0.2120828181505203,-0.3902383744716644,0.0142371896654367,0.0963222980499267,0.0,0.0,-0.2246889480805856,-0.9517391203666374
-0.0111866947263479,1.3599262237548828,-0.2288587093353271,-0.4162991940975189,0.0204836744815111,0.1249411553144455,0.0,0.0,-0.9024166452247292,-0.9855604461378724
-0.0135887144133448,1.3499759435653689,-0.2485480606555938,-0.4423709511756897,0.0287302248179912,0.1649463474750518,0.0,0.0,0.1948575873166194,-0.5652134089280294
-0.01602678373456,1.3401496410369873,-0.2534819543361664,-0.4369368851184845,0.0383099950850009,0.1916127949953079,0.0,0.0,-0.1483711178310733,-0.0655381932428038
-0.0185625068843364,1.3297407627105713,-0.2632195055484772,-0.4628804326057434,0.047866728156805,0.1911520808935165,0.0,0.0,-0.68511516257751,0.5134309416333336
-0.0211560241878032,1.318756103515625,-0.2679630815982818,-0.4885120391845703,0.0563849546015262,0.1703801155090332,0.0,0.0,-0.99370639606417,-0.0716122989407574
-0.0238482467830181,1.3071885108947754,-0.2778062224388122,-0.5144490599632263,0.0648826882243156,0.1699704825878143,0.0,0.0,0.929595329626475,-0.0605664784941735
-0.0265973098576068,1.2959702014923096,-0.2838476002216339,-0.499001681804657,0.0737510919570922,0.177384153008461,0.0,0.0,0.7027735233333463,-0.339483844284115
-0.029365062713623,1.2852625846862793,-0.2863391041755676,-0.4763879179954529,0.0832344517111778,0.1896846294403076,0.0,0.0,0.3815851633558533,-0.1784134036155492
-0.0322000496089458,1.2744238376617432,-0.293302983045578,-0.4822963774204254,0.0929712727665901,0.1947537660598755,0.0,0.0,0.633915847771497,0.3478794640097713
-0.035072136670351,1.2642401456832886,-0.2976520955562591,-0.4532938003540039,0.1033473685383796,0.2075410336256027,0.0,0.0,0.181300963006997,0.5793958848954349
-0.0379346832633018,1.2538046836853027,-0.2956739068031311,-0.4644697308540344,0.1127146482467651,0.1873625814914703,0.0,0.0,-0.1752134388621042,0.5812108005995789
-0.0408427231013774,1.2428030967712402,-0.2987697422504425,-0.4895778000354767,0.1206415966153144,0.1585536301136016,0.0,0.0,-0.7228393118840966,0.3604886559932826
-0.0438519492745399,1.2312188148498535,-0.3088635802268982,-0.5155144929885864,0.1285537332296371,0.1582571417093277,0.0,0.0,-0.0168083782680366,-0.7700569490991976
-0.0470137596130371,1.2190494537353516,-0.3253906369209289,-0.541679322719574,0.1377357393503189,0.1836567372083664,0.0,0.0,0.447468273978405,0.5090745729289983
-0.0503808036446571,1.207026481628418,-0.3446759581565857,-0.5351018309593201,0.1456930637359619,0.159160703420639,0.0,0.0,0.6929474053440636,0.6888990028747013
-0.0537673942744731,1.1956120729446411,-0.3455459475517273,-0.5079978108406067,0.152578130364418,0.1377142369747162,0.0,0.0,-0.4228524068929375,0.2235403456116609
-0.057255744934082,1.1836143732070925,-0.3557117879390716,-0.5339415073394775,0.1594510525465011,0.1374704539775848,0.0,0.0,0.6938644792077073,-0.8675349698281438
-0.0608564391732215,1.1718785762786863,-0.3688863813877105,-0.5225560069084167,0.1682937145233154,0.1768693923950195,0.0,0.0,-0.2111607582278167,-0.9349936650715642
-0.0646224021911621,1.1595338582992554,-0.387052834033966,-0.5498747229576111,0.1787858605384826,0.2098618000745773,0.0,0.0,-0.684564247635755,0.4776410840333508
-0.0684907883405685,1.1466070413589478,-0.3972610831260681,-0.5758156180381775,0.189267486333847,0.209651231765747,0.0,0.0,-0.66426350619888,-0.5537144683873847
-0.0725125297904014,1.1330646276474,-0.4139488339424133,-0.6034249067306519,0.2011191397905349,0.2370328158140182,0.0,0.0,-0.3167287944412091,-0.3709539028680956
-0.0766365081071853,1.118940830230713,-0.4241359233856201,-0.6293658018112183,0.2129624933004379,0.2368667870759964,0.0,0.0,-0.1187277051580832,-0.4912656324253165
-0.0808627158403396,1.1042351722717283,-0.4343246519565582,-0.6553066968917847,0.2247974127531051,0.2366984188556671,0.0,0.0,-0.4094346944021958,-0.6370465911032084
-0.0852517113089561,1.0889331102371216,-0.4520955085754394,-0.6821635365486145,0.2381811589002609,0.2676746249198913,0.0,0.0,0.6066582061872534,-0.7959276197749647
-0.0899374037981033,1.073708176612854,-0.4832615256309509,-0.6791117787361145,0.2531261444091797,0.2988991141319275,0.0,0.0,0.0670545151912969,0.2012006951591379
-0.0948507338762283,1.0587012767791748,-0.5060174465179443,-0.6695744395256042,0.2681179940700531,0.2998367547988891,0.0,0.0,0.0773167610168457,0.9773969650268556
-0.0999254211783409,1.043527603149414,-0.520168125629425,-0.6767567992210388,0.2811472713947296,0.260585755109787,0.0,0.0,-0.1493359208106994,0.9665993452072144
-0.1050408333539962,1.0278087854385376,-0.5225390195846558,-0.700779139995575,0.2924660444259643,0.2263756692409515,0.0,0.0,0.048040747642517,0.973151922225952
-0.1102953925728797,1.0118401050567627,-0.5345348119735718,-0.7115688920021057,0.3018287718296051,0.1872544586658477,0.0,0.0,-0.2987234592437744,0.9867074489593506
-0.1155759841203689,0.9953264594078064,-0.5351068377494812,-0.7354225516319275,0.3091175854206085,0.1457760334014892,0.0,0.0,-0.0416438579559326,0.9880497455596924
-0.1208834648132324,0.978273332118988,-0.5357531309127808,-0.7589911222457886,0.3143152594566345,0.1039540544152259,0.0,0.0,0.160150408744812,0.9999492168426514
-0.1263358145952224,0.9611145853996276,-0.548280656337738,-0.7632719278335571,0.3174736201763153,0.0631676092743873,0.0,0.0,-0.0625879764556884,0.9971318244934082
-0.1318116188049316,0.9434189200401306,-0.5485285520553589,-0.7866852879524231,0.3184515535831451,0.0195589084178209,0.0,0.0,0.0809166431427002,0.9996039867401124
-0.1375180184841156,0.9259579181671144,-0.5696069002151489,-0.7758157849311829,0.3173827528953552,-0.0213758163154125,0.0,0.0,-0.0403028130531311,0.990523099899292
-0.1432477980852127,0.9079530835151672,-0.5698950886726379,-0.7995480895042419,0.3141879141330719,-0.0638975873589515,0.0,0.0,0.3415467739105224,0.9992020130157472
-0.1492960005998611,0.8902648091316223,-0.5997205376625061,-0.7850548028945923,0.3088976442813873,-0.1058052331209182,0.0,0.0,0.21725594997406,0.996657371520996
-0.1553844511508941,0.8726271986961365,-0.6017695069313049,-0.7824100255966187,0.3015747964382171,-0.1464568674564361,0.0,0.0,0.5742785930633545,0.9982787370681764
-0.1614835709333419,0.854906439781189,-0.6009643077850342,-0.7857607007026672,0.2923235595226288,-0.1850254237651825,0.0,0.0,0.3670254945755005,0.9991309642791748
-0.1676417291164398,0.8373050093650818,-0.604883074760437,-0.780134916305542,0.2810806035995483,-0.2248591184616089,0.0,0.0,0.0942350625991821,0.9995980262756348
-0.1739062368869781,0.8194111585617065,-0.6135286688804626,-0.7928497195243835,0.2678251564502716,-0.2651090025901794,0.0,0.0,0.5267300605773926,0.9936494827270508
-0.1802273690700531,0.8014237284660339,-0.6172165870666504,-0.7967871427536011,0.2526017427444458,-0.3044686913490295,0.0,0.0,0.8071651458740234,0.9995146989822388
-0.186619758605957,0.7836186289787292,-0.622391402721405,-0.7885348200798035,0.2354594469070434,-0.3428458869457245,0.0,0.0,0.7280021905899048,0.9972076416015624
-0.1933676749467849,0.7664979696273804,-0.6557055711746216,-0.7579805254936218,0.2161217033863067,-0.3867549896240234,0.0,0.0,0.4938517808914184,0.9996012449264526
-0.2004246711730957,0.7498332262039185,-0.6844093799591064,-0.7376810312271118,0.1946475058794021,-0.4294841885566711,0.0,0.0,0.2008023262023925,0.9997189044952391
-0.2075905799865722,0.7331506013870239,-0.6931949853897095,-0.7385472059249878,0.1711615324020385,-0.469719648361206,0.0,0.0,0.4709843397140503,0.9997155666351318
-0.2147175371646881,0.7167014479637146,-0.6873139142990112,-0.7283549904823303,0.1457812190055847,-0.5076066255569458,0.0,0.0,0.6702640056610107,0.9988036155700684
-0.2220364511013031,0.7007925510406494,-0.7043160200119019,-0.7045875787734985,0.1183176711201667,-0.549271285533905,0.0,0.0,0.4137918949127197,0.999714732170105
-0.2293095588684082,0.6849052906036377,-0.6976977586746216,-0.7040154337882996,0.0889282301068306,-0.5877892971038818,0.0,0.0,0.2400318384170532,0.9994864463806152
-0.2366493195295334,0.6693617701530457,-0.7022653222084045,-0.6892473697662354,0.0575418807566165,-0.6277276277542114,0.0,0.0,-0.1895685195922851,0.9999430179595948
-0.2439837902784347,0.6532534956932068,-0.6991717219352722,-0.7149514555931091,0.0236717071384191,-0.6774042844772339,0.0,0.0,-0.3101329207420349,0.9954872131347656
-0.2513443529605865,0.6365758776664734,-0.7000545859336853,-0.7410427331924438,-0.0118649695068597,-0.7107341885566711,0.0,0.0,-0.1012817621231079,0.9631973505020142
-0.2587076723575592,0.6193401217460632,-0.6981080174446106,-0.7667717337608337,-0.0496162921190261,-0.7550270557403564,0.0,0.0,0.6290254592895508,0.8971335887908936
-0.2659043371677398,0.6025241017341614,-0.6799311637878418,-0.7491704225540161,-0.0889316424727439,-0.7863078713417053,0.0,0.0,0.2771563529968261,0.971811294555664
-0.2729881405830383,0.586087703704834,-0.6668586730957031,-0.733491063117981,-0.1301527172327041,-0.8244224786758423,0.0,0.0,0.2009772062301635,0.9942164421081544
-0.2800696790218353,0.5699470639228821,-0.6648780703544617,-0.7217109799385071,-0.173359140753746,-0.864129364490509,0.0,0.0,0.8831467628479004,0.9185798168182372
-0.2870282530784607,0.5538286566734314,-0.6511818766593933,-0.7222047448158264,-0.218296080827713,-0.8987399935722351,0.0,0.0,0.6466021537780762,0.9945217370986938
-0.2939498424530029,0.5381945371627808,-0.6458392143249512,-0.702390730381012,-0.2653576135635376,-0.9412317276000975,0.0,0.0,0.1043627262115478,-0.9801850318908693
-0.3008400797843933,0.522493839263916,-0.6451877355575562,-0.7063896656036377,-0.3104588389396667,-0.902025818824768,0.0,0.0,-0.4057305455207824,0.9883425235748292
-0.3077300488948822,0.5062010884284973,-0.6438034772872925,-0.7344990372657776,-0.3576493263244629,-0.9438108205795288,0.0,0.0,0.0875247716903686,-0.2275625467300415
-0.3145973086357116,0.4897206723690033,-0.6423391103744507,-0.7442423701286316,-0.4048136174678802,-0.943286120891571,0.0,0.0,0.000833511352539,-0.9551000595092772
-0.3215478062629699,0.4732745885848999,-0.6534018516540527,-0.7435022592544556,-0.449938416481018,-0.9024966359138488,0.0,0.0,-0.6490527987480164,-0.9575417637825012
-0.3286306858062744,0.4563255906105041,-0.6692720651626587,-0.7664783000946045,-0.4931187629699707,-0.8636074066162109,0.0,0.0,-0.1905943155288696,-0.9990957379341124
-0.3358457684516907,0.4388515949249267,-0.6849572062492371,-0.7903074026107788,-0.5345001816749573,-0.8276301622390747,0.0,0.0,-0.2018937468528747,-0.90852153301239
-0.3431825637817383,0.4208735227584839,-0.6995970010757446,-0.8130284547805786,-0.5740229487419128,-0.7904558777809143,0.0,0.0,-0.1631343364715576,-0.9882691502571106
-0.3506612777709961,0.4023971557617187,-0.7166725993156433,-0.8351154327392578,-0.6111062169075012,-0.7416665554046631,0.0,0.0,0.1128873825073242,-0.9945684671401978
-0.3580643236637115,0.3840450644493103,-0.711678683757782,-0.8294677734375,-0.6459949016571045,-0.697773814201355,0.0,0.0,0.4483039379119873,-0.9913521409034728
-0.3652373850345611,0.3658179938793182,-0.6911323666572571,-0.8236461281776428,-0.6787108778953552,-0.6543192267417908,0.0,0.0,0.7256302833557129,-0.9961225986480712
-0.3720901608467102,0.3482711911201477,-0.6613624095916748,-0.7930815815925598,-0.7093798518180847,-0.6133805513381958,0.0,0.0,0.89599609375,-0.9857696294784546
-0.3785570561885834,0.3308870494365692,-0.625120997428894,-0.7852981686592102,-0.7377511858940125,-0.5674278140068054,0.0,0.0,0.9080190658569336,-0.9827316403388976
-0.3848689496517181,0.3135425150394439,-0.6117170453071594,-0.7829521894454956,-0.7640125751495361,-0.5252282023429871,0.0,0.0,0.9410667419433594,-0.9683331251144408
-0.3909669816493988,0.2960127592086792,-0.5924306511878967,-0.7904360294342041,-0.7880056500434875,-0.4798620343208313,0.0,0.0,0.9710824489593506,-0.962215542793274
-0.3969173431396484,0.2784492075443268,-0.5795450210571289,-0.7911960482597351,-0.8099158406257629,-0.4382039606571197,0.0,0.0,0.988701581954956,-0.977614164352417
-0.4022826552391052,0.2613933086395263,-0.5228944420814514,-0.7677599191665649,-0.8296191692352295,-0.3940663635730743,0.0,0.0,0.9894434213638306,-0.992887794971466
-0.406946986913681,0.244724690914154,-0.4547072052955627,-0.7494986057281494,-0.8469074368476868,-0.3457652926445007,0.0,0.0,0.9923584461212158,-0.9972519874572754
-0.4110641479492187,0.2287146151065826,-0.4015990197658539,-0.7192984819412231,-0.8621076941490173,-0.3040048480033874,0.0,0.0,0.9960322380065918,-0.9997424483299256
-0.4150894582271576,0.2127908021211624,-0.3939123451709747,-0.7145092487335205,-0.8752711415290833,-0.2632695436477661,0.0,0.0,0.997117042541504,-0.9989969730377196
-0.4184327721595764,0.1972347050905227,-0.3273737132549286,-0.6969975829124451,-0.8860559463500977,-0.2156957387924194,0.0,0.0,0.9973710775375366,-0.9994550943374634
-0.4214103817939758,0.1820019781589508,-0.2922325432300567,-0.6815595626831055,-0.8947209715843201,-0.1733009368181228,0.0,0.0,0.999610185623169,-0.9993781447410583
-0.4238759577274322,0.1671338230371475,-0.2424777746200561,-0.6642130017280579,-0.9011714458465576,-0.1290095150470733,1.0,0.0,0.7823922634124756,-0.9995353817939758
-0.4256340563297272,0.1541959196329116,-0.1812541186809539,-0.5714315176010132,-0.8903072476387024,0.2215166836977005,1.0,0.0,0.9700045585632324,-0.9980631470680236
-0.4265402257442474,0.141854241490364,-0.1105039566755294,-0.532829999923706,-0.8587000370025635,0.6336554288864136,0.0,0.0,0.991969108581543,0.8722021579742432
-0.4268534779548645,0.1299242079257965,-0.0636457875370979,-0.5063534379005432,-0.8116284608840942,0.9407466650009156,0.0,0.0,0.5622549057006836,0.998333215713501
-0.4265469908714294,0.1182205528020858,-0.0150551320984959,-0.4900082647800445,-0.7490345239639282,1.2507603168487549,0.0,0.0,0.871567964553833,0.9966212511062622
-0.4255546927452087,0.1064498052000999,0.0509586706757545,-0.494976669549942,-0.685659646987915,1.2675483226776123,1.0,0.0,0.9999988079071044,0.4412626028060913
-0.4240218102931976,0.0947970747947692,0.0955922752618789,-0.4886000752449035,-0.6132324934005737,1.4495729207992554,1.0,0.0,0.9988327026367188,0.3656835556030273
-0.4218396246433258,0.083917386829853,0.1505616754293441,-0.4542875289916992,-0.5335338115692139,1.5940771102905271,1.0,0.0,0.9997707605361938,-0.3012123107910156
-0.4187284111976623,0.0759470090270042,0.2327100783586502,-0.3263416886329651,-0.4461240172386169,1.7477678060531616,1.0,1.0,0.9997707605361938,-0.3012123107910156
