x_pos,y_pos,x_vel,y_vel,angle,ang_vel,leg_1,leg_2,main_booster,lat_booster
-0.0015383720165118,1.4029624462127686,-0.1564745604991912,-0.3536748886108398,0.0023668941576033,0.04673408344388,0.0,0.0,-0.0144006609916687,0.9460725784301758
-0.0030100822914391,1.3943616151809692,-0.1480487287044525,-0.3822607398033142,0.0032288054935634,0.0172404535114765,0.0,0.0,0.1756643056869506,0.9020559787750244
-0.0043143271468579,1.385523796081543,-0.130150705575943,-0.3927916586399078,0.0029551836196333,-0.0054725427180528,0.0,0.0,-0.5107602477073669,0.802016019821167
-0.0055804252624511,1.376021385192871,-0.1256394684314727,-0.4223270714282989,0.0019962938968092,-0.0191796422004699,0.0,0.0,0.3868874311447143,0.5782393217086792
-0.0066958428360521,1.3666805028915403,-0.1102863177657127,-0.4151522815227508,0.0007571564055979,-0.0247847959399223,0.0,0.0,0.2022134065628051,-0.0831290483474731
-0.0077225686982274,1.3572702407836914,-0.1025034338235855,-0.4182318747043609,0.0005863817059434,-0.0034158113412559,0.0,0.0,-0.703565239906311,0.3082771301269531
-0.0087594985961914,1.3471980094909668,-0.1041262000799179,-0.4476578533649444,0.0010072662262246,0.0084186224266886,0.0,0.0,-0.1463013887405395,0.5481231212615967
-0.0097521785646677,1.3364654779434204,-0.0989235490560531,-0.4770045876502991,0.0006674719625152,-0.0067962831817567,0.0,0.0,0.355656623840332,0.2534490823745727
-0.0107639310881495,1.3261008262634275,-0.101385697722435,-0.4606525599956512,0.0008752202847972,0.0041553191840648,0.0,0.0,-0.4349743723869324,0.5553250312805176
-0.0117400167509913,1.315077543258667,-0.0973075777292251,-0.4899283647537231,0.0005789259448647,-0.0059263659641146,0.0,0.0,0.3704488277435303,-0.2077756524085998
-0.0126520153135061,1.3041319847106934,-0.0918530970811843,-0.4864721000194549,0.0012176757445558,0.0127766709774732,0.0,0.0,-0.1198279857635498,0.2894359827041626
-0.0135705946013331,1.2925242185592651,-0.0931094959378242,-0.5159026980400085,0.0024519953876733,0.0246887318789958,0.0,0.0,0.0136114358901977,0.4890151023864746
-0.0144160268828272,1.2808985710144043,-0.0867858380079269,-0.5167027115821838,0.0046606073155999,0.0441762581467628,0.0,0.0,-0.0480477213859558,-0.470897912979126
-0.0152667043730616,1.268610954284668,-0.0879009291529655,-0.5461329817771912,0.0074654771015048,0.0561027526855468,0.0,0.0,-0.354500412940979,-0.1809329390525818
-0.0161218643188476,1.2556613683700562,-0.0889457315206527,-0.5755575299263,0.0108672343194484,0.0680412277579307,0.0,0.0,-0.4766981601715088,-0.3992714881896972
-0.0169806480407714,1.242050051689148,-0.0899213552474975,-0.6049821376800537,0.0148657588288187,0.0799776464700698,0.0,0.0,-0.7093492150306702,-0.032160460948944
-0.0178424827754497,1.227777123451233,-0.0908286720514297,-0.6344088315963745,0.0194609574973583,0.0919122844934463,0.0,0.0,-0.3467362523078918,0.649016261100769
-0.0186432842165231,1.212838649749756,-0.0837150663137435,-0.6639782190322876,0.0230602957308292,0.0719932317733764,0.0,0.0,-0.2795559167861938,0.3400840759277344
-0.0194457061588764,1.1972386837005615,-0.0844849422574043,-0.6934051513671875,0.0272569209337234,0.0839399248361587,0.0,0.0,-0.918025016784668,0.5384516716003418
-0.0202122684568166,1.180978298187256,-0.0805695801973342,-0.7227606177330017,0.0311231780797243,0.0773320794105529,0.0,0.0,0.0689982175827026,0.6036779880523682
-0.0208542831242084,1.1647967100143433,-0.0676206201314926,-0.719261109828949,0.0345170609652996,0.0678834468126297,0.0,0.0,-0.0776704549789428,0.7066452503204346
-0.0214387886226177,1.1479520797729492,-0.0610479190945625,-0.74870765209198,0.0370755568146705,0.0511745028197765,0.0,0.0,-0.3366690278053283,0.4416803121566772
-0.0220226291567087,1.130445957183838,-0.0615622401237487,-0.7781324982643127,0.0402300208806991,0.0630949586629867,0.0,0.0,-0.1085278987884521,0.4706101417541504
-0.0226049423217773,1.1122782230377195,-0.0620201528072357,-0.8075591921806335,0.0439791232347488,0.0749887749552726,0.0,0.0,0.3336142301559448,0.8696191310882568
-0.023270035162568,1.0942256450653076,-0.0690404325723648,-0.8024078011512756,0.0464685671031475,0.0497933477163314,0.0,0.0,0.874923825263977,0.8048297166824341
-0.0240862853825092,1.076683521270752,-0.0827390775084495,-0.7796913981437683,0.0475728437304496,0.0220855828374624,0.0,0.0,0.5815305709838867,0.7923269271850586
-0.0248659141361713,1.0595312118530271,-0.0780895501375198,-0.7623269557952881,0.047700110822916,0.0025453232228755,0.0,0.0,0.9102880954742432,0.8011888265609741
-0.0257889740169048,1.0431480407714844,-0.0910631939768791,-0.7280983328819275,0.0464714430272579,-0.0245733894407749,0.0,0.0,0.0081956386566162,-0.072651207447052
-0.0268095023930072,1.0268059968948364,-0.1010297089815139,-0.7262802124023438,0.0454664453864097,-0.0200999267399311,0.0,0.0,0.1379270553588867,-0.6138941645622253
-0.027905274182558,1.0102988481521606,-0.1103729605674743,-0.7336757779121399,0.0462500900030136,0.0156729593873024,0.0,0.0,-0.2435340881347656,0.8445863723754883
-0.0289276130497455,0.9931444525718688,-0.101868450641632,-0.7624114751815796,0.0458897575736045,-0.0072067258879542,0.0,0.0,-0.5388458967208862,0.256258487701416
-0.0299447067081928,0.9753283262252808,-0.1019343957304954,-0.7918366193771362,0.0461187586188316,0.0045799748040735,0.0,0.0,0.6702094078063965,-0.5173160433769226
-0.0311234481632709,0.958060622215271,-0.1194953545928001,-0.7675014138221741,0.0477192960679531,0.0320106819272041,0.0,0.0,-0.6422761082649231,0.8582000732421875
-0.0322353355586528,0.9401278495788574,-0.1118576973676681,-0.7970306277275085,0.048381395637989,0.0132421134039759,0.0,0.0,0.5576214790344238,-0.146152913570404
-0.0333541855216026,0.9224206805229188,-0.1132244318723678,-0.7870320081710815,0.0497001409530639,0.0263750851154327,0.0,0.0,-0.3858381509780884,0.8738245964050293
-0.034395694732666,0.904063642024994,-0.1042605489492416,-0.8158707022666931,0.0498108230531215,0.0022137600462883,0.0,0.0,0.6936217546463013,0.227088451385498
-0.0354804992675781,0.8857422471046448,-0.1090637296438217,-0.814303994178772,0.0503799729049205,0.0113830054178833,0.0,0.0,0.1712598800659179,0.2842385768890381
-0.0365587249398231,0.8675697445869446,-0.1091110110282898,-0.8077124357223511,0.0516552440822124,0.0255056768655776,0.0,0.0,0.0642445087432861,0.536186695098877
-0.0376439094543457,0.8495557308197021,-0.1092593073844909,-0.8006488680839539,0.0523944199085235,0.0147836180403828,0.0,0.0,0.2255797386169433,0.7012295722961426
-0.0386665351688861,0.8315627574920654,-0.1022186279296875,-0.7996898293495178,0.0523471310734748,-0.0009456947445869,0.0,0.0,0.1853609085083007,0.6374261379241943
-0.0397464744746685,0.8137474656105042,-0.10711220651865,-0.7917580008506775,0.0514764823019504,-0.017413105815649,0.0,0.0,0.5600986480712891,0.6895346641540527
-0.0406624786555767,0.7960237264633179,-0.0901720821857452,-0.7876764535903931,0.0500653311610221,-0.0282230339944362,0.0,0.0,0.3489501476287842,0.0091279745101928
-0.0415047630667686,0.7780277132987976,-0.0837552919983863,-0.7998001575469971,0.0495922118425369,-0.0094622541218996,0.0,0.0,0.8391294479370117,0.8424203395843506
-0.0421811118721962,0.7602640986442566,-0.0662662833929061,-0.7894496917724609,0.0482464581727981,-0.0269153323024511,0.0,0.0,0.8902482986450195,0.612501859664917
-0.0428675636649131,0.7423364520072937,-0.0664895176887512,-0.796721339225769,0.0461159721016883,-0.0426096022129058,0.0,0.0,0.8695199489593506,0.0070363283157348
-0.0435125343501567,0.724317193031311,-0.0631502419710159,-0.8008134365081787,0.0447885021567344,-0.026549357920885,0.0,0.0,0.5823982954025269,0.0897458791732788
-0.0441114418208599,0.7062817215919495,-0.059382326900959,-0.8015658259391785,0.044290468096733,-0.0099605368450284,0.0,0.0,0.813164472579956,0.9503343105316162
-0.0448065772652626,0.6889616847038269,-0.0674341097474098,-0.7697147727012634,0.0422376543283462,-0.0410562418401241,0.0,0.0,0.613574743270874,0.657850980758667
-0.0456168167293071,0.6721339821815491,-0.0778639987111091,-0.7478154897689819,0.0391154736280441,-0.0624437518417835,0.0,0.0,0.4845706224441528,0.5601301193237305
-0.0464150421321392,0.6553294658660889,-0.0760321915149688,-0.7467735409736633,0.0353775024414062,-0.0747596472501754,0.0,0.0,0.2409895658493042,0.8495916128158569
-0.0470315925776958,0.638516366481781,-0.0568088479340076,-0.7471427917480469,0.0305876899510622,-0.0957962498068809,0.0,0.0,0.0081013441085815,0.6637939214706421
-0.0476441383361816,0.6217209100723267,-0.0555737428367137,-0.7463651299476624,0.0249778348952531,-0.1121968403458595,0.0,0.0,-0.0459175109863281,-0.2465877532958984
-0.0482515320181846,0.6042637228965759,-0.0556010194122791,-0.7757918238639832,0.019899446517229,-0.1015677228569984,0.0,0.0,0.5322463512420654,-0.1524978876113891
-0.0488659851253032,0.5872546434402466,-0.0568522922694683,-0.7559034824371338,0.0153598524630069,-0.0907914787530899,0.0,0.0,0.4447724819183349,0.7037508487701416
-0.0492830276489257,0.5702254772186279,-0.0364732630550861,-0.7568084597587585,0.010195686481893,-0.1032833009958267,0.0,0.0,0.638690710067749,-0.1997296810150146
-0.0497959144413471,0.5532342791557312,-0.0461293533444404,-0.7551394701004028,0.0051039862446486,-0.1018340736627578,0.0,0.0,0.6558771133422852,-0.530470073223114
-0.0502508170902729,0.536784827709198,-0.0421946235001087,-0.7310800552368164,0.0018408789765089,-0.0652621313929557,0.0,0.0,0.4604394435882568,0.1885792016983032
-0.0505824089050293,0.5205680727958679,-0.0309204310178756,-0.7207439541816711,-0.0003640645300038,-0.0440988317131996,0.0,0.0,0.4756872653961181,-0.273287296295166
-0.0508450493216514,0.5047924518585205,-0.0248293466866016,-0.7011420130729675,-0.0017761283088475,-0.0282414499670267,0.0,0.0,0.5272399187088013,0.2812873125076294
-0.0511754974722862,0.4894444942474365,-0.0317646488547325,-0.6821313500404358,-0.0030402829870581,-0.0252831131219863,0.0,0.0,0.6206597089767456,0.6254246234893799
-0.0514003746211528,0.4739736020565033,-0.0205455683171749,-0.6876018047332764,-0.0049594449810683,-0.0383831970393657,0.0,0.0,0.5459082126617432,0.7489676475524902
-0.0516666397452354,0.458829402923584,-0.0234399158507585,-0.673088014125824,-0.0081042973324656,-0.0628969892859458,0.0,0.0,0.2784007787704468,0.9218227863311768
-0.0517471320927143,0.4436190724372864,-0.0035208598710596,-0.6760457754135132,-0.0125800082460045,-0.0895140618085861,0.0,0.0,0.6017433404922485,0.0769233703613281
-0.0517992973327636,0.4286377429962158,-0.0012072457466274,-0.6658745408058167,-0.0165283717215061,-0.0789675042033195,0.0,0.0,0.8545498847961426,-0.7576496601104736
-0.051897145807743,0.4136650264263153,-0.0077403122559189,-0.6654815077781677,-0.0185434892773628,-0.0403024069964885,0.0,0.0,0.2867769002914428,0.2987847328186035
-0.0520864501595497,0.3987232446670532,-0.0168319921940565,-0.6641076803207397,-0.0206157378852367,-0.0414449051022529,0.0,0.0,0.9541888236999512,0.5504043102264404
-0.0521887764334678,0.3846416473388672,-0.0074888477101922,-0.6258859038352966,-0.0233331564813852,-0.0543482825160026,0.0,0.0,0.9005217552185059,0.308956503868103
-0.0521944984793663,0.3703992664813995,0.0013817807193845,-0.6330273747444153,-0.0252625793218612,-0.0385883674025535,0.0,0.0,0.8392279148101807,0.4847346544265747
-0.0521527305245399,0.3569186925888061,0.0056591145694255,-0.5991614460945129,-0.0267224870622158,-0.0291982442140579,0.0,0.0,0.0507596731185913,0.630036473274231
-0.0521283149719238,0.3432254791259765,0.0049572405405342,-0.6086350083351135,-0.0292085446417331,-0.0497213080525398,0.0,0.0,0.9334685802459716,0.2731857299804687
-0.052196979522705,0.3300630748271942,-0.0041249417699873,-0.5850526690483093,-0.0319068953394889,-0.0539673492312431,0.0,0.0,0.5505962371826172,0.5658886432647705
-0.0521807670593261,0.3171117305755615,0.0051499153487384,-0.5756921172142029,-0.0353945717215538,-0.0697534829378128,0.0,0.0,0.9387553930282592,-0.1421022415161132
-0.0522915832698345,0.3049921989440918,-0.0070733157917857,-0.5387471318244934,-0.0393473021686077,-0.0790547728538513,0.0,0.0,0.1340597867965698,-0.0130804777145385
-0.0523484237492084,0.2928018867969513,-0.0021317219361662,-0.5418912768363953,-0.0428594164550304,-0.0702424868941307,0.0,0.0,0.2112888097763061,-0.6850137710571289
-0.0524884238839149,0.2803791165351867,-0.0119598675519227,-0.5521817803382874,-0.0448684021830558,-0.0401798784732818,0.0,0.0,0.3055466413497925,0.798836350440979
-0.0525075905025005,0.2676625251770019,0.0015007348265498,-0.5652889609336853,-0.0482488609850406,-0.0676091462373733,0.0,0.0,0.8379440307617188,-0.8408914804458618
-0.0526296608150005,0.254848837852478,-0.0105225089937448,-0.5695503950119019,-0.0499120987951755,-0.0332644842565059,0.0,0.0,0.9806134700775146,-0.0810846090316772
-0.0527312271296978,0.2427984327077865,-0.0085167493671178,-0.5356272459030151,-0.0515319108963012,-0.032396350055933,0.0,0.0,0.8999929428100586,-0.6752747297286987
-0.0527566894888877,0.2314946055412292,-0.0025814322289079,-0.5023917555809021,-0.0515006929636001,0.0006246013799682,0.0,0.0,0.1313533782958984,-0.2783927321434021
-0.0528495796024799,0.2203730940818786,-0.0089846644550561,-0.4942995905876159,-0.0517971478402614,-0.0059292158111929,0.0,0.0,0.8213305473327637,-0.0173603296279907
-0.0530866608023643,0.209147647023201,-0.0227343123406171,-0.4989427626132965,-0.0527569614350795,-0.0191964451223611,0.0,0.0,0.5066150426864624,0.0798467397689819
-0.0532708168029785,0.1983370631933212,-0.0175856500864028,-0.4804980158805847,-0.0535814389586448,-0.0164894573390483,0.0,0.0,0.4043811559677124,-0.5366829633712769
-0.0535874366760253,0.1876082271337509,-0.0316275022923946,-0.4768410623073578,-0.0536224097013473,-0.0008194030961021,0.0,0.0,0.683951735496521,0.1766705513000488
-0.0539472587406635,0.1772566884756088,-0.0355807170271873,-0.4600822627544403,-0.0540180914103984,-0.0079136425629258,0.0,0.0,0.563868522644043,0.1800036430358886
-0.0543082244694232,0.1672355979681015,-0.035513661801815,-0.4454039633274078,-0.0545922555029392,-0.0114832334220409,0.0,0.0,0.5597500801086426,-0.4423809051513672
-0.0545837394893169,0.1573684960603714,-0.0272013396024703,-0.4385496973991394,-0.0549407973885536,-0.0069708540104329,0.0,0.0,0.4087107181549072,0.7753145694732666
-0.0547876358032226,0.147262156009674,-0.0183228682726621,-0.4492473900318146,-0.0569844096899032,-0.0408720858395099,0.0,0.0,0.5006422996520996,-0.376542329788208
-0.054915715008974,0.1370344907045364,-0.0109191797673702,-0.4546345472335815,-0.0588486790657043,-0.0372853353619575,0.0,0.0,0.9278411865234376,-0.1922414898872375
-0.0548633560538291,0.1271277070045471,0.0065519460476934,-0.4403546750545501,-0.0601552501320838,-0.0261313207447528,0.0,0.0,0.9371542930603028,-0.747470498085022
-0.054697036743164,0.1172351464629173,0.0162975452840328,-0.4396564066410064,-0.0598248057067394,0.0066089942120015,0.0,0.0,0.9342186450958252,-0.2441281080245971
-0.0545171722769737,0.1079982593655586,0.0179731808602809,-0.4105249047279358,-0.0598097927868366,0.0003002133453264,0.0,0.0,0.9002448320388794,-0.4402921795845032
-0.0542830452322959,0.0994028896093368,0.0235405098646879,-0.382024198770523,-0.0599371120333671,-0.0025462759658694,0.0,0.0,0.9314825534820556,-0.8380982875823975
-0.0539437308907508,0.0913081988692283,0.032373733818531,-0.3597026169300079,-0.0583949275314807,0.0308438688516616,0.0,0.0,0.5323668718338013,-0.8310825824737549
-0.0535837188363075,0.082993060350418,0.0329547002911567,-0.3694445192813873,-0.0553921088576316,0.0600563883781433,0.0,0.0,0.8538109064102173,-0.2562737464904785
-0.0532874092459678,0.0748769864439964,0.0272367056459188,-0.3606275618076324,-0.0530276224017143,0.0472895875573158,0.0,0.0,0.9459824562072754,-0.4340426921844482
-0.0528750419616699,0.0676134899258613,0.0387683361768722,-0.3227345645427704,-0.0505846291780471,0.0488598346710205,0.0,0.0,0.5958929061889648,-0.2912988662719726
-0.0524955764412879,0.060513649135828,0.0359868519008159,-0.3154834508895874,-0.0486441813409328,0.0388086587190628,0.0,0.0,0.6598340272903442,-0.3434014320373535
-0.0522412285208702,0.0539586171507835,0.0244844760745763,-0.2913041412830353,-0.0476950518786907,0.0189823526889085,0.0,0.0,0.2333005666732788,0.2926516532897949
-0.0519368164241313,0.0475177392363548,0.0295987036079168,-0.2862361669540405,-0.0468718484044075,0.0164640974253416,0.0,0.0,0.4238902330398559,0.3413413763046264
-0.0516889579594135,0.0413872115314006,0.024614755064249,-0.2724628150463104,-0.046700969338417,0.0034173764288425,0.0,0.0,0.5255004167556763,0.7712337970733643
-0.0514738075435161,0.0356381274759769,0.0235018134117126,-0.2555776238441467,-0.0486566424369812,-0.0391133986413478,0.0,0.0,0.4379191398620605,0.2888524532318115
-0.0513012893497943,0.0298783164471387,0.01980303786695,-0.2560762763023376,-0.0511732846498489,-0.0503328554332256,0.0,0.0,0.7019062042236328,0.8655346632003784
-0.0512046813964843,0.0243909452110528,0.0146520901471376,-0.2440616190433502,-0.0561048872768878,-0.098632276058197,0.0,0.0,0.8932600021362305,0.5621984004974365
-0.0512566566467285,0.019151696935296,0.0019236847292631,-0.2331372052431106,-0.0631530508399009,-0.1409630328416824,0.0,0.0,0.8940181732177734,0.3160079717636108
-0.0511795058846473,0.0144733525812625,0.0147607829421758,-0.2082417160272598,-0.0701268389821052,-0.1394754201173782,0.0,0.0,0.6690104007720947,-0.1506178379058838
-0.0510590560734272,0.0096852872520685,0.0192986410111188,-0.2131589949131012,-0.0773085877299308,-0.1436347812414169,0.0,0.0,0.8336093425750732,-0.4049618244171142
-0.050757884979248,0.0054840184748172,0.0371224880218505,-0.1871000379323959,-0.0842471122741699,-0.1387702524662017,1.0,0.0,0.7403345108032227,-0.2302215695381164
-0.0503763183951377,0.0023191904183477,0.0349424891173839,-0.1409193873405456,-0.0796753838658332,0.0932562053203582,1.0,0.0,0.5165293216705322,-0.2139888405799865
-0.0496922507882118,0.0001487112022005,0.0486803129315376,-0.0955457836389541,-0.0601070076227188,0.3914380669593811,1.0,0.0,0.2062283754348755,-0.5367295145988464
-0.048901367932558,-0.0016966485418379,0.0482297986745834,-0.0810722857713699,-0.0295526161789894,0.6111562848091125,1.0,0.0,0.2333474159240722,-0.0103148221969604
-0.0480790138244628,-0.0031772993970662,0.0485013052821159,-0.0654910504817962,0.0037950275000184,0.6670168042182922,1.0,1.0,0.5989410877227783,0.8623027801513672
-0.0472991950809955,-0.0037605548277497,0.0611528381705284,-0.0262081585824489,0.0196454115211963,0.3160440623760223,1.0,1.0,-0.2982977032661438,0.4305821657180786
-0.0467392913997173,-0.0043799304403364,0.0561285391449928,-0.02753964997828,0.0195014234632253,-0.002887591253966,1.0,1.0,-0.1861056089401245,-0.8900642991065979
-0.0464262962341308,-0.0047886632382869,0.0377699621021747,-0.0181055609136819,0.0131277479231357,-0.1274573504924774,1.0,1.0,-0.0865564346313476,-0.7060117721557617
-0.0462896339595317,-0.004818239249289,0.0197260808199644,-0.0012853090884163,0.0071550095453858,-0.1194411143660545,1.0,1.0,-0.4936791658401489,-0.0348114371299743
-0.0461785309016704,-0.0044778133742511,0.0153584945946931,0.0151469344273209,0.0029464433901011,-0.0842007845640182,1.0,1.0,-0.5182037353515625,-0.3660300970077514
-0.0460371002554893,-0.0038272165693342,0.0158639214932918,0.0289149228483438,0.0012432594085112,-0.034073881804943,1.0,1.0,-0.198949933052063,0.2390986680984497
-0.0458710677921772,-0.0028936648741364,0.0162631403654813,0.0414901375770568,0.0015781158581376,0.0066872565075755,1.0,1.0,-0.3440095782279968,0.2038655281066894
-0.045697022229433,-0.0017444277182221,0.0163851343095302,0.0510782115161418,0.0025759621057659,0.0199471302330493,1.0,1.0,-0.5540905594825745,0.5871837139129639
-0.0454713813960552,-0.0004660511040128,0.0224442891776561,0.0568205192685127,0.0027008091565221,0.0024907640181481,1.0,1.0,-0.4166523218154907,-0.0410398840904235
-0.0452458374202251,0.0001150226598838,0.0224413499236106,0.0258252434432506,0.0028108379337936,0.0022005843929946,1.0,1.0,-0.3859052658081054,-0.0241444706916809
