x_pos,y_pos,x_vel,y_vel,angle,ang_vel,leg_1,leg_2,main_booster,lat_booster
-0.0015807151794433,1.4031013250350952,-0.160155639052391,-0.3475045263767242,0.001860216492787,0.0367017276585102,0.0,0.0,-0.4628952741622925,0.6165776252746582
-0.0031673430930823,1.3947795629501345,-0.1592104136943817,-0.3698563873767853,0.0023995293304324,0.0107881696894764,0.0,0.0,0.4032567739486694,0.8119848966598511
-0.004622459411621,1.3864436149597168,-0.1446768343448639,-0.3704870939254761,0.001572705572471,-0.0165377967059612,0.0,0.0,0.1936185359954834,0.7806798219680786
-0.0061747552827,1.378123164176941,-0.1527656018733978,-0.3697991967201233,-0.0008563479059375,-0.0485860481858253,0.0,0.0,-0.3509036302566528,0.7655565738677979
-0.0077141760848462,1.3692818880081177,-0.1496826112270355,-0.3929547965526581,-0.005072746425867,-0.0843357071280479,0.0,0.0,-0.0928050279617309,0.071707010269165
-0.0093144420534372,1.3599176406860352,-0.155823215842247,-0.4162076115608215,-0.0092383790761232,-0.0833202823996543,0.0,0.0,0.0434246063232421,0.7505033016204834
-0.0109303472563624,1.350576877593994,-0.1559081822633743,-0.4151849150657654,-0.0148524651303887,-0.1122917532920837,0.0,0.0,0.0060876607894897,-0.1009640097618103
-0.0125112533569335,1.3413023948669434,-0.1529066711664199,-0.4122689664363861,-0.0199821088463068,-0.1026022657752037,0.0,0.0,0.0263031721115112,-0.1703505516052246
-0.0141516681760549,1.3322845697402954,-0.1588760763406753,-0.4008692800998688,-0.0250984095036983,-0.1023352146148681,0.0,0.0,-0.0727394223213195,0.5435689687728882
-0.0158122070133686,1.3227458000183103,-0.1598463952541351,-0.4240681529045105,-0.0312404371798038,-0.122851625084877,0.0,0.0,-0.4337349534034729,0.8208417892456055
-0.017462158575654,1.3126814365386963,-0.1569525748491287,-0.4474889636039734,-0.0391923263669014,-0.1590526700019836,0.0,0.0,0.04630708694458,0.6423155069351196
-0.0190612785518169,1.302588939666748,-0.1507008969783783,-0.4488174319267273,-0.0483059622347354,-0.1822895109653473,0.0,0.0,-0.4852321147918701,0.7651444673538208
-0.0206508636474609,1.291973114013672,-0.1479359716176986,-0.4722048640251159,-0.0592162385582923,-0.2182254791259765,0.0,0.0,-0.0447117686271667,0.7589374780654907
-0.0222381595522165,1.280822992324829,-0.1460754573345184,-0.4961106479167938,-0.0717583447694778,-0.2508649528026581,0.0,0.0,0.2291717529296875,0.1163023710250854
-0.0237411502748727,1.270058035850525,-0.1381965577602386,-0.4790712893009186,-0.0837582126259803,-0.2400192022323608,0.0,0.0,0.5158205032348633,0.3663468360900879
-0.0251856800168752,1.2591663599014282,-0.1328877061605453,-0.4847606718540191,-0.0952391773462295,-0.2296402007341385,0.0,0.0,-0.4198278188705444,-0.521310567855835
-0.0267262458801269,1.2477636337280271,-0.1433591693639755,-0.5075051188468933,-0.1058727353811264,-0.2126901149749755,0.0,0.0,-0.204422652721405,0.2090880870819091
-0.028331946581602,1.2358388900756836,-0.1499290019273758,-0.5307678580284119,-0.1164618805050849,-0.2118017375469207,0.0,0.0,0.3764854669570923,0.1297684907913208
-0.029844855889678,1.224374771118164,-0.1410885155200958,-0.5103446841239929,-0.1266284883022308,-0.2033507823944091,0.0,0.0,-0.499706506729126,0.185437798500061
-0.0314232818782329,1.2123883962631226,-0.1477002054452896,-0.5336164236068726,-0.1367528289556503,-0.2025043964385986,0.0,0.0,0.1856645345687866,-0.0171297788619995
-0.0329032912850379,1.2006632089614868,-0.1383263170719146,-0.5220328569412231,-0.1464082598686218,-0.1931258738040924,0.0,0.0,-0.3677043914794922,-0.485459566116333
-0.0344491973519325,1.188415765762329,-0.1449719965457916,-0.5453034043312073,-0.1560234725475311,-0.1923215985298156,0.0,0.0,0.3121194839477539,-0.6449435949325562
-0.035931684076786,1.1762710809707642,-0.1401718109846115,-0.5406239032745361,-0.1641081571578979,-0.1617080867290496,0.0,0.0,0.4116084575653076,-0.6591349840164185
-0.0374241843819618,1.1639878749847412,-0.1426623910665512,-0.5466597676277161,-0.1707160323858261,-0.1321693211793899,0.0,0.0,0.21321702003479,-0.8269184827804565
-0.0390850082039833,1.1519299745559692,-0.1610922664403915,-0.5364951491355896,-0.1757217496633529,-0.1001234203577041,0.0,0.0,0.5817649364471436,-0.7407242655754089
-0.0409056656062603,1.1403825283050537,-0.1783069372177124,-0.5136585831642151,-0.1794905811548233,-0.0753764435648918,0.0,0.0,-0.599038302898407,0.0970182418823242
-0.0427931770682334,1.128312349319458,-0.1850335896015167,-0.5369115471839905,-0.1832254379987716,-0.0746967941522598,0.0,0.0,0.770595908164978,-0.763236403465271
-0.0447954162955284,1.1170895099639893,-0.1977504193782806,-0.499098926782608,-0.1857071220874786,-0.0496336109936237,0.0,0.0,-0.0483644604682922,-0.2154454588890075
-0.0468647964298725,1.1053435802459717,-0.2044916599988937,-0.5223512053489685,-0.1881573796272277,-0.0490054711699485,0.0,0.0,0.8025778532028198,-0.0567216873168945
-0.048924159258604,1.0938647985458374,-0.2034322470426559,-0.5104920864105225,-0.190683513879776,-0.0505221188068389,0.0,0.0,0.3090138435363769,0.1123431921005249
-0.0509092323482036,1.0828465223312378,-0.1960813552141189,-0.4900135993957519,-0.1931120306253433,-0.0485707446932792,0.0,0.0,0.2680392265319824,0.6899731159210205
-0.0529094710946083,1.071799874305725,-0.1961615830659866,-0.4914703071117401,-0.1969980895519256,-0.0777210146188736,0.0,0.0,0.2184623479843139,0.1421695947647094
-0.0549209602177143,1.0611176490783691,-0.1970402747392654,-0.4753150641918182,-0.2011390030384063,-0.0828184634447097,0.0,0.0,0.4221808910369873,0.8887535333633423
-0.0569311156868934,1.050358772277832,-0.1950969398021698,-0.4789938926696777,-0.2071106284856796,-0.1194323524832725,0.0,0.0,0.3162364959716797,-0.0930629968643188
-0.0588932037353515,1.0398064851760864,-0.1903759688138961,-0.469816654920578,-0.2129974514245987,-0.1177363246679306,0.0,0.0,-0.4588433504104614,0.9194109439849854
-0.0608484260737896,1.028714656829834,-0.1878498047590255,-0.4940977096557617,-0.2207609713077545,-0.155270516872406,0.0,0.0,0.6155514717102051,0.6745669841766357
-0.0627493858337402,1.0177404880523682,-0.1810497045516967,-0.4891217350959778,-0.2299220710992813,-0.1832218915224075,0.0,0.0,-0.3454770445823669,-0.1829220056533813
-0.0647176727652549,1.006244421005249,-0.1878165304660797,-0.5123803615570068,-0.2390609085559845,-0.1827767789363861,0.0,0.0,0.8244423866271973,-0.4366841316223144
-0.0665749534964561,0.9955973625183104,-0.1765704005956649,-0.4747177958488464,-0.2483793497085571,-0.1863692104816436,0.0,0.0,-0.7921326756477356,-0.7456522583961487
-0.0685537308454513,0.984449565410614,-0.1901609301567077,-0.4967788755893707,-0.2562406063079834,-0.1572249084711074,0.0,0.0,0.8661987781524658,0.6568245887756348
-0.0704512596130371,0.9740907549858092,-0.1804618686437606,-0.462043285369873,-0.2657278180122375,-0.1897439658641815,0.0,0.0,-0.4617069959640503,0.1673727035522461
-0.0724158287048339,0.9632100462913512,-0.1872187554836273,-0.4853023886680603,-0.2751957476139068,-0.1893584430217743,0.0,0.0,0.7854940891265869,-0.6761749982833862
-0.0742988586425781,0.9522643089294434,-0.1806847602128982,-0.487928956747055,-0.2830168008804321,-0.1564208567142486,0.0,0.0,-0.6387072801589966,-0.2479957938194275
-0.0762490257620811,0.9407960772514344,-0.1874304115772247,-0.5111857652664185,-0.2908198535442352,-0.1560611873865127,0.0,0.0,0.138161301612854,-0.0754750967025756
-0.0782347694039344,0.9291092157363892,-0.1909083724021911,-0.5209752321243286,-0.2987350523471832,-0.1583038866519928,0.0,0.0,0.0640991926193237,-0.1335880160331726
-0.0801959037780761,0.9171950221061708,-0.1886097341775894,-0.5310730934143066,-0.3064965307712555,-0.1552295535802841,0.0,0.0,-0.701667070388794,0.0826348066329956
-0.0822239890694618,0.904758632183075,-0.1953326165676117,-0.5543297529220581,-0.3142416775226593,-0.1549030840396881,0.0,0.0,0.8238773345947266,-0.7519007325172424
-0.0842173546552658,0.893210232257843,-0.1931047737598419,-0.5146232843399048,-0.3207173645496368,-0.1295140832662582,0.0,0.0,0.444237470626831,-0.0921539068222045
-0.0861703902482986,0.8821748495101929,-0.1885753124952316,-0.4919665455818176,-0.3277142345905304,-0.1399375200271606,0.0,0.0,-0.0265592336654663,-0.4274888634681701
-0.088189885020256,0.8706168532371521,-0.1952648311853408,-0.5152222514152527,-0.3346962034702301,-0.1396399438381195,0.0,0.0,-0.5605272054672241,-0.6485998630523682
-0.0903126746416091,0.858555257320404,-0.2065816223621368,-0.5374101996421814,-0.3406534194946289,-0.1191442459821701,0.0,0.0,-0.6913620233535767,-0.333295464515686
-0.0925018340349197,0.8459707498550415,-0.2132418155670166,-0.5606649518013,-0.3465966284275055,-0.1188642606139183,0.0,0.0,-0.4397814273834228,-0.4314583539962768
-0.094757080078125,0.8328632712364197,-0.219885304570198,-0.5839195847511292,-0.3525262176990509,-0.1185924783349037,0.0,0.0,0.2181497812271118,-0.824560821056366
-0.0969317406415939,0.8201003670692444,-0.2134654223918914,-0.5682340860366821,-0.3567405045032501,-0.0842857062816619,0.0,0.0,-0.1761859655380249,-0.2539271116256714
-0.0991723090410232,0.8068143725395203,-0.2200693190097808,-0.5914872884750366,-0.360942006111145,-0.0840298384428024,0.0,0.0,0.5369229316711426,-0.5685015320777893
-0.101455882191658,0.793692409992218,-0.2252790629863739,-0.583970844745636,-0.364192247390747,-0.0650046989321708,0.0,0.0,0.4283413887023926,-0.2521862983703613
-0.1034834831953048,0.7809698581695557,-0.2000512182712555,-0.5661410689353943,-0.3670544624328613,-0.0572445280849933,0.0,0.0,0.3489506244659424,-0.705129086971283
-0.105312630534172,0.7684600353240967,-0.1817656755447387,-0.5562860369682312,-0.3682627081871032,-0.0241649486124515,0.0,0.0,0.7202191352844238,-0.9338812232017516
-0.1068828552961349,0.7566282749176025,-0.1578374803066253,-0.5256490707397461,-0.3674057722091675,0.0171394031494855,0.0,0.0,0.8093777894973755,-0.9457482695579528
-0.108362391591072,0.7455757260322571,-0.1504935920238495,-0.4905771017074585,-0.3647228479385376,0.0536585040390491,0.0,0.0,0.6844240427017212,-0.8687208890914917
-0.1097828894853591,0.734527587890625,-0.1463669091463089,-0.4899335205554962,-0.3601630330085754,0.0911960825324058,0.0,0.0,0.79315185546875,-0.9163280725479126
-0.1111780181527137,0.7241317629814148,-0.1454641371965408,-0.4605598449707031,-0.3538951873779297,0.1253571659326553,0.0,0.0,0.7589969635009766,-0.714957058429718
-0.112364575266838,0.7139412760734558,-0.1263122856616974,-0.4510482251644134,-0.3458449840545654,0.1610036641359329,0.0,0.0,0.8176889419555664,-0.7602964639663696
-0.1134144812822341,0.7041971683502197,-0.1142327561974525,-0.4308805763721466,-0.3361667990684509,0.1935629248619079,0.0,0.0,-0.6781876683235168,-0.6488808989524841
-0.1145751029253006,0.6939515471458435,-0.1265988051891327,-0.4529421627521515,-0.3251742422580719,0.2198514193296432,0.0,0.0,-0.1437851190567016,0.1417922973632812
-0.1157973259687423,0.6831842660903931,-0.1327965259552002,-0.4762037098407745,-0.3141723275184631,0.2200381457805633,0.0,0.0,0.1524810791015625,0.0344386100769043
-0.1168815642595291,0.67274010181427,-0.119124099612236,-0.4619089066982269,-0.3030921816825866,0.2216030657291412,0.0,0.0,-0.5439603924751282,0.0375311374664306
-0.1180260628461837,0.6617740988731384,-0.1251916140317917,-0.4851707220077514,-0.2920033931732178,0.2217764109373092,0.0,0.0,-0.2034300565719604,0.3163031339645386
-0.1192300766706466,0.6502864956855774,-0.1311846226453781,-0.5084326267242432,-0.2809063196182251,0.221941739320755,0.0,0.0,-0.7985479235649109,0.6167244911193848
-0.1204539313912391,0.6382577419281006,-0.1321785748004913,-0.5327649116516113,-0.270859807729721,0.2009300887584686,0.0,0.0,-0.3370473384857178,0.8054410219192505
-0.1216834038496017,0.6256884336471558,-0.1314062774181366,-0.557090699672699,-0.2621860206127167,0.1734755933284759,0.0,0.0,-0.0415036678314209,0.0212140083312988
-0.1229697242379188,0.6125969290733337,-0.1371299922466278,-0.5803488492965698,-0.2535054683685303,0.1736110895872116,0.0,0.0,-0.3966262340545654,0.5260858535766602
-0.1242793053388595,0.5989765524864197,-0.1386728733778,-0.6040405631065369,-0.2456496953964233,0.1571154296398162,0.0,0.0,0.7386367321014404,-0.233231246471405
-0.1254209578037262,0.5856897234916687,-0.1222450956702232,-0.5891953706741333,-0.2374308258295059,0.1643774062395095,0.0,0.0,-0.1731585264205932,0.2195054292678833
-0.1266160905361175,0.571880578994751,-0.1276212930679321,-0.6124529242515564,-0.229207307100296,0.1644702404737472,0.0,0.0,0.8777593374252319,0.4743713140487671
-0.1277043372392654,0.5580624938011169,-0.1172912344336509,-0.6128402948379517,-0.2206225097179412,0.1716955602169037,0.0,0.0,0.2816481590270996,0.7568491697311401
-0.1287553757429123,0.5440896153450012,-0.1120581030845642,-0.6199957132339478,-0.2135982811450958,0.1404846012592315,0.0,0.0,0.9342160224914552,0.6255149841308594
-0.1296198815107345,0.5309484601020813,-0.0921458378434181,-0.5832394361495972,-0.20785453915596,0.114874854683876,0.0,0.0,-0.6713818311691284,-0.1881396770477295
-0.1305319815874099,0.5172845721244812,-0.0969017148017883,-0.6064943075180054,-0.2021100670099258,0.1148892417550087,0.0,0.0,0.8305575847625732,-0.2366805076599121
-0.1314296722412109,0.5044659972190857,-0.0948985069990158,-0.5690191388130188,-0.1969412863254547,0.1033755391836166,0.0,0.0,0.4676209688186645,0.5163693428039551
-0.1323954612016677,0.4915765523910522,-0.1003707647323608,-0.5723657608032227,-0.1931240856647491,0.0763439983129501,0.0,0.0,0.0150854587554931,-0.0603023767471313
-0.1332851350307464,0.4788719415664673,-0.0928798466920852,-0.564144492149353,-0.1891954988241195,0.0785717219114303,0.0,0.0,0.4038951396942138,0.4354903697967529
-0.1342066824436187,0.4663890898227691,-0.0956613570451736,-0.5543487668037415,-0.1856699436903,0.0705109909176826,0.0,0.0,0.6417641639709473,0.6090199947357178
-0.1350508630275726,0.4543816745281219,-0.0865666791796684,-0.5333957672119141,-0.1835118979215622,0.043161142617464,0.0,0.0,-0.140101671218872,0.8116791248321533
-0.1358669251203537,0.4418379366397857,-0.0821604579687118,-0.557428777217865,-0.1829552501440048,0.0111328363418579,0.0,0.0,0.8212172985076904,0.9729433059692384
-0.1364167183637619,0.4296669960021972,-0.053737748414278,-0.5410841703414917,-0.1841982007026672,-0.0248591061681509,0.0,0.0,0.6859476566314697,-0.8360297679901123
-0.1369706094264984,0.4174907207489013,-0.0558601208031177,-0.5411111116409302,-0.1837353557348251,0.0092568229883909,0.0,0.0,0.681604266166687,-0.3680521249771118
-0.1373825073242187,0.4053698480129242,-0.0420652702450752,-0.5385980010032654,-0.1828496754169464,0.0177137143909931,0.0,0.0,0.7272183895111084,-0.6568022966384888
-0.1375955641269683,0.393574982881546,-0.0238663367927074,-0.5239017009735107,-0.1802730560302734,0.0515320599079132,0.0,0.0,0.932082176208496,0.0933525562286377
-0.1375844925642013,0.3818938732147217,-0.0022054070141166,-0.5187626481056213,-0.1769605726003646,0.066249631345272,0.0,0.0,0.3790761232376098,-0.4168808460235595
-0.1374835073947906,0.370617002248764,0.0068341651931405,-0.5008097290992737,-0.1736904084682464,0.0654031485319137,0.0,0.0,0.5004194974899292,-0.4601162075996399
-0.1372481286525726,0.3598276376724243,0.0201697424054145,-0.4791368246078491,-0.1703130006790161,0.0675480887293815,0.0,0.0,0.3187532424926758,0.692939043045044
-0.1367678642272949,0.3492628931999206,0.0458932742476463,-0.4693017899990082,-0.1681748479604721,0.0427628345787525,0.0,0.0,-0.1649256944656372,-0.210975170135498
-0.1362928450107574,0.3381750583648681,0.0453975871205329,-0.4925547838211059,-0.1660641133785247,0.0422147400677204,0.0,0.0,0.4063464403152466,-0.3342618942260742
-0.1357917785644531,0.3272165656089782,0.0482265539467334,-0.4868371784687042,-0.1641900837421417,0.0374804958701133,0.0,0.0,0.548172116279602,-0.5380091071128845
-0.1351137161254882,0.3169273138046264,0.0646713301539421,-0.4569571912288666,-0.1610516905784607,0.0627679824829101,0.0,0.0,0.0296524763107299,-0.8025566935539246
-0.1344526261091232,0.3066594004631042,0.0614097714424133,-0.4558494687080383,-0.1563462913036346,0.0941080972552299,0.0,0.0,0.258481502532959,-0.3253017067909241
-0.1337815225124359,0.2967886626720428,0.0628714486956596,-0.4382616281509399,-0.1521162688732147,0.084600493311882,0.0,0.0,0.1395955085754394,-0.3588961958885193
-0.132965475320816,0.2870950698852539,0.0771244093775749,-0.430374264717102,-0.1476477533578872,0.0893702358007431,0.0,0.0,-0.6085194945335388,0.0898756980895996
-0.1321333944797516,0.2768787145614624,0.0787697806954383,-0.453628659248352,-0.1432206928730011,0.0885414034128189,0.0,0.0,-0.1968389153480529,-0.4633117914199829
-0.1312819421291351,0.2661395072937011,0.0807502344250679,-0.4768830239772796,-0.1388372331857681,0.087669126689434,0.0,0.0,0.7778284549713135,-0.0952769517898559
-0.1303602159023285,0.255679041147232,0.087945818901062,-0.4645220339298248,-0.1346233189105987,0.084278404712677,0.0,0.0,0.2824227809906006,-0.6573103666305542
-0.1295012533664703,0.2454210668802261,0.0805606842041015,-0.4554381072521209,-0.1293080151081085,0.1063062399625778,0.0,0.0,0.4597386121749878,-0.4583334922790527
-0.1286857575178146,0.235354408621788,0.0768779292702674,-0.4470109045505523,-0.1246573477983474,0.0930133238434791,0.0,0.0,0.0422208309173584,-0.831297755241394
-0.1277693808078766,0.2254422456026077,0.0853259265422821,-0.4400256276130676,-0.1183790192008018,0.1255663931369781,0.0,0.0,0.037338376045227,0.1526347398757934
-0.1267531365156173,0.2153458446264267,0.0951784551143646,-0.4482341110706329,-0.111975647509098,0.1280671060085296,0.0,0.0,0.2992922067642212,-0.15659099817276
-0.1255197525024414,0.2056021243333816,0.1164148449897766,-0.4325518012046814,-0.1050993502140045,0.1375259608030319,0.0,0.0,-0.2146419286727905,0.2708053588867187
-0.124247170984745,0.1953359246253967,0.1203802451491355,-0.4558084905147552,-0.0982792302966117,0.1364024877548217,0.0,0.0,0.3994264602661133,-0.4916126728057861
-0.1227419823408126,0.1856099516153335,0.1431397348642349,-0.4317983388900757,-0.0909575968980789,0.1464326232671737,0.0,0.0,-0.3348585367202759,-0.2221087217330932
-0.1211932152509689,0.1753615438938141,0.1475409567356109,-0.4550554454326629,-0.0836947187781333,0.1452575474977493,0.0,0.0,0.7447099685668945,-0.194334864616394
-0.1195345893502235,0.1658804714679718,0.1586260497570037,-0.4209917485713959,-0.076526939868927,0.1433553248643875,0.0,0.0,0.6200170516967773,-0.3860090970993042
-0.1177103072404861,0.1570252478122711,0.1749659180641174,-0.3932044804096222,-0.069144919514656,0.147640660405159,0.0,0.0,-0.1551695466041565,-0.7734103798866272
-0.1158902198076248,0.1476493924856186,0.1732609868049621,-0.4163262546062469,-0.0604917556047439,0.173063114285469,0.0,0.0,0.7804888486862183,-0.3753221035003662
-0.1141109466552734,0.1387609094381332,0.1698555648326873,-0.3947370648384094,-0.0525108836591243,0.1596177667379379,0.0,0.0,0.569711446762085,-0.9040714502334596
-0.112462617456913,0.1300970166921615,0.1551814377307891,-0.3847521841526031,-0.0429752431809902,0.1907126307487487,0.0,0.0,0.4866446256637573,-0.4900814890861511
-0.1107585877180099,0.1216725185513496,0.1608995497226715,-0.3741734623908996,-0.0335930287837982,0.1876445263624191,0.0,0.0,-0.0265537500381469,-0.0660146474838256
-0.1090001091361045,0.1127261742949485,0.1664045602083206,-0.3974332213401794,-0.0242749564349651,0.1863614618778228,0.0,0.0,0.6503591537475586,0.218743085861206
-0.1070470809936523,0.1037916243076324,0.1853258162736892,-0.3969537913799286,-0.0144179528579115,0.1971402913331985,0.0,0.0,0.9492167234420776,-0.7210893630981445
-0.1049585342407226,0.0955472290515899,0.1971745193004608,-0.3663429319858551,-0.0028917526360601,0.2305237352848053,0.0,0.0,0.773000955581665,-0.7724940180778503
-0.1028416603803634,0.088087759912014,0.1984569579362869,-0.3315578103065491,0.010166167281568,0.2611585259437561,0.0,0.0,0.4349106550216675,-0.268168568611145
