x_pos,y_pos,x_vel,y_vel,angle,ang_vel,leg_1,leg_2,main_booster,lat_booster
-0.0015399933326989,1.4029462337493896,-0.1563288867473602,-0.3543996810913086,0.0020824845414608,0.0411028452217578,0.0,0.0,-0.4303881525993347,0.8544318675994873
-0.0030220032203942,1.394313097000122,-0.1487166583538055,-0.3836938738822937,0.0025850951205939,0.0100540742278099,0.0,0.0,0.2526378631591797,-0.0191168189048767
-0.0044167516753077,1.3854610919952393,-0.1407894045114517,-0.3934297263622284,0.0038887483533471,0.0260753668844699,0.0,0.0,-0.3654500246047973,0.9420773983001708
-0.0057635307312011,1.3759276866912842,-0.1348083168268203,-0.4237036108970642,0.0040182950906455,0.0025912513956427,0.0,0.0,0.0542136430740356,0.9660433530807496
-0.0069474219344556,1.366344332695007,-0.1169043779373169,-0.425924688577652,0.0025535491295158,-0.0292976312339305,0.0,0.0,-0.3337277173995971,0.4278769493103027
-0.0081396102905273,1.356082558631897,-0.1180862188339233,-0.4560791850090027,0.0014276205329224,-0.0225208643823862,0.0,0.0,0.6801248788833618,0.7778491973876953
-0.0093037607148289,1.346023440361023,-0.1140076965093612,-0.4470702707767486,-0.0009448430500924,-0.0474536642432212,0.0,0.0,0.3903830051422119,0.4337241649627685
-0.0103470804169774,1.3361024856567385,-0.1028936132788658,-0.440936416387558,-0.0023643139284104,-0.0283922497183084,0.0,0.0,-0.4226486682891845,0.4144797325134277
-0.0113945957273244,1.325502872467041,-0.1036783084273338,-0.4710887670516968,-0.0034247944131493,-0.0212113987654447,0.0,0.0,-0.0586844086647033,0.6591669321060181
-0.012393188662827,1.3142290115356443,-0.0978346690535545,-0.5010665655136108,-0.0054226731881499,-0.0399614162743091,0.0,0.0,0.3172558546066284,-0.0870802402496337
-0.0133220674470067,1.3029872179031372,-0.0915754288434982,-0.499642014503479,-0.0067211077548563,-0.0259710848331451,0.0,0.0,-0.5982909798622131,-0.5282856822013855
-0.0142882345244288,1.2910661697387695,-0.0966217219829559,-0.5298250317573547,-0.0067167109809815,8.792181324679404e-05,0.0,0.0,0.5198966264724731,-0.1933856010437011
-0.0151296611875295,1.2794307470321655,-0.0851061195135116,-0.5171237587928772,-0.0057612848468124,0.0191100239753723,0.0,0.0,-0.324586272239685,-0.6403169631958008
-0.0160141941159963,1.2671113014221191,-0.0909545570611953,-0.5475246906280518,-0.0032915791962295,0.0493986830115318,0.0,0.0,-0.4343012571334839,0.0275665521621704
-0.0168962478637695,1.2541136741638184,-0.0911017507314682,-0.5776708722114563,-0.0004265875322744,0.0573051162064075,0.0,0.0,0.1336660385131836,-0.1602934598922729
-0.0176996234804391,1.240743637084961,-0.0839883461594581,-0.5942243933677673,0.0031931279227137,0.0724004656076431,0.0,0.0,-0.6761513948440552,-0.3136734962463379
-0.0184986107051372,1.226695537567139,-0.0839705541729927,-0.6243781447410583,0.0072180372662842,0.0805055946111679,0.0,0.0,-0.5470778942108154,0.2835235595703125
-0.0192925445735454,1.211969256401062,-0.0838789269328117,-0.6545295119285583,0.0116533087566494,0.088713064789772,0.0,0.0,-0.6372714638710022,0.6858181953430176
-0.0200179107487201,1.1965725421905518,-0.0758345574140548,-0.6843324303627014,0.0149217778816819,0.0653752237558364,0.0,0.0,-0.2786033153533935,0.5288586616516113
-0.020700454711914,1.1804980039596558,-0.0710695683956146,-0.7144498229026794,0.017700245603919,0.0555745288729667,0.0,0.0,-0.3417418003082275,0.4257640838623047
-0.0213760379701852,1.163745403289795,-0.0707880407571792,-0.7446008324623108,0.0209020152688026,0.0640410929918289,0.0,0.0,0.4182268381118774,0.1212391853332519
-0.0220417976379394,1.1468846797943115,-0.0702931880950927,-0.7494232654571533,0.0245774406939744,0.0735148638486862,0.0,0.0,0.0791044235229492,0.7576982975006104
-0.0225505828857421,1.1298837661743164,-0.0535816922783851,-0.7556427717208862,0.0272471792995929,0.0533997491002082,0.0,0.0,0.0567609071731567,0.3172986507415771
-0.0230116844177246,1.1125059127807615,-0.0494571402668952,-0.7724133133888245,0.0305590257048606,0.0662427991628646,0.0,0.0,0.0598381757736206,0.6757957935333252
-0.0235268585383892,1.0950685739517212,-0.05383987352252,-0.7750435471534729,0.0328582115471363,0.0459878519177436,0.0,0.0,0.4628543853759765,0.2491654157638549
-0.024181842803955,1.077859878540039,-0.0676678121089935,-0.7648800611495972,0.035001702606678,0.0428701341152191,0.0,0.0,0.6893773078918457,0.3565785884857178
-0.024849509820342,1.061086893081665,-0.069404199719429,-0.7455291748046875,0.0376071520149707,0.0521089620888233,0.0,0.0,0.0132985115051269,0.0678461790084838
-0.0256067272275686,1.044390082359314,-0.0784395635128021,-0.7421491742134094,0.040288608521223,0.0536290407180786,0.0,0.0,0.1375125646591186,0.4203164577484131
-0.026465605944395,1.0278091430664062,-0.0886376202106475,-0.7370031476020813,0.0430038496851921,0.0543048903346061,0.0,0.0,-0.293735146522522,0.7890050411224365
-0.027254581451416,1.0105513334274292,-0.0805708169937133,-0.7670681476593018,0.0446564815938472,0.0330528765916824,0.0,0.0,0.1368684768676757,0.8752593994140625
-0.0279761310666799,0.9935038089752196,-0.0725242048501968,-0.7576757073402405,0.0450257025659084,0.0073845824226737,0.0,0.0,0.680840015411377,0.1063356399536132
-0.028787326067686,0.9764412641525269,-0.0815833583474159,-0.7583581805229187,0.045485183596611,0.0091895516961812,0.0,0.0,0.1061751842498779,0.4345808029174804
-0.029668902978301,0.9595008492469788,-0.0888231843709945,-0.7529228925704956,0.0461473278701305,0.013242851011455,0.0,0.0,-0.8169028759002686,0.5020954608917236
-0.0305057521909475,0.9418804049491882,-0.0839192345738411,-0.7831376791000366,0.0463772676885128,0.004598562605679,0.0,0.0,0.7337646484375,0.0222222805023193
-0.0313472747802734,0.924569308757782,-0.0849384665489196,-0.7694029211997986,0.047148086130619,0.0154163092374801,0.0,0.0,0.3788449764251709,0.2469969987869262
-0.0321950912475585,0.9075270891189576,-0.0860993266105651,-0.7574716806411743,0.0484525635838508,0.0260894950479269,0.0,0.0,0.6680991649627686,0.575603723526001
-0.0330399498343467,0.8904939889907837,-0.0850534290075302,-0.757046103477478,0.0490044057369232,0.0110370786860585,0.0,0.0,0.4622373580932617,-0.4352844953536987
-0.0338767990469932,0.8737946152687073,-0.0848694443702697,-0.7422309517860413,0.0501781702041626,0.0234752781689167,0.0,0.0,-0.807429850101471,0.1595690250396728
-0.0347066894173622,0.8564173579216003,-0.0846495181322097,-0.7723806500434875,0.0518191307783126,0.0328194089233875,0.0,0.0,0.2424582242965698,0.6394894123077393
-0.0354798324406147,0.8390535116195679,-0.0781966522336006,-0.7717598676681519,0.0526940487325191,0.017498206347227,0.0,0.0,0.395017147064209,0.5799535512924194
-0.0363344177603721,0.8219972252845764,-0.0854299888014793,-0.7580589056015015,0.0526702627539634,-0.0004756167181767,0.0,0.0,-0.5695477724075317,-0.4347164034843445
-0.0371838584542274,0.8042628765106201,-0.0854061692953109,-0.7882086634635925,0.0531159751117229,0.0089143980294466,0.0,0.0,0.8181635141372681,0.6644124984741211
-0.037879467010498,0.786373496055603,-0.0694354921579361,-0.7950761914253235,0.0529920943081378,-0.0024777047801762,0.0,0.0,0.668673038482666,0.6990786790847778
-0.0384353622794151,0.768617570400238,-0.0547691695392131,-0.7891219258308411,0.0521819740533828,-0.0162026099860668,0.0,0.0,0.677996039390564,0.531920313835144
-0.0390060432255268,0.7506253123283386,-0.0555343553423881,-0.7996041774749756,0.0506653040647506,-0.0303333289921283,0.0,0.0,0.7384850978851318,0.574779748916626
-0.0394954681396484,0.7324832677841187,-0.0468642488121986,-0.8062400817871094,0.0486125722527504,-0.0410550273954868,0.0,0.0,0.9608221054077148,0.8157947063446045
-0.0398664474487304,0.7144641280174255,-0.034022532403469,-0.8007582426071167,0.0455777719616889,-0.0606959089636802,0.0,0.0,0.4865318536758423,-0.2527768611907959
-0.0403728485107421,0.696884274482727,-0.047565720975399,-0.7812394499778748,0.0425446778535842,-0.0606622584164142,0.0,0.0,0.3008425235748291,0.4818179607391357
-0.0410111434757709,0.6795497536659241,-0.0607512779533863,-0.7703384757041931,0.0394972041249275,-0.0609494224190712,0.0,0.0,0.543705940246582,0.3479642868041992
-0.0416903495788574,0.662248432636261,-0.0652154982089996,-0.7688791155815125,0.0368263274431228,-0.0534174256026744,0.0,0.0,0.6278183460235596,0.6844419240951538
-0.0421853065490722,0.6451238989830017,-0.0462280884385108,-0.7610154747962952,0.0335903838276863,-0.0647188276052475,0.0,0.0,0.1969928741455078,-0.4683590531349182
-0.0427445396780967,0.6281194090843201,-0.0529197975993156,-0.7556912302970886,0.0306271854788064,-0.0592639446258544,0.0,0.0,0.5958764553070068,0.6493339538574219
-0.043156336992979,0.6110847592353821,-0.0375931784510612,-0.7570249438285828,0.0270910412073135,-0.0707228928804397,0.0,0.0,0.1512221097946167,0.3731869459152221
-0.0435877814888954,0.5942056775093079,-0.0400445871055126,-0.7501286268234253,0.0240275990217924,-0.0612688064575195,0.0,0.0,0.0829420089721679,0.916513442993164
-0.0438468940556049,0.5771311521530151,-0.0214300565421581,-0.7588003277778625,0.0196027997881174,-0.0884958803653717,0.0,0.0,0.5896271467208862,-0.0665637254714965
-0.0442161560058593,0.5600559711456299,-0.0324808433651924,-0.758845865726471,0.015210791490972,-0.0878402218222618,0.0,0.0,0.3794574737548828,-0.1991409063339233
-0.0445277206599712,0.543302595615387,-0.0275360830128192,-0.7445615530014038,0.0116373663768172,-0.0714683383703231,0.0,0.0,0.6381871700286865,-0.3255460858345032
-0.0447220802307128,0.5268765687942505,-0.0169225372374057,-0.730029284954071,0.0091494526714086,-0.0497581511735916,0.0,0.0,0.5829238891601562,0.7891840934753418
-0.0447952263057231,0.5109657049179077,-0.0037945252843201,-0.7071336507797241,0.005677546840161,-0.0694381147623062,0.0,0.0,0.3206167221069336,-0.036798357963562
-0.0449473373591899,0.4953182637691498,-0.0118594719097018,-0.6954309344291687,0.0023696783464401,-0.0661575719714164,0.0,0.0,-0.0686981678009033,0.1242264509201049
-0.0451153740286827,0.478992611169815,-0.013896276243031,-0.7255796194076538,-0.0004965004627592,-0.0573235042393207,0.0,0.0,0.8786201477050781,-0.2143428325653076
-0.0454141609370708,0.4631853103637695,-0.0268881469964981,-0.7025520205497742,-0.0034529222175478,-0.0591282024979591,0.0,0.0,0.899897575378418,0.5061874389648438
-0.0455391891300678,0.4475896060466766,-0.0093819880858063,-0.6931536793708801,-0.0065329340286552,-0.0616001076996326,0.0,0.0,0.5569071769714355,-0.2209564447402954
-0.0456581115722656,0.4321817755699157,-0.0093112997710704,-0.6848042011260986,-0.0090829953551292,-0.0510013625025749,0.0,0.0,0.6777973175048828,0.1528651714324951
-0.0457866676151752,0.4167062044143677,-0.010737451724708,-0.6878193020820618,-0.0111748268827795,-0.0418366752564907,0.0,0.0,0.9659862518310548,0.5471346378326416
-0.0460428223013877,0.4016093909740448,-0.0223556011915206,-0.6709970235824585,-0.0143972402438521,-0.0644481033086776,0.0,0.0,0.972519874572754,-0.0474811196327209
-0.0462826713919639,0.3873662054538727,-0.0212485715746879,-0.6330580115318298,-0.017092602327466,-0.0539070442318916,0.0,0.0,0.7879199981689453,0.5977132320404053
-0.0463997833430767,0.3729085922241211,-0.0084422025829553,-0.6426006555557251,-0.0203269682824611,-0.0646873414516449,0.0,0.0,0.9483718872070312,0.1770319938659668
-0.0464912429451942,0.3592815399169922,-0.0064158765599131,-0.6056868433952332,-0.0230206027626991,-0.0538727827370166,0.0,0.0,0.4450254440307617,0.4368090629577636
-0.0466834083199501,0.3455998599529266,-0.0164888706058263,-0.6081200838088989,-0.0257101692259311,-0.0537914112210273,0.0,0.0,0.7432229518890381,0.2809550762176513
-0.0469832420349121,0.3323148488998413,-0.027186807245016,-0.5904948115348816,-0.0284722987562418,-0.0552425161004066,0.0,0.0,0.8227114677429199,0.223238468170166
-0.0472600944340229,0.3193795084953308,-0.0254200883209705,-0.5749483108520508,-0.0307115912437438,-0.0447857119143009,0.0,0.0,-0.0200551152229309,0.2818572521209717
-0.0475687980651855,0.305765688419342,-0.0289602186530828,-0.6050955057144165,-0.032595444470644,-0.0376773998141288,0.0,0.0,0.9167642593383788,0.5538578033447266
-0.0477542877197265,0.2924713790416717,-0.0161398816853761,-0.5909122824668884,-0.0349769815802574,-0.047630675137043,0.0,0.0,0.9858523607254028,-0.4205471277236938
-0.0479980483651161,0.2792055308818817,-0.0221195444464683,-0.5896494388580322,-0.0372138246893882,-0.0447365269064903,0.0,0.0,0.9881746768951416,-0.320215106010437
-0.0481810569763183,0.2658429741859436,-0.016740720719099,-0.5939292311668396,-0.0387526378035545,-0.0307763032615184,0.0,0.0,0.9799015522003174,0.5626192092895508
-0.0483807548880577,0.2524058818817138,-0.0174718983471393,-0.597271203994751,-0.0412220247089862,-0.0493876338005065,0.0,0.0,0.9635021686553956,0.0861173868179321
-0.0485893264412879,0.2397038042545318,-0.0186090283095836,-0.56460040807724,-0.0434458628296852,-0.0444767028093338,0.0,0.0,0.925788164138794,-0.3416733741760254
-0.0487023368477821,0.2277421504259109,-0.009767236188054,-0.531671941280365,-0.0449616909027099,-0.0303165111690759,0.0,0.0,0.7812037467956543,-0.4505961537361145
-0.0489365570247173,0.2164307385683059,-0.0215929243713617,-0.5027869939804077,-0.0467767231166362,-0.0363002568483352,0.0,0.0,0.9484233856201172,-0.0342150330543518
-0.0493461601436138,0.2050368636846542,-0.038652516901493,-0.506467342376709,-0.0490537881851196,-0.0455414950847625,0.0,0.0,0.8589999675750732,-0.388773500919342
-0.0497088432312011,0.1942938715219497,-0.0344119071960449,-0.4775288999080658,-0.0508947074413299,-0.0368183478713035,0.0,0.0,0.676598310470581,0.3749916553497314
-0.0501877777278423,0.1837552189826965,-0.0457541421055793,-0.4684586524963379,-0.0530034303665161,-0.0421744547784328,0.0,0.0,0.6885075569152832,0.0126234292984008
-0.050730038434267,0.1735802739858627,-0.0520189329981803,-0.4522994756698608,-0.0551825612783432,-0.043582759797573,0.0,0.0,-0.1911160945892334,0.1267728805541992
-0.051317311823368,0.1627269089221954,-0.056696780025959,-0.4824467003345489,-0.0571927279233932,-0.0402032881975173,0.0,0.0,0.7858158349990845,0.6038843393325806
-0.0517658218741416,0.1521243155002594,-0.0420234277844429,-0.4713364243507385,-0.0599944107234478,-0.0560336336493492,0.0,0.0,0.9498965740203856,0.288987398147583
-0.0522090904414653,0.1414457708597183,-0.0417492501437664,-0.474706083536148,-0.0625394359230995,-0.0509008280932903,0.0,0.0,0.8986930847167969,0.5131516456604004
-0.052518080919981,0.1307634860277176,-0.0277312994003295,-0.4749002754688263,-0.065665528178215,-0.0625219717621803,0.0,0.0,0.9798867702484132,-0.3856054544448852
-0.0526545532047748,0.1204099506139755,-0.0113952942192554,-0.4602597653865814,-0.0678928270936012,-0.0445459559559822,0.0,0.0,0.9864325523376464,-0.4882502555847168
-0.0526407249271869,0.1100706458091735,0.0027858852408826,-0.4595899879932403,-0.0692842751741409,-0.0278289429843425,0.0,0.0,0.9929351806640624,-0.7451621294021606
-0.052679918706417,0.1004213392734527,-0.004035041667521,-0.4288516640663147,-0.0691710263490676,0.002264950890094,0.0,0.0,0.990760087966919,-0.5723780989646912
-0.0527118667960166,0.091466411948204,-0.0045903520658612,-0.3979328870773315,-0.0677890703082084,0.0276390649378299,0.0,0.0,0.9841113090515136,-0.5272090435028076
-0.052624225616455,0.0830223187804222,0.0058298492804169,-0.3751648068428039,-0.0648916140198707,0.0579491332173347,0.0,0.0,0.9296996593475342,-0.0451907515525817
-0.0524459853768348,0.0744592770934104,0.0143789183348417,-0.3804336190223694,-0.0614821128547191,0.0681899487972259,0.0,0.0,0.9706000089645386,-0.0635961890220642
-0.0523449890315532,0.0661332681775093,0.006995836738497,-0.3699211776256561,-0.0584189854562282,0.0612627565860748,0.0,0.0,0.9427615404129028,0.3345258235931396
-0.0521380417048931,0.058639608323574,0.0172176379710435,-0.332917720079422,-0.0549753420054912,0.0688726976513862,0.0,0.0,0.8648586273193359,0.7458451986312866
-0.0519183166325092,0.0514272563159465,0.0201621297746896,-0.3204843699932098,-0.0531834624707698,0.0358375236392021,0.0,0.0,0.9008309841156006,0.0377389192581176
-0.0518461242318153,0.0449190698564052,0.0062029203400015,-0.2892185747623443,-0.0521798320114612,0.0200724191963672,0.0,0.0,0.839985728263855,0.596159815788269
-0.0516361221671104,0.0388879626989364,0.0210571680217981,-0.2680479288101196,-0.0522335357964038,-0.001074184780009,0.0,0.0,0.3946468830108642,0.0976638793945312
-0.0514919273555278,0.0331310145556926,0.0148593438789248,-0.2558813691139221,-0.0526667572557926,-0.0086644645780324,0.0,0.0,0.711961030960083,0.7319948673248291
-0.051396369934082,0.0278662294149398,0.0118678035214543,-0.2340744286775589,-0.0549441017210483,-0.0455470941960811,0.0,0.0,0.4200499057769775,0.8760459423065186
-0.0512863174080848,0.0225578881800174,0.0153142316266894,-0.2360921502113342,-0.0592052340507507,-0.0852225571870803,0.0,0.0,0.6430279016494751,0.277490496635437
-0.0513107292354106,0.0174774974584579,0.0026457947678864,-0.2260036617517471,-0.0642360597848892,-0.1006168499588966,0.0,0.0,0.878989577293396,0.6132111549377441
-0.0514854416251182,0.0126227708533406,-0.0104020256549119,-0.2160841077566146,-0.0712271183729171,-0.1398211419582367,0.0,0.0,0.8255048990249634,0.6035549640655518
-0.0514844879508018,0.0082638598978519,0.0083067212253808,-0.1941421627998352,-0.0793603360652923,-0.1626645475625991,0.0,0.0,0.800228476524353,-0.2214371562004089
-0.0513596534729003,0.0045665595680475,0.0017351333517581,-0.1637830883264541,-0.0687357112765312,0.2124662101268768,1.0,0.0,0.832634687423706,0.2493314743041992
-0.0508985519409179,0.0020963882561773,0.0165117196738719,-0.1086997911334037,-0.0394268445670604,0.5862269997596741,1.0,0.0,0.4524358510971069,0.3623663187026977
-0.050368309020996,0.0003343558346386,0.0137153519317507,-0.0777475535869598,-0.0005547715700231,0.7775064706802368,1.0,0.0,0.7924861907958984,0.8792557716369629
-0.049623966217041,-0.0007304811733774,0.0381908044219017,-0.047696802765131,0.0352134443819522,0.7153646945953369,1.0,1.0,0.455230712890625,0.949492573738098
-0.0488981232047081,-0.0012582326307892,0.0520717017352581,-0.0242628883570432,0.0543128959834575,0.3804939985275268,0.0,1.0,-0.7224472165107727,0.983894109725952
-0.0483360290527343,-0.0019149446161463,0.0582262948155403,-0.0291237365454435,0.0522909983992576,-0.0404818169772625,0.0,1.0,-0.4316109418869018,-0.04871666431427
-0.0479423515498638,-0.0027795815840363,0.0574101917445659,-0.0379053428769111,0.0344265140593051,-0.3573402464389801,0.0,1.0,-0.1269129514694214,0.091285228729248
-0.0476028434932231,-0.0039931559003889,0.0612599067389965,-0.0535357631742954,0.0074184406548738,-0.540202260017395,1.0,1.0,0.255146861076355,-0.8773326873779297
-0.0474054329097271,-0.0045359637588262,0.0371910221874713,-0.024407897144556,-0.0086842784658074,-0.3206338286399841,1.0,1.0,0.2002475261688232,-0.3786634802818298
-0.0472310073673725,-0.0044567491859197,0.0213221125304698,0.0034767983015626,-0.0124814063310623,-0.075900450348854,1.0,1.0,-0.2685766220092773,-0.3560715913772583
-0.0470595359802246,-0.0042284037917852,0.0133051993325352,0.0101670753210783,-0.0086844936013221,0.075947381556034,1.0,1.0,-0.8186327219009399,0.251239538192749
-0.0469367019832134,-0.0038036131300032,0.0069183083251118,0.0189057774841785,-0.0034099426120519,0.1054658442735672,1.0,1.0,-0.8562886118888855,0.3989362716674804
-0.0468324646353721,-0.0031938576139509,0.0066401213407516,0.0271002650260925,0.0003252620517741,0.074706420302391,1.0,1.0,-0.8305071592330933,0.0935392379760742
-0.046762466430664,-0.0024014974478632,0.0060749282129108,0.0352120622992515,0.0012506509665399,0.0185145772993564,1.0,1.0,-0.7683607339859009,0.3170011043548584
-0.0467132553458213,-0.0014572166837751,0.005727254319936,0.0419639237225055,0.0004624948487617,-0.0157540664076805,1.0,1.0,-0.6072472333908081,0.0632051229476928
-0.0466622337698936,-0.0012174630537629,0.0057875234633684,0.0106555484235286,-0.0002203599142376,-0.0136572029441595,1.0,1.0,-0.7885378003120422,-0.0402560234069824
