x_pos,y_pos,x_vel,y_vel,angle,ang_vel,leg_1,leg_2,main_booster,lat_booster
-0.0015626907115802,1.4034346342086792,-0.1582645028829574,-0.3326846659183502,0.0017859978834167,0.0352325215935707,0.0,0.0,-0.4204476799930543,0.5597042571140163
-0.0031161308288574,1.3957799673080444,-0.1558772027492523,-0.340205043554306,0.0023115994408726,0.0105135524645447,0.0,0.0,-0.1228376214007458,0.5428024807422619
-0.004654788877815,1.3879313468933103,-0.1530569493770599,-0.3488277792930603,0.0015115807764232,-0.0160018540918827,0.0,0.0,-0.2917022638643913,0.622634241454227
-0.0061903954483568,1.3798909187316897,-0.1517305970191955,-0.3573507070541382,-0.0002925200096797,-0.0360853262245655,0.0,0.0,0.5190573781378267,0.6725463479340203
-0.0075779915787279,1.3725621700286863,-0.1358595490455627,-0.3257232010364532,-0.0031603607349097,-0.0573624372482299,0.0,0.0,-0.1874118804119697,-0.710258811941257
-0.0090425489470362,1.365042805671692,-0.1446380615234375,-0.3341993391513824,-0.0049598193727433,-0.035991970449686,0.0,0.0,0.5624098895520513,-0.840293863090054
-0.0106269838288426,1.3581535816192627,-0.1582408249378204,-0.3061872124671936,-0.0051553468219935,-0.0039111231453716,0.0,0.0,-0.2402114150245569,-0.8469527317524254
-0.0122927669435739,1.351077437400818,-0.1676371842622757,-0.314496636390686,-0.0041098808869719,0.0209111794829368,0.0,0.0,-0.6261137156741399,-0.8119582289378817
-0.0140536306425929,1.3438208103179932,-0.1787784546613693,-0.322513073682785,-0.0014461365062743,0.0532799884676933,0.0,0.0,-0.1313375794978226,-0.5363277158903279
-0.0158851630985736,1.33637797832489,-0.1869002282619476,-0.3307938277721405,0.0022577617783099,0.0740847513079643,0.0,0.0,-0.8218552169193518,-0.8875075488932653
-0.0178034789860248,1.3287461996078491,-0.197077602148056,-0.3392122089862823,0.0074442364275455,0.1037388890981674,0.0,0.0,0.5178071272281499,0.5466608025724861
-0.0196374896913766,1.321652889251709,-0.1877066195011139,-0.3152852952480316,0.0117012616246938,0.085148312151432,0.0,0.0,0.7440984836449855,0.7141861246315773
-0.0212976448237895,1.315484642982483,-0.1692006140947342,-0.2741705477237701,0.0148598020896315,0.0631767734885215,0.0,0.0,0.6489797203891536,0.9957460455237256
-0.0228279121220111,1.30965256690979,-0.1543055474758148,-0.2592214941978454,0.0161150582134723,0.0251075085252523,0.0,0.0,0.5966640924298272,0.6148256029308262
-0.0241946224123239,1.304836630821228,-0.1370371282100677,-0.2140452861785888,0.0164785198867321,0.0072699412703514,0.0,0.0,0.0057503006699821,0.5643181982031449
-0.0254624374210834,1.3000984191894531,-0.1261037588119506,-0.2105767279863357,0.015802226960659,-0.0135271530598402,0.0,0.0,0.884641484831038,0.6519092659642507
-0.0265410430729389,1.2966469526290894,-0.1062734350562095,-0.1533819735050201,0.0142424963414669,-0.0311977509409189,0.0,0.0,0.8933972049514805,0.5689659637458929
-0.0274202339351177,1.293649435043335,-0.0856718048453331,-0.1332040578126907,0.012018734589219,-0.0444792956113815,0.0,0.0,-0.3957923643555263,0.7341077557401542
-0.028243351727724,1.2904703617095947,-0.0783198550343513,-0.1412626653909683,0.0080674747005105,-0.0790324211120605,0.0,0.0,0.4022288970519589,0.5234250926893789
-0.0291119571775198,1.2878217697143557,-0.0815916210412979,-0.1176942512392997,0.0028606958221644,-0.1041450053453445,0.0,0.0,0.6078355109350153,-0.9816572461844376
-0.0299261100590229,1.2860887050628662,-0.0782621651887893,-0.077028252184391,-0.0002670041576493,-0.0625593364238739,0.0,0.0,-0.6538963642367375,-0.5225830698315546
-0.0307852737605571,1.2841627597808838,-0.0837337523698806,-0.0855999663472175,-0.0024174638092517,-0.0430128164589405,0.0,0.0,0.1032962160514976,-0.9810696710970412
-0.0316195487976074,1.2825909852981567,-0.0831668749451637,-0.0698521211743354,-0.0026764571666717,-0.0051803239621222,0.0,0.0,0.0909492612839515,0.843725116459673
-0.0323322303593158,1.2811288833618164,-0.0692771151661872,-0.0649903863668441,-0.004637197125703,-0.0392182879149913,0.0,0.0,-0.1499336878535904,-0.7200095629367473
-0.0331121459603309,1.2794793844223022,-0.0777547508478164,-0.0733097493648529,-0.0048726242966949,-0.0047089336439967,0.0,0.0,-0.93409475782744,0.6862283305997142
-0.0338454246520996,1.277622103691101,-0.0719899088144302,-0.0825518742203712,-0.0061900913715362,-0.0263493657112121,0.0,0.0,-0.5711590470679451,0.7385899616729887
-0.0345116630196571,1.2755792140960691,-0.063742496073246,-0.0908099487423896,-0.0090345814824104,-0.056889921426773,0.0,0.0,-0.9457863836700342,-0.5426139870163765
-0.035219382494688,1.273353099822998,-0.0691680163145065,-0.0989531800150871,-0.0106167150661349,-0.0316426046192646,0.0,0.0,-0.795907280867878,0.8318724115997164
-0.0358620658516883,1.27094304561615,-0.0613010227680206,-0.1071262434124946,-0.0135472752153873,-0.0586112849414348,0.0,0.0,-0.9901214364458604,-0.8223028187254805
-0.0365560539066791,1.2683417797088623,-0.0680951178073883,-0.1156208291649818,-0.0148405078798532,-0.0258646104484796,0.0,0.0,-0.3224386594747148,-0.8754479657431713
-0.0372985824942588,1.2655622959136963,-0.0745834335684776,-0.1235313713550567,-0.0145030654966831,0.006748616695404,0.0,0.0,-0.999884068965912,0.669919490814209
-0.0379735007882118,1.2625881433486938,-0.0666063427925109,-0.1321935504674911,-0.0153845194727182,-0.0176290608942508,0.0,0.0,-0.9985104203224182,0.8516714572906494
-0.0385663025081157,1.2594311237335205,-0.0568486340343952,-0.140345424413681,-0.017787454649806,-0.0480586364865303,0.0,0.0,-0.9971752166748048,0.4142448902130127
-0.0391325950622558,1.2560842037200928,-0.0541334450244903,-0.1487783938646316,-0.0202526412904262,-0.0493034943938255,0.0,0.0,-0.9984107613563538,-0.1536266207695007
-0.0396698005497455,1.2525478601455688,-0.0511585883796215,-0.1572113931179046,-0.0227818861603736,-0.0505848228931427,0.0,0.0,-0.9987521171569824,-0.0835114121437072
-0.0401753410696983,1.24882173538208,-0.0479273870587348,-0.1656444519758224,-0.0253769699484109,-0.0519020147621631,0.0,0.0,-0.9905385375022888,-0.2511771321296692
-0.040646743029356,1.2449060678482056,-0.0444438494741916,-0.1740775406360626,-0.028039701282978,-0.0532543882727623,0.0,0.0,-0.9974243640899658,-0.0421638488769531
-0.0410815253853797,1.240800857543945,-0.0407125726342201,-0.1825106889009475,-0.0307717602699995,-0.0546412244439125,0.0,0.0,-0.9936078786849976,0.1979207992553711
-0.0414773002266883,1.236506104469299,-0.0367387719452381,-0.1909438967704773,-0.0335748456418514,-0.0560617074370384,0.0,0.0,-0.9953567385673524,0.5842435359954834
-0.0417832359671592,1.2320200204849243,-0.0264562312513589,-0.1994800120592117,-0.0376672148704528,-0.0818472355604171,0.0,0.0,-0.996810793876648,-0.4188860654830932
-0.0420455932617187,1.2273445129394531,-0.0220150724053382,-0.2079140245914459,-0.0418338328599929,-0.0833321362733841,0.0,0.0,-0.997487723827362,0.0001380443572998
-0.0422619804739952,1.2224793434143066,-0.0173499453812837,-0.2163481265306472,-0.0460762344300746,-0.0848477631807327,0.0,0.0,-0.9965595006942748,0.3065545558929443
-0.0424303039908409,1.2174251079559326,-0.0124678323045372,-0.2247823029756546,-0.0503958873450756,-0.0863930657505989,0.0,0.0,-0.967811107635498,-0.1363008618354797
-0.0425485596060752,1.2121810913085938,-0.0073760049417614,-0.2332165688276291,-0.0547942407429218,-0.0879669040441513,0.0,0.0,-0.919957995414734,-0.6624175906181335
-0.0426708236336708,1.2067445516586304,-0.009121349081397,-0.2417432367801666,-0.0578669793903827,-0.0614546723663806,0.0,0.0,-0.981465756893158,0.4295787811279297
-0.0427390113472938,1.2011183500289917,-0.0036327380221337,-0.2501768171787262,-0.0610211044549942,-0.0630823224782943,0.0,0.0,-0.9558655619621276,0.1173236370086669
-0.0427513122558593,1.1953027248382568,0.0020425801631063,-0.2586104571819305,-0.0642578527331352,-0.0647351071238517,0.0,0.0,-0.9343845248222352,-0.3368580341339111
-0.0427059158682823,1.1892976760864258,0.007896726951003,-0.267044186592102,-0.0675784423947334,-0.0664118528366088,0.0,0.0,-0.9496970772743224,0.4820312261581421
-0.0426011085510253,1.1831029653549194,0.0139218065887689,-0.2754780054092407,-0.0709840133786201,-0.0681113600730896,0.0,0.0,-0.985603928565979,0.4644204378128052
-0.0424352660775184,1.176718831062317,0.0201099533587694,-0.2839118540287018,-0.0744756683707237,-0.0698329135775566,0.0,0.0,-0.9939536452293396,-0.6846395134925842
-0.0422480590641498,1.1701496839523315,0.0212880410254001,-0.2920971214771271,-0.0770158246159553,-0.0508031956851482,0.0,0.0,-0.9607850313186646,-0.3101199865341186
-0.0419968590140342,1.1633907556533811,0.0277791135013103,-0.3005305826663971,-0.0796440243721008,-0.0525639727711677,0.0,0.0,-0.96373450756073,-0.3867293000221252
-0.0416801460087299,1.1564425230026243,0.0344102419912815,-0.3089641332626343,-0.0823611617088317,-0.054342858493328,0.0,0.0,-0.900757372379303,-0.9261110424995422
-0.0413689613342285,1.1493220329284668,0.032104630023241,-0.3165176212787628,-0.0833305418491363,-0.0193876083940267,0.0,0.0,-0.9327170848846436,-0.4768579006195068
-0.0409896858036518,1.142012119293213,0.0389940328896045,-0.3249506950378418,-0.0843905061483383,-0.0211995523422956,0.0,0.0,-0.7812193632125854,-0.1074294447898864
-0.0405412688851356,1.1345123052597046,0.0460019968450069,-0.3333837687969208,-0.0855418443679809,-0.0230264235287904,0.0,0.0,-0.7601576447486877,-0.6230264902114868
-0.0400636680424213,1.1268341541290283,0.0479528307914733,-0.341265857219696,-0.085735984146595,-0.003882894758135,0.0,0.0,-0.7558766007423401,0.0829615592956543
-0.0395148284733295,1.1189663410186768,0.055178016424179,-0.3496989607810974,-0.0860228240489959,-0.0057365833781659,0.0,0.0,-0.9433786869049072,-0.5191980600357056
-0.0389291755855083,1.1109188795089722,0.0580337643623352,-0.3576365411281585,-0.0854952111840248,0.0105520961806178,0.0,0.0,-0.5118861794471741,-0.5732523798942566
-0.0383209213614463,1.1026932001113892,0.05909089371562,-0.3654831051826477,-0.0837733745574951,0.0344368033111095,0.0,0.0,-0.7471855878829956,-0.4134610295295715
-0.0376384742558002,1.09427809715271,0.0665957778692245,-0.373916357755661,-0.0821458771824836,0.0325500294566154,0.0,0.0,-0.901634156703949,-0.5009018778800964
-0.0369271263480186,1.085681676864624,0.0684144347906112,-0.3819170594215393,-0.0794484615325927,0.0539483241736888,0.0,0.0,-0.6825211644172668,-0.4088832139968872
-0.0361400619149208,1.0768955945968628,0.0760780721902847,-0.3903506994247436,-0.0768462568521499,0.0520439743995666,0.0,0.0,-0.7698439955711365,-0.2866915464401245
-0.0352766998112201,1.067920207977295,0.0838135927915573,-0.3987842202186584,-0.0743396282196044,0.0501321628689765,0.0,0.0,-0.8149433135986328,-0.7737205624580383
-0.0343966484069824,1.0587561130523682,0.0840261057019233,-0.4070961773395538,-0.0704097226262092,0.0785982981324195,0.0,0.0,-0.8146272301673889,-0.3744457960128784
-0.0334389694035053,1.0494027137756348,0.0918914228677749,-0.4155304133892059,-0.0665760338306427,0.076674036681652,0.0,0.0,-0.9730381965637208,-0.5512540936470032
-0.032444667071104,1.0398705005645752,0.0945768356323242,-0.4234454333782196,-0.0617789514362812,0.0959415882825851,0.0,0.0,-0.2619926929473877,-0.6192745566368103
-0.0314141288399696,1.0301456451416016,0.0972240418195724,-0.4319898188114166,-0.056015558540821,0.1152679547667503,0.0,0.0,-0.9455161094665528,-0.2980902194976806
-0.0303042419254779,1.0202314853668213,0.1052529364824295,-0.4404254257678985,-0.0503490008413791,0.1133311986923217,0.0,0.0,-0.6901276111602783,0.2219051122665405
-0.0291146282106637,1.0101280212402344,0.113328993320465,-0.4488609433174133,-0.0447793751955032,0.1113921180367469,0.0,0.0,-0.8167975544929504,-0.7914203405380249
-0.0279168132692575,0.9998437166213988,0.1124112010002136,-0.4568793177604675,-0.0374916307628154,0.1457550227642059,0.0,0.0,-0.9161803126335144,-0.0220727324485778
-0.0266382209956645,0.989370346069336,0.120571456849575,-0.4653164446353912,-0.0303009431809186,0.1438136398792266,0.0,0.0,-0.9002960920333862,-0.1731811165809631
-0.0252787582576274,0.978708028793335,0.1287692636251449,-0.473753422498703,-0.0232073031365871,0.1418726742267608,0.0,0.0,-0.8851209282875061,-0.7740260362625122
-0.0238916389644145,0.967858612537384,0.1302559077739715,-0.4820858836174011,-0.0148591408506035,0.1669632941484451,0.0,0.0,-0.8567652702331543,-0.6530990600585938
-0.0224775318056345,0.956816792488098,0.131668135523796,-0.4906831383705139,-0.0052366633899509,0.1924495995044708,0.0,0.0,-0.877164900302887,-0.0611523985862731
-0.0209814067929983,0.9455865621566772,0.1399618685245514,-0.4991233050823211,0.004289096686989,0.1905151009559631,0.0,0.0,-0.8429575562477112,-0.7304074764251709
-0.0194639209657907,0.9341601729393004,0.1406517326831817,-0.5079089999198914,0.0152471093460917,0.2191600352525711,0.0,0.0,-0.839887797832489,-0.044215440750122
-0.0178640373051166,0.9225457310676576,0.1489970982074737,-0.5163513422012329,0.0261088721454143,0.2172352820634842,0.0,0.0,-0.7989522218704224,-0.1134009957313537
-0.0161813739687204,0.910742998123169,0.1573649197816848,-0.5247934460639954,0.0368747413158416,0.2153175771236419,0.0,0.0,-0.7403807044029236,-0.4088178873062134
-0.0144158359616994,0.8987520337104797,0.165753036737442,-0.5332352519035339,0.0475451573729515,0.2134083211421966,0.0,0.0,-0.8612561821937561,-0.3064385056495666
-0.0125672342255711,0.8865727782249451,0.174159437417984,-0.5416767597198486,0.0581206008791923,0.2115088999271392,0.0,0.0,-0.8590454459190369,-0.5278205871582031
-0.0106746675446629,0.8742067217826843,0.1776824593544006,-0.5500983595848083,0.0695807486772537,0.2292029112577438,0.0,0.0,-0.6375781893730164,0.6195290088653564
-0.0086579322814941,0.8616566061973572,0.191224455833435,-0.558306097984314,0.0799211040139198,0.2068069726228714,0.0,0.0,-0.9469352960586548,-0.5955276489257812
-0.0066091539338231,0.8489145636558533,0.1932298243045807,-0.5669792890548706,0.0914618372917175,0.2308145761489868,0.0,0.0,-0.733707845211029,-0.3504495620727539
-0.0044767381623387,0.835984468460083,0.2016905546188354,-0.5754221081733704,0.1029102727770805,0.2289689034223556,0.0,0.0,-0.7527686953544617,-0.0343578457832336
-0.0022607804276049,0.8228661417961121,0.2101603746414184,-0.5838645696640015,0.114267311990261,0.2271409779787063,0.0,0.0,-0.8579367399215698,-0.0426495671272277
3.890991138177924e-05,0.8095597624778748,0.2186375558376312,-0.5923068523406982,0.1255339384078979,0.2253327071666717,0.0,0.0,-0.699050784111023,-0.2549998164176941
0.0024223327636718,0.7960650324821472,0.2271204739809036,-0.6007488369941711,0.1367112547159195,0.2235459089279174,0.0,0.0,-0.7672490477561951,-0.1180603504180908
0.0048895836807787,0.7823821902275085,0.2356074601411819,-0.6091905832290649,0.1478003859519958,0.2217825353145599,0.0,0.0,-0.8216397762298584,0.324791669845581
0.0074407579377293,0.7685109972953796,0.2440968751907348,-0.6176320910453796,0.1588026136159896,0.2200445830821991,0.0,0.0,-0.9276562929153442,-0.2254884839057922
0.0100757600739598,0.7544514536857605,0.2525870203971863,-0.6260733008384705,0.1697193086147308,0.2183340340852737,0.0,0.0,-0.9289473295211792,-0.0183027982711792
0.0127945896238088,0.7402035593986511,0.2610763907432556,-0.6345143914222717,0.1805519461631775,0.2166529595851898,0.0,0.0,-0.8647199869155884,-0.0442553162574768
0.0155972484499216,0.7257674336433411,0.2695631384849548,-0.6429551243782043,0.1913021057844162,0.2150034606456756,0.0,0.0,-0.936513125896454,-0.2783977389335632
0.0184837337583303,0.7111425995826721,0.2780457139015198,-0.6513957381248474,0.2019715011119842,0.2133876383304596,0.0,0.0,-0.985085904598236,-0.8561421632766724
0.0213822368532419,0.6963052153587341,0.2774977087974548,-0.6611791849136353,0.2144342809915542,0.2492560446262359,0.0,0.0,-0.848429262638092,0.2253316640853881
0.0243643764406442,0.6812796592712402,0.2859677374362945,-0.6696229577064514,0.2268199324607849,0.2477131634950637,0.0,0.0,-0.7552404403686523,0.9055668115615844
0.0274970047175884,0.6660889387130737,0.3028584122657776,-0.6767838597297668,0.2373764514923095,0.2111304998397827,0.0,0.0,-0.9404313564300536,0.3671051263809204
0.0307131763547658,0.6507096290588379,0.3113064169883728,-0.6852238774299622,0.2478599697351455,0.2096705138683319,0.0,0.0,-0.9032173752784728,0.1760871410369873
0.0340126976370811,0.6351417899131775,0.3197409808635711,-0.6936637163162231,0.2582726776599884,0.2082540243864059,0.0,0.0,-0.7702791690826416,0.4009518623352051
0.0373954772949218,0.6193854212760925,0.3281601071357727,-0.7021034955978394,0.2686168253421783,0.2068826854228973,0.0,0.0,-0.4256213903427124,0.4604527950286865
0.0408613197505474,0.6034404635429382,0.3365616202354431,-0.7105429768562317,0.2788947224617004,0.2055579423904419,0.0,0.0,-0.5197257995605469,-0.378186821937561
0.0444100387394428,0.587306797504425,0.3449432253837585,-0.718982458114624,0.2891087830066681,0.2042810916900634,0.0,0.0,-0.7358644604682922,0.0833650827407836
0.04804153367877,0.570984423160553,0.3533025085926056,-0.7274217009544373,0.2992614507675171,0.2030533105134964,0.0,0.0,-0.0402276515960693,0.0987404584884643
0.0517554283142089,0.5544734597206116,0.3616369366645813,-0.7358608841896057,0.3093552589416504,0.2018755227327346,0.0,0.0,0.251483678817749,0.1752573251724243
0.0554622635245323,0.538588285446167,0.3606579601764679,-0.7081801295280457,0.3197637796401977,0.2081711590290069,0.0,0.0,-0.1183667182922363,0.6513534784317017
0.0593060478568077,0.522535502910614,0.3758229911327362,-0.7153654098510742,0.3286601305007934,0.1779275834560394,0.0,0.0,-0.3747268915176391,0.3558695316314697
0.0632314682006836,0.506293773651123,0.3840649425983429,-0.7238026857376099,0.3375052511692047,0.1769032180309295,0.0,0.0,0.6918895244598389,0.5724420547485352
0.066992662847042,0.4910022020339966,0.3689092993736267,-0.6813334226608276,0.3450610339641571,0.1511161625385284,0.0,0.0,0.3853130340576172,-0.4647758603096008
0.0707051306962966,0.4765934944152832,0.3635708093643188,-0.642245888710022,0.3531241118907928,0.1612617373466491,0.0,0.0,0.6927193403244019,0.7468123435974121
0.0744281783699989,0.4629063010215759,0.3659901022911072,-0.6098860502243042,0.3597788214683532,0.1330944001674652,0.0,0.0,0.2657116651535034,0.2249641418457031
0.0780060738325119,0.4499050378799438,0.3515472114086151,-0.5794132351875305,0.36636683344841,0.1317599713802337,0.0,0.0,0.3065778017044067,0.5038607120513916
0.0815248489379882,0.4376398921012878,0.3465645015239715,-0.5464874505996704,0.371992290019989,0.1125094294548034,0.0,0.0,0.5482387542724609,0.204247236251831
0.0850369483232498,0.4258268773555755,0.3456124663352966,-0.5264926552772522,0.3779307007789612,0.1187683343887329,0.0,0.0,0.2442123889923095,0.2233587503433227
0.0883701294660568,0.4144225418567657,0.3281669020652771,-0.5082339644432068,0.3834090828895569,0.1095673888921737,0.0,0.0,0.1972111463546753,0.333585262298584
0.0915554016828537,0.4032953977584839,0.3138180375099182,-0.4958161115646362,0.3884255588054657,0.1003287434577941,0.0,0.0,0.3969190120697021,0.7452062368392944
0.0946727767586708,0.3926615417003631,0.308533251285553,-0.4734925925731659,0.3918457329273224,0.0684037208557128,0.0,0.0,-0.1139847636222839,0.6646163463592529
0.0979171767830848,0.3818680346012115,0.322601854801178,-0.4802209734916687,0.3938084244728088,0.0392539389431476,0.0,0.0,0.5226280689239502,-0.0283146500587463
0.1012210845947265,0.371412992477417,0.3280602991580963,-0.4653152823448181,0.396302729845047,0.0498861894011497,0.0,0.0,0.765404224395752,0.0893869400024414
0.1044136062264442,0.3618395924568176,0.3164997696876526,-0.4262571632862091,0.3992557227611542,0.0590599551796913,0.0,0.0,0.6480612754821777,-0.2526384592056274
0.1073900237679481,0.3532030880451202,0.2947973310947418,-0.3846472203731537,0.4023033380508423,0.060952503234148,0.0,0.0,0.3608013391494751,-0.0542888045310974
0.1103865653276443,0.3447623550891876,0.2966019809246063,-0.3760119080543518,0.4055745899677276,0.0654249787330627,0.0,0.0,0.5722529888153076,-0.3663347363471985
