x_pos,y_pos,x_vel,y_vel,angle,ang_vel,leg_1,leg_2,main_booster,lat_booster
-0.001479148864746,1.4029324054718018,-0.149282619357109,-0.3550145924091339,0.0012186584062874,0.0239991974085569,0.0,0.0,-0.7281646369054149,-0.8325182177736816
-0.0029756545554846,1.3942713737487793,-0.1518501788377761,-0.3849371671676636,0.0033940579742193,0.0435127988457679,0.0,0.0,0.752577173899404,0.8578151497556318
-0.0042090415954589,1.385555386543274,-0.1236131563782692,-0.387377381324768,0.0036689222324639,0.0054973592050373,0.0,0.0,0.484975458583494,-0.9405580987624894
-0.0056010247208178,1.3768165111541748,-0.1407073587179184,-0.3883998095989227,0.0051575060933828,0.0297745577991008,0.0,0.0,0.3895160881088819,-0.8621517670532883
-0.0069042206741869,1.3682111501693726,-0.1332044452428817,-0.3824712634086609,0.0080126523971557,0.0571082010865211,0.0,0.0,0.414713098202236,0.6354846466397839
-0.0079977987334132,1.3596123456954956,-0.1107555255293846,-0.382176399230957,0.0093994913622736,0.0277392007410526,0.0,0.0,0.1846278532573815,-0.8790441872722222
-0.0091506000608205,1.350941181182861,-0.1179553121328353,-0.3854050934314728,0.0120375892147421,0.0527669079601764,0.0,0.0,-0.7969396341297412,0.9088444339656911
-0.0101838111877441,1.3415820598602295,-0.1032406240701675,-0.4159640669822693,0.0119606293737888,-0.0015395652735605,0.0,0.0,-0.7916655822372438,0.6460249854520514
-0.0111387250944972,1.3315385580062866,-0.0936707109212875,-0.4463635087013244,0.0101710064336657,-0.0357958003878593,0.0,0.0,0.0175704140415482,0.917741312582677
-0.0119997020810842,1.3214808702468872,-0.0819975957274437,-0.4469874203205108,0.0061129024252295,-0.0811697691679,0.0,0.0,0.6077149346952548,-0.7173048254730692
-0.0128039363771677,1.3115994930267334,-0.0775154680013656,-0.4391625821590423,0.0032309591770172,-0.0576438121497631,0.0,0.0,0.7419454265097138,0.7584181207357997
-0.0134457591921091,1.3018606901168823,-0.0594946853816509,-0.4328367114067077,-0.0014093284262344,-0.0928141102194786,0.0,0.0,-0.5726574724140179,0.635881982998333
-0.0140055660158395,1.2914330959320068,-0.0493162646889686,-0.4634686708450317,-0.0080020455643534,-0.1318662762641906,0.0,0.0,-0.3664141182258118,0.9316044863171502
-0.0144642833620309,1.2803046703338623,-0.0367060825228691,-0.4946735203266144,-0.0170631166547536,-0.1812380105257034,0.0,0.0,-0.4053925858391967,0.8618468069830652
-0.0148214343935251,1.2684922218322754,-0.024011543020606,-0.5251673460006714,-0.0286311544477939,-0.2313822209835052,0.0,0.0,-0.6591685654590631,0.8083166090399512
-0.0150872226804494,1.2559773921966553,-0.0125929340720176,-0.5565453171730042,-0.0424825735390186,-0.2770532965660095,0.0,0.0,-0.1161941904367864,0.7012204351522613
-0.0152706149965524,1.2427773475646973,-0.0022363567259162,-0.5872049331665039,-0.0584184117615222,-0.318745344877243,0.0,0.0,0.8966750353945456,0.7555863387152563
-0.0151792522519826,1.2295058965682983,0.0266813430935144,-0.5906158089637756,-0.0758082196116447,-0.3478279709815979,0.0,0.0,-0.2020890893343672,0.7180713028888699
-0.0150104518979787,1.2155463695526123,0.0364276245236396,-0.6215294003486633,-0.0952062010765075,-0.3879943788051605,0.0,0.0,0.6561634383080797,0.6256463052147849
-0.0148155214264988,1.2017529010772705,0.040814571082592,-0.6145392060279846,-0.1163998022675514,-0.4239106774330139,0.0,0.0,-0.4821199771406796,0.7737007757255516
-0.0145377162843942,1.1872667074203491,0.0512511432170867,-0.6458231210708618,-0.1397866755723953,-0.4677794873714447,0.0,0.0,0.6224485650415963,0.6654605482614829
-0.0141274454072117,1.1727248430252075,0.0660339072346687,-0.6488448977470398,-0.1647906899452209,-0.500126302242279,0.0,0.0,0.3026096700232514,0.6914111142920703
-0.0134737016633152,1.1580926179885864,0.0917819216847419,-0.6534647345542908,-0.1913029551506042,-0.5302928686141968,0.0,0.0,-0.1538783598148347,-0.9599667437974324
-0.012881469912827,1.1427857875823977,0.0841075405478477,-0.6836998462677002,-0.216408297419548,-0.5021520256996155,0.0,0.0,-0.2998768363753263,0.9416291543821556
-0.0122286798432469,1.1267808675765991,0.0917169600725174,-0.715437114238739,-0.2432375401258468,-0.5366331338882446,0.0,0.0,0.168306112758001,-0.7243530646546206
-0.0116242412477731,1.1108636856079102,0.0856877639889717,-0.7118091583251953,-0.2689894735813141,-0.5150388479232788,0.0,0.0,0.6125466760236897,-0.8273007206039817
-0.0108873369172215,1.095317840576172,0.097371369600296,-0.6954563856124878,-0.293309599161148,-0.4864025115966797,0.0,0.0,-0.2300407083530373,-0.8794994168637978
-0.0102283479645848,1.07913339138031,0.0875343903899192,-0.7238339781761169,-0.3156881630420685,-0.4475713670253753,0.0,0.0,0.8172121018361176,0.8790351584371665
-0.0093879699707031,1.0635278224945068,0.1077037677168846,-0.6989279389381409,-0.3403578400611877,-0.4933937489986419,0.0,0.0,0.1666262596953405,0.8970307228050618
-0.0083833690732717,1.0476963520050049,0.125866562128067,-0.7098503708839417,-0.3670904338359833,-0.5346518754959106,0.0,0.0,-0.8796517751229185,-0.9217497531270806
-0.0074426652863621,1.0312294960021973,0.117701768875122,-0.7381200790405273,-0.392179399728775,-0.5017792582511902,0.0,0.0,-0.7570533369639676,0.8256478173942755
-0.0064521790482103,1.0140429735183716,0.123977780342102,-0.770956814289093,-0.418953001499176,-0.5354718565940857,0.0,0.0,0.4464560184591724,-0.8083372702277486
-0.0053077698685228,0.9972301721572876,0.1378103941679,-0.7543841600418091,-0.4443240463733673,-0.5074210166931152,0.0,0.0,0.5341159671129854,0.990084661137084
-0.0040146829560399,0.9801737666130066,0.1544575989246368,-0.7663096189498901,-0.4719974100589752,-0.5534681081771851,0.0,0.0,0.8994573480204591,-0.6232872226001882
-0.0024211884010583,0.9634189009666444,0.1830912977457046,-0.7529793381690979,-0.4984678030014038,-0.52940833568573,0.0,0.0,-0.5647141423350854,-0.8174081063496609
-0.0008825302356854,0.9460301399230956,0.1759035438299179,-0.7810475826263428,-0.5234032273292542,-0.4987087249755859,0.0,0.0,-0.8985566606127791,0.9701683066032512
0.0007142067188397,0.9278995394706726,0.1832370162010193,-0.8151280283927917,-0.5504485368728638,-0.5409067869186401,0.0,0.0,-0.323884071140464,-0.7148138551346701
0.002265739487484,0.9091309905052184,0.1772138178348541,-0.8434170484542847,-0.576180636882782,-0.5146418809890747,0.0,0.0,-0.4027006327316593,0.6604418125054649
0.0038576126098632,0.8896458148956299,0.1820703595876693,-0.8761884570121765,-0.6033375859260559,-0.5431391000747681,0.0,0.0,0.3371263271274849,0.7629243258788403
0.0057966234162449,0.8700138926506042,0.217779666185379,-0.883795976638794,-0.6322131156921387,-0.577511191368103,0.0,0.0,-0.5263924628206036,-0.682532717777063
0.0076858522370457,0.8497588634490967,0.2109525650739669,-0.9112627506256104,-0.6594251394271851,-0.5442408323287964,0.0,0.0,0.1546473503112793,-0.9940894842147828
0.0098156929016113,0.8292285799980164,0.2329593896865844,-0.923026204109192,-0.684596836566925,-0.5034340620040894,0.0,0.0,-0.0402684211730957,-0.9960938096046448
0.0118881221860647,0.8080655932426453,0.2254691570997238,-0.9507081508636476,-0.7080242037773132,-0.4685485363006592,0.0,0.0,-0.3135283589363098,-0.9933634400367736
0.0139081953093409,0.7862770557403564,0.2185409814119339,-0.9779968857765198,-0.7296852469444275,-0.4332206845283508,0.0,0.0,-0.432930588722229,-0.9952091574668884
0.0158590320497751,0.7638745307922363,0.2095939815044403,-1.0044820308685305,-0.7490621209144592,-0.3875378370285034,0.0,0.0,-0.3791804313659668,-0.9935006499290466
0.0177502632141113,0.7408484816551208,0.2019400298595428,-1.03145170211792,-0.766455888748169,-0.3478757739067077,0.0,0.0,-0.1891171932220459,-0.9969136118888856
0.0195863731205463,0.7172008156776428,0.1948000788688659,-1.058283448219299,-0.7818906903266907,-0.3086964786052704,0.0,0.0,-0.4754023551940918,-0.993648886680603
0.0213604923337698,0.6929664015769958,0.1865541040897369,-1.0832061767578125,-0.7946854829788208,-0.2558959722518921,0.0,0.0,-0.5350617170333862,-0.9812995791435242
0.0230715759098529,0.6681455969810486,0.1782542467117309,-1.1080328226089478,-0.8047873377799988,-0.202036827802658,0.0,0.0,-0.524233341217041,-0.9796093106269836
0.024725055322051,0.6427159309387207,0.1708249300718307,-1.134035348892212,-0.8126188516616821,-0.1566300690174102,0.0,0.0,-0.5814107060432434,-0.9718249440193176
0.0263374336063861,0.6166561841964722,0.1655192375183105,-1.1612391471862793,-0.8187850117683411,-0.1233232021331787,0.0,0.0,-0.4112467765808105,-0.9871202707290648
0.0278950687497854,0.5899999737739563,0.1583302915096283,-1.1865562200546265,-0.822490930557251,-0.0741180926561355,0.0,0.0,-0.3841440081596374,-0.9624635577201844
0.0294084548950195,0.5627143979072571,0.1526620388031005,-1.2136467695236206,-0.8244177103042603,-0.0385360419750213,0.0,0.0,-0.5113202333450317,-0.947873592376709
0.0308774001896381,0.5348219871520996,0.1467290222644806,-1.2395457029342651,-0.8241816759109497,0.0047212769277393,0.0,0.0,-0.1200971007347107,-0.9594334959983826
0.0323081016540527,0.506295919418335,0.1417770981788635,-1.266896367073059,-0.8223022222518921,0.0375892892479896,0.0,0.0,-0.0956174135208129,-0.9760171175003052
0.0336799621582031,0.4771699905395508,0.1341040879487991,-1.2922853231430054,-0.8178486227989197,0.0890714079141616,0.0,0.0,0.0329667329788208,-0.9354634881019592
0.0354218482971191,0.4478707611560821,0.1696441769599914,-1.298969268798828,-0.8112993240356445,0.130985826253891,0.0,0.0,0.2912447452545166,-0.9253656268119812
0.0375892631709575,0.4183687567710876,0.2106529921293258,-1.3069554567337036,-0.8026079535484314,0.1738269627094268,0.0,0.0,0.2995485067367553,-0.5400816798210144
0.0402467735111713,0.3888298273086548,0.258639931678772,-1.3079757690429688,-0.7925418019294739,0.201322466135025,0.0,0.0,0.4557716846466064,-0.6189897656440735
0.0433227531611919,0.3594612181186676,0.2994816899299621,-1.2998337745666504,-0.781177818775177,0.2272782623767852,0.0,0.0,0.6385853290557861,-0.6590250730514526
0.0466667190194129,0.3297841250896454,0.3250115811824798,-1.3128491640090942,-0.768205463886261,0.259446918964386,0.0,0.0,0.6306300163269043,-0.2793986797332763
0.0504307746887207,0.3002660870552063,0.3672243356704712,-1.306059718132019,-0.7556619048118591,0.2508713006973266,0.0,0.0,0.8473856449127197,-0.0511819124221801
0.0547037124633789,0.270546555519104,0.4174893498420715,-1.3147894144058228,-0.7424497604370117,0.2642428278923034,0.0,0.0,0.8624109029769897,-0.1827958822250366
0.0594763755798339,0.2408730387687683,0.4672332406044006,-1.3127626180648804,-0.7290844917297363,0.2673057913780212,0.0,0.0,0.8473933935165405,-0.7169191241264343
0.0645256042480468,0.2110523134469986,0.4935279488563537,-1.3186664581298828,-0.7140856981277466,0.2999758124351501,0.0,0.0,0.8381311893463135,-0.765704870223999
0.0698641762137413,0.1814926415681839,0.5211895704269409,-1.306554913520813,-0.6976494193077087,0.3287258446216583,0.0,0.0,0.6761493682861328,-0.7814500331878662
0.07575473934412,0.1522836089134216,0.5747857689857483,-1.2903398275375366,-0.6794053316116333,0.3648820519447326,0.0,0.0,0.5127742290496826,-0.9237281680107116
0.0818389877676963,0.1226775273680687,0.5922781229019165,-1.3072911500930786,-0.6590537428855896,0.4070313572883606,0.0,0.0,0.7913737297058105,-0.8526944518089294
0.0884895324707031,0.0935200527310371,0.6470437049865723,-1.2867789268493652,-0.6367440223693848,0.4461938738822937,0.0,0.0,0.7658195495605469,-0.8104485869407654
0.0953237563371658,0.0644378960132598,0.6638089418411255,-1.283084511756897,-0.612845242023468,0.4779761433601379,0.0,0.0,0.9255752563476562,-0.8215404152870178
0.1024911850690841,0.0357969142496585,0.6954662203788757,-1.2631980180740356,-0.5873683094978333,0.509539008140564,1.0,0.0,0.6303260326385498,0.9944634437561036
0.1099751442670822,0.0077912188135087,0.7370309233665466,-1.247294783592224,-0.563595712184906,0.5024210214614868,1.0,0.0,0.4941543340682983,0.9763007164001464
0.1180428490042686,-0.0099768424406647,0.6404796838760376,-0.3189928829669952,-0.4599581956863403,3.661090850830078,1.0,0.0,0.4941543340682983,0.9763007164001464
