x_pos,y_pos,x_vel,y_vel,angle,ang_vel,leg_1,leg_2,main_booster,lat_booster
-0.0015252113807946,1.402923583984375,-0.1553768515586853,-0.3554113507270813,0.0025500117335468,0.0503601357340812,0.0,0.0,-0.9367823183097804,0.4010621340540762
-0.0030519485007971,1.3942489624023438,-0.1559594571590423,-0.3855448365211487,0.0058084018528461,0.0651743039488792,0.0,0.0,-0.957566459268351,-0.9190043214574796
-0.0046355249360203,1.3848659992218018,-0.1638564020395279,-0.4170541167259216,0.0112486584112048,0.1088151186704635,0.0,0.0,-0.6915475393513195,-0.4248693001237994
-0.0062192915938794,1.3747824430465698,-0.1646476835012436,-0.4482209980487823,0.0174515862017869,0.1240697875618934,0.0,0.0,0.9664797289114628,-0.2961335081510884
-0.0076627731323242,1.3651666641235352,-0.1521274447441101,-0.4274778664112091,0.0251492485404014,0.1539676338434219,0.0,0.0,-0.8788684681374925,0.2087036182168975
-0.0091053005307912,1.3548508882522583,-0.1528037786483764,-0.4586535990238189,0.0336017087101936,0.1690647304058075,0.0,0.0,-0.6310549469150841,0.2714175292460722
-0.0105464933440089,1.3438351154327393,-0.153417095541954,-0.489817202091217,0.0428053736686706,0.1840904802083969,0.0,0.0,-0.9719605945363514,-0.3506901622433889
-0.0119856838136911,1.3321199417114258,-0.1539647132158279,-0.5209857225418091,0.0527551770210266,0.1990145295858383,0.0,0.0,-0.046869338197341,-0.836107742011124
-0.0134895322844386,1.3197097778320312,-0.1628891080617904,-0.5520499348640442,0.0651344284415245,0.2476080358028412,0.0,0.0,0.4252739256340903,-0.5362365176332389
-0.0150740621611475,1.3075387477874756,-0.1727545261383056,-0.541623055934906,0.0793086066842079,0.2835096716880798,0.0,0.0,0.1127399113706724,0.7510218403372166
-0.0165613181889057,1.2952837944030762,-0.1623020321130752,-0.5454397797584534,0.0927827283740043,0.2695069909095764,0.0,0.0,0.3665761950261386,0.4218512102669868
-0.0180262569338083,1.282991886138916,-0.1610679775476455,-0.5472727417945862,0.1072566211223602,0.2895044386386871,0.0,0.0,0.380775072551242,-0.6530245680706022
-0.0194808952510356,1.2708892822265625,-0.1622634083032608,-0.5391837358474731,0.1239762678742408,0.3344235420227051,0.0,0.0,0.4774173067620708,0.8707404719858681
-0.0208312980830669,1.2585805654525757,-0.1508766710758209,-0.5484517216682434,0.1397647559642791,0.3157979846000671,0.0,0.0,0.1775524240597605,-0.2590338913823371
-0.0221576690673828,1.2464691400527954,-0.1496147960424423,-0.5399621725082397,0.1567264795303344,0.3392658829689026,0.0,0.0,0.1220161986480554,-0.6526016559855878
-0.0234760288149118,1.2339614629745483,-0.1508654505014419,-0.5580165982246399,0.175797626376152,0.3814578950405121,0.0,0.0,-0.8511554600872597,-0.0267662141723047
-0.0247872360050678,1.2207591533660889,-0.1507556736469268,-0.5892190933227539,0.1955476105213165,0.3950353264808655,0.0,0.0,-0.3298604567290459,-0.2420583611870106
-0.0260906219482421,1.2068625688552856,-0.1505707651376724,-0.6204251050949097,0.2159666270017624,0.4084177613258362,0.0,0.0,0.7468660865986374,-0.4770286559217735
-0.0274674408137798,1.1935491561889648,-0.1589409261941909,-0.5949681401252747,0.2375235259532928,0.4311778545379638,0.0,0.0,0.0069585933667632,0.295459628142853
-0.0289647094905376,1.180027723312378,-0.1712757647037506,-0.6045780181884766,0.2594952583312988,0.4394739270210266,0.0,0.0,0.6594488691522644,0.324938477453914
-0.0305230133235454,1.1669580936431885,-0.1784490048885345,-0.5850469470024109,0.2826968729496002,0.4640738368034363,0.0,0.0,-0.5300750279780981,0.4191070017437113
-0.0320721641182899,1.1531962156295776,-0.1779778152704239,-0.6162819266319275,0.3065153062343597,0.4764108061790466,0.0,0.0,-0.2490468994256984,0.1536815165405178
-0.03361177444458,1.1387429237365725,-0.1774445325136184,-0.647512674331665,0.3309361636638641,0.4884610176086426,0.0,0.0,0.7206804572850083,-0.9443948710427924
-0.0352387428283691,1.1240538358688354,-0.1884651929140091,-0.6589869260787964,0.3579981029033661,0.5412878394126892,0.0,0.0,-0.9909820880924796,0.556020461509629
-0.0368251800537109,1.1086937189102173,-0.1838876456022262,-0.6891931891441345,0.3847526013851166,0.5351373553276062,0.0,0.0,-0.398385175976393,0.8320275639692029
-0.0383515357971191,1.092655897140503,-0.1769324094057083,-0.7195773720741272,0.410752922296524,0.5200065970420837,0.0,0.0,0.5839281943110664,-0.3642119703422463
-0.0401420593261718,1.076887845993042,-0.2035787999629974,-0.7081446051597595,0.4373034536838531,0.5310104489326477,0.0,0.0,-0.6480057036011058,0.148312768951442
-0.0419219024479389,1.0604305267333984,-0.202683538198471,-0.7393758893013,0.4643660187721252,0.541251540184021,0.0,0.0,-0.2999297707099837,0.3822420593770316
-0.0436913482844829,1.0432840585708618,-0.2017373293638229,-0.7706087827682495,0.4919179081916809,0.551038384437561,0.0,0.0,-0.0103797437112997,-0.6086273251510605
-0.0454931259155273,1.0254120826721191,-0.206191748380661,-0.803905189037323,0.5212648510932922,0.5869391560554504,0.0,0.0,-0.3283167592859146,0.5706928891503433
-0.0472470298409462,1.0068912506103516,-0.2002841681241989,-0.8329544067382812,0.54979407787323,0.5705848336219788,0.0,0.0,-0.7260619401931763,0.9988186359405518
-0.0489310249686241,0.9877292513847352,-0.1916213929653167,-0.8613976836204529,0.5768904685974121,0.5419281125068665,0.0,0.0,-0.5844095349311829,0.9997611045837402
-0.050551701337099,0.9679394364356996,-0.1836501061916351,-0.8891547918319702,0.6025046706199646,0.5122838616371155,0.0,0.0,-0.5410157442092896,0.9990296363830566
-0.0521007552742958,0.9475092887878418,-0.1748378127813339,-0.9173513054847716,0.6265608668327332,0.4811244606971741,0.0,0.0,-0.1328146457672119,0.99940824508667
-0.0535750389099121,0.9264580607414246,-0.165469229221344,-0.9444974064826964,0.6487091779708862,0.4429667592048645,0.0,0.0,0.5243983268737793,0.9999951124191284
-0.0553854927420616,0.9056405425071716,-0.1972855329513549,-0.9335892796516418,0.6689649820327759,0.4051157534122467,0.0,0.0,0.1430799961090088,0.999915361404419
-0.0573334693908691,0.8845466375350952,-0.2092787474393844,-0.9452720284461976,0.6873055696487427,0.3668128550052643,0.0,0.0,0.081119418144226,0.9997327327728271
-0.0595059394836425,0.8634417057037354,-0.2299484014511108,-0.9450502991676332,0.7036281824111938,0.3264521658420563,0.0,0.0,0.0342428684234619,0.999608278274536
-0.0619759559631347,0.8422974944114685,-0.2579882442951202,-0.9460450410842896,0.7179356217384338,0.2861486077308655,0.0,0.0,-0.0145531296730041,0.9976239204406738
-0.0643731132149696,0.8205353617668152,-0.2489337623119354,-0.972620964050293,0.7300702929496765,0.2426938265562057,0.0,0.0,-0.3222622871398926,0.9978227615356444
-0.0667140930891037,0.7981438636779785,-0.2419224232435226,-0.9998806715011596,0.7404705286026001,0.2080049961805343,0.0,0.0,0.0876797437667846,0.9987630844116212
-0.0691452026367187,0.775609016418457,-0.2491992712020874,-1.0052897930145264,0.7486346960067749,0.1632830798625946,0.0,0.0,-0.1576279401779174,0.9980915784835817
-0.0714928656816482,0.7524569034576416,-0.2389205992221832,-1.0315759181976318,0.7542563080787659,0.1124327555298805,0.0,0.0,-0.4920985102653503,0.996107816696167
-0.0737612694501876,0.7286941409111023,-0.2290699034929275,-1.0575261116027832,0.7572721838951111,0.0603186786174774,0.0,0.0,0.1600031852722168,0.9986286163330078
-0.0761218070983886,0.7044910192489624,-0.2366208285093307,-1.0760458707809448,0.7580379247665405,0.0153144914656877,0.0,0.0,-0.2353547811508178,0.9971619844436646
-0.0784048065543174,0.6796640753746033,-0.227031871676445,-1.1026287078857422,0.7563233971595764,-0.034290749579668,0.0,0.0,-0.399559736251831,0.9992363452911376
-0.0806109458208084,0.6542181372642517,-0.2174347639083862,-1.128942370414734,0.7520195841789246,-0.0860757976770401,0.0,0.0,0.1181919574737548,0.996246576309204
-0.0832051262259483,0.6286816000938416,-0.2544801831245422,-1.13189435005188,0.7453559637069702,-0.1332724839448928,0.0,0.0,0.4678406715393066,0.98530912399292
-0.0863094329833984,0.6031608581542969,-0.303592711687088,-1.1300737857818604,0.7362001538276672,-0.1831162720918655,0.0,0.0,0.4481973648071289,0.888016939163208
-0.0896652191877365,0.5774795413017273,-0.3269852101802826,-1.1362534761428833,0.7247998714447021,-0.2280041724443435,0.0,0.0,0.3683054447174072,0.7233982086181641
-0.0931829437613487,0.5518137812614441,-0.3417453169822693,-1.1348587274551392,0.7116675972938538,-0.2626453042030334,0.0,0.0,0.6303406953811646,0.7926998138427734
-0.0971681624650955,0.5262744426727295,-0.3867027163505554,-1.1283791065216064,0.6963468194007874,-0.3064165413379669,0.0,0.0,0.4655574560165405,0.1475567817687988
-0.1013217940926551,0.5005804896354675,-0.4034481644630432,-1.1354104280471802,0.6811100244522095,-0.304735392332077,0.0,0.0,0.0756891965866088,0.036806583404541
-0.1057907119393348,0.4747917056083679,-0.4345291554927826,-1.1395808458328247,0.6654849648475647,-0.3125011622905731,0.0,0.0,0.3060852289199829,-0.605956494808197
-0.1104219406843185,0.4488301277160644,-0.4514981806278229,-1.147847056388855,0.6509772539138794,-0.2901547253131866,0.0,0.0,0.3282989263534546,-0.8225898742675781
-0.1153912544250488,0.4224781990051269,-0.4861985146999359,-1.1658262014389038,0.6377399563789368,-0.2647464573383331,0.0,0.0,-0.1370021700859069,-0.885453462600708
-0.1204003319144249,0.3953775763511657,-0.4910120368003845,-1.199633002281189,0.6256248950958252,-0.2423016279935836,0.0,0.0,-0.1780961751937866,-0.8846851587295532
-0.1254439353942871,0.367529809474945,-0.4951654970645904,-1.2332967519760132,0.6144668459892273,-0.2231615334749221,0.0,0.0,-0.596206545829773,-0.9413490295410156
-0.1305337846279144,0.3389304578304291,-0.5007491707801819,-1.267238974571228,0.6045346260070801,-0.1986429691314697,0.0,0.0,-0.6756628155708313,-0.977514147758484
-0.1356877386569976,0.309560626745224,-0.508590817451477,-1.3022173643112185,0.5963996648788452,-0.1626987606287002,0.0,0.0,-0.6382323503494263,-0.990212082862854
-0.1408867835998535,0.2794196605682373,-0.5142315030097961,-1.3370461463928225,0.5896439552307129,-0.1351146101951599,0.0,0.0,-0.4761279225349426,-0.9963844418525696
-0.1461532562971115,0.2485024482011795,-0.5225331783294678,-1.3722758293151855,0.5847718715667725,-0.097442016005516,0.0,0.0,-0.8107332587242126,-0.998695194721222
-0.1514605581760406,0.2168264985084533,-0.5275232195854187,-1.406408190727234,0.5809826254844666,-0.0757848769426345,0.0,0.0,-0.7830695509910583,-0.998940646648407
-0.1568212509155273,0.1843847781419754,-0.5340534448623657,-1.4409778118133545,0.5786067247390747,-0.047518353909254,0.0,0.0,-0.7365716099739075,-0.998034656047821
-0.162233829498291,0.1511681675910949,-0.5404815077781677,-1.4759557247161863,0.5776954293251038,-0.0182253830134868,0.0,0.0,-0.6671764254570007,-0.9954253435134888
-0.1677154600620269,0.1171697005629539,-0.5489920377731323,-1.5114096403121948,0.578681230545044,0.0197154767811298,0.0,0.0,-0.5945246815681458,-0.9891128540039062
-0.1732541024684906,0.0824137777090072,-0.5558409690856934,-1.5455673933029177,0.5810041427612305,0.0464578531682491,0.0,0.0,-0.6895827054977417,-0.966597318649292
-0.1788335740566253,0.046888742595911,-0.5608469247817993,-1.5801639556884766,0.584435224533081,0.0686219036579132,0.0,1.0,0.9636878967285156,0.9974180459976196
-0.1847533285617828,0.0127613879740238,-0.6010318398475647,-1.5296837091445925,0.5865377187728882,0.0156021788716316,0.0,1.0,0.971623420715332,0.9845867156982422
-0.1859826147556305,0.002970895729959,0.0834523811936378,-0.0186702627688646,0.5843068361282349,-0.2439816892147064,0.0,1.0,0.971623420715332,0.9845867156982422
