x_pos,y_pos,x_vel,y_vel,angle,ang_vel,leg_1,leg_2,main_booster,lat_booster
-0.0015158653259277,1.4031764268875122,-0.1538255512714386,-0.3441622853279114,0.0020093456842005,0.0396546870470047,0.0,0.0,-0.4505833387374878,0.6741647720336914
-0.0029663085006177,1.3950047492980957,-0.1458139717578888,-0.3631829023361206,0.0027719065546989,0.0152531918138265,0.0,0.0,-0.3674163818359375,0.3687670230865478
-0.0044084549881517,1.3863846063613892,-0.1452559530735016,-0.3831179738044739,0.003794522723183,0.0204542968422174,0.0,0.0,0.4370923042297363,0.9008564949035645
-0.0058907507918775,1.377965211868286,-0.1475890576839447,-0.3741974830627441,0.0031586834229528,-0.0127179473638534,0.0,0.0,-0.103443443775177,0.8164302110671997
-0.0072867395356297,1.369100570678711,-0.1372456401586532,-0.3939801156520843,0.000842168345116,-0.0463344864547252,0.0,0.0,0.005685806274414,0.3623442649841308
-0.0085906982421875,1.3602840900421145,-0.1287474930286407,-0.3918449580669403,-0.0007868254906497,-0.0325830616056919,0.0,0.0,0.0470377206802368,0.5484135150909424
-0.0098583223298192,1.3515684604644775,-0.1242945343255996,-0.3873645365238189,-0.003233578056097,-0.0489394888281822,0.0,0.0,0.0166960954666137,0.3807238340377807
-0.0110239032655954,1.3430014848709106,-0.1148338690400123,-0.3807558715343475,-0.0049366438761353,-0.0340644344687461,0.0,0.0,0.11806321144104,0.4159914255142212
-0.0121859554201364,1.3348361253738403,-0.114754594862461,-0.3629142940044403,-0.0063663152977824,-0.0285962969064712,0.0,0.0,-0.4700507521629333,0.4598889350891113
-0.0133389476686716,1.3262226581573486,-0.114177368581295,-0.3828306794166565,-0.007475062739104,-0.0221769474446773,0.0,0.0,-0.4139155149459839,0.9077742099761964
-0.0144009590148925,1.317160725593567,-0.1033447161316871,-0.4027612805366516,-0.0103114191442728,-0.0567322485148906,0.0,0.0,-0.6054538488388062,-0.010280430316925
-0.0154539104551076,1.3076510429382324,-0.1027614697813987,-0.4226735830307007,-0.0128111448138952,-0.0499988496303558,0.0,0.0,-0.6371006965637207,0.6513094902038574
-0.0164350513368845,1.297695517539978,-0.0943434089422226,-0.4425050318241119,-0.0165386795997619,-0.0745579451322555,0.0,0.0,-0.8172892332077026,-0.2612096667289734
-0.0174067504703998,1.2872921228408811,-0.0937570333480835,-0.4624176621437073,-0.0199161004275083,-0.0675543397665023,0.0,0.0,-0.9066275358200072,-0.3251761198043823
-0.018368910998106,1.2764406204223633,-0.0931717753410339,-0.4823300540447235,-0.0229381062090396,-0.0604455880820751,0.0,0.0,0.4644113779067993,-0.1572455167770385
-0.0192185398191213,1.2655328512191772,-0.0827293619513511,-0.4848228394985199,-0.0251414589583873,-0.0440709516406059,0.0,0.0,-0.7840595841407776,-0.7450757622718811
-0.0201038364320993,1.2541873455047607,-0.0878230929374694,-0.5042570233345032,-0.0258365124464035,-0.0139023903757333,0.0,0.0,-0.4723100066184997,-0.0547628998756408
-0.0209795944392681,1.2423937320709229,-0.0872456282377243,-0.5241668820381165,-0.0261596795171499,-0.0064638024196028,0.0,0.0,-0.8495127558708191,-0.2248952388763427
-0.0218457225710153,1.2301520109176636,-0.0866692140698432,-0.5440768599510193,-0.0261055566370487,0.0010824932251125,0.0,0.0,-0.7027568221092224,-0.3942975997924804
-0.0227023120969533,1.2174620628356934,-0.0860941186547279,-0.5639883279800415,-0.0256699286401271,0.008713255636394,0.0,0.0,-0.9010677337646484,0.0788352489471435
-0.0235490798950195,1.2043241262435913,-0.085520438849926,-0.583899736404419,-0.0248487126082181,0.016426021233201,0.0,0.0,-0.3080828189849853,-0.5473107099533081
-0.0244288444519042,1.1907364130020142,-0.0902741253376007,-0.6038607358932495,-0.0225719884037971,0.0455388240516185,0.0,0.0,-0.4769381880760193,0.5101367235183716
-0.0252498630434274,1.1766982078552246,-0.0835578888654708,-0.6238964796066284,-0.0211356449872255,0.0287295337766408,0.0,0.0,-0.4323432445526123,-0.4106647968292236
-0.0260611530393362,1.1622120141983032,-0.0829879194498062,-0.6438082456588745,-0.0193028710782527,0.0366586185991764,0.0,0.0,-0.2180777788162231,-0.0825991034507751
-0.0268627163022756,1.14727783203125,-0.0824199169874191,-0.6637201309204102,-0.0170721355825662,0.0446190945804119,0.0,0.0,-0.7971372604370117,0.0064525604248046
-0.0276548378169536,1.1318740844726562,-0.0818772837519645,-0.6845857501029968,-0.0144407292827963,0.0526283606886863,0.0,0.0,-0.7299965023994446,0.6067937612533569
-0.028388787060976,1.1160249710083008,-0.075237825512886,-0.7043859362602234,-0.0126208253204822,0.0363980308175087,0.0,0.0,-0.5625806450843811,-0.376248836517334
-0.0291128158569335,1.0997278690338137,-0.0746648833155632,-0.7242958545684814,-0.0103967599570751,0.0444813296198844,0.0,0.0,-0.151506245136261,-0.3949317932128906
-0.0298271179199218,1.0829830169677734,-0.0740919262170791,-0.7442060708999634,-0.0077674593776464,0.0525859221816062,0.0,0.0,0.0637608766555786,0.1669750213623047
-0.0305426605045795,1.0662611722946167,-0.0745630413293838,-0.7431812286376953,-0.004794861190021,0.0594516992568969,0.0,0.0,0.1590029001235962,0.0532917976379394
-0.0312323570251464,1.0499823093414309,-0.0724523514509201,-0.7235010862350464,-0.0013555195182561,0.0687868371605873,0.0,0.0,0.2524037361145019,0.5269589424133301
-0.0319343581795692,1.0337506532669067,-0.0728980228304863,-0.7214009165763855,0.0013043014332652,0.0531962886452674,0.0,0.0,0.2929084300994873,0.5645418167114258
-0.032653521746397,1.0180175304412842,-0.0737268030643463,-0.6992555856704712,0.0031015772838145,0.0359455719590187,0.0,0.0,-0.4433411359786987,-0.2601796984672546
-0.0333627685904502,1.0018364191055298,-0.073153831064701,-0.719166100025177,0.0053028864786028,0.0440260618925094,0.0,0.0,-0.3297958970069885,0.383535623550415
-0.0340621955692768,0.9852074384689332,-0.072580873966217,-0.7390767931938171,0.0079066073521971,0.0520743802189827,0.0,0.0,0.3927749395370483,0.4210845232009887
-0.034741498529911,0.9690871238708496,-0.0710489377379417,-0.7164742350578308,0.0109815103933215,0.0614980831742286,0.0,0.0,-0.6566894054412842,0.0252867937088012
-0.0354111678898334,0.9525192379951476,-0.070476047694683,-0.7363855242729187,0.0144541785120964,0.0694533288478851,0.0,0.0,-0.6532031893730164,0.8427455425262451
-0.0360001549124717,0.9355114698410034,-0.0610130056738853,-0.7559231519699097,0.0165392812341451,0.0417020395398139,0.0,0.0,-0.416684627532959,0.0500036478042602
-0.0365795120596885,0.9180559515953064,-0.0604402050375938,-0.7758341431617737,0.0190155245363712,0.0495246276259422,0.0,0.0,0.3556668758392334,0.7656847238540649
-0.0370720848441123,0.9009039402008056,-0.0506471991539001,-0.7623263597488403,0.0203917510807514,0.027524271979928,0.0,0.0,0.4025390148162842,0.3426198959350586
-0.0376591682434082,0.884292721748352,-0.0600580871105194,-0.7382975816726685,0.0217310506850481,0.0267859511077404,0.0,0.0,-0.3360586762428283,0.6915040016174316
-0.0381706245243549,0.8672341704368591,-0.0512115359306335,-0.7581583261489868,0.0217906013131141,0.00119119300507,0.0,0.0,0.3302023410797119,-0.5265759825706482
-0.0386348739266395,0.8501020669937134,-0.0481098368763923,-0.7614536285400391,0.0234623234719038,0.0334341749548912,0.0,0.0,0.8425909280776978,0.3662989139556885
-0.0389926917850971,0.8334101438522339,-0.038367323577404,-0.7419062256813049,0.0260115265846252,0.0509841814637184,0.0,0.0,0.5505367517471313,0.8598268032073975
-0.0393228530883789,0.81667560338974,-0.0341713763773441,-0.7437763810157776,0.0271489918231964,0.0227492600679397,0.0,0.0,-0.5306331515312195,0.6930638551712036
-0.0395846366882324,0.7994885444641113,-0.026182722300291,-0.7638672590255737,0.0271545480936765,0.0001113514736061,0.0,0.0,-0.2481502890586853,0.1012710332870483
-0.0398372635245323,0.7818536162376404,-0.0256112553179264,-0.783778190612793,0.0275031179189682,0.0069713681004941,0.0,0.0,0.5342886447906494,0.5124077796936035
-0.0401735305786132,0.7649344205856323,-0.032984834164381,-0.7519501447677612,0.0268736369907856,-0.01258987467736,0.0,0.0,0.053396463394165,0.6131854057312012
-0.0405611023306846,0.7483245730400085,-0.0370865575969219,-0.7381907105445862,0.0252264011651277,-0.0329447090625762,0.0,0.0,-0.0290572047233581,0.546938419342041
-0.0408978462219238,0.7312667369842529,-0.0312752500176429,-0.758083701133728,0.0228448640555143,-0.0476305112242698,0.0,0.0,-0.0702224373817443,-0.2027287483215332
-0.0412260070443153,0.7137612700462341,-0.0307056419551372,-0.7779948711395264,0.0207679290324449,-0.0415388420224189,0.0,0.0,0.2144769430160522,-0.5576604008674622
-0.0416473373770713,0.6966208815574646,-0.04136323928833,-0.7617853283882141,0.0200032610446214,-0.01529320795089,0.0,0.0,0.0679011344909668,0.2763011455535888
-0.0419953353703022,0.6794657707214355,-0.0346351861953735,-0.7624525427818298,0.0198468957096338,-0.0031271888874471,0.0,0.0,-0.5160924792289734,0.2675502300262451
-0.0423348434269428,0.6618626117706299,-0.0340680852532386,-0.7823631763458252,0.0199593920260667,0.0022499712649732,0.0,0.0,0.5696654319763184,0.585566520690918
-0.0424759872257709,0.6445100903511047,-0.0136798247694969,-0.7712196707725525,0.0195297524333,-0.008592739701271,0.0,0.0,0.4253231287002563,0.4440112113952636
-0.0426993370056152,0.6273168921470642,-0.0217633564025163,-0.7641370296478271,0.0189603567123413,-0.0113877933472394,0.0,0.0,0.436065673828125,0.7197673320770264
-0.0427803993225097,0.6107255816459656,-0.0064702234230935,-0.7373748421669006,0.0173404552042484,-0.0323978289961814,0.0,0.0,0.1569201946258545,0.0512641668319702
-0.0427653305232524,0.5943970680236816,0.0024836228694766,-0.7256981730461121,0.0163791552186012,-0.0192260667681694,0.0,0.0,-0.1477463841438293,0.537830114364624
-0.0426948554813861,0.5776273608207703,0.0090394476428627,-0.7452967762947083,0.0144107127562165,-0.0393690466880798,0.0,0.0,0.6100039482116699,0.3744220733642578
-0.0427022948861122,0.5615567564964294,0.0014221505261957,-0.7142305970191956,0.0122776301577687,-0.0426618978381156,0.0,0.0,0.1943812370300293,0.3996388912200928
-0.0426687225699424,0.5454404354095459,0.005176056176424,-0.7162663340568542,0.0104770073667168,-0.0360123552381992,0.0,0.0,0.2436285018920898,0.5517983436584473
-0.042672824114561,0.5296704173088074,0.0025467104278504,-0.7008702158927917,0.0075556524097919,-0.0584272071719169,0.0,0.0,0.483128547668457,0.2565454244613647
-0.0425628647208213,0.5141502022743225,0.0133132860064506,-0.6897774338722229,0.0052715865895152,-0.0456814505159854,0.0,0.0,-0.1640717387199401,0.1382657289505005
-0.0424463264644146,0.4981820583343506,0.0138573814183473,-0.7096880674362183,0.0030925087630748,-0.0435815565288066,0.0,0.0,-0.2705540657043457,0.202521800994873
-0.0423235893249511,0.4817661046981811,0.0143970642238855,-0.7295986413955688,0.0009983933996409,-0.041882287710905,0.0,0.0,0.7158539295196533,0.0150738954544067
-0.0423239693045616,0.465822696685791,0.0026182211004197,-0.7085961699485779,-0.0016261825803667,-0.0524913258850574,0.0,0.0,0.7754507064819336,0.6481924057006836
-0.042240809649229,0.4508183300495147,0.01216562371701,-0.6668684482574463,-0.0054358760826289,-0.0761937052011489,0.0,0.0,0.17203950881958,-0.4715415239334106
-0.042092990130186,0.4356768727302551,0.0183521695435047,-0.6729691624641418,-0.0089547159150242,-0.070376880466938,0.0,0.0,0.7800424098968506,0.0094522237777709
-0.0419026389718055,0.4214668869972229,0.0224703848361969,-0.6315812468528748,-0.0123396003618836,-0.0676976591348648,0.0,0.0,0.6419879198074341,-0.8271889090538025
-0.0418707840144634,0.4075140953063965,0.0051471525803208,-0.6201403737068176,-0.0142786735668778,-0.0387813560664653,0.0,0.0,0.8668670654296875,0.6018056869506836
-0.0418868064880371,0.3942649364471435,0.0019188778242096,-0.588890016078949,-0.0177582520991563,-0.0695917084813118,0.0,0.0,-0.0044585466384887,0.0203713178634643
-0.0418986305594444,0.3805679976940155,0.0024084420874714,-0.6088012456893921,-0.021307410672307,-0.0709832683205604,0.0,0.0,0.6510829925537109,0.0310088396072387
-0.042017363011837,0.3676930963993072,-0.0075795701704919,-0.5722847580909729,-0.0255452953279018,-0.0847577825188636,0.0,0.0,-0.1923938989639282,0.3961758613586426
-0.0421326644718647,0.3543704748153686,-0.007112433668226,-0.5921966433525085,-0.0299001112580299,-0.0870964452624321,0.0,0.0,0.6605265140533447,-0.4769275188446045
-0.042266845703125,0.3411910831928253,-0.0087103256955742,-0.5858508944511414,-0.0345525816082954,-0.0930493921041488,0.0,0.0,0.213250994682312,-0.7207601070404053
-0.0423909202218055,0.327914297580719,-0.0090499548241496,-0.5901606678962708,-0.0378681048750877,-0.0663103908300399,0.0,0.0,0.634376049041748,-0.8493992686271667
-0.0426020622253418,0.3146902918815613,-0.0192215386778116,-0.5877800583839417,-0.0397399924695491,-0.0374376624822616,0.0,0.0,0.8628292083740234,-0.4694166183471679
-0.0427851676940918,0.3023595809936523,-0.016155544668436,-0.5480911731719971,-0.0418684408068656,-0.0425691083073616,0.0,0.0,0.7821791172027588,-0.0176191329956054
-0.0428436286747455,0.2908943891525268,-0.0038565550930798,-0.5096179842948914,-0.0438342429697513,-0.0393160060048103,0.0,0.0,0.4287176132202148,0.20054292678833
-0.0429669395089149,0.2800470888614654,-0.0096263112500309,-0.4821840226650238,-0.0465093776583671,-0.0535026602447032,0.0,0.0,-0.2424399852752685,-0.1700857281684875
-0.0430896766483783,0.2687520682811737,-0.0092754615470767,-0.5020958185195923,-0.0494682714343071,-0.0591777861118316,0.0,0.0,0.7282552719116211,-0.5913801193237305
-0.0431725494563579,0.2582536041736603,-0.0062919058836996,-0.4666652381420135,-0.0514400713145732,-0.039435975253582,0.0,0.0,-0.0139943361282348,-0.2815067172050476
-0.0432557091116905,0.2473074793815612,-0.0059858649037778,-0.4865770936012268,-0.0537414327263832,-0.0460273399949073,0.0,0.0,0.548429012298584,-0.5229995846748352
-0.0434017181396484,0.2368751168251037,-0.0128292916342616,-0.4637232422828674,-0.0554964691400527,-0.0351006425917148,0.0,0.0,0.5488109588623047,-0.0959793329238891
-0.0435238853096962,0.2269778996706009,-0.010001678019762,-0.4399606883525848,-0.0576770715415477,-0.0436122342944145,0.0,0.0,0.2916851043701172,-0.8713794350624084
-0.0436121933162212,0.2173135131597519,-0.0080472650006413,-0.4295573532581329,-0.0584541969001293,-0.0155425025150179,0.0,0.0,0.0448813438415527,-0.2460345029830932
-0.0436750426888465,0.207524374127388,-0.0051526455208659,-0.4351173341274261,-0.0595777072012424,-0.0224699042737483,0.0,0.0,-0.1576226949691772,-0.7576158046722412
-0.0437913909554481,0.1972866356372833,-0.011352377012372,-0.4550233781337738,-0.0598625838756561,-0.0056977085769176,0.0,0.0,-0.1212115883827209,0.1510324478149414
-0.0439109802246093,0.1866012215614318,-0.0112063270062208,-0.4749357402324676,-0.0606027878820896,-0.0148039730265736,0.0,0.0,0.7143757343292236,-0.4738175868988037
-0.0438650138676166,0.1760679334402084,0.005152903497219,-0.4681718051433563,-0.0611480101943016,-0.0109046315774321,0.0,0.0,0.6718635559082031,-0.8108960390090942
-0.0438467040657997,0.1662375330924987,0.0012546427315101,-0.4368816018104553,-0.0605816580355167,0.0113273467868566,0.0,0.0,0.4680243730545044,-0.3678928017616272
-0.0437646880745887,0.1569663137197494,0.0080113727599382,-0.4120479524135589,-0.060397945344448,0.0036742507945746,0.0,0.0,-0.1523246765136718,-0.8037810325622559
-0.0437379851937294,0.147255077958107,0.0017330035334452,-0.4315721392631531,-0.0594711750745773,0.0185356065630912,0.0,0.0,0.5376112461090088,-0.4333568811416626
-0.0436049476265907,0.1375429034233093,0.0124696362763643,-0.4316214323043823,-0.0586528293788433,0.01636703312397,0.0,0.0,0.4203951358795166,-0.7441108822822571
-0.0435613617300987,0.1280461698770523,0.002681586658582,-0.4220095574855804,-0.0569916740059852,0.0332228764891624,0.0,0.0,0.5757561922073364,-0.6769372224807739
-0.0434422492980957,0.119339495897293,0.0092585179954767,-0.3868657350540161,-0.0543702952563762,0.0524277687072753,0.0,0.0,0.0670689344406127,-0.7330194711685181
-0.0433852188289165,0.110741838812828,0.0021885011810809,-0.3819949030876159,-0.0508899874985218,0.0696057379245758,0.0,0.0,0.5130846500396729,-0.5645664930343628
-0.0434657111763954,0.1028062179684639,-0.0118019338697195,-0.3525745570659637,-0.0471802949905395,0.0741936117410659,0.0,0.0,0.5289769172668457,0.5865476131439209
-0.0433897003531456,0.0953842252492904,0.0054451334290206,-0.3298006951808929,-0.0450457446277141,0.0426911488175392,0.0,0.0,-0.0533170700073242,-0.5797426104545593
-0.0433712974190712,0.0875222086906433,-0.0009672503801994,-0.3493390083312988,-0.0422789193689823,0.0553365461528301,0.0,0.0,0.7561590671539307,-0.011015772819519
-0.0434154495596885,0.0804111361503601,-0.0061617735773324,-0.3160005509853363,-0.0405545942485332,0.0344865731894969,0.0,0.0,0.4220813512802124,-0.890784740447998
-0.043545626103878,0.0734977573156356,-0.0158817507326602,-0.3071888387203216,-0.0377308502793312,0.056474931538105,0.0,0.0,0.262772798538208,0.9204144477844238
-0.0436979308724403,0.0668283551931381,-0.0155043303966522,-0.2964095175266266,-0.0374522060155868,0.0055728359147906,0.0,0.0,0.483034610748291,0.8523819446563721
-0.0439262390136718,0.0604189485311508,-0.0205196868628263,-0.2849230766296386,-0.0397365950047969,-0.0456877462565898,0.0,0.0,0.2285876274108886,0.9435373544692992
-0.0439763069152832,0.0543587319552898,-0.0001404025533702,-0.2694808542728424,-0.0445379689335823,-0.096027486026287,0.0,0.0,0.2466205358505249,-0.5784226655960083
-0.0440186485648155,0.0482629649341106,5.092340870760381e-05,-0.2710554003715515,-0.048775739967823,-0.0847555324435234,0.0,0.0,0.2039021253585815,-0.1667379736900329
-0.0439383499324321,0.042545136064291,0.0125203086063265,-0.2542789578437805,-0.0532157830893993,-0.0888006463646888,0.0,0.0,0.0366554260253906,0.1593039035797119
-0.0438567176461219,0.0371106229722499,0.0134240388870239,-0.2417294979095459,-0.0584208108484745,-0.1041006073355674,0.0,0.0,0.4795615673065185,-0.5720815062522888
-0.043647576123476,0.0323733426630497,0.0254159122705459,-0.2107267826795578,-0.0628701001405716,-0.0889857932925224,0.0,0.0,-0.2457443475723266,-0.5280091166496277
-0.0434855446219444,0.0271924585103988,0.0204965639859437,-0.2304484248161316,-0.0671135410666465,-0.0848689302802085,0.0,0.0,0.5128633975982666,-0.3841614127159118
-0.0432908050715923,0.022684060037136,0.0245223697274923,-0.2006050497293472,-0.0721057131886482,-0.0998435989022255,0.0,0.0,0.4267101287841797,-0.5676678419113159
-0.0430458076298236,0.0187500100582838,0.028998389840126,-0.1750736087560653,-0.0765616670250892,-0.0891191810369491,0.0,0.0,-0.2591544389724731,-0.748871922492981
-0.0428633689880371,0.014371071010828,0.0221717935055494,-0.1948271095752716,-0.0804559141397476,-0.0778848007321357,0.0,0.0,0.4244017601013183,0.0712904930114746
-0.0427546501159668,0.0103549100458621,0.0160433948040008,-0.1787812560796737,-0.0855720490217208,-0.102322831749916,0.0,0.0,0.673454999923706,-0.5354614853858948
-0.0427935607731342,0.0066931224428117,0.0013140861410647,-0.1630544513463974,-0.0907345861196518,-0.1032506600022316,1.0,0.0,0.6232607364654541,0.5429608821868896
-0.0427281372249126,0.0038435077294707,0.0033566199708729,-0.1268457025289535,-0.0863474905490875,0.0893589109182357,1.0,0.0,0.5196139812469482,-0.1030160784721374
-0.0424959175288677,0.0017561411950737,0.0049546789377927,-0.0918310582637786,-0.0682132095098495,0.3627532124519348,1.0,0.0,0.1097460985183715,0.0937634706497192
-0.0420965179800987,-6.039380969014019e-05,0.0110916774719953,-0.0796838104724884,-0.0396490767598152,0.5713452100753784,1.0,0.0,0.2012305259704589,0.140376329421997
-0.0415833480656147,-0.0014508152380585,0.0186208374798297,-0.0612568818032741,-0.0073249982669949,0.6465402841567993,1.0,0.0,0.2795040607452392,0.8935346603393555
-0.0412044525146484,-0.0017341279890388,0.0264516323804855,-0.0125817246735095,0.003972505684942,0.2259660065174102,1.0,1.0,-0.2460896968841552,0.4408583641052246
