x_pos,y_pos,x_vel,y_vel,angle,ang_vel,leg_1,leg_2,main_booster,lat_booster
-0.001516532851383,1.4034767150878906,-0.1536893993616104,-0.3308172523975372,0.0018249166896566,0.0360027812421321,0.0,0.0,-0.3685652613639831,0.5835256576538086
-0.0029779435135424,1.3959059715270996,-0.1467301696538925,-0.3364754021167755,0.0024086800403892,0.0116770090535283,0.0,0.0,-0.5247496366500854,0.6145105361938477
-0.004376602359116,1.3881827592849731,-0.1390099227428436,-0.3432527184486389,0.0015668482519686,-0.0168381985276937,0.0,0.0,0.0652178525924682,0.3482489585876465
-0.0058505060151219,1.3807947635650637,-0.1462248265743255,-0.3283543884754181,0.000416303955717,-0.0230132490396499,0.0,0.0,0.0354104042053222,-0.016443908214569
-0.0072435378096997,1.373871922492981,-0.1385852247476577,-0.3076775968074798,-0.0002871406613849,-0.0140702296048402,0.0,0.0,0.0794910192489624,0.6094462871551514
-0.0084895137697458,1.3673328161239624,-0.1228812560439109,-0.2906319200992584,-0.0019817838910967,-0.0338960289955139,0.0,0.0,-0.2956045866012573,-0.0830371975898742
-0.0097389221191406,1.360645771026611,-0.1232906952500343,-0.2972007989883423,-0.0036140670999884,-0.0326485857367515,0.0,0.0,-0.6128283739089966,0.3255249261856079
-0.0109937665984034,1.3538111448287964,-0.1238918453454971,-0.3037663400173187,-0.0051837302744388,-0.0313963033258914,0.0,0.0,-0.3565055131912231,0.0306112766265869
-0.0122558595612645,1.346828818321228,-0.1246861368417739,-0.3103325068950653,-0.0066897538490593,-0.0301231332123279,0.0,0.0,-0.5435382723808289,-0.359329342842102
-0.0135272024199366,1.3396987915039062,-0.1256754100322723,-0.316899687051773,-0.0081312013790011,-0.0288316365331411,0.0,0.0,-0.4697703123092651,0.4486376047134399
-0.0148097034543752,1.332421064376831,-0.126860111951828,-0.3234668672084808,-0.0095071392133831,-0.0275214854627847,0.0,0.0,-0.5826384425163269,0.696449875831604
-0.0160439498722553,1.324993133544922,-0.1205476373434066,-0.3301467299461365,-0.0123589318245649,-0.0570412166416645,0.0,0.0,0.0501070022583007,0.3397812843322754
-0.0172049514949321,1.3180828094482422,-0.1136818304657936,-0.3071418404579162,-0.0147510981187224,-0.0478473156690597,0.0,0.0,-0.4670463800430298,0.3503719568252563
-0.0183830261230468,1.3110249042510986,-0.1154492646455764,-0.3137147128582001,-0.0170753970742225,-0.0464902110397815,0.0,0.0,-0.7051578760147095,0.4940299987792969
-0.0195798873901367,1.303819179534912,-0.117409273982048,-0.3202802240848541,-0.0193301159888505,-0.0450986139476299,0.0,0.0,-0.270100474357605,0.6807136535644531
-0.0207342151552438,1.296455979347229,-0.1116082817316055,-0.3273055851459503,-0.0231112278997898,-0.0756295174360275,0.0,0.0,-0.682168185710907,0.4322903156280517
-0.0219111442565917,1.288945198059082,-0.1139437109231948,-0.333873838186264,-0.0268201939761638,-0.0741858333349227,0.0,0.0,-0.5544303059577942,0.3938946723937988
-0.0231124870479106,1.2812868356704712,-0.1164655908942222,-0.3404421210289001,-0.0304571073502302,-0.0727444514632225,0.0,0.0,-0.878301739692688,0.0430011749267578
-0.0243401527404785,0.0,-0.1191702336072921,-0.3470104932785034,-0.0340207442641258,-0.0712795257568359,0.0,0.0,-0.9084141254425048,0.2558677196502685
-0.0255959518253803,1.2655271291732788,-0.1220537200570106,-0.3535788357257843,-0.0375103428959846,-0.0697977691888809,0.0,0.0,-0.7810719013214111,0.5562021732330322
-0.0268281940370798,1.257427215576172,-0.1184237152338028,-0.3601337969303131,-0.0422637648880481,-0.0950771421194076,0.0,0.0,-0.5887148380279541,-0.3619202375411987
-0.0280920024961233,1.2491796016693115,-0.1216472759842872,-0.3667029440402984,-0.0469408519566059,-0.0935500934720039,0.0,0.0,-0.4519598484039306,-0.2724927067756653
-0.0293888095766305,1.2407842874526978,-0.1250365525484085,-0.3732723295688629,-0.0515417382121086,-0.0920259431004524,0.0,0.0,-0.6890899538993835,-0.0454145669937133
-0.0307203289121389,0.0,-0.1285859048366546,-0.3798416554927826,-0.0560655482113361,-0.0904840752482414,0.0,0.0,-0.6851601600646973,0.5858509540557861
-0.032052706927061,1.2235499620437622,-0.1278466433286667,-0.3865050077438354,-0.0614022463560104,-0.1067437529563903,0.0,0.0,-0.928787112236023,0.5367666482925415
-0.0333914756774902,1.2146893739700315,-0.1277401000261306,-0.3940659165382385,-0.0674701854586601,-0.1213587895035743,0.0,0.0,-0.6330345273017883,0.650623083114624
-0.0347176566720008,1.2056803703308103,-0.1252433955669403,-0.4007458984851837,-0.0747631415724754,-0.1458590775728225,0.0,0.0,-0.7666118144989014,0.7579395771026611
-0.0360371582210063,1.1965272426605225,-0.1234733611345291,-0.4072597324848175,-0.083158291876316,-0.1679029166698455,0.0,0.0,-0.7698310613632202,-0.6379793286323547
-0.0374594703316688,1.1872398853302002,-0.1354027241468429,-0.4131701290607452,-0.089928038418293,-0.1353947818279266,0.0,0.0,-0.6761287450790405,0.7285523414611816
-0.0388697609305381,1.177795171737671,-0.1328675746917724,-0.4202781021595001,-0.0980226248502731,-0.1618918925523758,0.0,0.0,-0.8897536396980286,0.3996703624725342
-0.0403244011104106,1.1682034730911257,-0.1373902559280395,-0.4268482029438019,-0.1060402765870094,-0.1603527963161468,0.0,0.0,0.1537123918533325,0.3977377414703369
-0.0418462753295898,1.1589300632476809,-0.1439359933137893,-0.4127655923366546,-0.1142327338457107,-0.1638492047786712,0.0,0.0,-0.8043851256370544,0.4148943424224853
-0.0434147827327251,1.1495095491409302,-0.148681104183197,-0.4193357229232788,-0.1223492920398712,-0.1623308658599853,0.0,0.0,-0.5752692222595215,0.3867946863174438
-0.0450308807194232,1.139941930770874,-0.1535289734601974,-0.425905704498291,-0.1303906142711639,-0.1608266532421112,0.0,0.0,-0.8498095870018005,0.0648664236068725
-0.0466956123709678,1.1302275657653809,-0.1584741771221161,-0.4324755370616913,-0.1383575797080993,-0.1593391299247741,0.0,0.0,-0.7815651297569275,0.3622505664825439
-0.0484098419547081,1.1203659772872925,-0.1635113954544067,-0.439045250415802,-0.1462511122226715,-0.15787073969841,0.0,0.0,-0.7160945534706116,0.4482505321502685
-0.0501745231449604,1.110357403755188,-0.1686354875564575,-0.4456148147583008,-0.1540723145008087,-0.1564240157604217,0.0,0.0,-0.1247767806053161,0.8294378519058228
-0.0519208908081054,0.0,-0.1651221513748169,-0.4527997672557831,-0.1635835021734237,-0.1902235150337219,0.0,0.0,-0.5237162709236145,0.9483873844146729
-0.0536489486694335,1.0898739099502563,-0.1616061478853225,-0.4598652422428131,-0.1747938245534896,-0.2242068350315094,0.0,0.0,-0.7755354642868042,0.6328432559967041
-0.0553779602050781,1.0793967247009275,-0.1604739725589752,-0.467167466878891,-0.1872633397579193,-0.2493903934955597,0.0,0.0,-0.7642444968223572,-0.1448458433151245
-0.0571602806448936,1.0687735080718994,-0.1658999472856521,-0.4737445116043091,-0.1996660381555557,-0.2480537891387939,0.0,0.0,-0.7850396633148193,-0.3955889940261841
-0.0589964874088764,1.058004379272461,-0.1713899970054626,-0.4803213477134704,-0.212003618478775,-0.2467515021562576,0.0,0.0,-0.619667649269104,-0.5581070184707642
-0.0609243400394916,1.0470949411392212,-0.181570902466774,-0.4865140616893768,-0.2233408689498901,-0.2267448604106903,0.0,0.0,-0.9213898777961732,-0.5273920893669128
-0.0629414543509483,1.0360496044158936,-0.191458374261856,-0.492489606142044,-0.2337304353713989,-0.207791656255722,0.0,0.0,0.0550976991653442,-0.3640704154968261
-0.0649960488080978,1.0251414775848389,-0.1951663345098495,-0.4864834547042846,-0.2441807687282562,-0.2090069055557251,0.0,0.0,-0.3192118406295776,0.1249512434005737
-0.0671068206429481,1.0140866041183472,-0.2008730620145797,-0.4930564761161804,-0.2545739114284515,-0.2078625261783599,0.0,0.0,-0.7641662955284119,-0.8572342991828918
-0.0693340301513671,1.0029034614562988,-0.2141098082065582,-0.4985464811325073,-0.2633585035800934,-0.175692081451416,0.0,0.0,-0.5270612239837646,-0.7025059461593628
-0.071680448949337,0.9916061162948608,-0.2277691662311554,-0.5033558011054993,-0.2703961133956909,-0.1407520473003387,0.0,0.0,0.949087619781494,0.5227687358856201
-0.0739552527666091,0.9815600514411926,-0.2191554307937622,-0.4480565786361694,-0.2789287865161896,-0.1706543266773224,0.0,0.0,-0.9839301109313964,0.2376083135604858
-0.0762882232666015,0.9713669419288636,-0.2250259667634964,-0.454626590013504,-0.2874132990837097,-0.1696901619434356,0.0,0.0,-0.8682829737663269,-0.3362560272216797
-0.0786794647574424,0.9610269069671632,-0.2309307605028152,-0.4611965417861938,-0.2958519160747528,-0.1687730848789215,0.0,0.0,-0.6912752985954285,-0.3335891962051391
-0.0811293572187423,0.9505398273468018,-0.2368672788143158,-0.4677664339542389,-0.3042470812797546,-0.1679036021232605,0.0,0.0,-0.3993753790855407,-0.155712604522705
-0.08363838493824,0.9399058222770692,-0.2428332567214965,-0.4743362963199615,-0.3126011788845062,-0.1670819371938705,0.0,0.0,-0.8454725742340088,-0.6945288181304932
-0.0862570777535438,0.9291558265686036,-0.2552269101142883,-0.4792277216911316,-0.3195016980171203,-0.1380106508731842,0.0,0.0,-0.2993419170379638,-0.3932135701179504
-0.088935375213623,0.9182584881782532,-0.2612443566322326,-0.4857958257198334,-0.3263659179210663,-0.1372844576835632,0.0,0.0,-0.3027942180633545,0.1513576507568359
-0.0916737541556358,0.9072139263153076,-0.2672848403453827,-0.4923638999462127,-0.3331961631774902,-0.1366052031517028,0.0,0.0,-0.3522118330001831,-0.355815052986145
-0.094472125172615,0.8960222005844116,-0.2733466029167175,-0.4989320039749145,-0.3399947881698608,-0.1359722912311554,0.0,0.0,0.3051377534866333,-0.4199467897415161
-0.0970505699515342,0.8853817582130432,-0.2518620491027832,-0.4743246436119079,-0.3462597727775574,-0.1252996623516082,0.0,0.0,0.7169899940490723,-0.4527018070220947
-0.0993261337280273,0.875761866569519,-0.2219565212726593,-0.4289095103740692,-0.3521384596824646,-0.1175741404294967,0.0,0.0,0.4959303140640259,-0.1823267340660095
-0.1014817208051681,0.867031991481781,-0.2096985876560211,-0.3894434869289398,-0.3583112359046936,-0.1234558224678039,0.0,0.0,0.1274974346160888,-0.3960700035095215
-0.1035769432783126,0.8584914207458496,-0.2038459330797195,-0.3810119032859802,-0.3642996251583099,-0.1197672858834266,0.0,0.0,0.3826746940612793,-0.2354147434234619
-0.1056024581193924,0.850671112537384,-0.1965448409318924,-0.3491129875183105,-0.3706554174423218,-0.127116173505783,0.0,0.0,0.6290085315704346,-0.5923649072647095
-0.1074257865548133,0.8433687686920166,-0.1778045892715454,-0.3257293999195099,-0.3754621744155884,-0.0961349233984947,0.0,0.0,0.6895759105682373,-0.443986177444458
-0.1090582832694053,0.8367804288864136,-0.1588430553674698,-0.2939799427986145,-0.3801406025886535,-0.0935684069991111,0.0,0.0,0.7452113628387451,-0.5293533205986023
-0.1106266006827354,0.8306489586830139,-0.1534898579120636,-0.2734051942825317,-0.3836939036846161,-0.0710658580064773,0.0,0.0,0.9105849266052246,0.0479397773742675
-0.1121334061026573,0.8254010081291199,-0.1467347592115402,-0.2343142330646515,-0.3878961205482483,-0.0840445607900619,0.0,0.0,0.9256722927093506,0.3755002021789551
-0.1133013740181922,0.8213760852813721,-0.1129811778664588,-0.1799234300851822,-0.3919710516929626,-0.0814985036849975,0.0,0.0,0.977696657180786,-0.2241106629371643
-0.1143066436052322,0.8176327347755432,-0.0971436128020286,-0.16730697453022,-0.3955814838409424,-0.072208471596241,0.0,0.0,0.951341152191162,-0.663529098033905
-0.1149994879961013,0.8151546716690063,-0.0672908648848533,-0.110694371163845,-0.3977162539958954,-0.0426954142749309,0.0,0.0,0.8554118871688843,-0.931871771812439
-0.1157247573137283,0.8133708238601685,-0.0721634179353714,-0.0793869644403457,-0.3981105089187622,-0.007885294035077,0.0,0.0,0.9064356088638306,-0.7229485511779785
-0.1163661926984787,0.8126219511032104,-0.0649358481168747,-0.0330624543130397,-0.397262692451477,0.0169561821967363,0.0,0.0,-0.0342236161231994,-0.913921058177948
-0.1171319037675857,0.811766505241394,-0.0790406316518783,-0.0373339615762233,-0.3946154415607452,0.0529447682201862,0.0,0.0,0.509868860244751,-0.1928735971450805
-0.1177714318037033,0.8118998408317566,-0.0659248754382133,0.0064751370809972,-0.3925095200538635,0.0421182475984096,0.0,0.0,-0.3980402946472168,-0.5890151858329773
-0.1185104399919509,0.8119089603424072,-0.0768722742795944,0.0012202403740957,-0.3893332779407501,0.0635247975587844,0.0,0.0,0.1339901685714721,-0.3113014698028564
-0.1192308440804481,0.8121560215950012,-0.0749188140034675,0.0117686549201607,-0.3862629234790802,0.0614069029688835,0.0,0.0,-0.0067710876464843,-0.3987904191017151
-0.1200131401419639,0.8122555613517761,-0.0811102837324142,0.0052026635967195,-0.3831923902034759,0.0614109523594379,0.0,0.0,0.0501140356063842,-0.2103446722030639
-0.1207952499389648,0.8125189542770386,-0.0810048654675483,0.0124535048380494,-0.3802154660224914,0.0595384649932384,0.0,0.0,0.0409094095230102,-0.5606129169464111
-0.1214985847473144,0.813363254070282,-0.0742235407233238,0.0385552234947681,-0.3760867714881897,0.082573726773262,0.0,0.0,-0.6328977346420288,-0.0715231299400329
-0.1222636252641677,0.8140600323677063,-0.0803950503468513,0.0319885574281215,-0.3719604611396789,0.0825263112783432,0.0,0.0,-0.3211037516593933,-0.4339497089385986
-0.1230902671813964,0.8146094679832458,-0.086557038128376,0.025421867147088,-0.3678372800350189,0.0824638754129409,0.0,0.0,-0.2894032001495361,-0.1550139784812927
-0.1239783316850662,0.8150113224983215,-0.0927080512046814,0.018855158239603,-0.3637179136276245,0.0823872834444046,0.0,0.0,0.1243342161178588,0.0992236137390136
-0.1247106567025184,0.8160052299499512,-0.0772613063454628,0.0451852269470691,-0.3594761192798614,0.0848364159464836,0.0,0.0,-0.4594990015029907,-0.3941022157669067
-0.1255044043064117,0.8168515563011169,-0.0833856835961341,0.0386183969676494,-0.3552393913269043,0.084733709692955,0.0,0.0,-0.4492939710617065,-0.0601919889450073
-0.126359075307846,0.8175504803657532,-0.0894941687583923,0.0320515558123588,-0.3510084450244903,0.0846190080046653,0.0,0.0,-0.3951228260993957,0.2214653491973877
-0.1272747069597244,0.8181018233299255,-0.095584936439991,0.0254847016185522,-0.3467837870121002,0.0844929218292236,0.0,0.0,-0.0614993572235107,0.4868038892745971
-0.1282510757446289,0.8185059428215027,-0.1016560345888137,0.0189178343862295,-0.3425660133361816,0.0843559578061103,0.0,0.0,-0.352195143699646,0.3700858354568481
-0.129287913441658,0.8187625408172607,-0.1077053695917129,0.0123509587720036,-0.338355541229248,0.0842086151242256,0.0,0.0,0.7954437732696533,0.4529966115951538
-0.1301446855068206,0.819440484046936,-0.0901406034827232,0.0311748050153255,-0.3336866497993469,0.0933776944875717,0.0,0.0,0.2425479888916015,0.5385334491729736
-0.1307664811611175,0.8204994797706604,-0.0658184215426445,0.0478968061506748,-0.3298848271369934,0.0760362595319747,0.0,0.0,-0.3865363597869873,-0.0436359643936157
-0.1314480751752853,0.8214108347892761,-0.071788266301155,0.0413301587104797,-0.3260918259620666,0.0758601352572441,0.0,0.0,-0.3705109357833862,0.2679359912872314
-0.1321889907121658,0.8221747279167175,-0.077726349234581,0.0347635075449943,-0.3223080933094024,0.075674869120121,0.0,0.0,-0.0110294818878173,0.465366005897522
-0.1329889297485351,0.8227910399436951,-0.0836296752095222,0.028196845203638,-0.3185340464115143,0.0754806846380233,0.0,0.0,-0.0635643601417541,0.3105009794235229
-0.1338476240634918,0.8232599496841431,-0.0894950255751609,0.0216301791369915,-0.3147701621055603,0.0752777308225631,0.0,0.0,-0.0663079619407653,0.7259368896484375
-0.1347028762102127,0.8235430121421814,-0.0874683409929275,0.0130025325343012,-0.3127530515193939,0.0403414964675903,0.0,0.0,0.3470802307128906,0.2998180389404297
-0.135528951883316,0.824290931224823,-0.0843556225299835,0.0336119458079338,-0.3109452128410339,0.0361568741500377,0.0,0.0,0.0872142314910888,0.3321201801300049
-0.136185735464096,0.8256763815879822,-0.0676572024822235,0.061998963356018,-0.3088912963867187,0.0410792157053947,0.0,0.0,-0.3096472024917602,-0.1326904296875
-0.1368992775678634,0.8269143104553223,-0.0733323469758033,0.0554330572485923,-0.3068492710590362,0.0408402308821678,0.0,0.0,-0.2355523705482483,0.2736835479736328
-0.1376690864562988,0.8280045390129089,-0.078948974609375,0.0488671511411666,-0.3048197031021118,0.0405919402837753,0.0,0.0,-0.3889687061309814,0.1591246128082275
-0.1384946852922439,0.8289470672607422,-0.0845019221305847,0.0423012338578701,-0.3028030097484588,0.0403341352939605,0.0,0.0,-0.1083874702453613,0.2309486865997314
-0.1393752098083496,0.8297420144081116,-0.0899856239557266,0.0357353091239929,-0.3007996678352356,0.0400665216147899,0.0,0.0,0.310059905052185,0.572312593460083
-0.1401585638523101,0.8312559127807617,-0.0790064558386802,0.0674160793423652,-0.300114095211029,0.0137117505073547,0.0,0.0,-0.4742804765701294,-0.3308573961257934
-0.1409954130649566,0.8326220512390137,-0.0843330323696136,0.0608504265546798,-0.2994429469108581,0.0134232174605131,0.0,0.0,-0.3589158058166504,-0.2332033514976501
-0.1418847143650055,0.8338404297828674,-0.0895709097385406,0.0542847514152526,-0.2987867891788482,0.0131233502179384,0.0,0.0,-0.1559435725212097,-0.1527373790740966
-0.1428256034851074,0.8349112868309021,-0.0947126001119613,0.0477190650999546,-0.2981462180614471,0.0128116756677627,0.0,0.0,0.5114977359771729,-0.2461428046226501
-0.1435312330722808,0.8367344737052917,-0.0716063976287841,0.081239990890026,-0.2970735728740692,0.0214527361094951,0.0,0.0,-0.5496554970741272,-0.7091256380081177
-0.1443355530500412,0.8384260535240173,-0.0827016085386276,0.0756454989314079,-0.294728934764862,0.0468929670751094,0.0,0.0,-0.5014144778251648,-0.1648042201995849
-0.1451881378889084,0.8399701714515686,-0.0875046402215957,0.0690793693065643,-0.2924018204212188,0.0465421974658966,0.0,0.0,-0.5208041667938232,0.0720230340957641
-0.1460874527692794,0.8413664698600769,-0.0921760946512222,0.0625132247805595,-0.2900929749011993,0.046176977455616,0.0,0.0,-0.4186858534812927,0.3619308471679687
-0.1470322608947754,0.8426154851913452,-0.0967057198286056,0.0559470765292644,-0.2878031432628631,0.0457963980734348,0.0,0.0,-0.1532937288284301,0.2288230657577514
-0.148020938038826,0.8437168002128601,-0.101082719862461,0.0493809208273887,-0.2855331599712372,0.0453994274139404,0.0,0.0,-0.0694868564605712,-0.0132307410240173
-0.1490520536899566,0.8446705341339111,-0.105295792222023,0.0428147539496421,-0.283283919095993,0.0449849590659141,0.0,0.0,0.3164989948272705,0.5172410011291504
-0.1498579084873199,0.8463456630706787,-0.0818504765629768,0.0747006684541702,-0.2819839715957641,0.025999192148447,0.0,0.0,-0.6397486329078674,0.0708928108215332
-0.1507024765014648,0.8478734493255615,-0.0856998413801193,0.0681347399950027,-0.2807067036628723,0.0255461782217025,0.0,0.0,-0.3977327942848205,-0.3627940416336059
-0.1515837609767913,0.8492534756660461,-0.0893487930297851,0.0615687929093837,-0.2794530987739563,0.0250720176845788,0.0,0.0,-0.2625792622566223,0.0554718971252441
-0.1524995863437652,0.8504858613014221,-0.0927845761179924,0.0550028309226036,-0.2782243192195892,0.0245754681527614,0.0,0.0,0.0201700925827026,0.2241946458816528
-0.1533650457859039,0.8520783185958862,-0.087651677429676,0.0709824711084365,-0.2770830690860748,0.0228248406201601,0.0,0.0,-0.3614755868911743,-0.3381386995315552
-0.1542603522539138,0.8535229563713074,-0.0906224697828292,0.0644164755940437,-0.2759690880775451,0.0222797133028507,0.0,0.0,0.2870333194732666,-0.3044161796569824
-0.1550089865922927,0.8551828265190125,-0.0763777941465377,0.0740574970841407,-0.2744130790233612,0.0311201699078083,0.0,0.0,-0.7802099585533142,-0.3682533502578735
-0.1557824164628982,0.8566949963569641,-0.0788329988718032,0.0674913451075553,-0.2728869915008545,0.0305216405540704,0.0,0.0,-0.5240223407745361,0.1584224700927734
-0.1565779745578766,0.858059823513031,-0.0810123831033706,0.0609251894056797,-0.2713922560214996,0.0298947840929031,0.0,0.0,-0.2540577054023742,0.1185848712921142
