x_pos,y_pos,x_vel,y_vel,angle,ang_vel,leg_1,leg_2,main_booster,lat_booster
-0.0015382766723632,1.403523564338684,-0.1558650434017181,-0.3287311196327209,0.0018257369520142,0.0360191911458969,0.0,0.0,0.5585468363975705,0.6978829537943811
-0.0029826164245605,1.396699070930481,-0.1449943482875824,-0.3033100962638855,0.0023815499152988,0.0111178793013095,0.0,0.0,-0.5062700897177537,-0.6711206605606479
-0.0044806478545069,1.3897682428359983,-0.1514396965503692,-0.3080443739891052,0.0040045198984444,0.032462365925312,0.0,0.0,0.3478941716801611,-0.8206564996263
-0.0061661722138524,1.3833441734313965,-0.1717225015163421,-0.2855204641819,0.007131858728826,0.0625526905059814,0.0,0.0,-0.2159456512945818,0.928283090560727
-0.0077735902741551,1.3768234252929688,-0.1616707146167755,-0.2898245751857757,0.0080513963475823,0.0183926932513713,0.0,0.0,-0.0860457110891577,-0.8423625148455096
-0.0094412807375192,1.3701997995376587,-0.1690249294042587,-0.2943911850452423,0.010275931097567,0.0444945432245731,0.0,0.0,-0.812399153473905,-0.9543353270830393
-0.0111949918791651,1.3634746074676514,-0.1796048283576965,-0.2989390790462494,0.0144678903743624,0.0838468223810195,0.0,0.0,-0.0661786856671597,0.7907710637069754
-0.012877750210464,1.3566526174545288,-0.1705429553985595,-0.3032245635986328,0.016706958413124,0.0447856113314628,0.0,0.0,0.8390536520772676,-0.7375062895239941
-0.0146543504670262,1.351133108139038,-0.1813501417636871,-0.2453551888465881,0.0203670002520084,0.0732074305415153,0.0,0.0,-0.7303389441554387,-0.7885432102527692
-0.0164971351623535,1.3455157279968262,-0.1895551085472107,-0.2497355490922927,0.0255763139575719,0.1041958481073379,0.0,0.0,-0.1777468921173384,0.6810636327075096
-0.0182815548032522,1.3398010730743408,-0.1821210533380508,-0.2540600895881653,0.0292206276208162,0.0728926956653595,0.0,0.0,0.2804425588929493,-0.6444546221495034
-0.0200692173093557,1.3345985412597656,-0.1838230341672897,-0.2313266396522522,0.0342233702540397,0.1000640392303466,0.0,0.0,-0.3456155714901083,0.942048838266621
-0.0217666625976562,1.329304814338684,-0.1724662035703659,-0.2353418618440628,0.0369139872491359,0.0538175776600837,0.0,0.0,-0.1669159057960385,-0.9938922616061044
-0.0235316269099712,1.323897361755371,-0.1809401512145996,-0.2404462695121765,0.0413057878613472,0.087844118475914,0.0,0.0,0.7397225129235556,-0.6624602659037697
-0.0252212528139352,1.3197040557861328,-0.1750675737857818,-0.1865490078926086,0.0473456308245658,0.1208079606294632,0.0,0.0,0.3315592905214146,-0.9308554022531156
-0.0268892291933298,1.3157602548599243,-0.1747813373804092,-0.1755466759204864,0.0552481524646282,0.1580650061368942,0.0,0.0,0.471100090115214,0.6258906706321722
-0.028410529717803,1.3128798007965088,-0.1590737104415893,-0.1282927840948104,0.0621219165623188,0.1374879628419876,0.0,0.0,0.4621068991111448,-0.6256423551478378
-0.0298565868288278,1.3103981018066406,-0.1530176699161529,-0.1106565371155738,0.0704526752233505,0.1666303277015686,0.0,0.0,-0.0356484796627503,0.8297601520884776
-0.0312183387577533,1.3078324794769287,-0.1425440013408661,-0.1143475025892257,0.0767698362469673,0.1263544857501983,0.0,0.0,0.166305937095855,0.785612628015441
-0.0326033607125282,1.3057630062103271,-0.1431342661380767,-0.0922211036086082,0.0813639983534812,0.0918914154171943,0.0,0.0,0.0056606004166865,-0.7782617384772819
-0.0339848510921001,1.304286241531372,-0.1442481577396392,-0.0659742057323455,0.0874253883957862,0.1212383657693862,0.0,0.0,-0.7233202845337725,0.9245246075400232
-0.0352782234549522,1.3027136325836182,-0.1334272921085357,-0.0701488628983497,0.0914859995245933,0.0812195613980293,0.0,0.0,0.4495662910907518,-0.7382551276147065
-0.0365323051810264,1.3017619848251345,-0.1310527622699737,-0.0426476001739501,0.0970966294407844,0.1122225373983383,0.0,0.0,-0.6395202851010167,-0.9034102561984526
-0.0378320701420307,1.300690531730652,-0.1370777189731598,-0.0480933263897895,0.1041558980941772,0.1411978304386139,0.0,0.0,0.0618806534736555,0.7904461761309485
-0.0392004027962684,1.3001312017440796,-0.1421320736408233,-0.0252386424690485,0.1094310954213142,0.1055133193731308,0.0,0.0,-0.6767482266614406,-0.855788264737199
-0.040631391108036,1.2994407415390017,-0.1503886282444,-0.0312398336827754,0.116660751402378,0.1445932686328888,0.0,0.0,0.58127403193363,-0.8134389954350141
-0.042182732373476,1.2996803522109983,-0.1638679653406143,0.0099450377747416,0.1253436356782913,0.1736577749252319,0.0,0.0,-0.4022984450243911,-0.8080563290302172
-0.0437896735966205,1.299813985824585,-0.1712015122175216,0.0050179534591734,0.1358018815517425,0.2091650515794754,0.0,0.0,0.8872463958283547,0.8982782896567675
-0.0455860123038291,1.301150918006897,-0.1878286004066467,0.0586528927087783,0.1439666450023651,0.1632955372333526,0.0,0.0,0.7514042011593558,-0.9702961567564458
-0.0475318916141986,1.3031295537948608,-0.2044667452573776,0.0869553983211517,0.1538340300321579,0.1973476409912109,0.0,0.0,0.7190806007726038,0.6286460496948422
-0.0495172515511512,1.3063372373580933,-0.2069922685623169,0.1416659206151962,0.1622771024703979,0.1688614934682846,0.0,0.0,0.5547725175094578,-0.9006962818028966
-0.0516928657889366,1.310012936592102,-0.2274729311466217,0.1622469425201416,0.1721981316804886,0.1984207928180694,0.0,0.0,-0.0511544380079389,-0.6276733005906028
-0.0538962371647357,1.31358003616333,-0.2314154207706451,0.1572117358446121,0.1833138614892959,0.222314640879631,0.0,0.0,0.0663346223497702,0.931070658023644
-0.0560869202017784,1.3173887729644775,-0.2280503064393997,0.1681442409753799,0.1923337131738662,0.1803968995809555,0.0,0.0,0.2007920725803413,-0.6635611112052539
-0.0583725944161415,1.3217588663101196,-0.2386186867952346,0.1928808391094207,0.2024538069963455,0.2024019956588745,0.0,0.0,0.1303543735513634,0.8534145660854966
-0.0606511123478412,1.326819896697998,-0.2359272241592407,0.2237998992204666,0.2106015235185623,0.1629546731710434,0.0,0.0,0.8352449904035371,0.8484562641485021
-0.0629675835371017,1.3325284719467163,-0.2377009838819503,0.2528405785560608,0.2167186886072158,0.122343398630619,0.0,0.0,-0.8586904524740393,-0.751208293934269
-0.0653052330017089,1.338123798370361,-0.2409331798553466,0.247612714767456,0.223973274230957,0.1450918614864349,0.0,0.0,-0.7098998908823766,-0.7627946808156678
-0.0676717758178711,1.3436052799224854,-0.245151475071907,0.2423069924116134,0.23257577419281,0.1720500737428665,0.0,0.0,0.5777461834604514,0.9699536793660088
-0.0700324028730392,1.3498713970184326,-0.2423580437898636,0.2774847745895386,0.2389643639326095,0.1277718544006347,0.0,0.0,0.0505253508862606,0.8168917323920326
-0.0724892616271972,1.3567590713500977,-0.2500234246253967,0.3054069280624389,0.2433796972036361,0.0883063599467277,0.0,0.0,-0.9963774681091307,-0.5263826847076416
-0.074940487742424,1.3635321855545044,-0.2499931156635284,0.3002133667469024,0.2483368963003158,0.0991436913609504,0.0,0.0,-0.9916335940361024,-0.6112462282180786
-0.0773916244506836,1.3701825141906738,-0.2506920099258423,0.294613242149353,0.2540248334407806,0.1137586236000061,0.0,0.0,-0.99937641620636,0.2600650787353515
-0.0798038467764854,1.3767313957214355,-0.2464881390333175,0.2901383936405182,0.2593956887722015,0.1074171811342239,0.0,0.0,-0.9942675828933716,-0.0252470970153808
-0.0821765884757042,1.3831785917282104,-0.2422120124101638,0.2856641709804535,0.2644435167312622,0.100955806672573,0.0,0.0,-0.9979199171066284,-0.2314807176589965
-0.0845090895891189,1.3895243406295776,-0.2378676235675811,0.2811905145645141,0.2691625654697418,0.0943810492753982,0.0,0.0,-0.9997071027755736,-0.3543938398361206
-0.0868009552359581,1.395768165588379,-0.2334589660167694,0.2767172753810882,0.2735475301742553,0.0876995325088501,0.0,0.0,-0.999209761619568,-0.4181296825408935
-0.0890513435006141,1.401910424232483,-0.2289899289608001,0.2722445428371429,0.2775934338569641,0.0809181258082389,0.0,0.0,-0.9959396719932556,-0.0973401069641113
-0.0912599563598632,1.4079508781433103,-0.2244640886783599,0.2677722871303558,0.2812956273555755,0.0740437731146812,0.0,0.0,-0.997339963912964,-0.8110920190811157
-0.0934892669320106,1.4138596057891846,-0.2278548181056976,0.261656790971756,0.286355584859848,0.1011999621987342,0.0,0.0,-0.9946784377098083,-0.6144163012504578
-0.0957111343741417,1.4196510314941406,-0.2276827096939087,0.2563015222549438,0.2920141518115997,0.1131716221570968,0.0,0.0,-0.9973975419998168,-0.527258574962616
-0.0979340523481369,1.4253244400024414,-0.2285691201686859,0.2508770525455475,0.2984875440597534,0.1294685304164886,0.0,0.0,-0.9989078044891356,-0.6424052119255066
-0.1001522094011306,1.430874586105347,-0.2287712544202804,0.2452274709939956,0.3056753575801849,0.1437564194202423,0.0,0.0,-0.9963676929473876,-0.1870195865631103
-0.1023263931274414,1.4363230466842651,-0.2240091264247894,0.2407536059617996,0.3125016987323761,0.1365267187356948,0.0,0.0,-0.997843325138092,-0.7760522961616516
-0.104499340057373,1.4416459798812866,-0.2246710360050201,0.2349673062562942,0.3201576173305511,0.1531181931495666,0.0,0.0,-0.9897658228874208,-0.0167032480239868
-0.1066276580095291,1.4468672275543213,-0.2198349237442016,0.2304934412240982,0.3274475932121277,0.1457996070384979,0.0,0.0,-0.993948221206665,-0.5117020606994629
-0.108744241297245,1.4519749879837036,-0.2191286534070968,0.2252985090017318,0.3352469503879547,0.1559871733188629,0.0,0.0,-0.9982486367225648,-0.6570183038711548
-0.1108536720275878,1.4569640159606934,-0.2190387696027755,0.2198333740234375,0.3437103629112243,0.1692688912153244,0.0,0.0,-0.9933624267578124,-0.0360243320465087
-0.1129177063703537,1.4618515968322754,-0.2141097038984298,0.2153592854738235,0.3518041372299194,0.1618763655424118,0.0,0.0,-0.9260606169700624,-0.7306824326515198
-0.1149980574846267,1.4666101932525637,-0.2169781029224395,0.2092733085155487,0.3612085580825805,0.1880882084369659,0.0,0.0,-0.980128824710846,-0.5184585452079773
-0.1170663833618164,1.4712432622909546,-0.2163019180297851,0.2035004794597625,0.3712227642536163,0.200284719467163,0.0,0.0,-0.9145057797431946,-0.3379998207092285
-0.1190883666276931,1.475775122642517,-0.2112980335950851,0.1990250200033188,0.3808673620223999,0.1928922235965728,0.0,0.0,-0.972832441329956,-0.3868754506111145
-0.1210639029741287,1.4802054166793823,-0.2062737047672271,0.1945504397153854,0.3901431858539581,0.1855170726776123,0.0,0.0,-0.9312827587127686,-0.4287879467010498
-0.1229928955435752,1.4845341444015503,-0.2012306004762649,0.1900766193866729,0.3990515470504761,0.1781678348779678,0.0,0.0,-0.9741746187210084,-0.1454931497573852
-0.1248748749494552,1.4887611865997314,-0.196170300245285,0.1856035590171814,0.4075942039489746,0.1708531826734542,0.0,0.0,-0.9704834818840028,-0.3096287846565246
-0.1267099380493164,1.492886304855347,-0.1910943686962127,0.1811311542987823,0.4157733023166656,0.163581982254982,0.0,0.0,-0.9424517154693604,-0.7128093242645264
-0.128549188375473,1.49688458442688,-0.1924773156642913,0.1751579642295837,0.4250061810016632,0.1846575886011123,0.0,0.0,-0.9481980800628662,-0.2735804319381714
-0.1303411424160003,1.5007811784744265,-0.1873732060194015,0.1706849634647369,0.4338811635971069,0.1775003969669342,0.0,0.0,-0.9579976797103882,-0.2019758820533752
-0.1320854127407074,1.5045759677886963,-0.1822576820850372,0.166212573647499,0.4424018561840057,0.1704145520925521,0.0,0.0,-0.9422447681427002,-0.383782148361206
-0.1337821930646896,1.5082688331604004,-0.1771320253610611,0.1617407947778701,0.4505723416805267,0.1634096205234527,0.0,0.0,-0.9505393505096436,-0.5258949398994446
-0.135474294424057,1.5118305683135986,-0.1774850189685821,0.1556081175804138,0.4596596360206604,0.1817460805177688,0.0,0.0,-0.9424511194229126,-0.4545906186103821
-0.1371183395385742,1.5152907371520996,-0.1723415553569793,0.1511357128620147,0.4684062004089355,0.1749321520328521,0.0,0.0,-0.9632247686386108,0.0517306327819824
-0.13871431350708,1.5186487436294556,-0.1671915352344513,0.1466638296842575,0.476817637681961,0.1682291328907013,0.0,0.0,-0.976803719997406,-0.2959168553352356
-0.1402621269226074,1.5219049453735352,-0.1620360910892486,0.1421923637390136,0.4848999977111816,0.1616473495960235,0.0,0.0,-0.9635950922966005,-0.3064485788345337
-0.1417614966630935,1.5250591039657593,-0.1568762958049774,0.1377212703227996,0.4926598668098449,0.1551972329616546,0.0,0.0,-0.9910865426063538,0.3098901510238647
-0.1432123184204101,1.5281109809875488,-0.1517132371664047,0.1332504749298095,0.5001043677330017,0.1488894820213318,0.0,0.0,-0.9796268343925476,-0.5192993879318237
-0.1446501761674881,1.531025767326355,-0.1511527448892593,0.1268400251865387,0.5084019899368286,0.1659517586231231,0.0,0.0,-0.965039074420929,-0.3789404630661011
-0.1460393965244293,1.5338387489318848,-0.1459851562976837,0.1223683357238769,0.5164000988006592,0.1599617153406143,0.0,0.0,-0.9317208528518676,-0.5884096026420593
-0.1474165022373199,1.5365253686904907,-0.1454222202301025,0.1164540722966194,0.5251783132553101,0.1755637228488922,0.0,0.0,-0.989528238773346,-0.0493090152740478
-0.1487447768449783,1.5391100645065308,-0.1402543038129806,0.1119814440608024,0.5336751937866211,0.1699371039867401,0.0,0.0,-0.9523149728775024,-0.3997263312339782
-0.1500240266323089,1.541593074798584,-0.1350883245468139,0.1075089499354362,0.541900634765625,0.1645099073648452,0.0,0.0,-0.9619880318641664,-0.8057793974876404
-0.1513070166110992,1.5439351797103882,-0.1365779191255569,0.1007396057248115,0.5514539480209351,0.1910662502050399,0.0,0.0,-0.9247540831565856,0.2225953340530395
-0.1525410711765289,1.546175479888916,-0.1314171701669693,0.0962651818990707,0.5607576370239258,0.1860733330249786,0.0,0.0,-0.9921540021896362,0.0942834615707397
-0.1537260115146637,1.5483145713806152,-0.1262615770101547,0.0917907804250717,0.5698234438896179,0.181316077709198,0.0,0.0,-0.97862708568573,-0.2758292555809021
-0.1548618376255035,1.5503520965576172,-0.1211122423410415,0.0873163193464279,0.5786637663841248,0.1768064945936203,0.0,0.0,-0.9008936285972596,-0.5128808617591858
-0.1559771597385406,1.5522602796554563,-0.1196269392967224,0.0812541022896766,0.5882326364517212,0.1913775503635406,0.0,0.0,-0.9132071733474731,-0.0497529506683349
-0.1570431739091873,1.5540671348571775,-0.1144923418760299,0.0767780914902687,0.5976026058197021,0.1873996555805206,0.0,0.0,-0.8471400141716003,-0.5064844489097595
-0.158086210489273,1.5557420253753662,-0.1127534136176109,0.0705659911036491,0.6077175140380859,0.2022983282804489,0.0,0.0,-0.8723536729812622,-0.412293791770935
-0.1590801179409027,1.557315707206726,-0.1076383963227272,0.0660882070660591,0.6176626086235046,0.1989007890224456,0.0,0.0,-0.981217920780182,-0.4930799603462219
-0.1600248366594314,1.558788537979126,-0.1025357469916343,0.0616100691258907,0.6274532079696655,0.1958116441965103,0.0,0.0,-0.9756513833999634,-0.3120067119598388
-0.1609203368425369,1.5601603984832764,-0.0974468812346458,0.0571315065026283,0.6371053457260132,0.193042367696762,0.0,0.0,-0.95685076713562,-0.2074102759361267
-0.1617666184902191,1.561431884765625,-0.0923732593655586,0.0526524372398853,0.6466355323791504,0.1906042695045471,0.0,0.0,-0.9264873266220092,-0.3754557371139526
-0.1625638008117675,1.5626025199890137,-0.0873164311051368,0.0481727831065654,0.6560609340667725,0.1885083317756652,0.0,0.0,-0.9920753836631776,-0.1944794058799743
-0.1633117645978927,1.5636723041534424,-0.0822780579328537,0.0436924695968627,0.6653991937637329,0.1867650151252746,0.0,0.0,-0.9735196828842164,-0.2611401081085205
-0.164010614156723,1.5646419525146484,-0.0772598981857299,0.0392114147543907,0.6746684312820435,0.1853844225406646,0.0,0.0,-0.9854249358177184,-0.1012221574783325
-0.1646604537963867,1.5655111074447632,-0.0722638294100761,0.0347295552492141,0.683887243270874,0.1843760460615158,0.0,0.0,-0.991378366947174,-0.3390610218048095
-0.1652613580226898,1.5662801265716553,-0.0672918707132339,0.0302468258887529,0.6930747628211975,0.1837487369775772,0.0,0.0,-0.961890697479248,-0.2284649610519409
-0.1658134460449218,1.5669492483139038,-0.0623461715877056,0.0257631484419107,0.7022502422332764,0.1835106909275055,0.0,0.0,-0.9949530363082886,-0.0518965721130371
-0.1663168966770172,1.5675185918807983,-0.057429052889347,0.0212784614413976,0.7114336490631104,0.1836692541837692,0.0,0.0,-0.9913089275360109,0.0202659368515014
-0.1667718887329101,1.567988038063049,-0.052543006837368,0.016792694106698,0.7206451892852783,0.1842310428619384,0.0,0.0,-0.9909211993217468,-0.0207459330558776
-0.1671785414218902,1.568358302116394,-0.0476907268166542,0.0123057914897799,0.7299052476882935,0.1852017343044281,0.0,0.0,-0.9518897533416748,-0.0308785438537597
-0.167537122964859,1.568629026412964,-0.0428750999271869,0.0078176893293857,0.7392345666885376,0.1865860670804977,0.0,0.0,-0.954024851322174,-0.2598769664764404
-0.1678477227687835,1.568800926208496,-0.0380992516875267,0.0033283333759754,0.7486539483070374,0.1883877664804458,0.0,0.0,-0.6288073062896729,-0.2669103145599365
-0.1681109368801117,1.5688735246658323,-0.0333665497601032,-0.001162331434898,0.7581844329833984,0.1906094998121261,0.0,0.0,-0.9753947854042052,0.214216947555542
-0.1683268547058105,1.5688477754592896,-0.0286806337535381,-0.0056543569080531,0.7678470611572266,0.1932529509067535,0.0,0.0,-0.9021102786064148,-0.1968020796775818
-0.1684960424900055,1.5687233209609983,-0.024045443162322,-0.0101477932184934,0.777662992477417,0.1963187307119369,0.0,0.0,-0.9530235528945924,-0.1885884404182434
-0.168618768453598,1.5685008764266968,-0.0194652173668146,-0.0146426856517791,0.7876533269882202,0.199806272983551,0.0,0.0,-0.8381373882293701,-0.0698606371879577
-0.1686957329511642,1.5681804418563845,-0.01494453381747,-0.0191390812397003,0.7978390455245972,0.203713983297348,0.0,0.0,-0.6623781323432922,-0.1522131562232971
-0.168727308511734,1.5677621364593506,-0.0104883257299661,-0.0236370172351598,0.8082410097122192,0.2080392390489578,0.0,0.0,-0.959687113761902,-0.223785400390625
-0.168714240193367,1.567246437072754,-0.0061019007116556,-0.0281365383416414,0.8188799023628235,0.2127783000469207,0.0,0.0,-0.9867362380027772,0.1659697294235229
-0.1686571091413498,1.566633701324463,-0.0017909724265336,-0.032637670636177,0.8297762274742126,0.2179265767335891,0.0,0.0,-0.8836723566055298,-0.1774861812591552
-0.1685566008090973,1.5659236907958984,0.0024383342824876,-0.0371404625475406,0.8409501314163208,0.2234783172607422,0.0,0.0,-0.9283530712127686,-0.5063565373420715
-0.1684350073337555,1.5650781393051147,0.0037900663446635,-0.0438918732106685,0.8534263968467712,0.2495248764753341,0.0,0.0,-0.9032713174819946,0.4614014625549316
-0.16827192902565,1.5641363859176636,0.00783830601722,-0.0483993962407112,0.8662195801734924,0.2558631002902984,0.0,0.0,-0.9890892505645752,0.0191538333892822
-0.1680684983730316,0.0,0.011784030124545,-0.0529086701571941,0.8793487548828125,0.2625831663608551,0.0,0.0,-0.98617285490036,0.2912743091583252
-0.1678257882595062,1.5619655847549438,0.0156193356961011,-0.0574197210371494,0.8928325772285461,0.2696762979030609,0.0,0.0,-0.980912446975708,0.4086353778839111
-0.1675450354814529,1.560737133026123,0.0193358734250068,-0.0619325675070285,0.90668922662735,0.2771330773830414,0.0,0.0,-0.9348726272583008,0.3562929630279541
-999.0,1.5594134330749512,0.022924855351448,-0.0664472207427024,0.9209363460540771,0.2849435210227966,0.0,0.0,-0.7913254499435425,0.5040831565856934
-0.166848748922348,1.5580494403839111,0.0297919753938913,-0.0678031519055366,0.9342272877693176,0.2658184170722961,0.0,0.0,-0.9854995608329772,0.2042043209075927
-0.1664359122514724,1.556590557098389,0.0330940037965774,-0.0723195150494575,0.9479424953460692,0.2743050158023834,0.0,0.0,-0.989554762840271,0.2811274528503418
-0.1659905463457107,1.5550373792648315,0.0362396016716957,-0.0768376663327217,0.9620981216430664,0.283112496137619,0.0,0.0,-0.9107436537742616,0.6664097309112549
