x_pos,y_pos,x_vel,y_vel,angle,ang_vel,leg_1,leg_2,main_booster,lat_booster
-0.0016026496887207,1.403246521949768,-0.16275455057621,-0.3410500288009643,0.0022310956846922,0.0440449193120002,0.0,0.0,0.5677170669353973,-0.8267330826226833
-0.0032973289489746,1.395870804786682,-0.1738217025995254,-0.3278247117996216,0.006544976029545,0.0862862542271614,0.0,0.0,0.7247991567291427,0.9374423986738534
-0.0048472406342625,1.3887447118759155,-0.1581499874591827,-0.3167327642440796,0.0096715679392218,0.0625376850366592,0.0,0.0,0.2743824226469764,-0.8853905426085248
-0.0066590309143066,1.3818132877349854,-0.1864354461431503,-0.3080992400646209,0.0148657392710447,0.1038931831717491,0.0,0.0,0.224020522047694,0.8264853485235821
-0.0083877565339207,1.3752355575561523,-0.1769879609346389,-0.2923950850963592,0.018943989649415,0.0815720409154892,0.0,0.0,0.1587547253403756,0.732546236523901
-0.0100415227934718,1.3688548803329468,-0.1685845702886581,-0.2836289703845978,0.0221179574728012,0.0634852051734924,0.0,0.0,0.7652601199073494,-0.8621788225834693
-0.0118891717866063,1.3630186319351196,-0.1900632828474044,-0.2594709396362304,0.0273637808859348,0.1049260273575782,0.0,0.0,-0.5030499522866467,0.8517580002894454
-0.0137396808713674,1.3568108081817627,-0.1886508613824844,-0.2759765982627868,0.0309215933084487,0.0711628049612045,0.0,0.0,0.3649498447136388,-0.6454328464216195
-0.0157606117427349,1.3512661457061768,-0.2073896825313568,-0.2465476095676422,0.0361558943986892,0.1046957746148109,0.0,0.0,0.4180281132408543,-0.784489049498471
-0.0179546363651752,1.346280217170715,-0.2266841232776641,-0.2217932045459747,0.0433625988662242,0.1441473066806793,0.0,0.0,0.9785122394195404,0.873826983299508
-0.0200861934572458,1.3419963121414185,-0.219359278678894,-0.1905888617038726,0.0495001375675201,0.1227621883153915,0.0,0.0,-0.886288713041647,-0.8097268609397226
-0.0223628990352153,1.337329387664795,-0.2357349693775177,-0.2077053040266037,0.0574797578155994,0.1596068739891052,0.0,0.0,0.4219266209245684,0.7217515376046265
-0.0245828628540039,1.3332066535949707,-0.229254812002182,-0.1835344433784485,0.0646705403923988,0.1438290178775787,0.0,0.0,-0.6221619640979936,-0.6313323020437602
-0.0269364360719919,1.3286964893341064,-0.2441673278808593,-0.2008470892906189,0.0733987763524055,0.1745806485414505,0.0,0.0,0.7476006032133793,0.8319942472474776
-0.029215145856142,1.325148344039917,-0.2357579916715622,-0.1581002026796341,0.081214353442192,0.1563256680965423,0.0,0.0,0.9299828282320036,-0.9621534291110238
-0.0315464027225971,1.3217394351959229,-0.243620365858078,-0.1521070301532745,0.0916283428668975,0.2082985341548919,0.0,0.0,0.8270424045728979,0.9111276193512804
-0.0338163375854492,1.319411039352417,-0.2363827675580978,-0.1040839850902557,0.1009549647569656,0.1865492761135101,0.0,0.0,-0.6924898133807438,-0.8851058394156971
-0.0362302772700786,1.3166908025741575,-0.2525593936443329,-0.1216871812939643,0.1120599955320358,0.2221204340457916,0.0,0.0,0.1116073660574319,-0.642358774334107
-0.0387742035090923,1.3144103288650513,-0.2673613429069519,-0.1023814976215362,0.1249709874391555,0.2582429945468902,0.0,0.0,-0.1206479900120922,-0.6262440594038302
-0.0414658561348915,1.3117440938949585,-0.2839700281620025,-0.119805984199047,0.1397279798984527,0.2951667904853821,0.0,0.0,0.3412111636018751,0.7504225983840774
-0.0441618934273719,1.3096520900726318,-0.283474326133728,-0.0943374335765838,0.153580367565155,0.2770729660987854,0.0,0.0,-0.2558338083726175,0.9740706288852854
-0.0468726158142089,1.3071976900100708,-0.2833556532859802,-0.1104063242673873,0.1658827662467956,0.246069997549057,0.0,0.0,0.0671753841728859,-0.7913951819560217
-0.0496996864676475,1.3048962354660034,-0.2970325350761413,-0.1039462313055992,0.1802515238523483,0.2874008119106293,0.0,0.0,-0.9210485608466644,-0.6089418829534244
-0.0526609420776367,1.3022024631500244,-0.3119164705276489,-0.1217127367854118,0.1961350291967392,0.3176988363265991,0.0,0.0,-0.9833216419675,-0.8228754659451831
-0.0557948127388954,1.2991145849227903,-0.3315749764442444,-0.1397564709186554,0.2144918590784073,0.3671695590019226,0.0,0.0,-0.4995079225821006,0.8599328485015877
-0.0589696876704692,1.2956538200378418,-0.3347507417201996,-0.1564136892557144,0.231967493891716,0.3495124280452728,0.0,0.0,-0.0477628007837673,0.6090446861802747
-0.0621914863586425,1.291840672492981,-0.3385863304138183,-0.172147199511528,0.2486388534307479,0.3334271013736725,0.0,0.0,-0.9628167114079624,0.9129766109272828
-0.0654536262154579,1.2876843214035034,-0.3415699601173401,-0.1874029636383056,0.2642917931079864,0.3130594193935394,0.0,0.0,0.0198158961694949,0.7287373342533067
-0.0689697265625,1.2838387489318848,-0.3658204674720764,-0.1735520660877227,0.2788445353507995,0.2910553216934204,0.0,0.0,0.6896443198051319,0.6503020918034387
-0.072689339518547,1.280347228050232,-0.3852006196975708,-0.1577537059783935,0.2924601137638092,0.2723121047019958,0.0,0.0,-0.4285224103241145,0.7193180113345107
-0.07644834369421,1.2765148878097534,-0.3880327343940735,-0.172815054655075,0.3049925863742828,0.2506492137908935,0.0,0.0,0.2851228132566996,-0.7373202885221839
-0.080522820353508,1.2727354764938354,-0.4213117063045501,-0.1709525138139724,0.319376140832901,0.287670761346817,0.0,0.0,-0.4252549455375745,-0.6738723756538116
-0.0847497954964637,1.2685604095458984,-0.4384094178676605,-0.1891045719385147,0.3357468247413635,0.3274132907390594,0.0,0.0,-0.6831917994789896,-0.6390626121692914
-0.0891222953796386,1.2639801502227783,-0.4546488225460052,-0.2077218443155288,0.3539990484714508,0.3650445342063904,0.0,0.0,-0.8814418070792538,-0.7875738651676718
-0.0936461463570594,1.2589988708496094,-0.4715617299079895,-0.2262497395277023,0.3742495775222778,0.4050105512142181,0.0,0.0,0.038720815330852,0.8059232167451196
-0.0983686447143554,1.2543578147888184,-0.4901225566864013,-0.2110583335161209,0.393262505531311,0.380258560180664,0.0,0.0,0.7501297668113462,-0.970541879371043
-0.1034686118364334,1.249948263168335,-0.5299481749534607,-0.2016508728265762,0.4146705269813537,0.4281604886054992,0.0,0.0,-0.4066059195092684,-0.6959008895773897
-0.1087120994925499,1.2451430559158323,-0.5457378625869751,-0.2200206667184829,0.4378466010093689,0.4635210931301117,0.0,0.0,-0.3959376121148688,0.7920675461555114
-0.1140010803937912,1.2400131225585938,-0.5490247011184692,-0.2344393730163574,0.45988929271698,0.4408546090126037,0.0,0.0,0.8821498196762794,0.7685092805753311
-0.1196076422929763,1.2355083227157593,-0.5795696973800659,-0.2066045701503753,0.4808153808116913,0.4185211062431335,0.0,0.0,-0.1659509438177371,0.7720299496607719
-0.1252675056457519,1.2306731939315796,-0.5838630795478821,-0.2212470322847366,0.5008143782615662,0.3999814093112945,0.0,0.0,-0.9591228365898132,0.9812426567077636
-0.1309405267238617,1.2255314588546753,-0.5831636190414429,-0.2344138920307159,0.518737256526947,0.3584575653076172,0.0,0.0,-0.9920920729637146,0.9692273139953612
-0.1366282403469085,1.2200740575790403,-0.5827678442001343,-0.2479663789272308,0.5347057580947876,0.3193698227405548,0.0,0.0,-0.9810484647750854,0.9890737533569336
-0.1423324644565582,1.2143110036849976,-0.5825091600418091,-0.2609843313694,0.5486392974853516,0.2786703705787658,0.0,0.0,-0.9728220105171204,0.9763213396072388
-0.1480659544467926,1.2082204818725586,-0.5840416550636292,-0.2751048505306244,0.561058521270752,0.2483850270509719,0.0,0.0,-0.9545534253120422,0.9699109792709352
-0.1538206040859222,1.2018128633499146,-0.5845471024513245,-0.2886206209659576,0.5716675519943237,0.2121805399656295,0.0,0.0,-0.9617354869842528,0.961220383644104
-0.1595974862575531,1.1950937509536743,-0.5851343274116516,-0.3018427193164825,0.58041912317276,0.1750319451093673,0.0,0.0,-0.9838688969612122,0.9855519533157348
-0.1654194891452789,1.1880605220794678,-0.5884669423103333,-0.3153540790081024,0.5878310203552246,0.1482381671667099,0.0,0.0,-0.9712940454483032,0.9537255764007568
-0.171289637684822,1.180707573890686,-0.5922176241874695,-0.3291265070438385,0.594025194644928,0.1238831877708435,0.0,0.0,-0.984818696975708,0.9827630519866944
-0.177190214395523,1.1730395555496216,-0.5938700437545776,-0.342529296875,0.5985739231109619,0.0909744724631309,0.0,0.0,-0.9147282838821412,0.921699047088623
-0.183109849691391,1.1650712490081787,-0.5940321087837219,-0.3550899624824524,0.6010507345199585,0.0495356246829032,0.0,0.0,-0.98486989736557,0.9158835411071776
-0.1890708953142166,1.156787395477295,-0.5969906449317932,-0.3685742616653442,0.6021141409873962,0.0212675854563713,0.0,0.0,-0.99528306722641,0.9477567672729492
-0.1950499564409256,1.148198127746582,-0.5971068739891052,-0.3813762664794922,0.6011494994163513,-0.0192926451563835,0.0,0.0,-0.972668707370758,0.960789918899536
-0.2010622471570968,1.1393046379089355,-0.5989789366722107,-0.3942419290542602,0.5984604954719543,-0.0537808761000633,0.0,0.0,-0.986633837223053,0.7291996479034424
-0.2071063965559005,1.1300935745239258,-0.6008283495903015,-0.4077591001987457,0.5941839218139648,-0.0855316892266273,0.0,0.0,-0.9804701209068298,0.8937959671020508
-0.2131915986537933,1.1205532550811768,-0.6038718223571777,-0.4219293892383575,0.5886574387550354,-0.1105295047163963,0.0,0.0,-0.987341284751892,0.8172610998153687
-0.2193092405796051,1.1107054948806765,-0.6056786775588989,-0.4349872171878814,0.581442654132843,-0.1442951709032058,0.0,0.0,-0.972470998764038,0.5246784687042236
-0.2254763096570968,1.1005260944366455,-0.6096964478492737,-0.4493758380413055,0.5731892585754395,-0.1650683879852295,0.0,0.0,-0.9788110256195068,0.6531732082366943
-0.2316879332065582,1.0900239944458008,-0.6130532026290894,-0.4633010625839233,0.5636933445930481,-0.1899179071187973,0.0,0.0,-0.9051095843315125,0.560631513595581
-0.2379587143659591,1.0791820287704468,-0.6183055639266968,-0.4782004356384277,0.5534763336181641,-0.2043403387069702,0.0,0.0,-0.9720246195793152,0.3334794044494629
-0.2443186789751052,1.0679655075073242,-0.6274441480636597,-0.4950199723243713,0.5435850024223328,-0.1978269666433334,0.0,0.0,-0.964438796043396,0.6175023317337036
-0.2507339417934418,1.056408405303955,-0.6322484016418457,-0.5099508166313171,0.5329087376594543,-0.2135251313447952,0.0,0.0,-0.9348435401916504,-0.0542455315589904
-0.2572372555732727,1.0444765090942385,-0.641255259513855,-0.5267698168754578,0.5225384831428528,-0.2074051201343536,0.0,0.0,-0.9481134414672852,0.2996809482574463
-0.2638278007507324,1.0321699380874634,-0.6501885652542114,-0.5435878038406372,0.5124631524085999,-0.2015061825513839,0.0,0.0,-0.9086496829986572,0.558802604675293
-0.2704650461673736,1.019517421722412,-0.654000997543335,-0.5587248206138611,0.501479983329773,-0.2196628153324127,0.0,0.0,-0.8768275380134583,0.8162622451782227
-0.2771438956260681,1.0065271854400637,-0.6571263074874878,-0.5734574794769287,0.4893980324268341,-0.2416389286518097,0.0,0.0,-0.9043530821800232,0.6224524974822998
-0.2838658690452575,0.9932044148445128,-0.66036456823349,-0.5879818201065063,0.4762049913406372,-0.2638605535030365,0.0,0.0,-0.8548516631126404,0.8682626485824585
-0.290600448846817,0.9795513153076172,-0.6598976850509644,-0.6022138595581055,0.4611985683441162,-0.3001284897327423,0.0,0.0,-0.6784847974777222,0.6567196846008301
-0.2973728775978088,0.9655673503875732,-0.662466824054718,-0.6167097687721252,0.4449721872806549,-0.3245275616645813,0.0,0.0,-0.637118935585022,0.9007697105407716
-0.3041730523109436,0.9512447714805604,-0.6638693809509277,-0.6315246820449829,0.4273769557476043,-0.3519045114517212,0.0,0.0,-0.0502708554267883,0.8811434507369995
-0.3110027313232422,0.9365891814231871,-0.6654195785522461,-0.6461522579193115,0.4084182977676391,-0.3791729509830475,0.0,0.0,-0.0871527791023254,0.827660083770752
-0.3178507685661316,0.9216034412384032,-0.6655905246734619,-0.6606302857398987,0.3878319859504699,-0.4117262959480285,0.0,0.0,-0.4054230451583862,0.9674420356750488
-0.3247258067131042,0.9062901139259338,-0.6667807102203369,-0.675114095211029,0.3658206462860107,-0.4402276575565338,0.0,0.0,-0.107246458530426,0.9327659606933594
-0.3316022753715515,0.8906500339508057,-0.6648239493370056,-0.6894733905792236,0.3417969048023224,-0.4804756045341491,0.0,0.0,0.2901129722595215,0.874698281288147
-0.3386198580265045,0.8750849366188049,-0.6771248579025269,-0.6861513257026672,0.3160881400108337,-0.5141751170158386,0.0,0.0,0.1728430986404419,0.7544777393341064
-0.3456739485263824,0.8595259785652161,-0.6792303323745728,-0.6860367059707642,0.2889986634254455,-0.5417903661727905,0.0,0.0,-0.1512955427169799,0.3916354179382324
-0.352801501750946,0.8435986638069153,-0.686436116695404,-0.7028951644897461,0.2619886994361877,-0.5401990413665771,0.0,0.0,0.2554877996444702,0.6753602027893066
-0.3601132035255432,0.8282005190849304,-0.7033469676971436,-0.6796398162841797,0.2336545288562774,-0.5666838884353638,0.0,0.0,-0.0991013050079345,0.7945629358291626
-0.3674264550209045,0.8124679923057556,-0.701551079750061,-0.6947801113128662,0.2035361975431442,-0.6023672223091125,0.0,0.0,0.1016522645950317,0.7083725929260254
-0.3749468326568603,0.7971688508987427,-0.720586895942688,-0.6759482026100159,0.1719250380992889,-0.6322237849235535,0.0,0.0,0.3659943342208862,0.3960280418395996
-0.3826843202114105,0.781882107257843,-0.7416192293167114,-0.6760029196739197,0.1398153305053711,-0.6421946287155151,0.0,0.0,-0.2795191407203674,0.8995192050933838
-0.3904096484184265,0.766255795955658,-0.7382983565330505,-0.6916468143463135,0.1057585477828979,-0.6811363697052002,0.0,0.0,0.4447662830352783,0.9053840637207032
-0.3982764184474945,0.7510138154029846,-0.7503418326377869,-0.6752479076385498,0.0697451457381248,-0.7202689051628113,0.0,0.0,0.285138726234436,0.9756299257278442
-0.4062091708183288,0.736207902431488,-0.754788339138031,-0.6566867232322693,0.0317029245197773,-0.7608452439308167,0.0,0.0,0.8624966144561768,0.5820275545120239
-0.4141884744167328,0.7222303748130798,-0.7581015229225159,-0.6208536624908447,-0.0076208654791116,-0.7864765524864197,0.0,0.0,0.707027792930603,0.5308971405029297
-0.4220747947692871,0.708795964717865,-0.7478985786437988,-0.5977770090103149,-0.0478397160768508,-0.8043777346611023,0.0,0.0,0.7975308895111084,0.9500521421432496
-0.4298857152462005,0.6955475807189941,-0.7384554147720337,-0.5907174944877625,-0.0900272727012634,-0.843752384185791,0.0,0.0,0.954587697982788,0.9549262523651124
-0.4375002384185791,0.6826242208480835,-0.7171231508255005,-0.5776296257972717,-0.1340448558330536,-0.8803524971008301,0.0,0.0,0.9960148334503174,0.7213406562805176
-0.4448138177394867,0.670324981212616,-0.6861664652824402,-0.5513221621513367,-0.1791898310184478,-0.9029008150100708,0.0,0.0,0.990729570388794,0.4804185628890991
-0.4519108831882477,0.6583308577537537,-0.6654805541038513,-0.5390201210975647,-0.2237301915884018,-0.8908084630966187,0.0,0.0,0.9602243900299072,0.203147292137146
-0.4588460028171539,0.6472913026809692,-0.6495042443275452,-0.4979473650455475,-0.2684901058673858,-0.8951995968818665,0.0,0.0,0.9264492988586426,0.4986550807952881
-0.46553635597229,0.6371650099754333,-0.6255325078964233,-0.4586677849292755,-0.3132868409156799,-0.8959357142448425,0.0,0.0,0.9798773527145386,-0.1143276691436767
-0.4718586504459381,0.6277585029602051,-0.5897965431213379,-0.4278568625450134,-0.3576115369796753,-0.8864954113960266,0.0,0.0,0.9599606990814208,-0.7494498491287231
-0.4779971539974212,0.6184983849525452,-0.573602557182312,-0.4221766889095306,-0.4003432393074035,-0.8546345829963684,0.0,0.0,0.8446154594421387,-0.5744408369064331
-0.4840255379676819,0.6097306609153748,-0.5640140771865845,-0.4012199342250824,-0.4423016607761383,-0.8391693830490112,0.0,0.0,0.4984170198440552,-0.9854992628097534
-0.4897138178348541,0.6016709804534912,-0.5324543118476868,-0.3702270686626434,-0.4823804497718811,-0.8015766143798828,0.0,0.0,0.239723801612854,-0.5943974256515503
-0.4952661097049713,0.5938667058944702,-0.5204387307167053,-0.3595283627510071,-0.5215122103691101,-0.7826367020606995,0.0,0.0,0.1606267690658569,-0.5671179890632629
-0.5006600022315979,0.5865400433540344,-0.5060309171676636,-0.3389200866222381,-0.559870183467865,-0.7671610116958618,0.0,0.0,0.2699220180511474,-0.9206576347351074
-0.5057582855224609,0.5795344710350037,-0.4787036478519439,-0.3248456716537475,-0.5965186357498169,-0.7329692840576172,0.0,0.0,0.2513774633407593,-0.972903311252594
-0.5106284618377686,0.5729817152023315,-0.4581305980682373,-0.3047558665275574,-0.6313599944114685,-0.6968268156051636,0.0,0.0,-0.0067012310028076,-0.96405690908432
-0.5155531764030457,0.5661464333534241,-0.4659768640995025,-0.3171094059944153,-0.664116382598877,-0.6551281213760376,0.0,0.0,0.2116075754165649,-0.97515469789505
-0.5203157663345337,0.5594647526741028,-0.4518525004386902,-0.3100703656673431,-0.6950573921203613,-0.6188198924064636,0.0,0.0,0.5019361972808838,-0.9071314930915833
-0.5248556733131409,0.5532298684120178,-0.4313908517360687,-0.2900055348873138,-0.7244243025779724,-0.587337851524353,0.0,0.0,0.6912705898284912,-0.89531010389328
-0.5291998982429504,0.547467827796936,-0.4134700894355774,-0.268766701221466,-0.7523541450500488,-0.5585964322090149,0.0,0.0,0.8081314563751221,-0.905048370361328
-0.5329371690750122,0.5421431064605713,-0.3546647429466247,-0.2488296031951904,-0.7784094214439392,-0.521105170249939,0.0,0.0,0.8745326995849609,-0.9402107000350952
-0.5363537669181824,0.5368859767913818,-0.3243977427482605,-0.2452453672885894,-0.8026025295257568,-0.4838620722293854,0.0,0.0,0.8804047107696533,-0.903499722480774
-0.5390342473983765,0.532047688961029,-0.2525713145732879,-0.225927248597145,-0.8248176574707031,-0.4443025588989258,0.0,0.0,0.944133162498474,-0.993793487548828
-0.541079044342041,0.5278908610343933,-0.1906380951404571,-0.1949192136526107,-0.8451513648033142,-0.4066753983497619,0.0,0.0,0.6586595773696899,-0.9960245490074158
-0.5423842668533325,0.5241288542747498,-0.1183607950806617,-0.176499992609024,-0.8634245991706848,-0.3654642105102539,0.0,0.0,0.6613588333129883,-0.998604953289032
-0.5432022213935852,0.5205517411231995,-0.0711618512868881,-0.1673875153064727,-0.8797050714492798,-0.3256096243858337,0.0,0.0,-0.10569429397583,-0.9983349442481996
-0.5440238118171692,0.5166978240013123,-0.0729941874742508,-0.17876498401165,-0.8940078616142273,-0.2860556840896606,0.0,0.0,0.2062394618988037,-0.9991661906242372
-0.5443650484085083,0.5130452513694763,-0.0263294391334056,-0.168882668018341,-0.906384527683258,-0.2475338727235794,0.0,0.0,-0.569631814956665,-0.9999816417694092
-0.5447049140930176,0.5090947151184082,-0.0273108519613742,-0.1813171356916427,-0.9171360731124878,-0.215030625462532,0.0,0.0,0.4045577049255371,-0.9999647736549376
-0.5446985960006714,0.5054844617843628,0.0060372101143002,-0.1651957631111145,-0.925947904586792,-0.1762364357709884,0.0,0.0,0.0308785438537597,-0.9984464645385742
-0.5444915294647217,0.5019953846931458,0.0247996728867292,-0.1587195843458175,-0.9326951503753662,-0.1349448710680008,0.0,0.0,-0.3385045528411865,-0.9997976422309875
-0.5442807078361511,0.4982273578643799,0.0239172987639904,-0.1700303107500076,-0.9374112486839294,-0.0943217426538467,0.0,0.0,-0.1309126019477844,-0.9996023774147034
-0.5440610647201538,0.4941725730895996,0.0236787963658571,-0.1817777156829834,-0.9402823448181152,-0.057421825826168,0.0,0.0,-0.2816604375839233,-0.996189534664154
-0.543826699256897,0.4898107051849365,0.0243032630532979,-0.1946514397859573,-0.9417328238487244,-0.0290097892284393,0.0,0.0,-0.2986642122268677,-0.9958633780479432
-0.5435707569122314,0.4851546883583069,0.02552573941648,-0.2068715840578079,-0.9416135549545288,0.0023850095458328,0.0,0.0,0.1336679458618164,-0.9997438192367554
-0.5428365468978882,0.4806864857673645,0.072187528014183,-0.1974620670080185,-0.939550280570984,0.0412652865052223,0.0,0.0,0.0714585781097412,-0.9997574090957642
-0.5419009923934937,0.4760496318340301,0.0911960825324058,-0.2039389014244079,-0.935619294643402,0.0786197334527969,0.0,0.0,0.0908690690994262,-0.998766541481018
