x_pos,y_pos,x_vel,y_vel,angle,ang_vel,leg_1,leg_2,main_booster,lat_booster
-0.001506233238615,1.4031879901885986,-0.1527816206216812,-0.3436467051506042,0.0019329701317474,0.0381425693631172,0.0,0.0,-0.3041224765428434,0.9414565621556468
-0.0029142380226403,1.395038366317749,-0.1408421397209167,-0.3622060418128967,0.001967309275642,0.0006876669358462,0.0,0.0,0.0398398454313571,0.8797547837808113
-0.0041358945891261,1.3868273496627808,-0.1206268891692161,-0.3649340271949768,0.0004520525690168,-0.0303080938756465,0.0,0.0,0.298829147725451,0.585227726465064
-0.0053955079056322,1.378767013549805,-0.1232066377997398,-0.3582371771335602,-0.0022708585020154,-0.0544633269309997,0.0,0.0,-0.9912653522609108,-0.5900168894323392
-0.0066723823547363,1.3702723979949951,-0.1260277032852172,-0.3775482177734375,-0.003904748475179,-0.0326808169484138,0.0,0.0,0.335444022319318,0.7550583274009406
-0.0077439309097826,1.3619976043701172,-0.1043640747666359,-0.367775410413742,-0.0066732345148921,-0.0553747005760669,0.0,0.0,-0.5449526920275971,0.9879030389205614
-0.0087207797914743,1.353285789489746,-0.0931525230407714,-0.3872191607952118,-0.0111539345234632,-0.0896222814917564,0.0,0.0,0.0323050610470216,-0.97173458617639
-0.0096370698884129,1.3447461128234863,-0.0891757383942604,-0.3795531392097473,-0.0135716740041971,-0.0483592376112937,0.0,0.0,-0.4049719512846008,0.9158636253517805
-0.0104619022458791,1.335778832435608,-0.0784230977296829,-0.3985926508903503,-0.0175992418080568,-0.0805588513612747,0.0,0.0,-0.2542847442910125,0.8222419885064145
-0.0112013816833496,1.3263788223266602,-0.068394735455513,,-0.0230835620313882,-0.1096964851021766,0.0,0.0,-0.8796816187337437,0.5249347958812378
-0.0118724824860692,1.3165414333343506,-0.060529351234436,-0.4373281598091125,-0.0295881256461143,-0.1301032155752182,0.0,0.0,-0.1821339911622277,0.5903351151426637
-0.0124702453613281,1.306264877319336,-0.0520526878535747,-0.4569102823734283,-0.0372321642935276,-0.1528946906328201,0.0,0.0,-0.1623648505574997,-0.5317247180405709
-0.0130792614072561,1.2955570220947266,-0.0541826672852039,-0.476087749004364,-0.043881107121706,-0.1329910010099411,0.0,0.0,-0.9322353537898238,0.906441192107056
-0.0135872839018702,1.2843996286392212,-0.042222611606121,-0.49615478515625,-0.0523693189024925,-0.1697795689105987,0.0,0.0,0.359531728733278,-0.6669481874855074
-0.0139617919921875,1.2738237380981443,-0.030632147565484,-0.4702960848808288,-0.0591275244951248,-0.1351764500141143,0.0,0.0,0.1915681690989779,-0.8050462079221113
-0.0142750740051269,1.2631206512451172,-0.0263624098151922,-0.4758954644203186,-0.0640433132648468,-0.0983246117830276,0.0,0.0,-0.9031482552924404,-0.8850829893470784
-0.0146194454282522,1.2519967555999756,-0.0310247335582971,-0.4945462942123413,-0.0674358606338501,-0.0678568333387374,0.0,0.0,0.3586360312455943,0.6901978374262574
-0.0147371292114257,1.2408733367919922,-0.0073555656708776,-0.494588702917099,-0.071812517940998,-0.0875408500432968,0.0,0.0,-0.4818526309790139,-0.997270418464175
-0.014898014254868,1.2293294668197632,-0.0135128768160939,-0.5131763219833374,-0.0743595734238624,-0.0509455502033233,0.0,0.0,-0.9785995708772705,0.9221400498630852
-0.0149735454469919,1.2173418998718262,-0.0035478982608765,-0.5329831838607788,-0.0783335417509079,-0.0794867575168609,0.0,0.0,0.7764269943145194,0.6743468276357523
-0.0147618297487497,1.2061084508895874,0.0260018948465585,-0.4995355010032654,-0.0831290408968925,-0.0959185734391212,0.0,0.0,-0.3126557472837201,-0.9822746620107718
-0.0146038057282567,1.1944420337677002,0.018549058586359,-0.5186604857444763,-0.0858479961752891,-0.0543839149177074,0.0,0.0,-0.8320316083998636,0.8038662527925624
-0.0143462177366018,1.1823283433914185,0.0303025543689727,-0.5386558771133423,-0.0903536528348922,-0.0901216119527816,0.0,0.0,0.4292795529423061,0.5065732297274301
-0.0139369964599609,1.1701618432998655,0.0461460947990417,-0.5410572290420532,-0.0955462008714675,-0.1038599610328674,0.0,0.0,0.0721886458507297,-0.607122205723795
-0.0136158941313624,1.1582058668136597,0.0361059568822383,-0.5316344499588013,-0.0995117425918579,-0.0793178528547287,0.0,0.0,-0.8619074044600503,-0.7871761789941274
-0.0133500099182128,1.1458077430725098,0.0284587480127811,-0.5511541962623596,-0.1013698354363441,-0.037161611020565,0.0,0.0,0.0991327815871392,-0.6644990774855251
-0.0130615234375,1.133705973625183,0.0292200986295938,-0.5378842949867249,-0.1017424240708351,-0.00745190680027,0.0,0.0,0.8613090816500373,-0.6247107864665296
-0.0128616336733102,1.1225930452346802,0.0193688757717609,-0.4938648343086242,-0.1011231243610382,0.0123860444873571,0.0,0.0,-0.3324757497400006,-0.8326731236435142
-0.0127180097624659,1.1110626459121704,0.0115409502759575,-0.5122770667076111,-0.0983277931809425,0.055906556546688,0.0,0.0,-0.850163917684986,0.9604180928184024
-0.0124787334352731,1.0990811586380005,0.0228172596544027,-0.5324335694313049,-0.0972294062376022,0.0219681765884161,0.0,0.0,0.4370903858942592,-0.6814947830013103
-0.0121803283691406,1.087775707244873,0.0271803736686706,-0.5022995471954346,-0.0945858359336853,0.0528713688254356,0.0,0.0,-0.9670111536979676,-0.325040340423584
-0.0118588451296091,1.076033592224121,0.0293286554515361,-0.5216935873031616,-0.0917927846312522,0.0558609440922737,0.0,0.0,-0.9733585119247437,-0.6251612305641174
-0.0115699768066406,1.0638686418533323,0.024487268179655,-0.540396511554718,-0.0874332413077354,0.0871908888220787,0.0,0.0,-0.9509220719337464,0.3854457139968872
-0.0112580303102731,1.0512676239013672,0.0266425460577011,-0.559791624546051,-0.0829275995492935,0.090112879872322,0.0,0.0,-0.9593976140022278,-0.3625953793525696
-0.0109230997040867,1.0382301807403564,0.0288008600473403,-0.5791870355606079,-0.0782777816057205,0.0929964557290077,0.0,0.0,-0.7897263765335083,-0.167180061340332
-0.0105649949982762,1.0247564315795898,0.0309618897736072,-0.5985825061798096,-0.0734858736395835,0.0958380997180938,0.0,0.0,-0.975501537322998,0.0909388065338134
-0.0101840021088719,1.0108466148376465,0.0331253334879875,-0.6179782152175903,-0.0685541629791259,0.098634049296379,0.0,0.0,-0.9622354507446288,0.0934488773345947
-0.0097797391936182,0.9965007305145264,0.0352909006178379,-0.6373741030693054,-0.0634851604700088,0.1013801470398902,0.0,0.0,-0.9724059104919434,-0.008827269077301
-0.0093525890260934,0.9817185401916504,0.0374583229422569,-0.6567701697349548,-0.0582815706729888,0.1040719598531723,0.0,0.0,-0.8929163813591003,-0.0768736600875854
-0.0089023588225245,0.9665003418922424,0.0396273210644722,-0.6761664748191833,-0.0529463440179824,0.1067046672105789,0.0,0.0,-0.9651505947113036,0.1320295333862304
-0.0084290504455566,0.9508458375930786,0.041797649115324,-0.6955629587173462,-0.047482680529356,0.1092731207609176,0.0,0.0,-0.915940523147583,0.2978895902633667
-0.0079328538849949,0.934755563735962,0.0439690686762332,-0.7149595618247986,-0.04189408197999,0.1117717772722244,0.0,0.0,-0.8919912576675415,0.6749267578125
-0.0073519707657396,0.9182175993919371,0.0538968965411186,-0.7349051237106323,-0.037744864821434,0.0829844400286674,0.0,0.0,-0.9499810338020324,-0.1288295984268188
-0.0067481040023267,0.9012435674667358,0.0560698397457599,-0.7543008327484131,-0.0334785841405391,0.0853256583213806,0.0,0.0,-0.844190239906311,0.514310359954834
-0.0060834884643554,0.8838253617286682,0.0629892125725746,-0.7740737795829773,-0.0300544053316116,0.0684837028384208,0.0,0.0,-0.6091341376304626,-0.4273730516433716
-0.0053960802033543,0.8659707307815552,0.0651626363396644,-0.7934691309928894,-0.0265223588794469,0.0706408694386482,0.0,0.0,-0.7147680521011353,0.6870119571685791
-0.0046260831877589,0.8476735949516296,0.0748396068811416,-0.813164472579956,-0.0243928115814924,0.0425910837948322,0.0,0.0,-0.8601017594337463,-0.1636940240859985
-0.0038333893753588,0.8289403319358826,0.0770125463604927,-0.8325592279434204,-0.0221660435199737,0.0445351526141166,0.0,0.0,-0.852473795413971,-0.3315931558609009
-0.0030180930625647,0.8097706437110901,0.079184852540493,-0.8519540429115295,-0.0198479928076267,0.0463611632585525,0.0,0.0,-0.6366024017333984,0.4467588663101196
-0.0021801949478685,0.7901646494865417,0.0813562646508216,-0.8713489770889282,-0.0174449328333139,0.0480612032115459,0.0,0.0,-0.224742591381073,0.5099221467971802
-0.0012698173522949,0.7701208591461182,0.0897948816418647,-0.8908229470252991,-0.0162192303687334,0.0245140362530946,0.0,0.0,-0.3973196744918823,-0.6996212005615234
-0.0003975868166889,0.7496468424797058,0.0843588560819625,-0.9099279642105104,-0.0133977532386779,0.0564297139644622,0.0,0.0,0.1606185436248779,0.5087728500366211
0.0006254196050576,0.7291996479034424,0.1002305522561073,-0.9087489247322084,-0.0113528724759817,0.040897499769926,0.0,0.0,0.1750859022140503,-0.7538546919822693
0.001620101975277,0.7091750502586365,0.0958184674382209,-0.8899586200714111,-0.007750233169645,0.0720525532960891,0.0,0.0,-0.001218557357788,-0.1041797995567321
0.0026368140242993,0.688714325428009,0.0979808643460273,-0.909354329109192,-0.0040999129414558,0.073006547987461,0.0,0.0,0.5043517351150513,-0.7001581788063049
0.0035262107849121,0.6684587001800537,0.0839690417051315,-0.900240957736969,0.0008002073736861,0.0980025008320808,0.0,0.0,0.8694822788238525,0.1361967325210571
0.0045431135222315,0.649120032787323,0.0961962193250656,-0.8595095872879028,0.0062227710150182,0.1084513440728187,0.0,0.0,0.6372311115264893,0.298311710357666
0.0057143210433423,0.630349338054657,0.1109701246023178,-0.8342962265014648,0.0122992023825645,0.1215286999940872,0.0,0.0,-0.1163890361785888,-0.44161057472229
0.0069071771577,0.6111426949501038,0.1131184250116348,-0.853693962097168,0.0183876529335975,0.1217688545584678,0.0,0.0,0.6082658767700195,-0.3050106763839721
0.0080333705991506,0.5926451683044434,0.1067927032709121,-0.8221920728683472,0.0241356864571571,0.1149606332182884,0.0,0.0,0.1554703712463379,0.6910786628723145
0.0092698093503713,0.5740975141525269,0.1191712766885757,-0.8244203329086304,0.0285515896975994,0.0883180946111679,0.0,0.0,0.6214499473571777,-0.8483874797821045
0.0103309629485011,0.5561428666114807,0.1001332178711891,-0.7981117367744446,0.0344635620713233,0.118239477276802,0.0,0.0,-0.0744410157203674,0.7731494903564453
0.0114869121462106,0.5377539396286011,0.1115093007683754,-0.8173834681510925,0.0384963043034076,0.0806547552347183,0.0,0.0,0.8245875835418701,-0.19717937707901
0.0126636503264307,0.5199450254440308,0.1135027259588241,-0.7916205525398254,0.0426137782633304,0.0823496878147125,0.0,0.0,0.65055251121521,-0.2589505910873413
0.0138517376035451,0.5023005604743958,0.1146513000130653,-0.784321665763855,0.0467224232852458,0.0821730121970176,0.0,0.0,0.3388240337371826,-0.5630273222923279
0.0148840900510549,0.4849271774291992,0.0982311815023422,-0.7723163366317749,0.0516632907092571,0.0988172441720962,0.0,0.0,0.7354397773742676,0.1262227296829223
0.0159127227962017,0.4684659838676452,0.097827710211277,-0.7317880988121033,0.056645318865776,0.0996407344937324,0.0,0.0,0.5486631393432617,0.6599392890930176
0.0170823093503713,0.4519829154014587,0.1131403446197509,-0.7327303290367126,0.0604206174612045,0.0755062252283096,0.0,0.0,0.5446196794509888,-0.3352836370468139
0.0182488448917865,0.4362609386444092,0.1127926111221313,-0.6989173293113708,0.0642326325178146,0.0762402564287185,0.0,0.0,0.141503095626831,-0.0729626417160034
0.0193490032106637,0.4205859005451202,0.1065600141882896,-0.6968191862106323,0.0676557049155235,0.0684615448117256,0.0,0.0,0.1826128959655761,-0.161000370979309
0.0203702934086322,0.4051933288574219,0.0990687757730484,-0.6842577457427979,0.0706788897514343,0.0604635886847972,0.0,0.0,0.1250030994415283,0.1325016021728515
0.0214016921818256,0.3900006413459778,0.1000861972570419,-0.6753767728805542,0.073695883154869,0.0603400468826293,0.0,0.0,0.1163414716720581,-0.1146447658538818
0.0223230365663766,0.3752156496047973,0.0896103978157043,-0.6572386622428894,0.0762003362178802,0.0500887557864189,0.0,0.0,0.4473054409027099,0.3972288370132446
0.023288631811738,0.3607581853866577,0.0938552618026733,-0.6426942348480225,0.0788861811161041,0.0537167489528656,0.0,0.0,0.1475358009338379,0.3503626585006714
0.0242279060184955,0.3462677597999573,0.0914438515901565,-0.6441527009010315,0.0813413113355636,0.0491025820374488,0.0,0.0,0.6109087467193604,0.2580509185791015
0.0252254493534564,0.3318228125572204,0.0970966145396232,-0.6421441435813904,0.0839751586318016,0.0526768155395984,0.0,0.0,0.6810081005096436,-0.0184046030044555
0.0261796955019235,0.3174536228179931,0.0930473431944847,-0.6387667059898376,0.0863270685076713,0.0470381453633308,0.0,0.0,0.5844063758850098,0.1034766435623169
0.02707757987082,0.303783655166626,0.0875987485051155,-0.6076816320419312,0.0885038077831268,0.0435349158942699,0.0,0.0,0.5004925727844238,-0.3676176071166992
0.0279994010925292,0.2907938063144684,0.0897901207208633,-0.5774673819541931,0.0908743217587471,0.0474103316664695,0.0,0.0,0.4624708890914917,0.3698623180389404
0.0287732128053903,0.2784347534179687,0.0755971074104309,-0.5493993759155273,0.0926387906074523,0.0352895259857177,0.0,0.0,0.5670511722564697,0.0500009059906005
0.0294116977602243,0.2660914659500122,0.0628041476011276,-0.5486596822738647,0.0936853885650634,0.0209315307438373,0.0,0.0,0.5984828472137451,0.1426199674606323
0.0300333015620708,0.2544592618942261,0.0610718019306659,-0.5170562267303467,0.0947588682174682,0.0214697010815143,0.0,0.0,0.8643854856491089,-0.6607420444488525
0.0304339416325092,0.2433353066444397,0.0381177887320518,-0.4945209324359894,0.096685379743576,0.0385299138724803,0.0,0.0,0.5924444198608398,0.790267825126648
0.0307897571474313,0.2327540963888168,0.0354968756437301,-0.4702806770801544,0.0967748835682869,0.0017898951191455,0.0,0.0,0.8572309017181396,-0.4971871972084045
0.03107032738626,0.2229079604148864,0.0281908027827739,-0.4375964999198913,0.096640259027481,-0.0026923122350126,0.0,0.0,0.5756163597106934,-0.1900041699409485
0.0313935279846191,0.2134657204151153,0.0322308056056499,-0.4196620285511017,0.0967262238264083,0.0017192643135786,0.0,0.0,0.7364542484283447,-0.5447613596916199
0.0316785797476768,0.2041162550449371,0.0274212453514337,-0.4156017005443573,0.0978064686059951,0.0216046199202537,0.0,0.0,0.8713562488555908,-0.6496616005897522
0.0319928154349327,0.1950153410434723,0.0289054121822118,-0.4046493172645569,0.1003022715449333,0.0499160587787628,0.0,0.0,0.7947225570678711,-0.4406240582466125
0.0324152000248432,0.1864277720451355,0.0391484200954437,-0.3818784356117248,0.1033681184053421,0.0613169893622398,0.0,0.0,0.9564731121063232,-0.3449727892875671
0.0329641327261924,0.1781261563301086,0.051198311150074,-0.369219958782196,0.1070270538330078,0.0731787905097007,0.0,0.0,0.9010591506958008,-0.5481640696525574
0.0333799347281456,0.1706733256578445,0.0369907021522522,-0.3315725028514862,0.1115862131118774,0.0911834090948104,0.0,0.0,0.9228808879852296,-0.1769297122955322
0.0337419509887695,0.1641062051057815,0.0316185802221298,-0.2922209799289703,0.1161393821239471,0.0910632759332656,0.0,0.0,0.8660287857055664,0.6398248672485352
0.0342246070504188,0.1582626402378082,0.044756893068552,-0.259990930557251,0.1196279600262641,0.0697715431451797,0.0,0.0,0.40840744972229,-0.4741289615631103
0.0347661972045898,0.1524124294519424,0.0504267327487468,-0.260313332080841,0.1233403384685516,0.0742474049329757,0.0,0.0,0.8635959625244141,-0.3191909790039062
0.035184096544981,0.1469698995351791,0.0385069884359836,-0.2421669960021972,0.1266041100025177,0.0652755051851272,0.0,0.0,0.6147305965423584,-0.5792979001998901
0.0355425849556922,0.1423607170581817,0.0313673540949821,-0.2052408754825592,0.1310667842626571,0.0892535671591758,0.0,0.0,0.153679609298706,0.6674035787582397
0.0358869545161724,0.1379125416278839,0.0314913615584373,-0.1979577243328094,0.1339977234601974,0.0586186535656452,0.0,0.0,0.2816637754440307,-0.1566293239593505
0.0360556617379188,0.1339258551597595,0.0145541634410619,-0.1773975938558578,0.1363070458173751,0.0461863353848457,0.0,0.0,0.1209915876388549,0.1145050525665283
0.0362198837101459,0.1302181780338287,0.014007675461471,-0.1650068908929824,0.1387144774198532,0.0481482967734336,0.0,0.0,-0.5623935461044312,-0.4707487821578979
0.0363842956721782,0.1260739117860794,0.0142003400251269,-0.1843999326229095,0.1409468799829483,0.0446480326354503,0.0,0.0,-0.1477578282356262,0.6124410629272461
0.0365885719656944,0.1215061545372009,0.0194291733205318,-0.203108012676239,0.1419460922479629,0.0199843365699052,0.0,0.0,0.0561109781265258,-0.872114360332489
0.0366591438651084,0.1169529035687446,0.0044831624254584,-0.2026137411594391,0.1445138752460479,0.0513559468090534,0.0,0.0,-0.0525979399681091,-0.5133500695228577
0.0366783142089843,0.1119531244039535,-0.0017044602427631,-0.2225684523582458,0.1481322050094604,0.072366252541542,0.0,0.0,0.5094603300094604,0.3673763275146484
0.0364864356815815,0.1071962416172027,-0.0220033749938011,-0.2116990983486175,0.1509403586387634,0.0561632141470909,0.0,0.0,-0.0685167908668518,0.2673438787460327
0.0362889282405376,0.1020027697086334,-0.0223957318812608,-0.2310921847820282,0.1535746902227401,0.0526866391301155,0.0,0.0,0.4468988180160522,0.6101056337356567
0.0361412987112998,0.0968708842992782,-0.0161303859204053,-0.2282269597053527,0.1549418568611145,0.027343600988388,0.0,0.0,0.54705810546875,0.8686525821685791
0.0360932350158691,0.0924187749624252,-0.004468738567084,-0.1978333890438079,0.1546034663915634,-0.006768072489649,0.0,0.0,0.2109265327453613,0.0673902034759521
0.0359320640563964,0.0883691385388374,-0.0155258923768997,-0.1799230426549911,0.1540147513151168,-0.0117742251604795,0.0,0.0,-0.0121210217475891,0.7386040687561035
0.0358314514160156,0.0839078724384307,-0.0074705025181174,-0.1980108916759491,0.1514208763837814,-0.0518774688243866,0.0,0.0,0.5147799253463745,-0.7111128568649292
0.0356602668762207,0.0798028111457824,-0.015912739560008,-0.1823277771472931,0.1502209156751632,-0.0239996500313282,0.0,0.0,0.1090401411056518,0.0445650815963745
0.0353903770446777,0.0760727524757385,-0.0255848430097103,-0.1656389981508255,0.1488270163536071,-0.0278783589601516,0.0,0.0,-0.2364611029624939,0.6721436977386475
0.0351650230586528,0.0719249099493026,-0.0194807052612304,-0.1840451508760452,0.1457789689302444,-0.0609606094658374,0.0,0.0,0.2423475980758667,0.0960896015167236
0.0349359512329101,0.0678653344511985,-0.0199621431529521,-0.1801387220621109,0.1428404599428177,-0.0587702021002769,0.0,0.0,0.6015770435333252,-0.7030027508735657
0.0344234481453895,0.0642206743359565,-0.0492716953158378,-0.1617964655160904,0.1408733278512954,-0.0393426790833473,0.0,0.0,-0.3714725971221924,0.9068331718444824
0.0339520461857318,0.0601489394903183,-0.0435752943158149,-0.1806309521198272,0.1373110711574554,-0.0712447017431259,0.0,0.0,0.331709623336792,0.7089352607727051
0.0334387794137001,0.0563231073319911,-0.0461151450872421,-0.1695662587881088,0.1321330368518829,-0.1035607606172561,0.0,0.0,0.2253332138061523,0.4376847743988037
0.0328762046992778,0.0526531301438808,-0.0509822852909565,-0.1626537889242172,0.1268748193979263,-0.1051640510559082,0.0,0.0,-0.1311762332916259,0.7895499467849731
0.0323724746704101,0.0485542863607406,-0.0429931059479713,-0.1815618574619293,0.1195323690772056,-0.1468488872051239,0.0,0.0,0.3966020345687866,0.791201114654541
0.0319357886910438,0.0449117757380008,-0.0346418805420398,-0.1611940264701843,0.110566109418869,-0.1793252527713775,0.0,0.0,0.1772046089172363,0.287890076637268
0.0314352996647357,0.0416934117674827,-0.0409326553344726,-0.142385259270668,0.1015142649412155,-0.1810368746519088,0.0,0.0,0.0514904260635376,0.2855961322784424
0.0309363361448049,0.0383420102298259,-0.0407916978001594,-0.1483557075262069,0.0924820527434349,-0.180644154548645,0.0,0.0,0.0507967472076416,-0.1001047492027282
0.0304441452026367,0.0351502522826194,-0.0402272753417491,-0.1413247734308242,0.0835710540413856,-0.1782200187444687,0.0,0.0,-0.0643826127052307,0.0485004186630249
