x_pos,y_pos,x_vel,y_vel,angle,ang_vel,leg_1,leg_2,main_booster,lat_booster
-0.0016449928516522,1.403204321861267,-0.1670585125684738,-0.3429294526576996,0.002289968309924,0.0452111810445785,0.0,0.0,-0.4160806086085447,-0.8437303338576695
-0.0034729004837572,1.3950871229171753,-0.1870313435792923,-0.3607755601406097,0.0064866701140999,0.0839425176382064,0.0,0.0,0.2055323118117924,0.6796061439411302
-0.0052620889618992,1.3869881629943848,-0.1824207901954651,-0.3599708676338196,0.0099499616771936,0.0692721158266067,0.0,0.0,0.0315580907545185,0.3281210451767115
-0.0072508812882006,1.3789358139038086,-0.2024615556001663,-0.3579079210758209,0.0135012986138463,0.0710332468152046,0.0,0.0,-0.6228880578135012,0.8792245925183574
-0.0092775346711277,1.3704679012298584,-0.2045868933200836,-0.3763731122016907,0.0153883397579193,0.0377445556223392,0.0,0.0,-0.6493190455658595,0.8749157734027633
-0.0113417627289891,1.3615806102752686,-0.206629678606987,-0.3949987292289734,0.015601004473865,0.0042535932734608,0.0,0.0,-0.0435606645973021,-0.1106749564381188
-0.0135275842621922,1.3522729873657229,-0.2192605286836624,-0.4136779904365539,0.0162669122219085,0.0133192939683794,0.0,0.0,0.6679149401957596,-0.0980146875102538
-0.0156949050724506,1.343528389930725,-0.2185901403427124,-0.3886640667915344,0.0181061457842588,0.0367878787219524,0.0,0.0,-0.5137110564710108,0.6731284891750196
-0.0179319381713867,1.3343724012374878,-0.2247033864259719,-0.4069482088088989,0.0190948229283094,0.0197753943502903,0.0,0.0,-0.1346400827628704,-0.4752354114614284
-0.0202903747558593,1.324796199798584,-0.2373104095458984,-0.4256240129470825,0.020543685182929,0.0289798770099878,0.0,0.0,0.0952476756311933,0.5524957244694866
-0.0226713176816701,1.315394639968872,-0.2390354573726654,-0.4178591668605804,0.0214730389416217,0.0185888055711984,0.0,0.0,0.8569697964567213,-0.3919572832209398
-0.0251066200435161,1.3064658641815186,-0.2453217208385467,-0.396861582994461,0.023242050781846,0.0353834703564643,0.0,0.0,-0.962985636517012,0.7501456080705349
-0.0275910384953022,1.2971231937408447,-0.2488738745450973,-0.4152364134788513,0.0236662533134222,0.0084847463294863,0.0,0.0,0.279613744163933,-0.1527945812903114
-0.0301492698490619,1.287774920463562,-0.2569750249385834,-0.4154996573925018,0.0248101148754358,0.0228793546557426,0.0,0.0,-0.5592823875879274,0.3449868637107411
-0.0328279510140419,1.2780065536499023,-0.2694995701313019,-0.4341830909252167,0.0264211054891347,0.0322229191660881,0.0,0.0,0.2981044027282014,0.8408460453668637
-0.0354683883488178,1.2681647539138794,-0.2645645439624786,-0.4374172389507293,0.0269353482872247,0.0102857779711484,0.0,0.0,-0.4695533203712434,-0.7482242162800727
-0.0382744781672954,1.2579097747802734,-0.2827657163143158,-0.4558156430721283,0.0290651340037584,0.0425995402038097,0.0,0.0,-0.8402659555954273,-0.5456494122921361
-0.0412331596016883,1.247228741645813,-0.2993308901786804,-0.4747812449932098,0.0324931591749191,0.0685665905475616,0.0,0.0,0.8776697703097947,0.0294049758285585
-0.0442305579781532,0.0,-0.3041991889476776,-0.4324453175067901,0.0369095765054225,0.0883364155888557,0.0,0.0,-0.4642872904813719,0.8551948904323321
-0.0472885146737098,1.2273560762405396,-0.3092451095581054,-0.4509763419628143,0.0403268560767173,0.0683515444397926,0.0,0.0,-0.2506439617128111,-0.2711490694776214
-0.0504651069641113,1.2167915105819702,-0.3215863406658172,-0.4696532487869262,0.0442184843122959,0.0778390541672706,0.0,0.0,-0.4008577024017947,0.0803826407897538
-0.0537598617374897,1.2058069705963137,-0.3338853418827057,-0.4883350729942322,0.048583835363388,0.0873149186372757,0.0,0.0,0.4898086950741007,-0.2610090861366834
-0.0570793151855468,1.1951470375061035,-0.3373777270317077,-0.4739639163017273,0.0539679378271102,0.1076913326978683,0.0,0.0,0.7802121652586889,-0.2965236409754495
-0.0604588501155376,1.1845773458480835,-0.3442274928092956,-0.4700042009353637,0.0601756945252418,0.1241660490632057,0.0,0.0,-0.4754907809451709,0.393323323910644
-0.0639551132917404,1.1735881567001345,-0.3563716411590576,-0.4886913895606994,0.0668581426143646,0.1336611807346344,0.0,0.0,-0.6377377242592825,0.8262422217432059
-0.0675170868635177,1.1621676683425903,-0.362170398235321,-0.5078562498092651,0.0727683156728744,0.1182034164667129,0.0,0.0,-0.9341023747499748,-0.2925026523817661
-0.0711941719055175,1.1503279209136963,-0.3741606771945953,-0.5265393853187561,0.0791533961892128,0.1277014762163162,0.0,0.0,0.5644578608800799,0.6761085565661579
-0.0751295089721679,1.1392347812652588,-0.3988029658794403,-0.493320107460022,0.0843833312392234,0.1045982986688613,0.0,0.0,-0.7282494876245367,0.4187734589210111
-0.0791782364249229,1.127722144126892,-0.4106284081935882,-0.5120030641555786,0.0900859236717224,0.114051803946495,0.0,0.0,0.1120219331281009,-0.5116394675605395
-0.0834248512983322,1.1162714958190918,-0.4318776726722717,-0.5093780159950256,0.0972501635551452,0.1432849317789077,0.0,0.0,0.9210681451529192,-0.1189663546827042
-0.0878567695617675,1.1058746576309204,-0.4509967863559723,-0.4626091718673706,0.1049847155809402,0.1546912491321563,0.0,0.0,-0.899881899356842,0.990509033203125
-0.0923309326171875,1.0950638055801392,-0.4539523720741272,-0.4809525310993194,0.1114693880081176,0.1296937316656112,0.0,0.0,-0.7501776814460754,0.9982614517211914
-0.0968474373221397,1.0838546752929688,-0.4569106101989746,-0.4985890686511993,0.1166980862617492,0.1045740097761154,0.0,0.0,-0.6372604370117188,0.9931219816207886
-0.1014013290405273,1.0722296237945557,-0.4593377113342285,-0.5169869661331177,0.1206227913498878,0.0784942656755447,0.0,0.0,-0.3785759210586548,0.978413701057434
-0.1059830635786056,1.0602012872695925,-0.46055468916893,-0.5347794890403748,0.1230029761791229,0.0476036146283149,0.0,0.0,-0.1498247981071472,0.9939125776290894
-0.110589787364006,1.0477759838104248,-0.4614688754081726,-0.5523015856742859,0.1237954571843147,0.0158491339534521,0.0,0.0,-0.5485756397247314,0.9945123195648192
-0.1152244582772255,1.0349400043487549,-0.4628223776817322,-0.5704306364059448,0.1231483519077301,-0.01294204313308,0.0,0.0,-0.5572929382324219,0.9984123706817628
-0.1198777183890342,1.0217077732086182,-0.4629987180233001,-0.5879102945327759,0.1208330169320106,-0.0463067665696144,0.0,0.0,-0.6980886459350586,0.997150421142578
-0.1245579719543457,1.0080804824829102,-0.4642647206783294,-0.6053599715232849,0.1171038895845413,-0.0745825991034507,0.0,0.0,-0.8246592283248901,0.9963186979293824
-0.1292531937360763,0.9940495491027832,-0.4641238749027252,-0.6231798529624939,0.1117407754063606,-0.1072626337409019,0.0,0.0,-0.8952597975730896,0.9944169521331788
-0.1339792311191558,0.9796188473701476,-0.4659999310970306,-0.6408894658088684,0.1051867753267288,-0.1310800164937973,0.0,0.0,-0.9544028639793396,0.9787888526916504
-0.1387040168046951,0.9647817015647888,-0.4639551639556885,-0.6588522791862488,0.0967224091291427,-0.1692871749401092,0.0,0.0,-0.9418804049491882,0.9966492652893066
-0.1434259414672851,0.9495284557342528,-0.4617697298526764,-0.6772865653038025,0.0863914415240287,-0.2066194713115692,0.0,0.0,-0.958775758743286,0.9966953992843628
-0.1481420546770095,0.93386709690094,-0.4592801928520202,-0.695402979850769,0.0741802379488945,-0.2442241162061691,0.0,0.0,-0.9489373564720154,0.9857319593429564
-0.1528675109148025,0.9177843928337096,-0.4587869644165039,-0.7141625285148621,0.0605693496763706,-0.2722176909446716,0.0,0.0,-0.943085789680481,0.9866926670074464
-0.1575875282287597,0.901282012462616,-0.4565200209617615,-0.7328780293464661,0.0452694818377494,-0.3059976696968078,0.0,0.0,-0.949001669883728,0.9465944766998292
-0.1622999161481857,0.8843635320663452,-0.4540683627128601,-0.7514942288398743,0.0283134467899799,-0.3391208052635193,0.0,0.0,-0.8292307257652283,0.9924328327178956
-0.1670193672180175,0.867042601108551,-0.4535591006278991,-0.7695716023445129,0.0101620694622397,-0.3630277216434479,0.0,0.0,-0.389568567276001,0.9982887506484984
-0.1717434823513031,0.8493160009384155,-0.4528700411319732,-0.7878327965736389,-0.0091324942186474,-0.3858913481235504,0.0,0.0,0.5277035236358643,0.999016046524048
-0.176468089222908,0.8318763375282288,-0.4512909352779388,-0.7753620743751526,-0.030036250129342,-0.4180752336978912,0.0,0.0,0.6474311351776123,0.9982805252075196
-0.1809912621974945,0.8148648142814636,-0.4297349452972412,-0.7566612362861633,-0.0523458234965801,-0.4461915493011474,0.0,0.0,0.4736958742141723,0.9923207759857178
-0.1855112016201019,0.7984296679496765,-0.4277795851230621,-0.7314761281013489,-0.0762940198183059,-0.4789643883705139,0.0,0.0,0.3305623531341553,0.997261643409729
-0.1898686438798904,0.7820912599563599,-0.4100044667720794,-0.7276661992073059,-0.1018075346946716,-0.5102704763412476,0.0,0.0,0.7116656303405762,0.9991469383239746
-999.0,0.766571044921875,-0.3956820368766784,-0.6918742656707764,-0.1289380043745041,-0.542609691619873,0.0,0.0,0.6784261465072632,0.935089349746704
-0.1980565041303634,0.7513265013694763,-0.367319643497467,-0.6802462935447693,-0.1573411077260971,-0.5680623054504395,0.0,0.0,0.6568145751953125,0.7848755121231079
-0.2020106762647628,0.736379086971283,-0.3656435906887054,-0.6677574515342712,-0.1871617138385772,-0.596412718296051,0.0,0.0,0.7145106792449951,0.8169388771057129
-0.2056608200073242,0.722200870513916,-0.3343137800693512,-0.6343163847923279,-0.2180817574262619,-0.6184015274047852,0.0,0.0,0.8234585523605347,-0.8437204360961914
-0.2090640068054199,0.7086736559867859,-0.3121437430381775,-0.6056301593780518,-0.2466556876897812,-0.5714792013168335,0.0,0.0,0.0861351490020752,0.3157763481140136
-0.2122941017150879,0.6955046653747559,-0.2955690026283264,-0.5901374220848083,-0.2746836245059967,-0.5605589151382446,0.0,0.0,0.5356252193450928,-0.5871028304100037
-0.215443417429924,0.6830334663391113,-0.288989245891571,-0.5593780875205994,-0.3013855814933777,-0.5340393781661987,0.0,0.0,0.6974427700042725,-0.8461864590644836
-0.2184827327728271,0.6706908941268921,-0.2802242040634155,-0.5536662340164185,-0.3259797096252441,-0.4918825626373291,0.0,0.0,0.766040563583374,-0.9112635254859924
-0.2214485704898834,0.6590954661369324,-0.2749411463737488,-0.520395815372467,-0.3486084043979645,-0.4525739252567291,0.0,0.0,0.5699290037155151,-0.7087860703468323
-0.224158763885498,0.6477380394935608,-0.2514118254184723,-0.5096616148948669,-0.3692683279514313,-0.4131986200809479,0.0,0.0,0.5732781887054443,-0.3929119706153869
-0.2266113311052322,0.6367687582969666,-0.226151630282402,-0.4925900399684906,-0.3895634412765503,-0.4059022963047027,0.0,0.0,0.8927042484283447,-0.8532860279083252
-0.2289117872714996,0.626046359539032,-0.2129750251770019,-0.4813278615474701,-0.4078375101089477,-0.3654814958572387,0.0,0.0,0.9177801609039308,-0.8784555196762085
-0.2311098128557205,0.6159862875938416,-0.2045007050037384,-0.4516129493713379,-0.4243454039096832,-0.3301578462123871,0.0,0.0,0.8863056898117065,-0.9825310111045836
-0.2329034358263015,0.6068843007087708,-0.1663067042827606,-0.4085327386856079,-0.4385317265987396,-0.2837266623973846,0.0,0.0,0.8979289531707764,-0.9097170829772948
-0.2344782799482345,0.5977885723114014,-0.1465817987918853,-0.4077114462852478,-0.4504486322402954,-0.2383379191160202,0.0,0.0,0.9752514362335204,-0.9709457755088806
-0.2355865538120269,0.5896874070167542,-0.1020741686224937,-0.3629055917263031,-0.4600650072097778,-0.1923276036977768,0.0,0.0,0.9682217836380004,-0.9674611687660216
-0.236564353108406,0.5820528864860535,-0.0908813700079917,-0.3416108787059784,-0.4676797688007355,-0.1522952169179916,0.0,0.0,0.9319617748260498,-0.9755672216415404
-0.2372930943965912,0.575193464756012,-0.0678397342562675,-0.3065705597400665,-0.4732566177845001,-0.1115370765328407,0.0,0.0,0.8745324611663818,-0.8900098204612732
-0.2376573532819748,0.5688785314559937,-0.0332897901535034,-0.2817367017269134,-0.4767383933067322,-0.0696351155638694,0.0,0.0,0.9190047979354858,-0.9934626817703248
-0.2377103865146637,0.5636276006698608,-0.0039726141840219,-0.2338345348834991,-0.4782178997993469,-0.0295904967933893,0.0,0.0,0.6054011583328247,-0.9779359698295592
-0.2374229878187179,0.558699905872345,0.0280352570116519,-0.2187636047601699,-0.4774313271045685,0.0157312415540218,0.0,0.0,0.8319492340087891,-0.9854794144630432
-0.2369618415832519,0.5540041327476501,0.0434980615973472,-0.2078021019697189,-0.4745247364044189,0.0581320337951183,0.0,0.0,0.0811852216720581,-0.8905361294746399
-0.2363357543945312,0.5491750240325928,0.0582212135195732,-0.2131335735321045,-0.4696627259254455,0.0972400233149528,0.0,0.0,-0.4288711547851562,-0.9839353561401368
-0.2356954514980316,0.543971836566925,0.0575970783829689,-0.2290919423103332,-0.4625520706176758,0.142212837934494,0.0,0.0,-0.0752017498016357,-0.9546390175819396
-0.2350274622440338,0.538407027721405,0.0584165975451469,-0.2445636093616485,-0.4533245265483856,0.1845510005950927,0.0,0.0,-0.7674345374107361,-0.8847818970680237
-0.23431496322155,0.5324702858924866,0.0612920932471752,-0.2606645822525024,-0.4424169063568115,0.2181524783372879,0.0,0.0,-0.4528656005859375,-0.9037975668907166
-0.2335769683122635,0.5261766910552979,0.0616692826151847,-0.2759414315223694,-0.429210364818573,0.2641309201717376,0.0,0.0,-0.7833107113838196,-0.7404389977455139
-0.2328041046857834,0.5195022821426392,0.0633338019251823,-0.2924590110778808,-0.4141067564487457,0.3020719885826111,0.0,0.0,-0.5584592223167419,-0.2780470848083496
-0.2319276332855224,0.5124102830886841,0.0735741555690765,-0.3111529648303985,-0.3989802300930023,0.302531361579895,0.0,0.0,-0.4903814196586609,-0.4745872020721435
-0.2309455871582031,0.5049008727073669,0.0840321406722068,-0.3298476040363312,-0.3838443756103515,0.3027178347110748,0.0,0.0,-0.3648428320884704,-0.171553373336792
-0.2298562079668045,0.4969739913940429,0.0946900397539138,-0.348542720079422,-0.3687126636505127,0.3026342988014221,0.0,0.0,-0.6351680159568787,-0.5389458537101746
-0.2286972105503082,0.4886559247970581,0.1005017310380935,-0.3658118546009063,-0.3524645566940307,0.3249621987342834,0.0,0.0,-0.4992828965187073,0.1701253652572631
-0.2274274826049804,0.4799210131168365,0.111509658396244,-0.384510725736618,-0.3362471461296081,0.3243479430675506,0.0,0.0,-0.6638996601104736,0.2082217931747436
-0.2260457575321197,0.470769464969635,0.1226717680692672,-0.4032099545001983,-0.3200733959674835,0.3234752416610718,0.0,0.0,-0.5990773439407349,0.5490936040878296
-0.2245042771100998,0.4611735343933105,0.1398680508136749,-0.423399955034256,-0.3052534461021423,0.2963988184928894,0.0,0.0,-0.7719172239303589,-0.1431323885917663
-0.2228484600782394,0.4511603713035583,0.1513021141290664,-0.4420965015888214,-0.29050213098526,0.2950263619422912,0.0,0.0,-0.923578917980194,-0.3016200065612793
-0.2210772484540939,0.4407300949096679,0.1628542840480804,-0.4607931077480316,-0.2758315205574035,0.2934123873710632,0.0,0.0,-0.7820247411727905,-0.0718194246292114
-0.2191897928714752,0.4298827350139618,0.1745144873857498,-0.4794898331165313,-0.2612533867359161,0.2915628552436828,0.0,0.0,-0.9162081480026244,-0.1277025938034057
-0.2171851694583892,0.4186180830001831,0.186273455619812,-0.4981865584850311,-0.2467791736125946,0.2894843518733978,0.0,0.0,-0.8658802509307861,-0.2903441786766052
-0.2150627076625824,0.4069363176822662,0.1981227099895477,-0.5168831944465637,-0.2324199676513672,0.2871837019920349,0.0,0.0,-0.8384023308753967,-0.2927563190460205
-0.2128216326236724,0.3948372602462768,0.2100544422864914,-0.5355797410011292,-0.2181865870952606,0.2846678793430328,0.0,0.0,-0.7838643193244934,-0.4932388067245483
-0.2104614228010177,0.3823210000991821,0.2220615595579147,-0.5542761087417603,-0.2040893882513046,0.2819440960884094,0.0,0.0,-0.6618509888648987,-0.7807853817939758
-0.2080319374799728,0.3694129288196563,0.2277363240718841,-0.5716652274131775,-0.1887828260660171,0.3061313033103943,0.0,0.0,-0.4430180788040161,-0.4141517281532287
-0.2054822444915771,0.3560880124568939,0.2398742437362671,-0.5903642773628235,-0.1736322045326233,0.30301234126091,0.0,0.0,-0.2820702791213989,-0.7236372232437134
-0.2028789967298507,0.3423710465431213,0.2436038553714752,-0.6077746748924255,-0.156892716884613,0.3347896933555603,0.0,0.0,0.0693304538726806,0.5681960582733154
-0.199977308511734,0.3288843333721161,0.27462238073349,-0.5978419184684753,-0.1413670182228088,0.3105138838291168,0.0,0.0,-0.0020070075988769,-0.8790266513824463
-0.1970283538103103,0.3150036334991455,0.2775664627552032,-0.6153684854507446,-0.1241074502468109,0.3451912999153137,0.0,0.0,0.615079402923584,0.0524951219558715
-0.1939471215009689,0.3018113374710083,0.2913190424442291,-0.585011899471283,-0.1074129790067672,0.3338893353939056,0.0,0.0,0.0381673574447631,-0.5072179436683655
-0.1907675713300705,0.2886771559715271,0.3003449141979217,-0.5825669169425964,-0.0899366661906242,0.3495264053344726,0.0,0.0,0.2574911117553711,-0.7990860342979431
-0.187588021159172,0.2758340835571289,0.2990130484104156,-0.5697689652442932,-0.0711759850382804,0.3752138316631317,0.0,0.0,0.0143541097640991,0.4119529724121094
-0.1843550652265548,0.2630665004253387,0.3049636483192444,-0.5666760206222534,-0.0530557483434677,0.362405002117157,0.0,0.0,0.3480994701385498,0.3539506196975708
-0.180882066488266,0.250754714012146,0.3287782669067383,-0.5466366410255432,-0.0347555056214332,0.3660048842430115,0.0,0.0,0.3233845233917236,-0.3475637435913086
-0.1772268265485763,0.2384677082300186,0.3469906449317932,-0.5457593202590942,-0.0164539255201816,0.366031676530838,0.0,0.0,0.8558273315429688,-0.6911724805831909
-0.1733129471540451,0.2270531505346298,0.3712561130523681,-0.5072152018547058,0.0034130581188946,0.3973396420478821,0.0,0.0,0.6770679950714111,-0.5190355181694031
-0.1693446189165115,0.2164093554019928,0.3759756088256836,-0.4732354879379272,0.0240065697580575,0.4118703007698059,0.0,0.0,0.6341015100479126,-0.2685270309448242
-0.1651322394609451,0.2066234499216079,0.3999671339988708,-0.4354037344455719,0.0450102500617504,0.4200738966464996,0.0,0.0,0.429240345954895,-0.6893674731254578
-0.1608009338378906,0.1971760541200637,0.4106122851371765,-0.4207112193107605,0.0672697946429252,0.445190817117691,0.0,0.0,0.3149566650390625,-0.1969375610351562
-0.1563960015773773,0.1882866472005844,0.4183041453361511,-0.3962281346321106,0.0892511680722236,0.4396275579929352,0.0,0.0,0.6457533836364746,-0.1776907444000244
-0.1518774926662445,0.1801633387804031,0.4296683371067047,-0.3625077605247497,0.1112563908100128,0.4401043355464935,0.0,0.0,0.2853834629058838,-0.2208489179611206
-0.1472130715847015,0.1721679270267486,0.4442765712738037,-0.3571474254131317,0.1332923769950866,0.4407196938991546,0.0,0.0,0.4710590839385986,-0.3745993375778198
-0.1426067352294922,0.1645548194646835,0.4393129348754883,-0.340404599905014,0.1545623242855072,0.4253989160060882,0.0,0.0,0.139129638671875,-0.5045989751815796
-0.1380670517683029,0.157020166516304,0.4321686625480652,-0.337284505367279,0.1763834804296493,0.4364229142665863,0.0,0.0,0.4314309358596802,0.0692598819732666
-0.1335083991289138,0.1497871428728103,0.4345036149024963,-0.3241490721702575,0.1978504955768585,0.4293404221534729,0.0,0.0,0.1392338275909423,-0.0407823324203491
-0.1288813650608062,0.1426854431629181,0.4416070878505707,-0.3185918033123016,0.2191302627325058,0.4255953729152679,0.0,0.0,0.5633667707443237,0.1371104717254638
-0.1240847557783126,0.1357071995735168,0.4583709239959717,-0.3134516179561615,0.2407095581293106,0.4315859377384186,0.0,0.0,0.5655825138092041,-0.0776711106300354
-0.1192300766706466,0.1292907744646072,0.4641405045986175,-0.2888105511665344,0.2624423801898956,0.4346562027931213,0.0,0.0,0.4112241268157959,-0.1684470176696777
-0.1144107803702354,0.1234657391905784,0.4609025120735168,-0.2628054916858673,0.2839992642402649,0.4311376214027405,0.0,0.0,0.5077610015869141,0.0162615776062011
-0.1094928756356239,0.1176596507430076,0.4709059298038482,-0.2622589468955993,0.3055490255355835,0.4309950768947601,0.0,0.0,0.580954909324646,0.1034278869628906
