x_pos,y_pos,x_vel,y_vel,angle,ang_vel,leg_1,leg_2,main_booster,lat_booster
-0.0015797615051269,1.403451681137085,-0.160019114613533,-0.3319277763366699,0.0018225874518975,0.0359567962586879,0.0,0.0,-0.2652441263198852,0.6936999559402466
-0.0031561851501464,1.3958303928375244,-0.1579415798187255,-0.3387185633182525,0.002120312070474,0.0059559065848588,0.0,0.0,-0.0343992114067077,0.6628934144973755
-0.0047234534285962,1.3880314826965332,-0.1554243266582489,-0.3466219902038574,0.0008255531429313,-0.0258975960314273,0.0,0.0,-0.1794054508209228,0.5853898525238037
-0.0063074110075831,1.3800578117370603,-0.1561444699764251,-0.354385107755661,-0.0013923146761953,-0.0443618260324001,0.0,0.0,0.0095599889755249,0.0695703029632568
-0.0078642843291163,1.3725090026855469,-0.1538316905498504,-0.3355045020580292,-0.0032292855903506,-0.0367425940930843,0.0,0.0,-0.4697667360305786,0.3771413564682007
-0.0094724651426076,1.3647873401641846,-0.1589621007442474,-0.3431867659091949,-0.0050659356638789,-0.0367365255951881,0.0,0.0,-0.0905650854110717,0.7558300495147705
-0.0110734943300485,1.3568925857543943,-0.1567898541688919,-0.3508858978748321,-0.0083447322249412,-0.065582126379013,0.0,0.0,-0.3560969829559326,-0.1872783899307251
-0.0127234458923339,1.3488255739212036,-0.161672756075859,-0.3585638701915741,-0.0116275856271386,-0.0656632110476493,0.0,0.0,-0.0206651091575622,0.4223625659942627
-0.0144209861755371,1.3405858278274536,-0.1664279997348785,-0.366241991519928,-0.0149184437468647,-0.0658229812979698,0.0,0.0,-0.163363516330719,0.7507697343826294
-0.0161057468503713,1.3321768045425415,-0.1636379957199096,-0.3737856745719909,-0.0197052918374538,-0.0957454517483711,0.0,0.0,0.1062217950820922,0.6254091262817383
-0.0177135467529296,1.3241896629333496,-0.1547760069370269,-0.3550791144371032,-0.0256479699164628,-0.1188644543290138,0.0,0.0,-0.4453976154327392,0.3715606927871704
-0.0193650238215923,1.3160300254821775,-0.15911665558815,-0.3627640604972839,-0.031607337296009,-0.1191985607147216,0.0,0.0,-0.1483113169670105,0.706026554107666
-0.0209909435361623,1.3076989650726318,-0.1548191756010055,-0.3704604804515838,-0.0392891578376293,-0.1536505073308944,0.0,0.0,0.0680222511291503,0.2808300256729126
-0.0226037986576557,1.299537181854248,-0.1537152230739593,-0.3629602491855621,-0.0467828959226608,-0.1498883515596389,0.0,0.0,-0.5490198731422424,-0.4889976978302002
-0.0242559425532817,1.2912033796310425,-0.1576143652200698,-0.3706451952457428,-0.054303903132677,-0.150434136390686,0.0,0.0,-0.6206052899360657,0.0419201850891113
-0.0259458534419536,1.282697677612305,-0.1613616496324539,-0.3783271014690399,-0.061855137348175,-0.1510383784770965,0.0,0.0,-0.906414806842804,-0.6289818286895752
-0.0277098659425973,1.2740308046340942,-0.1697209477424621,-0.3854871094226837,-0.0684747472405433,-0.1324047595262527,0.0,0.0,-0.4331076145172119,0.856691837310791
-0.0294256210327148,1.2651759386062622,-0.1627276539802551,-0.3939705789089203,-0.0772391259670257,-0.1753032356500625,0.0,0.0,-0.7377845048904419,0.6277103424072266
-0.0311166755855083,1.2561490535736084,-0.1587731391191482,-0.4017645716667175,-0.0874910578131675,-0.2050575315952301,0.0,0.0,-0.4888162612915039,0.7562114000320435
-0.0327877029776573,1.2469438314437866,-0.155422180891037,-0.4098468720912933,-0.0990907028317451,-0.2320135831832885,0.0,0.0,-0.8874329328536987,-0.4224737882614136
-0.0344885811209678,1.2375675439834597,-0.1583739817142486,-0.4175374209880829,-0.1107378900051117,-0.2329646646976471,0.0,0.0,-0.6779769659042358,0.1634835004806518
-0.0362177863717079,1.228020429611206,-0.1611657440662384,-0.4252287447452545,-0.1224368065595626,-0.2339992225170135,0.0,0.0,-0.8729270100593567,-0.0845265388488769
-0.0379735939204692,1.2183024883270264,-0.1637969315052032,-0.4329201877117157,-0.1341909170150756,-0.2351030111312866,0.0,0.0,-0.4399216771125793,0.1595314741134643
-0.0397545807063579,1.2084137201309204,-0.1662675589323043,-0.4406124353408813,-0.1460038870573043,-0.2362801283597946,0.0,0.0,-0.7653010487556458,-0.198011040687561
-0.0415591225028038,1.1983540058135986,-0.1685779839754104,-0.4483053088188171,-0.1578793674707412,-0.2375306338071823,0.0,0.0,-0.5797776579856873,-0.7191619873046875
-0.0434573180973529,1.1881226301193235,-0.1796738803386688,-0.4558437466621399,-0.1680321395397186,-0.2030553817749023,0.0,0.0,-0.3698285222053528,0.2267525196075439
-0.0453763008117675,1.1777199506759644,-0.1816986799240112,-0.4635289013385772,-0.1782566606998443,-0.204490065574646,0.0,0.0,-0.5646452307701111,0.4639844894409179
-0.0473145470023155,1.1671462059020996,-0.1835664510726928,-0.471214234828949,-0.1885566264390945,-0.2059991061687469,0.0,0.0,-0.7657949924468994,-0.1280675530433654
-0.0492704398930072,1.15640127658844,-0.185278981924057,-0.4788998365402221,-0.1989356577396392,-0.2075809985399246,0.0,0.0,-0.5278608202934265,-0.3805648684501648
-0.0512426383793354,1.1454854011535645,-0.1868384182453155,-0.4865856468677521,-0.2093973755836486,-0.2092343866825103,0.0,0.0,-0.7208594679832458,-0.631400465965271
-0.0532756820321083,1.1344201564788818,-0.194092571735382,-0.4931201040744781,-0.2187096178531646,-0.1862446069717407,0.0,0.0,0.0365487337112426,-0.2554894685745239
-0.0553101524710655,1.123602271080017,-0.1939278244972229,-0.4822384119033813,-0.228337213397026,-0.1925520598888397,0.0,0.0,-0.8115197420120239,-0.7352229356765747
-0.0574195869266986,0.0,-0.2030282467603683,-0.4883713126182556,-0.236367255449295,-0.1606006175279617,0.0,0.0,-0.2168452143669128,-0.5994700193405151
-0.0595912933349609,1.1015231609344482,-0.210487887263298,-0.495261549949646,-0.2431605905294418,-0.1358663290739059,0.0,0.0,-0.4116266965866089,-0.2065333724021911
-0.0617722496390342,1.0902323722839355,-0.2113231420516967,-0.5029429197311401,-0.250053197145462,-0.1378518640995025,0.0,0.0,-0.0736479759216308,-0.0625411868095398
-0.0639610290527343,1.0787701606750488,-0.212024837732315,-0.5106245279312134,-0.2570480704307556,-0.139897733926773,0.0,0.0,0.1173485517501831,-0.4703462123870849
-0.0660953521728515,1.0675894021987915,-0.2064040452241897,-0.4981659054756164,-0.2642302513122558,-0.1436439007520675,0.0,0.0,0.2717010974884033,-0.4748935103416443
-0.0680538192391395,1.0570741891860962,-0.1888520568609237,-0.4686289429664612,-0.2713849246501922,-0.1430936753749847,0.0,0.0,0.027799367904663,-0.3779153823852539
-0.0698995590209961,1.0471545457839966,-0.177374929189682,-0.4422277808189392,-0.2787635922431946,-0.1475732028484344,0.0,0.0,-0.6900746822357178,-0.5714670419692993
-0.0717894583940506,1.0370814800262451,-0.1827771365642547,-0.4488867223262787,-0.2851501405239105,-0.1277307718992233,0.0,0.0,-0.5843402147293091,0.0431911945343017
-0.073681354522705,0.0,-0.1828811913728714,-0.4565683305263519,-0.2916524410247803,-0.1300461292266845,0.0,0.0,-0.6801203489303589,-0.8841556310653687
-0.0756278038024902,1.0164422988891602,-0.1896084249019622,-0.4629967808723449,-0.2968465089797973,-0.103881299495697,0.0,0.0,-0.521670401096344,-0.6612833142280579
-0.0776176452636718,1.0058879852294922,-0.1949212849140167,-0.4699139893054962,-0.3010405898094177,-0.0838815122842788,0.0,0.0,0.1822601556777954,-0.0526880621910095
-0.0794267654418945,0.995672047138214,-0.1770462840795517,-0.4548483490943908,-0.3050285279750824,-0.0797588676214218,0.0,0.0,-0.448007583618164,-0.1326203346252441
-0.0812341719865799,0.9852840900421144,-0.1767709702253341,-0.4625283777713775,-0.3091409802436828,-0.0822491869330406,0.0,0.0,-0.6413138508796692,-0.6092240214347839
-0.0830826759338378,0.9747385382652284,-0.1818680018186569,-0.4693377912044525,-0.3122399449348449,-0.0619793012738227,0.0,0.0,-0.1800663471221923,-0.6136502623558044
-0.0849701911211013,0.9640375971794128,-0.1867237389087677,-0.4760374724864959,-0.3143466114997864,-0.0421341732144355,0.0,0.0,-0.0258957743644714,-0.5941839814186096
-0.0869054794311523,0.9531961679458618,-0.1927622407674789,-0.4820028841495514,-0.3151388764381408,-0.015845512971282,0.0,0.0,0.7784585952758789,-0.606431245803833
-0.0887635201215744,0.9434911608695984,-0.1857344806194305,-0.4313491582870483,-0.3152085542678833,-0.0013934214366599,0.0,0.0,0.7044267654418945,-0.7695316076278687
-0.090534970164299,0.9343995451927184,-0.1784104853868484,-0.40379798412323,-0.3138901591300964,0.0263677053153514,0.0,0.0,0.7707277536392212,-0.4758824110031128
-0.0919660553336143,0.9259377717971802,-0.1449255943298339,-0.375684916973114,-0.3119947612285614,0.0379076339304447,0.0,0.0,0.2755804061889648,-0.4657713174819946
-0.0932591408491134,0.918136477470398,-0.1308120936155319,-0.3464089632034302,-0.3104403913021087,0.0310868509113788,0.0,0.0,0.5311981439590454,-0.678848385810852
-0.0943665504455566,0.9107214212417604,-0.1136468276381492,-0.3289356231689453,-0.307425707578659,0.0602936260402202,0.0,0.0,0.8069661855697632,-0.793421745300293
-0.0952582359313964,0.9044153094291688,-0.0935155004262924,-0.2793551087379455,-0.302917331457138,0.0901677384972572,0.0,0.0,0.6614780426025391,-0.6549091339111328
-0.0958917587995529,0.8985874056816101,-0.0692263320088386,-0.2578072249889374,-0.2968535423278808,0.121275782585144,0.0,0.0,-0.4861740469932556,-0.1515017747879028
-0.0965189933776855,0.8925878405570984,-0.0684688761830329,-0.2654891908168793,-0.2909288108348846,0.1184946522116661,0.0,0.0,-0.0561922788619995,-0.4797561168670654
-0.0971399322152137,0.8864164352416992,-0.0677121132612228,-0.273170918226242,-0.2851437628269195,0.1157008036971092,0.0,0.0,-0.2419279813766479,0.5518417358398438
-0.0977028831839561,0.8800528049468994,-0.0604551918804645,-0.282020628452301,-0.2808738946914673,0.0853979811072349,0.0,0.0,-0.6759675741195679,0.2251677513122558
-0.0982598289847374,0.8735173940658569,-0.0597229078412056,-0.289700984954834,-0.2767446041107178,0.0825856775045394,0.0,0.0,-0.5194764733314514,-0.3806663751602173
-0.0988110527396202,0.8668098449707031,-0.0590149983763694,-0.2973812222480774,-0.2727562189102173,0.0797675028443336,0.0,0.0,-0.9416121244430542,-0.0938658118247985
-0.099356934428215,0.8599302172660828,-0.0583394467830657,-0.3050612807273865,-0.2689089179039001,0.0769457966089248,0.0,0.0,-0.9710475206375122,-0.5008288621902466
-0.0999416336417198,0.8528997302055359,-0.0632534846663475,-0.3116018176078796,-0.2640169560909271,0.0978391990065574,0.0,0.0,-0.971276581287384,0.2551560401916504
-0.1005218476057052,0.8456971049308777,-0.0626669749617576,-0.3192824423313141,-0.2592661082744598,0.0950170829892158,0.0,0.0,-0.9932295083999634,-0.6561933755874634
-0.1011459380388259,0.8383428454399109,-0.0681741535663604,-0.3258505463600158,-0.2533797323703766,0.1177269369363784,0.0,0.0,-0.998387575149536,0.7131835222244263
-0.1017124205827713,0.8307899832725525,-0.0608488507568836,-0.3349584639072418,-0.2490992248058319,0.0856101289391517,0.0,0.0,-0.996999204158783,-0.2885463833808899
-0.1022762283682823,0.8230654001235962,-0.0604553744196891,-0.3426384627819061,-0.2449589967727661,0.0828048735857009,0.0,0.0,-0.9959708452224731,0.0198293924331665
-0.102838322520256,0.8151686787605286,-0.0601422414183616,-0.3503183424472809,-0.240958496928215,0.0800099074840545,0.0,0.0,-0.9991474151611328,-0.032095730304718
-0.1033994704484939,0.8070998787879944,-0.0599173828959465,-0.3579980432987213,-0.2370971143245697,0.0772275477647781,0.0,0.0,-0.9995562434196472,-0.3811533451080322
-0.103960707783699,0.7988588213920593,-0.059788666665554,-0.3656776249408722,-0.2333741188049316,0.0744601339101791,0.0,0.0,-0.9948059916496276,-0.2309582233428955
-0.1045229882001876,0.790445864200592,-0.0597638972103595,-0.3733570277690887,-0.2297886162996292,0.0717100650072097,0.0,0.0,-0.9550929665565492,-0.3865013122558594
-0.105087473988533,0.7818606495857239,-0.05985077470541,-0.3810363113880157,-0.2263396233320236,0.068979725241661,0.0,0.0,-0.9532511234283448,-0.7444327473640442
-0.105709359049797,0.7731235027313232,-0.0668735355138778,-0.3876051306724548,-0.2216015607118606,0.0947611704468727,0.0,0.0,-0.9980393648147584,-0.0120987296104431
-0.1063359230756759,0.7642144560813904,-0.0672067552804946,-0.395285040140152,-0.2169977128505706,0.0920773968100547,0.0,0.0,-0.9959750771522522,-0.4723738431930542
-0.1069684028625488,0.7551332712173462,-0.0676740482449531,-0.4029647707939148,-0.2125266939401626,0.0894206762313842,0.0,0.0,-0.999692976474762,0.4827573299407959
-0.1076082214713096,0.7458798289299011,-0.0682826191186904,-0.4106443226337433,-0.2081870138645172,0.0867934674024581,0.0,0.0,-0.994317352771759,-0.572790801525116
-0.1082969680428505,0.7364611029624939,-0.0740600526332855,-0.4178919494152069,-0.202959731221199,0.1045453697443008,0.0,0.0,-0.9995934963226318,0.4771370887756347
-0.108996108174324,0.7268702387809753,-0.0749722272157669,-0.4255719482898712,-0.1978604793548584,0.101984716951847,0.0,0.0,-0.999462068080902,-0.0784026980400085
-0.1097070723772049,0.7171074151992798,-0.0760460495948791,-0.4332517683506012,-0.1928874403238296,0.0994612276554107,0.0,0.0,-0.9987366795539856,-0.1755032539367675
-0.1104317680001258,0.7071723341941833,-0.0772878676652908,-0.4409313797950744,-0.188038557767868,0.0969775840640068,0.0,0.0,-0.99899822473526,-0.1159641146659851
-0.1111717224121093,0.697065532207489,-0.0787037834525108,-0.4486108124256134,-0.183311715722084,0.09453646838665,0.0,0.0,-0.9999954700469972,-0.5113053321838379
-0.1119777709245681,0.6867945790290833,-0.0864290297031402,-0.4557710587978363,-0.1774620711803436,0.1169929355382919,0.0,0.0,-0.999699890613556,-0.0637571811676025
-0.1128026992082595,0.6763517260551453,-0.0882104709744453,-0.4634512364864349,-0.1717298328876495,0.1146449074149131,0.0,0.0,-0.9990462064743042,0.3614593744277954
-0.1136484146118164,0.6657368540763855,-0.0901824161410331,-0.4711312055587768,-0.1661124527454376,0.1123477593064308,0.0,0.0,-0.9946221113204956,0.8433582782745361
-0.1144567504525184,0.6549383997917175,-0.0848020762205123,-0.4794947206974029,-0.1621406376361847,0.0794366374611854,0.0,0.0,-0.9980233311653136,-0.0236269235610961
-0.1152897849678993,0.6439676284790039,-0.0871687904000282,-0.4871731102466583,-0.1582781374454498,0.0772499293088913,0.0,0.0,-0.9998842477798462,-0.5304151773452759
-0.1161849051713943,0.6328332424163818,-0.0941867604851722,-0.4943738281726837,-0.1536140292882919,0.0932821929454803,0.0,0.0,-0.9946082830429076,0.6314922571182251
-0.1170582771301269,0.6215083003044128,-0.0905863717198371,-0.5029908418655396,-0.1503698378801345,0.0648838058114051,0.0,0.0,-0.9887825846672058,-0.1523460149765014
-0.1179625540971756,0.6100112795829773,-0.0935750380158424,-0.5106685757637024,-0.1472256034612655,0.0628851056098938,0.0,0.0,-0.995948076248169,-0.1813157796859741
-0.1188998222351074,0.5983417630195618,-0.0967772081494331,-0.5183461904525757,-0.1441778242588043,0.0609553344547748,0.0,0.0,-0.9946657419204712,0.7501912117004395
-0.1198004707694053,0.5864782929420471,-0.0911703184247016,-0.5271556973457336,-0.1430730819702148,0.0220948569476604,0.0,0.0,-0.9998528957366944,-0.6079643368721008
-0.1207859069108963,0.5744572281837463,-0.100796066224575,-0.5340583920478821,-0.1408283412456512,0.0448949709534645,0.0,0.0,-0.9964666366577148,0.7510721683502197
-0.1217483505606651,0.5622560381889343,-0.0968332663178443,-0.5422183275222778,-0.1402443945407867,0.0116786761209368,0.0,0.0,-0.9977540373802184,-0.5745061635971069
-0.1227878555655479,0.5498921275138855,-0.1053690314292907,-0.5493783354759216,-0.138829618692398,0.0282955579459667,0.0,0.0,-0.9940115809440612,0.909796953201294
-0.123788833618164,0.5373286604881287,-0.0993055552244186,-0.5584495663642883,-0.13961923122406,-0.0157922152429819,0.0,0.0,-0.99824059009552,-0.2174535989761352
-0.1248357743024826,0.5245925784111023,-0.1038219183683395,-0.5661260485649109,-0.140481099486351,-0.0172375664114952,0.0,0.0,-0.9845619797706604,0.9354732036590576
-0.1258459985256195,0.5116774439811707,-0.0979630798101425,-0.5742992162704468,-0.1435377448797226,-0.0611325986683368,0.0,0.0,-0.8869578242301941,-0.8692940473556519
-0.1269772499799728,0.4986047744750976,-0.1117968186736106,-0.5811346769332886,-0.1448520720005035,-0.026286507025361,0.0,0.0,-0.7825583815574646,-0.8193299770355225
-0.128237247467041,0.485383927822113,-0.1266143769025802,-0.5875371694564819,-0.1442435383796692,0.012170779518783,0.0,0.0,-0.4279156327247619,0.9013551473617554
-0.1294705420732498,0.4719773232936859,-0.1218226701021194,-0.5959952473640442,-0.1457478404045105,-0.0300859808921813,0.0,0.0,0.1936125755310058,0.2768722772598266
-0.1307199448347091,0.4592110812664032,-0.1232009753584861,-0.567561686038971,-0.1474780887365341,-0.0346049591898918,0.0,0.0,-0.4768865704536438,-0.2558149695396423
-0.1320278197526931,0.4462721645832062,-0.1290175914764404,-0.575238049030304,-0.1492496877908706,-0.0354320332407951,0.0,0.0,0.1120504140853881,0.0123952627182006
-0.1333630532026291,0.4336616396903991,-0.1316359043121338,-0.5606589913368225,-0.1511342525482177,-0.0376912876963615,0.0,0.0,0.3561000823974609,0.9702887535095216
-0.1347199380397796,0.4216192364692688,-0.1317655593156814,-0.5356220602989197,-0.1550557911396026,-0.0784306451678276,0.0,0.0,-0.8959941864013672,0.986252784729004
-0.1360838860273361,0.4093887209892273,-0.1309621483087539,-0.5441532135009766,-0.1604822874069214,-0.1085297837853431,0.0,0.0,-0.7274761199951172,0.5889418125152588
-0.1374597549438476,0.3969763815402984,-0.1307671964168548,-0.5524113178253174,-0.1673100292682647,-0.1365549862384796,0.0,0.0,-0.8211063742637634,0.751889705657959
-0.1388402879238128,0.384369283914566,-0.1295520663261413,-0.5612924098968506,-0.1758114248514175,-0.1700280606746673,0.0,0.0,-0.960664927959442,-0.9152444005012512
-0.1403439491987228,0.3716117739677429,-0.1432790160179138,-0.5678581595420837,-0.1829190105199813,-0.1421521008014679,0.0,0.0,-0.7688382267951965,-0.920845866203308
-0.141992762684822,0.3587101399898529,-0.1597210615873336,-0.5740519762039185,-0.1881007999181747,-0.1036358252167701,0.0,0.0,-0.7695074081420898,0.930738925933838
-0.1436243951320648,0.3456214666366577,-0.1557336300611496,-0.582683265209198,-0.1955752968788147,-0.1494902074337005,0.0,0.0,-0.7891031503677368,0.2522790431976318
-0.1453313827514648,0.3323606848716736,-0.1632885634899139,-0.5903632044792175,-0.2030318081378936,-0.1491303145885467,0.0,0.0,-0.757679283618927,-0.1463274359703064
-0.1471151411533355,0.3189278841018677,-0.1710131615400314,-0.598042905330658,-0.2104629278182983,-0.1486224681138992,0.0,0.0,0.5530984401702881,0.3249101638793945
-0.1487669944763183,0.306391179561615,-0.1581168919801712,-0.5582116842269897,-0.2175973355770111,-0.142688438296318,0.0,0.0,-0.0512046813964843,-0.0382713675498962
-0.1504987776279449,0.2936823070049286,-0.1661645770072937,-0.5658906698226929,-0.224691241979599,-0.1418781578540802,0.0,0.0,0.1387782096862793,0.1489081382751464
-0.1522992104291916,0.2814526557922363,-0.1727024614810943,-0.5446779131889343,-0.2321269512176513,-0.1487141996622085,0.0,0.0,-0.3634393215179443,0.1842732429504394
-0.1541824340820312,0.2690507471561432,-0.1810514032840728,-0.552357017993927,-0.2395067065954208,-0.1475955545902252,0.0,0.0,0.8989484310150146,-0.3324447274208069
-0.1560200750827789,0.2574297189712524,-0.1764618009328842,-0.5176999568939209,-0.2469373494386673,-0.1486124694347381,0.0,0.0,0.5658395290374756,-0.3472431302070617
-0.1577958166599273,0.2463627606630325,-0.1704550087451934,-0.4930779635906219,-0.2541827261447906,-0.1449072510004043,0.0,0.0,0.3387436866760254,-0.5620743632316589
-0.1595170050859451,0.2355146259069442,-0.1664406359195709,-0.4831336140632629,-0.2599740028381347,-0.1158261895179748,0.0,0.0,0.7355754375457764,-0.7260252833366394
-0.1610881835222244,0.2255172133445739,-0.1532121002674102,-0.4450300633907318,-0.2639708220958709,-0.0799365490674972,0.0,0.0,0.5892642736434937,-0.5516194701194763
-0.1625619828701019,0.2164823859930038,-0.1447262465953827,-0.4020266830921173,-0.2666867077350616,-0.0543179512023925,0.0,0.0,0.9456733465194702,0.4313406944274902
