x_pos,y_pos,x_vel,y_vel,angle,ang_vel,leg_1,leg_2,main_booster,lat_booster
-0.0014371871948242,1.4034695625305176,-0.1453698724508285,-0.3311352133750915,0.0014767607208341,0.029108926653862,0.0,0.0,-0.5054840445518494,0.1746871471405029
-0.0027880668640136,1.39588725566864,-0.1362970173358917,-0.336992084980011,0.0026771533302962,0.0240108240395784,0.0,0.0,-0.2815135717391968,0.9222524166107178
-0.0039642332121729,1.3881431818008425,-0.1163415536284446,-0.3441780209541321,0.0014109060866758,-0.0253272596746683,0.0,0.0,-0.1934747695922851,0.2224578857421875
-0.0050548552535474,1.3802441358566284,-0.1075342744588851,-0.3510662019252777,-9.360045805806294e-05,-0.0300930328667163,0.0,0.0,-0.3270518779754638,-0.012705385684967
-0.0060603143647313,1.372190237045288,-0.0987813025712966,-0.3579516112804413,-0.0018382363487035,-0.0348959676921367,0.0,0.0,-0.4720534086227417,-0.0050542950630187
-0.006981277372688,1.3639813661575315,-0.0900863856077194,-0.3648363649845123,-0.0038225692696869,-0.0396902337670326,0.0,0.0,-0.7487547993659973,0.3703876733779907
-0.007818317040801,1.355617880821228,-0.0814539939165115,-0.3717212677001953,-0.0060463533736765,-0.0444799736142158,0.0,0.0,-0.740209698677063,-0.0222142934799194
-0.0085721965879201,1.347099542617798,-0.0728886649012565,-0.3786063194274902,-0.0085091115906834,-0.0492599382996559,0.0,0.0,-0.7931361794471741,-0.761745035648346
-0.0093046184629201,1.3384352922439575,-0.0720657855272293,-0.3850802481174469,-0.0096710212528705,-0.0232403576374053,0.0,0.0,-0.7545649409294128,-0.6668431758880615
-0.0100079532712697,1.329621195793152,-0.0702486485242843,-0.3917380571365356,-0.0097480928525328,-0.0015416287351399,0.0,0.0,-0.7381129860877991,-0.515692949295044
-0.0106651308014988,1.3206530809402466,-0.0662897080183029,-0.3985783755779266,-0.0091858059167861,0.011246895417571,0.0,0.0,-0.6968726515769958,0.0541898012161254
-0.0112422946840524,1.3115301132202148,-0.0580501668155193,-0.405463308095932,-0.0088583482429385,0.00654973462224,0.0,0.0,-0.607526421546936,0.0325847864151001
-0.0117403985932469,1.3022522926330566,-0.0499011501669883,-0.4123482704162597,-0.0087634725496172,0.0018976286519318,0.0,0.0,-0.764948308467865,-0.6012731790542603
-0.0122022628784179,1.2928144931793213,-0.0471185334026813,-0.4194515347480774,-0.0078434683382511,0.018401576206088,0.0,0.0,-0.7568447589874268,0.2508238554000854
-0.0125869754701852,1.28322172164917,-0.0391688048839569,-0.4263366162776947,-0.0071520041674375,0.01383070461452,0.0,0.0,-0.7610748410224915,-0.5642419457435608
-0.0129319187253713,1.2734678983688354,-0.0358975455164909,-0.4334946274757385,-0.0057697314769029,0.0276478622108697,0.0,0.0,-0.9002882838249207,-0.7355759143829346
-0.0132465362548828,1.26356840133667,-0.0337820127606391,-0.4399773478507995,-0.0034837089478969,0.0457248613238334,0.0,0.0,-0.6559920907020569,-0.3774526119232178
-0.0134872440248727,1.253514051437378,-0.0261694155633449,-0.4468629658222198,-0.0014165595639497,0.0413466468453407,0.0,0.0,-0.9343602657318116,-0.2125219702720642
-0.0136552806943655,1.24330472946167,-0.0186770558357238,-0.4537484049797058,0.0004361544852145,0.037057876586914,0.0,0.0,-0.7034639716148376,-0.7273006439208984
-0.0138169284909963,1.2329400777816772,-0.0194836892187595,-0.4606519341468811,0.0037161253858357,0.0656053870916366,0.0,0.0,-0.9511645436286926,-0.7280997037887573
-0.0139538766816258,1.222425937652588,-0.0179438982158899,-0.4673154950141907,0.007929409854114,0.0842730551958084,0.0,0.0,-0.8790804743766785,0.0554019212722778
-0.014021873474121,0.0,-0.0108511094003915,-0.474202036857605,0.0119414832442998,0.0802484974265098,0.0,0.0,-0.9400653839111328,-0.0047967433929443
-0.0140222553163766,1.2009332180023191,-0.0038984515704214,-0.4810883402824402,0.0157581400126218,0.0763396397233009,0.0,0.0,-0.9079970717430116,-0.2519646286964416
-0.0139565467834472,1.1899547576904297,0.002908922266215,-0.4879745244979858,0.0193848833441734,0.072541169822216,0.0,0.0,-0.6918435096740723,0.5575745105743408
-0.0137923238798975,1.1788238286972046,0.0137930884957313,-0.4947376549243927,0.0219805296510458,0.051917303353548,0.0,0.0,-0.8369062542915344,-0.335051953792572
-0.0135644916445016,1.167516827583313,0.0203303769230842,-0.5025767087936401,0.0243995320051908,0.0483802258968353,0.0,0.0,-0.8808806538581848,-0.0913091897964477
-0.0132748605683445,1.1560548543930054,0.0266831517219543,-0.509459912776947,0.0266492515802383,0.0449945107102394,0.0,0.0,-0.899744987487793,0.0077795982360839
-0.0129250530153512,1.1444380283355713,0.0328717939555645,-0.5163429975509644,0.0287374630570411,0.041764061897993,0.0,0.0,-0.8178508281707764,0.0926293134689331
-0.0125164985656738,1.1326663494110107,0.0388922207057476,-0.5232260227203369,0.0306722950190305,0.0386964157223701,0.0,0.0,-0.90827476978302,-0.2388516664505005
-0.0120510105043649,1.1207398176193235,0.0447405502200126,-0.5301090478897095,0.0324622429907321,0.0357988402247428,0.0,0.0,-0.9438937306404114,0.1264501810073852
-0.0115302084013819,1.1086583137512207,0.0504131242632865,-0.5369919538497925,0.0341161750257015,0.033078558743,0.0,0.0,-0.950544536113739,0.1547645330429077
-0.0109556196257472,1.0964218378067017,0.0559065751731395,-0.5438748598098755,0.0356433317065238,0.0305431671440601,0.0,0.0,-0.9156407117843628,-0.1170047521591186
-0.010329246520996,1.0840306282043457,0.0612177774310112,-0.5507577657699585,0.0370533131062984,0.0281996540725231,0.0,0.0,-0.9376820921897888,0.4718188047409057
-0.0096526145935058,1.0714844465255735,0.0663439109921455,-0.5576407313346863,0.0383560582995414,0.0260550640523433,0.0,0.0,-0.9290307760238647,0.0215176343917846
-0.0089275361970067,1.0587832927703855,0.0712824910879135,-0.5645235776901245,0.0395618714392185,0.0241163875907659,0.0,0.0,-0.8592813014984131,-0.3699913024902344
-0.0081559177488088,1.0459275245666504,0.076031319797039,-0.5714064240455627,0.040681391954422,0.0223903264850378,0.0,0.0,-0.9155254364013672,-0.3971258401870727
-0.0073394775390625,1.03291654586792,0.08058862388134,-0.5782893300056458,0.0417255423963069,0.0208832286298275,0.0,0.0,-0.9577203989028932,0.0214937925338745
-0.0064800260588526,1.0197508335113523,0.0849529430270195,-0.5851722359657288,0.0427056029438972,0.0196012835949659,0.0,0.0,-0.9486123919487,0.2367036342620849
-0.0055793761275708,1.0064301490783691,0.0891232267022132,-0.5920551419258118,0.0436331219971179,0.0185503251850605,0.0,0.0,-0.9027969241142272,-0.2853674292564392
-0.0046394346281886,0.992954671382904,0.0930987745523452,-0.5989381074905396,0.0445199087262153,0.0177357532083988,0.0,0.0,-0.9720442891120912,-0.2778308391571045
-0.0036619186867028,0.9793242812156676,0.0968793630599975,-0.6058211922645569,0.0453780405223369,0.0171625427901744,0.0,0.0,-0.9380265474319458,-0.1785304546356201
-0.0026487349532544,0.9655390381813048,0.1004650965332984,-0.6127042174339294,0.0462197884917259,0.0168352611362934,0.0,0.0,-0.8607075810432434,-0.226764440536499
-0.0016016960144042,0.951598823070526,0.1038565263152122,-0.619587242603302,0.0470576919615268,0.0167579390108585,0.0,0.0,-0.9289336204528807,-0.8408094644546509
-0.0005780219798907,0.9374982714653016,0.100095510482788,-0.6267654299736023,0.0493017621338367,0.0448814667761325,0.0,0.0,-0.9787993431091307,-0.0790433883666992
0.0004758834838867,0.92324298620224,0.1031016334891319,-0.6336489915847778,0.0515674613416194,0.0453139580786228,0.0,0.0,-0.90749591588974,-0.2068486809730529
0.0015583991771563,0.908832848072052,0.1059175357222557,-0.6405326128005981,0.0538677237927913,0.0460050143301487,0.0,0.0,-0.9095560312271118,-0.0203863382339477
0.0026676177512854,0.8942679762840271,0.1085454076528549,-0.6474162936210632,0.056215550750494,0.0469565168023109,0.0,0.0,-0.9577376246452332,-0.4471538066864013
0.0038018226623535,0.8795481324195862,0.1109878048300743,-0.6543000936508179,0.058624017983675,0.0481693223118782,0.0,0.0,-0.905653953552246,-0.4763140678405761
0.0049593923613429,0.8646737933158875,0.1132476925849914,-0.6611840128898621,0.0611062087118625,0.0496438145637512,0.0,0.0,-0.9276579022407532,0.3714791536331177
0.0061387061141431,0.8496447205543518,0.1153283715248107,-0.668067991733551,0.0636751651763916,0.0513793937861919,0.0,0.0,-0.594569742679596,0.2595366239547729
0.0073379515670239,0.8344608545303345,0.1172334998846054,-0.6749520897865295,0.0663439333438873,0.0533753260970115,0.0,0.0,-0.8406546115875244,-0.3226287364959717
0.008555794134736,0.819122314453125,0.1189671158790588,-0.6818363070487976,0.0691254064440727,0.0556298121809959,0.0,0.0,-0.7812414169311523,0.3149634599685669
0.0097905155271291,0.8036293387413025,0.120533563196659,-0.688720703125,0.072032406926155,0.0581404045224189,0.0,0.0,-0.8257961273193359,-0.621568500995636
0.0109915733337402,0.7879821062088013,0.1157870516180992,-0.6956455111503601,0.0763071924448013,0.0854956209659576,0.0,0.0,-0.7056931257247925,0.892073392868042
0.0122945783659815,0.7721869349479675,0.1280684620141983,-0.7021183371543884,0.0785172656178474,0.0442016012966632,0.0,0.0,-0.8786749243736267,0.7589282989501953
0.0136607168242335,0.7562397718429565,0.1355008780956268,-0.708821177482605,0.0796194151043891,0.0220430810004472,0.0,0.0,-0.5910097360610962,-0.4285842180252075
0.0150381084531545,0.7401379346847534,0.136447787284851,-0.7157054543495178,0.0808964893221855,0.0255415849387645,0.0,0.0,-0.7426837682723999,-0.0097604393959045
0.0164254195988178,0.7238814234733582,0.1372534483671188,-0.7225898504257202,0.0823602452874183,0.0292750839143991,0.0,0.0,-0.5686039924621582,-0.1126702427864074
0.0178214069455862,0.7074703574180603,0.1379237622022628,-0.7294744253158569,0.0840221345424652,0.0332376919686794,0.0,0.0,-0.8730666637420654,-0.9647552371025084
0.0191388130187988,0.6909022927284241,0.1276650130748748,-0.7365900874137878,0.0880557373166084,0.0806722342967987,0.0,0.0,-0.8733503222465515,0.9155112504959106
0.0205413810908794,0.6741823554039001,0.1379553079605102,-0.7432495951652527,0.0903325900435447,0.0455373264849185,0.0,0.0,-0.8829255700111389,-0.6901333928108215
0.021885585039854,0.657302737236023,0.1302742063999176,-0.7504569292068481,0.0944431126117706,0.0822102278470993,0.0,0.0,-0.69008469581604,0.6501662731170654
0.0232959743589162,0.6402758955955505,0.1382220685482025,-0.7569267153739929,0.0972331091761589,0.0557998828589916,0.0,0.0,-0.8897548317909241,-0.1337970495223999
0.0247097015380859,0.6230947375297546,0.1383104622364044,-0.7638124227523804,0.100273497402668,0.0608079358935356,0.0,0.0,0.3327374458312988,-0.5356036424636841
0.0260585788637399,0.6062325835227966,0.1304680705070495,-0.7497351169586182,0.1046582609415054,0.0876952484250068,0.0,0.0,-0.6183298230171204,0.8181396722793579
0.0274602882564067,0.589224636554718,0.1367864906787872,-0.7561520338058472,0.1080153137445449,0.0671412721276283,0.0,0.0,-0.1312929987907409,0.3329360485076904
0.0288629531860351,0.5720622539520264,0.1366062611341476,-0.7630385160446167,0.1116496920585632,0.0726874470710754,0.0,0.0,-0.1101992130279541,0.0896139144897461
0.0302658081054687,0.5547457337379456,0.1363504827022552,-0.7699252963066101,0.1155695766210556,0.0783973559737205,0.0,0.0,0.5658020973205566,0.5915330648422241
0.0316487327218055,0.5385001301765442,0.1351696103811264,-0.7222720980644226,0.1186649277806282,0.0619070306420326,0.0,0.0,-0.4257670640945434,0.3116152286529541
0.0330306999385356,0.5221001505851746,0.1347838938236236,-0.7291589975357056,0.1220610067248344,0.0679212361574173,0.0,0.0,-0.1081884503364563,0.2385028600692749
0.0344114303588867,0.5055460333824158,0.1343439519405365,-0.7360460758209229,0.1257648020982742,0.0740759894251823,0.0,0.0,0.0639842748641967,-0.1352617740631103
0.0357597358524799,0.4894380569458008,0.1307043135166168,-0.7162666916847229,0.1298746615648269,0.082196906208992,0.0,0.0,0.0944821834564209,0.569256067276001
0.0369833931326866,0.4740046262741089,0.1192199140787124,-0.6862081289291382,0.1330136060714721,0.0627791658043861,0.0,0.0,-0.5668132305145264,0.94051992893219
0.0382875427603721,0.458433598279953,0.1290474236011505,-0.6921691298484802,0.1343708634376526,0.0271453075110912,0.0,0.0,-0.1817033886909485,-0.0177294611930847
0.0395891182124614,0.4427082538604736,0.1284618079662323,-0.6990560293197632,0.136060282588005,0.033788226544857,0.0,0.0,0.4655542373657226,0.157789945602417
0.0409087166190147,0.4272695481777191,0.1296437829732895,-0.6863771677017212,0.1383660733699798,0.0461162254214286,0.0,0.0,0.6593316793441772,0.3467178344726562
0.0421470627188682,0.4121765792369842,0.1213311776518821,-0.671032726764679,0.1408673226833343,0.0500251054763793,0.0,0.0,0.7166180610656738,-0.0460068583488464
0.0432583801448345,0.3981516361236572,0.1083220615983009,-0.6235983967781067,0.1436752080917358,0.0561572015285491,0.0,0.0,-0.1556589603424072,0.9299921989440918
0.0444485656917095,0.3839996457099914,0.117972195148468,-0.6290790438652039,0.1447227895259857,0.0209515877068042,0.0,0.0,0.5920803546905518,0.432560920715332
0.0454156883060932,0.3708392381668091,0.0958081260323524,-0.5849978923797607,0.1456251591444015,0.0180471651256084,0.0,0.0,0.1015770435333252,0.909206748008728
0.0463198646903038,0.3578366041183471,0.0909808725118637,-0.5778400897979736,0.1450645178556442,-0.0112129198387265,0.0,0.0,0.6072461605072021,0.6516289710998535
0.0472035408020019,0.3458473980426788,0.089775949716568,-0.5327160358428955,0.1436541080474853,-0.0282077547162771,0.0,0.0,0.4223403930664062,-0.2978627681732178
0.0479281432926654,0.3344208300113678,0.0739162787795066,-0.5077065229415894,0.1422053277492523,-0.028975561261177,0.0,0.0,0.6128219366073608,0.6893658638000488
0.048553466796875,0.3238247632980346,0.0651214569807052,-0.4706929922103882,0.1396227926015854,-0.0516507700085639,0.0,0.0,0.5402429103851318,0.1558918952941894
0.0490761771798133,0.3140406310558319,0.0545384064316749,-0.4346415400505066,0.1373592764139175,-0.0452699214220047,0.0,0.0,0.2635109424591064,0.5525569915771484
0.0496531501412391,0.3047875761985779,0.0605547428131103,-0.4109872579574585,0.1345130801200866,-0.0569240562617778,0.0,0.0,-0.1806126832962036,-0.4005073308944702
0.0502303130924701,0.2953803837299347,0.0601993203163147,-0.417875200510025,0.1320420354604721,-0.0494212657213211,0.0,0.0,-0.3408102393150329,-0.4380733966827392
0.0508083328604698,0.2858190536499023,0.059905432164669,-0.42476287484169,0.1299480497837066,-0.0418797433376312,0.0,0.0,0.3825502395629883,-0.335553765296936
0.0514481551945209,0.2768382430076599,0.0651245266199112,-0.3990472853183746,0.12880240380764,-0.0229128822684288,0.0,0.0,-0.0245813727378845,-0.4678362607955932
0.0520901679992675,0.2677032053470611,0.0649715736508369,-0.4059345126152038,0.1280370950698852,-0.0153060602024197,0.0,0.0,0.4771946668624878,0.0795567035675048
0.0526445396244525,0.2594123184680938,0.0558438412845134,-0.3684481382369995,0.1276300251483917,-0.0081414068117737,0.0,0.0,0.4141231775283813,0.0154728889465332
0.0531464591622352,0.2519383430480957,0.0500963740050792,-0.3321881592273712,0.1277283281087875,0.0019660498946905,0.0,0.0,0.1126081943511962,-0.085718810558319
0.0536792762577533,0.2449944764375686,0.0524051673710346,-0.3086916804313659,0.1285984367132187,0.017402371391654,0.0,0.0,0.1491783857345581,0.1863889694213867
0.0542584434151649,0.2382476925849914,0.0563211366534233,-0.2999948263168335,0.1301777511835098,0.0315865352749824,0.0,0.0,0.3102567195892334,0.2092969417572021
0.0547505393624305,0.2319392710924148,0.0474375411868095,-0.2805296182632446,0.131949707865715,0.0354390367865562,0.0,0.0,-0.0210601687431335,0.2544198036193847
0.0552505478262901,0.2254767268896103,0.047838382422924,-0.2874171435832977,0.1341075748205185,0.0431575551629066,0.0,0.0,0.3914543390274048,0.30756676197052
0.0556760802865028,0.2195686399936676,0.0400862321257591,-0.2628028690814972,0.1365609318017959,0.0490668825805187,0.0,0.0,0.6556023359298706,0.1604413986206054
0.0558795928955078,0.2146657109260559,0.0180851370096206,-0.2181189209222793,0.1388240605592727,0.045262187719345,0.0,0.0,-0.8670258522033691,0.9157254695892334
0.0561760887503623,0.2096304446458816,0.0290926937013864,-0.2238432765007019,0.1393768191337585,0.0110553400591015,0.0,0.0,-0.5082104802131653,0.0812823772430419
0.056485079228878,0.2044409066438675,0.0299554355442523,-0.2307308316230774,0.1403163224458694,0.018790004774928,0.0,0.0,-0.0859780311584472,0.5613353252410889
0.0568452849984169,0.1991093903779983,0.0356674157083034,-0.2369927614927292,0.1406725347042083,0.0071238102391362,0.0,0.0,0.4303810596466064,-0.5714680552482605
0.0570924766361713,0.1942477375268936,0.022874092683196,-0.2162498980760574,0.1425058990716934,0.0366672873497009,0.0,0.0,0.412503719329834,0.1096445322036743
0.0571842193603515,0.1899740844964981,0.0074096983298659,-0.190107062458992,0.1442639380693435,0.0351608321070671,0.0,0.0,-0.4631248712539673,0.2807445526123047
0.0572936050593853,0.1855464279651641,0.0087903793901205,-0.1969949901103973,0.1464076340198516,0.042873777449131,0.0,0.0,0.054416537284851,0.4451291561126709
0.0574220642447471,0.1816600859165191,0.0099926134571433,-0.1730080246925354,0.1492491662502288,0.0568305924534797,0.0,0.0,-0.6423835754394531,0.3086915016174316
0.057570744305849,0.1776197552680969,0.0116476956754922,-0.1798965036869049,0.1524752080440521,0.0645204186439514,0.0,0.0,-0.320807933807373,0.3331351280212402
0.057741355150938,0.1734254956245422,0.0134427715092897,-0.1867852807044983,0.1560850143432617,0.0721958428621292,0.0,0.0,0.1692811250686645,-0.0907348990440368
0.0578337684273719,0.1698874086141586,0.0053187436424195,-0.1576644033193588,0.1600028425455093,0.0783565193414688,0.0,0.0,-0.6300438046455383,0.470944881439209
0.0579507835209369,0.1661955416202545,0.007397832814604,-0.1645538210868835,0.1643027365207672,0.0859977602958679,0.0,0.0,0.1881248950958252,0.1965939998626709
0.058079719543457,0.1629801839590072,0.0079630082473158,-0.1434590965509414,0.1692374944686889,0.0986951142549514,0.0,0.0,-0.2024396657943725,-0.119261085987091
0.0582360252737998,0.1596111208200454,0.010329476557672,-0.1503495126962661,0.1745522618293762,0.1062953621149063,0.0,0.0,0.0599703788757324,0.1538100242614746
0.0583718307316303,0.1568450033664703,0.0077199628576636,-0.1236367896199226,0.1804259270429611,0.1174734458327293,0.0,0.0,-0.8163660168647766,0.0944181680679321
0.058537770062685,0.1539254784584045,0.0103746214881539,-0.1305283308029174,0.1866772174835205,0.1250260323286056,0.0,0.0,-0.6698412299156189,0.4861901998519897
0.058735467493534,0.1508524566888809,0.0131728816777467,-0.1374204307794571,0.1933048367500305,0.1325523555278778,0.0,0.0,-0.4841604232788086,0.4549570083618164
-999.0,0.1476262211799621,0.0161140244454145,-0.1443131119012832,0.2003073692321777,0.1400507986545562,0.0,0.0,-0.421923279762268,0.5750246047973633
0.0592742934823036,0.144259437918663,0.0245984252542257,-0.1504902988672256,0.2065694481134414,0.1252414584159851,0.0,0.0,-0.3160454630851745,0.1050488948822021
0.0596181862056255,0.1407393813133239,0.0278216060250997,-0.1573829352855682,0.21320341527462,0.1326791942119598,0.0,0.0,0.294638991355896,-0.3009141683578491
0.0600397102534771,0.1375117152929306,0.0347556509077549,-0.1445396840572357,0.2206810116767883,0.1495518982410431,0.0,0.0,-0.3392882347106933,-0.1853981018066406
0.0604996681213378,0.134130984544754,0.0382550284266471,-0.1514340490102768,0.2285271137952804,0.1569217145442962,0.0,0.0,-0.1208335757255554,0.4250245094299316
0.0609994903206825,0.1305972635746002,0.0418893881142139,-0.1583290845155716,0.2367398738861084,0.1642548590898513,0.0,0.0,-0.2838106155395508,0.5036032199859619
0.0615840926766395,0.1269207745790481,0.0511204227805137,-0.1646020710468292,0.2441985309123993,0.1491731703281402,0.0,0.0,-0.343705415725708,0.2776625156402588
0.0622110366821289,0.1230912283062934,0.0550168342888355,-0.1714969724416732,0.2520198822021484,0.1564271599054336,0.0,0.0,-0.3763518929481506,0.3017246723175049
