x_pos,y_pos,x_vel,y_vel,angle,ang_vel,leg_1,leg_2,main_booster,lat_booster
-0.0015288352733477,1.403462052345276,-0.1550491154193878,-0.3314651548862457,0.001938949804753,0.038260780274868,0.0,0.0,-0.5687118421406798,-0.6168158533067538
-0.0031078339088708,1.3958618640899658,-0.1610952019691467,-0.3377928733825683,0.0051020276732742,0.0632682219147682,0.0,0.0,0.3572668800415186,0.4963307972818604
-0.0045848847366869,1.3885977268218994,-0.1515862792730331,-0.3228699862957001,0.0089437859132885,0.076842114329338,0.0,0.0,0.2470237632918288,0.3293557073647758
-0.0061615942977368,1.3817358016967771,-0.1612707525491714,-0.3050040602684021,0.0125019876286387,0.0711704492568969,0.0,0.0,-0.7073288148909234,0.266630084938356
-0.0077449800446629,1.3747116327285769,-0.1620810478925705,-0.3122221827507019,0.0162035729736089,0.0740386396646499,0.0,0.0,-0.9376158062722704,-0.3095683414032347
-0.0093352319672703,1.367525339126587,-0.1629075109958648,-0.3194363713264465,0.0200424678623676,0.0767850205302238,0.0,0.0,0.8769902239776517,-0.8116248327372254
-0.0110375406220555,1.36115825176239,-0.1758100688457489,-0.2830661237239837,0.0255576688796281,0.1103142276406288,0.0,0.0,0.2255638110067979,0.4724816648095903
-0.0126484874635934,1.3553531169891355,-0.1673317700624466,-0.2581270933151245,0.0317262299358844,0.1233826130628585,0.0,0.0,0.2353764625583925,0.7629060711141935
-0.0142369270324707,1.3503347635269165,-0.1636514812707901,-0.2231459468603134,0.0364892557263374,0.0952694714069366,0.0,0.0,-0.2406664601605004,-0.1812984186084432
-0.0158324241638183,1.3451544046401978,-0.164479523897171,-0.2303676307201385,0.0413669124245643,0.0975618511438369,0.0,0.0,-0.9856581904407864,0.2649266627010304
-0.0174349788576364,1.339812159538269,-0.1652926951646804,-0.237581267952919,0.046351458877325,0.0997000858187675,0.0,0.0,0.0260809528868903,-0.3725668081289868
-0.0190156940370798,1.334802508354187,-0.1634247452020645,-0.2228211015462875,0.0516445040702819,0.1058704853057861,0.0,0.0,-0.601583210781939,-0.2562151775366561
-0.0206031799316406,1.329630970954895,-0.1641867905855178,-0.2300428003072738,0.0570311248302459,0.1077423095703125,0.0,0.0,-0.5653201320564121,-0.8881447923574475
-0.0222586635500192,1.324284315109253,-0.1726509630680084,-0.2379217147827148,0.0640671402215957,0.1407331675291061,0.0,0.0,0.3248815654378336,-0.5068923914531066
-0.0238804817199707,1.3197786808013916,-0.1706760227680206,-0.2006298899650573,0.0724845677614212,0.1683638393878936,0.0,0.0,0.7153850734560363,0.2156556493542826
-0.0254168510437011,1.315585732460022,-0.1627407371997833,-0.1868139654397964,0.0815087705850601,0.1805004030466079,0.0,0.0,0.5721817390031765,0.1745868755781912
-0.026894187554717,1.3124648332595823,-0.157506838440895,-0.1392687410116195,0.0912130028009414,0.1941023021936416,0.0,0.0,0.6166748113125609,-0.9255564701225376
-0.0283259395509958,1.3097342252731323,-0.1550767719745636,-0.122126467525959,0.1030359044671058,0.2364792823791504,0.0,0.0,0.256175575633558,0.4132154448897245
-0.0297513008117675,1.307765245437622,-0.1548214554786682,-0.0883974209427833,0.1152524203062057,0.2443525493144989,0.0,0.0,0.0361579045290856,-0.8798547885523567
-0.0313495621085166,1.3061425685882568,-0.1739015579223632,-0.0732712671160698,0.1292622685432434,0.2802223563194275,0.0,0.0,0.7676152224977575,-0.7735919186668697
-0.0329674705862998,1.305579662322998,-0.1777298003435135,-0.0264765787869691,0.1451555788516998,0.3178954720497131,0.0,0.0,0.9186660293159286,0.3675365188530209
-0.0346487984061241,1.3056230545043943,-0.1841078400611877,0.0002982071309816,0.1611367613077163,0.3196521997451782,0.0,0.0,-0.9093153336456096,0.7859038841362838
-0.0362568870186805,1.305524230003357,-0.1748759150505066,-0.0059774424880743,0.1752252727746963,0.2817956507205963,0.0,0.0,-0.6821121220972217,-0.0060952755546556
-0.0378655418753623,1.3052656650543213,-0.174906313419342,-0.0132102835923433,0.1893249154090881,0.2820185720920563,0.0,0.0,-0.1897526467947066,-0.215218579874738
-0.039473820477724,1.304847002029419,-0.1748293936252594,-0.0204466022551059,0.2034269124269485,0.2820654511451721,0.0,0.0,0.0697975833161068,-0.0034171531119142
-0.041262149810791,1.3048888444900513,-0.1923688352108001,-6.12099320278503e-05,0.2170887589454651,0.2732371687889099,0.0,0.0,-0.6030252541829666,-0.6596493406547773
-0.0430986396968364,1.3047583103179932,-0.1984366625547409,-0.0080454600974917,0.2320566624403,0.2993578314781189,0.0,0.0,-0.1892249378830965,-0.8677381591103046
-0.0450137145817279,1.3044489622116089,-0.2083076983690261,-0.0164948794990777,0.2491289377212524,0.3414453268051147,0.0,0.0,-0.1676159388881812,-0.7594358503134735
-0.0469954498112201,1.3039604425430298,-0.2166979759931564,-0.0249695759266614,0.2680377066135406,0.3781759738922119,0.0,0.0,0.4093558524928409,0.9089946181111856
-0.0490309707820415,1.3039324283599854,-0.2201490402221679,-0.0043816328980028,0.2850576043128967,0.3403988182544708,0.0,0.0,-0.796770531094787,-0.088808293701045
-0.0510589592158794,1.3037453889846802,-0.219263881444931,-0.0116171343252062,0.3020385503768921,0.3396195471286773,0.0,0.0,-0.9498497247695924,0.9950079917907716
-0.0530113205313682,1.30342435836792,-0.209898442029953,-0.0173914115875959,0.3172163367271423,0.303556352853775,0.0,0.0,-0.9273226857185364,0.9924914836883544
-0.0548912063241004,1.302983641624451,-0.20082488656044,-0.0224579758942127,0.3305849432945251,0.2673720419406891,0.0,0.0,-0.9348220825195312,0.9962646961212158
-0.0566905029118061,1.3024078607559204,-0.1909228712320327,-0.0281488820910453,0.3420841693878174,0.2299842536449432,0.0,0.0,-0.9213748574256896,0.9988086223602296
-0.0584001541137695,1.301713466644287,-0.1798731088638305,-0.03300366923213,0.3514155149459839,0.1866272389888763,0.0,0.0,-0.9739694595336914,0.987462282180786
-0.0600211136043071,1.300905466079712,-0.1688950061798095,-0.0375924333930015,0.3585809171199798,0.143308013677597,0.0,0.0,-0.9852907657623292,0.9856936931610109
-0.0615540519356727,1.2999695539474487,-0.1581832468509674,-0.0428254418075084,0.3637397587299347,0.1031765788793563,0.0,0.0,-0.989922046661377,0.937451720237732
-0.0629964843392372,1.2989195585250854,-0.1471045315265655,-0.047388631850481,0.3667589724063873,0.0603840947151184,0.0,0.0,-0.9123743176460266,0.9356154203414916
-0.0643566101789474,1.2977536916732788,-0.1370737850666046,-0.0520904064178466,0.3678793609142303,0.0224079824984073,0.0,0.0,-0.988316297531128,0.9870240688323976
-0.0656187981367111,1.2964699268341064,-0.1251798421144485,-0.0567862540483474,0.366779625415802,-0.0219947081059217,0.0,0.0,-0.9933068156242372,0.8501642942428589
-0.0668072700500488,1.2950598001480105,-0.1163407117128372,-0.0620369873940944,0.3641344010829925,-0.052904337644577,0.0,0.0,-0.9934371709823608,0.8105155229568481
-0.0678975135087966,1.293526291847229,-0.1045259237289428,-0.0670192092657089,0.3593805432319641,-0.095077134668827,0.0,0.0,-0.996449649333954,0.9220280647277832
-0.0688788443803787,1.291865348815918,-0.0914412587881088,-0.072160318493843,0.3523314297199249,-0.1409816443920135,0.0,0.0,-0.9997780919075012,0.919825792312622
-0.0697512626647949,1.2900843620300293,-0.0783334299921989,-0.0770029127597808,0.3429737091064453,-0.1871551424264907,0.0,0.0,-0.9907929301261902,0.7590792179107666
-0.0705381408333778,1.288161277770996,-0.0682510882616043,-0.0830196067690849,0.3320590853691101,-0.2182924002408981,0.0,0.0,-0.9988583326339722,0.7600734233856201
-0.0712295547127723,1.2861013412475586,-0.056954838335514,-0.0887979641556739,0.3193588554859161,-0.2540045976638794,0.0,0.0,-0.9730599522590636,0.6957333087921143
-0.0718283653259277,1.2839059829711914,-0.0460161939263343,-0.0945877358317375,0.3049735128879547,-0.2877076268196106,0.0,0.0,-0.9942513704299928,0.237378716468811
-0.0723908394575119,1.2815501689910889,-0.042198397219181,-0.1018140241503715,0.2904583811759949,-0.2903029322624206,0.0,0.0,-0.9600476622581482,0.0532865524291992
-0.0729151740670204,1.2790344953536987,-0.038196362555027,-0.1090407371520996,0.2758096754550934,-0.2929741740226745,0.0,0.0,-0.9903165102005004,0.5727550983428955
-0.0733574852347374,1.2763750553131104,-0.0286986716091632,-0.1153418496251106,0.2599048018455505,-0.3180968165397644,0.0,0.0,-0.7994032502174377,-0.1344438791275024
-0.0737581253051757,1.273556351661682,-0.0243307035416364,-0.1225723028182983,0.2438593804836273,-0.3209083378314972,0.0,0.0,-0.93398779630661,-0.1912434697151184
-0.0741153731942176,1.270578145980835,-0.0197829790413379,-0.129803329706192,0.2276701182126999,-0.3237852454185486,0.0,0.0,-0.959546446800232,-0.3262944221496582
-0.0744275078177452,1.2674405574798584,-0.0150576634332537,-0.1370349526405334,0.2113339304924011,-0.3267241716384887,0.0,0.0,-0.6499186158180237,-0.54132080078125
-0.0747348815202713,1.2641351222991943,-0.0154555421322584,-0.1447979658842086,0.1959272921085357,-0.3081328272819519,0.0,0.0,-0.8191193342208862,-0.2807022333145141
-0.0749935135245323,1.260670185089111,-0.0103836869820952,-0.1520279943943023,0.1803679913282394,-0.3111861050128937,0.0,0.0,-0.8564531803131104,-0.1902027130126953
-0.0752017050981521,1.2570456266403198,-0.0051425155252218,-0.1592586189508438,0.1646534502506256,-0.3142907619476318,0.0,0.0,-0.9403163194656372,-0.6565271615982056
-0.0754015892744064,1.2532567977905271,-0.0052284696139395,-0.1668263226747512,0.1498872339725494,-0.2953244149684906,0.0,0.0,-0.7567850351333618,0.000395655632019
-0.0755477920174598,1.2493081092834473,0.0003404297458473,-0.1740554273128509,0.1349611133337021,-0.2985224723815918,0.0,0.0,-0.7456886768341064,-0.0947432518005371
-0.0756386741995811,1.2451999187469482,0.0060680210590362,-0.1812851428985595,0.1198730394244194,-0.3017615377902984,0.0,0.0,-0.9664129018783568,-0.6790366172790527
-0.0757332816720008,1.24092698097229,0.004362151492387,-0.1888595074415207,0.1061453372240066,-0.274553894996643,0.0,0.0,-0.9917805790901184,-0.1458362936973571
-0.0757693275809288,1.2364938259124756,0.0103943804278969,-0.1960868090391159,0.0922520384192466,-0.277866005897522,0.0,0.0,-0.9921188950538636,-0.5610901117324829
-0.0757972747087478,1.2318964004516602,0.010083538480103,-0.2035848796367645,0.0794950425624847,-0.2551399171352386,0.0,0.0,-0.9785379767417908,-0.3411844968795776
-0.0757638961076736,1.227138638496399,0.0164036639034748,-0.2108103930950164,0.066569484770298,-0.2585112750530243,0.0,0.0,-0.9917070865631104,-0.8472603559494019
-0.075731948018074,1.2222154140472412,0.0147898914292454,-0.2183391898870468,0.0550945661962032,-0.2294983565807342,0.0,0.0,-0.9974356293678284,-0.4386759400367737
-0.0756360068917274,1.217131495475769,0.0213800184428691,-0.2255624383687973,0.0434487573802471,-0.2329158037900924,0.0,0.0,-0.99286949634552,-0.461479902267456
-0.0754746422171592,1.2118871212005615,0.0280983932316303,-0.2327862083911895,0.0316312089562416,-0.2363509386777877,0.0,0.0,-0.999703288078308,-0.8725112080574036
-0.0753134712576866,1.2064889669418335,0.0265686456114053,-0.2397346645593643,0.021313551813364,-0.206353098154068,0.0,0.0,-0.996993601322174,-0.6770270466804504
-0.0751306563615799,1.2009201049804688,0.0277357250452041,-0.2473981827497482,0.0119863534346222,-0.1865442842245102,0.0,0.0,-0.9906423687934875,-0.6321670413017273
-0.0749265700578689,1.195196509361267,0.0288098063319921,-0.2543411552906036,0.0036859402898699,-0.1660081595182418,0.0,0.0,-0.9957720637321472,-0.4269824028015136
-0.074652574956417,1.1893115043640137,0.0359937697649002,-0.2615599036216736,-0.0047882813960313,-0.1694844514131546,0.0,0.0,-0.9967949390411376,-0.7092572450637817
-0.0743720084428787,1.1832683086395264,0.0351671278476715,-0.268621563911438,-0.0118109695613384,-0.1404536217451095,0.0,0.0,-0.9873676896095276,-0.3415365219116211
-0.0740193352103233,1.1770635843276978,0.0425557866692543,-0.2758389115333557,-0.0190075729042291,-0.1439319550991058,0.0,0.0,-0.9433757662773132,-0.3996299505233764
-0.0735936164855957,1.1706974506378174,0.0500397980213165,-0.2830566167831421,-0.0263778958469629,-0.1474066227674484,0.0,0.0,-0.9973214268684388,-0.308708906173706
-0.0730938911437988,1.1641696691513062,0.0576145723462104,-0.2902745902538299,-0.0339216403663158,-0.1508748233318328,0.0,0.0,-0.993701696395874,-0.925871968269348
-0.0725967437028884,1.1574769020080566,0.0555566735565662,-0.2975946962833404,-0.0396944284439086,-0.1154557839035987,0.0,0.0,-0.9871261119842528,-0.0560678839683532
-0.0720239654183387,1.1506224870681765,0.0632994845509529,-0.3048111200332641,-0.0456395745277404,-0.1189029589295387,0.0,0.0,-0.996504545211792,-0.2899287939071655
-0.071374699473381,1.143606424331665,0.0711196288466453,-0.3120278418064117,-0.0517563335597515,-0.1223353594541549,0.0,0.0,-0.9750736951828004,-0.8016165494918823
-0.0707120895385742,1.136440634727478,0.0709782093763351,-0.3186449110507965,-0.0564252063632011,-0.0933774709701538,0.0,0.0,-0.9839993119239808,-0.8775274753570557
-0.0700313597917556,1.129126787185669,0.0714297592639923,-0.3251877725124359,-0.0597477704286575,-0.066451221704483,0.0,0.0,-0.9897860288619996,-0.8390664458274841
-0.0693503394722938,1.1216663122177124,0.0696232989430427,-0.3316349983215332,-0.0612559057772159,-0.0301623195409774,0.0,0.0,-0.916500687599182,-0.7745112180709839
-0.0686648339033126,1.1140427589416504,0.0683524757623672,-0.3388223946094513,-0.0610602609813213,0.0039128423668444,0.0,0.0,-0.9276902675628662,-0.3450626134872436
-0.0678996071219444,1.1062567234039309,0.0764960870146751,-0.3460362553596496,-0.0610306113958358,0.0005928396130912,0.0,0.0,-0.8762324452400208,-0.4820683002471924
-0.0670539885759353,1.098308801651001,0.0846921876072883,-0.3532501459121704,-0.0611654669046402,-0.0026972785126417,0.0,0.0,-0.845694899559021,-0.902782678604126
-0.0662053078413009,1.090209722518921,0.0831902623176574,-0.3598971664905548,-0.0595018528401851,0.0332720503211021,0.0,0.0,-0.8098849654197693,-0.3828012943267822
-0.0652753859758377,1.081948161125183,0.0914796814322471,-0.3671112358570099,-0.0579994283616542,0.0300486125051975,0.0,0.0,-0.7925262451171875,-0.5954467058181763
-0.0643038749694824,1.073528289794922,0.0947626680135726,-0.3741250932216644,-0.0556428208947181,0.0471321195363998,0.0,0.0,-0.8563222289085388,-0.2989692687988281
-0.0632503479719162,1.0649464130401611,0.1031303629279136,-0.3813393712043762,-0.0534436032176017,0.0439843200147151,0.0,0.0,-0.8902541399002075,-0.4440407752990722
-0.0621143355965614,1.056202411651611,0.1115317195653915,-0.3885535001754761,-0.0513997301459312,0.0408775135874748,0.0,0.0,-0.7475273013114929,-0.6816406846046448
-0.0609362609684467,1.0472991466522217,0.1148545742034912,-0.3956005871295929,-0.0484840720891952,0.0583129152655601,0.0,0.0,-0.8317623734474182,-0.4550943970680237
-0.0596752166748046,1.0382338762283323,0.1233124285936355,-0.4028149545192718,-0.0457193441689014,0.0552942752838134,0.0,0.0,-0.7697507739067078,-0.7472761869430542
-0.058390237390995,1.029016137123108,0.1243277192115783,-0.4095594584941864,-0.0416015721857547,0.0823556929826736,0.0,0.0,-0.7791996598243713,0.0549601316452026
-0.057021714746952,1.0196362733840942,0.1328279376029968,-0.4167744517326355,-0.0376299433410167,0.0794327408075332,0.0,0.0,-0.7262241244316101,-0.7863925695419312
-0.0556187629699707,1.0101001262664795,0.1351623684167862,-0.4237028658390045,-0.0325607433915138,0.101384162902832,0.0,0.0,-0.5957876443862915,-0.4188077449798584
-0.0541319847106933,1.0004022121429443,0.1436909735202789,-0.4309184849262237,-0.0276325419545173,0.098563827574253,0.0,0.0,-0.7380794882774353,-0.1802314519882202
-0.0525611862540245,0.9905422329902648,0.1522285342216491,-0.4381338655948639,-0.0228426828980445,0.0957972556352615,0.0,0.0,-0.7988613843917847,-0.786551296710968
-0.0509596839547157,0.9805318117141724,0.154075413942337,-0.4448291361331939,-0.0168432258069515,0.1199891120195388,0.0,0.0,-0.7063026428222656,-0.4844123125076294
-0.0492740646004676,0.9703594446182252,0.1626203805208206,-0.4520454108715057,-0.0109765138477087,0.1173342317342758,0.0,0.0,-0.7894426584243774,-0.6925004720687866
-0.0475704185664653,0.960032880306244,0.1628718972206115,-0.4589195847511291,-0.0035777739249169,0.1479747742414474,0.0,0.0,-0.6498404145240784,-0.3056038022041321
-0.0457826629281044,0.9495447874069214,0.1714099496603012,-0.4661372601985931,0.0036940453574061,0.1454366594552993,0.0,0.0,-0.6383708119392395,-0.5572194457054138
-0.0439588539302349,0.938899040222168,0.1739135086536407,-0.4731902778148651,0.0120484633371233,0.1670882552862167,0.0,0.0,-0.776103675365448,-0.7137547135353088
-0.0421154014766216,0.9280961155891418,0.1743658483028412,-0.4802461564540863,0.0218961331993341,0.1969534307718277,0.0,0.0,-0.7053343057632446,0.4737043380737304
-0.0401882156729698,0.9171320796012878,0.1828659474849701,-0.4874671101570129,0.0316260382533073,0.1945981532335281,0.0,0.0,-0.9046010971069336,0.1025836467742919
-0.0381773933768272,0.9060068726539612,0.1913456916809082,-0.4946878254413605,0.0412413403391838,0.1923059225082397,0.0,0.0,-0.8356685042381287,-0.2407759428024292
-0.0360832214355468,0.8947205543518066,0.1998009830713272,-0.5019082427024841,0.0507451966404914,0.1900774240493774,0.0,0.0,-0.9612913131713868,-0.2976176738739013
-0.0339058861136436,0.883273184299469,0.2082276046276092,-0.5091283917427063,0.0601408630609512,0.1879132091999054,0.0,0.0,-0.9556393623352052,-0.8218094706535339
-0.0317037589848041,0.8716523051261902,0.209334060549736,-0.5169605612754822,0.0709022134542465,0.2152272015810012,0.0,0.0,-0.9640056490898132,0.0852890014648437
-0.0294192321598529,0.859870433807373,0.2176904380321502,-0.5241826772689819,0.0815618485212326,0.2131924629211425,0.0,0.0,-0.9313600659370422,0.2764794826507568
-0.0270526893436908,0.8479276895523071,0.2260046452283859,-0.5314045548439026,0.0921230167150497,0.2112232744693756,0.0,0.0,-0.957596242427826,-0.3457496166229248
-0.0246044155210256,0.8358239531517029,0.234271764755249,-0.5386261343955994,0.1025889962911605,0.2093197852373123,0.0,0.0,-0.9526687264442444,-0.1753091812133789
-0.022075081244111,0.8235594630241394,0.24248668551445,-0.5458475947380066,0.1129630878567695,0.2074820548295974,0.0,0.0,-0.9005511403083801,0.0777403116226196
-0.0194651596248149,0.8111339211463928,0.2506440579891205,-0.5530687570571899,0.1232485994696617,0.2057100981473922,0.0,0.0,-0.7565405368804932,-0.4292877912521362
-0.0167752262204885,0.7985471487045288,0.258738249540329,-0.5602896809577942,0.1334487497806549,0.2040037363767624,0.0,0.0,-0.7933412194252014,-0.4209191799163818
-0.0140060428529977,0.7857994437217712,0.2667633593082428,-0.5675104856491089,0.1435668915510177,0.2023627758026123,0.0,0.0,-0.8604511022567749,-0.5554624199867249
-0.011210823431611,0.7728803157806396,0.2681358456611633,-0.5753223299980164,0.1549418419599533,0.2274989634752273,0.0,0.0,-0.8697819113731384,-0.637140154838562
-0.0083979610353708,0.759784996509552,0.2684370875358581,-0.583408534526825,0.1677888482809066,0.2569402456283569,0.0,0.0,-0.9015045762062072,-0.0263798832893371
-0.0055082319304347,0.7465291619300842,0.2762175500392914,-0.5906344056129456,0.1805634796619415,0.2554925680160522,0.0,0.0,-0.8974035382270813,-0.3282093405723572
-0.0025427818764001,0.7331131100654602,0.2839021384716034,-0.5978599786758423,0.1932689398527145,0.254109114408493,0.0,0.0,-0.792608380317688,-0.4102338552474975
0.0004975319025106,0.719536542892456,0.2914831340312958,-0.6050852537155151,0.2059084326028823,0.2527894973754883,0.0,0.0,-0.8758004903793335,0.3125518560409546
0.0036115646362304,0.7057996392250061,0.2989524900913238,-0.6123103499412537,0.2184850871562957,0.2515329122543335,0.0,0.0,-0.703377902507782,-0.1361812949180603
0.006798171903938,0.6919023394584656,0.3063016533851623,-0.6195353865623474,0.2310020178556442,0.2503387928009033,0.0,0.0,-0.8231696486473083,-0.5991610288619995
0.0100159645080566,0.6778238415718079,0.3084419667720794,-0.627860963344574,0.2445479929447174,0.2709193527698517,0.0,0.0,-0.5128613114356995,-0.3015480041503906
