x_pos,y_pos,x_vel,y_vel,angle,ang_vel,leg_1,leg_2,main_booster,lat_booster
-0.0015017508994787,1.4034684896469116,-0.1521888077259063,-0.3311773240566253,0.0018075252883136,0.035658098757267,0.0,0.0,0.2475486201688084,0.6273475774504236
-0.0028894424904137,1.3964039087295532,-0.139436587691307,-0.3139782845973968,0.0024670420680195,0.0131922243162989,0.0,0.0,-0.9603935378126198,0.5159846764888567
-0.0042056082747876,1.3891794681549072,-0.1310858130455017,-0.32108935713768,0.0019425828941166,-0.0104897627606987,0.0,0.0,0.8324584966896063,-0.9419286060240468
-0.0057216645218431,1.3826265335083008,-0.1527665555477142,-0.2912401854991913,0.0030843568965792,0.022837309166789,0.0,0.0,-0.1185215241230577,-0.7819745365800179
-0.0072643281891942,1.3759198188781738,-0.156730368733406,-0.2980777025222778,0.0055174534209072,0.0486667789518833,0.0,0.0,-0.315575728613982,0.7534300452661
-0.0087125776335597,1.3690571784973145,-0.1455199271440506,-0.3050161004066467,0.0062022460624575,0.0136970030143857,0.0,0.0,0.0764228601645666,-0.5107837844258283
-0.0101980213075876,1.3626022338867188,-0.1503145545721054,-0.2868877351284027,0.0079559497535228,0.0350774005055427,0.0,0.0,-0.2547485930634043,0.865171849013672
-0.011577034369111,1.3559951782226562,-0.1376110464334488,-0.2936509251594543,0.0076676029711961,-0.0057674064300954,0.0,0.0,-0.6620041982399252,-0.7229405086266639
-0.0129928588867187,1.3492393493652344,-0.1428699940443039,-0.3002636134624481,0.0089439516887068,0.0255294051021337,0.0,0.0,-0.1340963891921436,0.5561442598124191
-0.0143438335508108,1.3423317670822144,-0.135383740067482,-0.307003915309906,0.0092289987951517,0.0057015055790543,0.0,0.0,0.575758185101306,-0.6867595500129084
-0.0156431198120117,1.3361197710037231,-0.1319190412759781,-0.2760991156101227,0.0111885871738195,0.0391952618956565,0.0,0.0,-0.8985486597366936,-0.5673459841633842
-0.0169613845646381,1.3297502994537354,-0.1349273473024368,-0.2831222712993622,0.0142643190920352,0.061520230025053,0.0,0.0,0.6233984129048582,0.6684499243588624
-0.0180768016725778,1.3242632150650024,-0.1137702018022537,-0.2438860088586807,0.0164648331701755,0.0440143421292305,0.0,0.0,0.4330092185833145,-0.8665116145725448
-0.0191777236759662,1.3190743923187256,-0.1142765134572982,-0.2306679636240005,0.0206092838197946,0.0828964933753013,0.0,0.0,0.8597168731678573,-0.5371831201882109
-0.0201516151428222,1.3151313066482544,-0.1033089756965637,-0.1753456443548202,0.0264623276889324,0.117071509361267,0.0,0.0,-0.8573382497875872,-0.6630499254839637
-0.021148681640625,1.3110231161117554,-0.1068718582391738,-0.1827259063720703,0.0335446149110794,0.1416586637496948,0.0,0.0,0.5261406473919239,-0.8680825056624113
-0.0220790859311819,1.3079588413238523,-0.1023048982024192,-0.1364291161298751,0.0427120625972747,0.1833660453557968,0.0,0.0,0.445742037938885,0.9053445210137928
-0.0227918624877929,1.3052366971969604,-0.079045370221138,-0.1212226226925849,0.0504076704382896,0.1539255678653717,0.0,0.0,0.2907298532593925,0.5124086762898183
-0.0233953483402729,1.3033132553100586,-0.0674596577882766,-0.0857429504394531,0.0574496947228908,0.1408530920743942,0.0,0.0,-0.0427336526325132,0.5228280596346598
-0.0239452365785837,1.3012374639511108,-0.0613765008747577,-0.0925204530358314,0.0637720227241516,0.1264579594135284,0.0,0.0,-0.6954559441825572,-0.7049176372117567
-0.0245218276977539,1.2990072965621948,-0.0653501600027084,-0.0994545668363571,0.0713856369256973,0.1522860378026962,0.0,0.0,0.7199564508655307,-0.8493332160122461
-0.0251679420471191,1.2973012924194336,-0.074208915233612,-0.0763085037469863,0.0809073224663734,0.1904510557651519,0.0,0.0,0.627031213879145,-0.5696362061821902
-0.0257490165531635,1.296252965927124,-0.0693995505571365,-0.0472385808825492,0.0921129658818245,0.22413270175457,0.0,0.0,0.344962339150006,-0.5787669050809281
-0.0263214111328125,1.295426368713379,-0.0700154453516006,-0.0375770293176174,0.104809895157814,0.2539612650871277,0.0,0.0,-0.6702410856126166,-0.9691451903327576
-0.0269735343754291,1.2944345474243164,-0.0805951207876205,-0.0452324375510215,0.1201063692569732,0.3059566617012024,0.0,0.0,0.1393765041681431,-0.7843131697234904
-0.0278449058532714,1.2939646244049072,-0.1042090207338333,-0.0223465804010629,0.1370999813079834,0.339872270822525,0.0,0.0,0.7796857129136712,-0.8184128737029439
-0.0288701057434082,1.2944990396499634,-0.1214172840118408,0.0219063162803649,0.1559617519378662,0.377235472202301,0.0,0.0,0.0367928047063124,-0.5800417061689092
-0.0300999637693166,1.2956242561340332,-0.1431116908788681,0.0477861166000366,0.1760860234498977,0.4024857878684997,0.0,0.0,0.5535120631860695,-0.9758745611315434
-0.0316604599356651,1.2976269721984863,-0.1781178116798401,0.086240254342556,0.1982562094926834,0.4434038698673248,0.0,0.0,-0.7352944357395588,-0.6186752928900416
-0.0332600586116313,1.299464225769043,-0.183445394039154,0.0783340185880661,0.2219582498073578,0.4740405082702636,0.0,0.0,0.607172066691944,-0.7746150069155046
-0.0350732803344726,1.302354097366333,-0.2065001279115677,0.1244572326540947,0.2474986016750335,0.5108069181442261,0.0,0.0,-0.9441506266593932,0.9949556589126588
-0.0368115417659282,1.3051165342330933,-0.1973800957202911,0.1186291053891182,0.2715481519699096,0.4809912741184234,0.0,0.0,-0.8982850909233093,0.999239444732666
-0.0384793281555175,1.307767629623413,-0.188720703125,0.1135850772261619,0.2941015064716339,0.4510668814182281,0.0,0.0,-0.9326047897338868,0.9769697189331056
-0.0400734916329383,1.3102912902832031,-0.1797808706760406,0.1079120486974716,0.3151529729366302,0.4210302233695984,0.0,0.0,-0.9537268280982972,0.9971921443939208
-0.0415867790579795,1.3127046823501587,-0.1697998940944671,0.1031351462006568,0.3343837559223175,0.3846161365509033,0.0,0.0,-0.9477834701538086,0.9712778329849244
-0.0430236831307411,1.3150135278701782,-0.1603341400623321,0.0986544117331504,0.3518343567848205,0.3490124046802521,0.0,0.0,-0.8963634371757507,0.9723881483078004
-0.0443878173828125,1.3172043561935425,-0.1514318138360977,0.0936126932501792,0.3676621913909912,0.3165565133094787,0.0,0.0,-0.937853753566742,0.9557420015335084
-0.0456776618957519,1.3192933797836304,-0.1421904116868972,0.0893847942352294,0.3816742300987243,0.280241310596466,0.0,0.0,-0.8847605586051941,0.969149112701416
-0.0469035133719444,1.321279764175415,-0.1342292726039886,0.0851155519485473,0.3940922021865845,0.2483588904142379,0.0,0.0,-0.956325888633728,0.992052674293518
-0.0480546951293945,1.323161482810974,-0.1249783262610435,0.0808636024594307,0.4046529531478882,0.2112153023481369,0.0,0.0,-0.9599949717521667,0.8624428510665894
-0.0491579994559288,1.3249297142028809,-0.1190536767244339,0.0760686248540878,0.4140290021896362,0.1875209957361221,0.0,0.0,-0.9272741675376892,0.7467818260192871
-0.050198744982481,1.3265856504440308,-0.1113064736127853,0.0714569389820098,0.4218379557132721,0.1561788320541381,0.0,0.0,-0.943831503391266,0.6502759456634521
-0.0511869415640831,1.328117847442627,-0.1048653721809387,0.0662741437554359,0.4283876121044159,0.1309937685728073,0.0,0.0,-0.8620479106903076,0.6597403287887573
-0.0521245002746582,1.3295326232910156,-0.0985950380563736,0.0613963603973388,0.4336428940296173,0.1051056236028671,0.0,0.0,-0.945593535900116,0.6520260572433472
-0.0530221946537494,1.3308167457580566,-0.0937212705612182,0.0558394230902195,0.437947154045105,0.0860857367515564,0.0,0.0,-0.8928560614585876,0.1861718893051147
-0.0539264678955078,1.3319469690322876,-0.0946544483304023,0.0489020012319088,0.442557156085968,0.0922000035643577,0.0,0.0,-0.938201367855072,0.1327289342880249
-0.0548383705317974,1.3329232931137085,-0.0956896170973777,0.0419642105698585,0.4474743604660034,0.0983443558216095,0.0,0.0,-0.8928104639053345,0.482324481010437
-0.0557589530944824,1.3337458372116089,-0.0968225747346878,0.0350260399281978,0.4527000188827514,0.1045125946402549,0.0,0.0,-0.947173833847046,0.014499545097351
-0.0566890724003315,1.334414839744568,-0.0980488508939743,0.0280874893069267,0.4582349359989166,0.1106983199715614,0.0,0.0,-0.9778571128845216,0.8427059650421143
-0.0575717911124229,0.0,-0.0920421332120895,0.0234357193112373,0.4623825550079345,0.0829521715641021,0.0,0.0,-0.8885959982872009,0.3216273784637451
-0.0584658607840538,1.335371732711792,-0.0934420302510261,0.0164976809173822,0.4668402373790741,0.0891537591814994,0.0,0.0,-0.97181636095047,0.3624908924102783
-0.0593719482421875,0.0,-0.0949211567640304,0.0095593463629484,0.471607893705368,0.0953533425927162,0.0,0.0,-0.9839417338371276,0.3758454322814941
-0.0602910034358501,1.3357137441635132,-0.0964746996760368,0.0026207074988633,0.476685106754303,0.1015441268682479,0.0,0.0,-0.9131431579589844,0.629077672958374
-0.0611814484000206,1.335693359375,-0.0926868543028831,-0.0021649897098541,0.4807347953319549,0.0809935182332992,0.0,0.0,-0.9099449515342712,0.6747114658355713
-0.0620269775390625,1.3355625867843628,-0.0868771225214004,-0.0066233952529728,0.4833274781703949,0.0518534705042839,0.0,0.0,-0.984749972820282,0.8165743350982666
-0.0628384575247764,1.3353121280670166,-0.0824661552906036,-0.0115876765921711,0.4847874641418457,0.0291999969631433,0.0,0.0,-0.926604986190796,-0.1306603550910949
-0.0636654868721962,1.3349076509475708,-0.0842731371521949,-0.0185248758643865,0.4865518510341644,0.0352868698537349,0.0,0.0,-0.9243366122245787,0.6834084987640381
-0.0644511207938194,1.3343980312347412,-0.0788343176245689,-0.0227488540112972,0.4868470728397369,0.0059043979272246,0.0,0.0,-0.8805267214775085,-0.187072217464447
-0.065253160893917,1.333734393119812,-0.0807419791817665,-0.0296857599169015,0.4874418973922729,0.0118964072316885,0.0,0.0,-0.8764517903327942,0.7096093893051147
-0.0660313591361045,1.3329561948776243,-0.0774401575326919,-0.0344541929662227,0.4870198369026184,-0.0084409536793828,0.0,0.0,-0.8585964441299438,-0.0157904624938964
-0.0668268203735351,1.332023859024048,-0.0794333666563034,-0.0413908697664737,0.4868911504745483,-0.0025738864205777,0.0,0.0,-0.9390976428985596,0.6643476486206055
-0.0676029175519943,1.3309710025787354,-0.0767046883702278,-0.0464740246534347,0.4858819842338562,-0.0201833080500364,0.0,0.0,-0.966726005077362,0.2115194797515869
-0.0683971419930458,1.3297641277313232,-0.0787700936198234,-0.053410418331623,0.4851583540439605,-0.0144725050777196,0.0,0.0,-0.8954513669013977,0.2359614372253418
-0.0692097693681716,1.328403115272522,-0.0808672085404396,-0.0603465922176837,0.4847157597541809,-0.0088520143181085,0.0,0.0,-0.9402949810028076,0.2288495302200317
-0.0700411796569824,1.326888084411621,-0.082993283867836,-0.067282535135746,0.4845492541790008,-0.0033303392119705,0.0,0.0,-0.7901767492294312,0.5595118999481201
-0.0708610564470291,1.3252434730529783,-0.0812442302703857,-0.0728330761194229,0.4837183058261871,-0.0166190974414348,0.0,0.0,-0.8469940423965454,0.8205902576446533
-0.0716446861624717,1.323499321937561,-0.0762344151735305,-0.0767711848020553,0.481351226568222,-0.0473413504660129,0.0,0.0,-0.9865926504135132,0.7511537075042725
-0.0723859816789627,1.3216396570205688,-0.0706342011690139,-0.0814410224556922,0.4774625897407532,-0.0777726247906684,0.0,0.0,-0.9527050852775574,0.7069767713546753
-0.0730985626578331,1.3196728229522705,-0.0665771216154098,-0.0858031287789344,0.4722627401351928,-0.1039965525269508,0.0,0.0,-0.9523711204528807,0.7761194705963135
-0.0737849250435829,1.3175842761993408,-0.0629117041826248,-0.0908991321921348,0.465939313173294,-0.1264693737030029,0.0,0.0,-0.99304860830307,0.586158037185669
-0.0744578391313552,1.3153702020645142,-0.0608227476477623,-0.0962594076991081,0.4588089287281036,-0.1426077783107757,0.0,0.0,-0.9674441814422609,0.8056480884552002
-0.0750925093889236,1.3130476474761963,-0.0555839911103248,-0.1006504669785499,0.4501342475414276,-0.1734936386346817,0.0,0.0,-0.982469379901886,0.5933389663696289
-0.0757174491882324,1.3106012344360352,-0.0538779981434345,-0.1059781312942504,0.4406968653202057,-0.1887476593255996,0.0,0.0,-0.9905591607093812,0.5859026908874512
-0.0763174071907997,1.3080345392227173,-0.0502563118934631,-0.1110589355230331,0.4301009476184845,-0.2119181156158447,0.0,0.0,-0.992519199848175,0.6818008422851562
-0.076891615986824,1.305341124534607,-0.046592928469181,-0.1164363920688629,0.4183757901191711,-0.2345034629106521,0.0,0.0,-0.8648878335952759,0.6435825824737549
-0.0774344429373741,1.3025230169296265,-0.0422120131552219,-0.1217268407344818,0.4053654670715332,-0.2602066397666931,0.0,0.0,-0.9981566667556764,0.6165881156921387
-0.0779558196663856,1.29957377910614,-0.0390304811298847,-0.127395674586296,0.3913353979587555,-0.2806021571159363,0.0,0.0,-0.9852177500724792,0.036850094795227
-0.0784995108842849,1.2964718341827393,-0.0413533449172973,-0.1343414783477783,0.3774760663509369,-0.2771865725517273,0.0,0.0,-0.9948705434799194,0.0884158611297607
-0.079065702855587,1.293217420578003,-0.0436838641762733,-0.1412864625453949,0.3637759983539581,-0.2740015089511871,0.0,0.0,-0.9922970533370972,0.7863500118255615
-0.079609490931034,1.2898445129394531,-0.0402648039162159,-0.1463937163352966,0.3488986194133758,-0.2975475788116455,0.0,0.0,-0.9954325556755066,0.5292022228240967
-0.0801443085074424,1.286331057548523,-0.0386025123298168,-0.1526272892951965,0.3333105444908142,-0.3117614388465881,0.0,0.0,-0.9876675009727478,0.2726019620895386
-0.0807022079825401,1.2826653718948364,-0.0409485474228858,-0.159574955701828,0.3178442716598511,-0.3093253076076507,0.0,0.0,-0.9995010495185852,0.1040279865264892
-0.081283189356327,1.2788472175598145,-0.0432993732392787,-0.1665219366550445,0.3024863004684448,-0.3071586489677429,0.0,0.0,-0.99350243806839,0.4128081798553467
-0.0818876251578331,1.274876594543457,-0.0456543490290641,-0.1734682768583297,0.2872227728366852,-0.3052707314491272,0.0,0.0,-0.980431079864502,0.5593628883361816
-0.0824747085571289,1.2707747220993042,-0.0428424999117851,-0.179263487458229,0.2709230184555053,-0.3259950578212738,0.0,0.0,-0.9683496952056884,0.3418807983398437
-0.0830855369567871,1.266520619392395,-0.0452028326690197,-0.186211496591568,0.254688560962677,-0.3246893286705017,0.0,0.0,-0.9975517392158508,0.4159574508666992
-0.0837203040719032,1.2621145248413086,-0.0475657507777214,-0.1931590288877487,0.2385042160749435,-0.3236872255802154,0.0,0.0,-0.9842709898948668,0.3928008079528808
-0.0843789130449295,1.2575559616088867,-0.0499307848513126,-0.200106143951416,0.2223544269800186,-0.3229961991310119,0.0,0.0,-0.9928172826766968,-0.0957258939743042
-0.0850615501403808,1.2528449296951294,-0.0522974841296672,-0.207052931189537,0.2062232792377472,-0.3226228952407837,0.0,0.0,-0.9537995457649232,0.0840111970901489
-0.0857684165239334,1.2479815483093262,-0.0546654537320137,-0.213999405503273,0.1900946199893951,-0.3225732445716858,0.0,0.0,-0.8501592874526978,-0.225650668144226
-0.0864994972944259,1.2429656982421875,-0.057034283876419,-0.2209456712007522,0.1739520132541656,-0.3228524923324585,0.0,0.0,-0.973173975944519,-0.5587636232376099
-0.0872968658804893,1.23779034614563,-0.0646368637681007,-0.2283136546611786,0.1588384956121444,-0.3022702932357788,0.0,0.0,-0.9757049083709716,-0.1968063712120056
-0.0881186500191688,1.2324621677398682,-0.0670070499181747,-0.2352570593357086,0.1436774581670761,-0.3032206892967224,0.0,0.0,-0.9599773287773132,-0.1980370879173278
-0.0889651328325271,1.2269811630249023,-0.0693770200014114,-0.2422004491090774,0.1284519135951995,-0.3045105040073395,0.0,0.0,-0.8852797746658325,0.5799852609634399
-0.0897949188947677,1.2213536500930786,-0.0665184035897255,-0.2487681061029434,0.1120883002877235,-0.3272722363471985,0.0,0.0,-0.9462494850158693,0.1133966445922851
-0.0906496047973632,1.215574026107788,-0.0688865855336189,-0.2557145953178406,0.0956261307001113,-0.3292437195777893,0.0,0.0,-0.9582052826881408,-0.020445704460144
-0.0915295630693435,1.2096418142318726,-0.0712538287043571,-0.2626613676548004,0.0790483132004737,-0.3315565586090088,0.0,0.0,-0.975590705871582,0.119363784790039
-0.0924345999956131,1.203557372093201,-0.0736199170351028,-0.2696086168289184,0.0623378530144691,-0.334209531545639,0.0,0.0,-0.9760531783103944,0.4765498638153076
-0.0933650955557823,1.197320818901062,-0.0759846121072769,-0.2765563428401947,0.045477844774723,-0.3372003138065338,0.0,0.0,-0.9545688033103944,-0.6428813934326172
-0.0943763703107833,1.1909325122833252,-0.0853055194020271,-0.2835087180137634,0.029843570664525,-0.3126855790615082,0.0,0.0,-0.9745882153511048,0.0088704824447631
-0.0954133048653602,1.1843918561935425,-0.0876670479774475,-0.2904538512229919,0.01402641646564,-0.3163430094718933,0.0,0.0,-0.9731996059417723,-0.6336525678634644
-0.0965280532836914,1.1776951551437378,-0.0965756028890609,-0.2975548505783081,-0.0006776307127438,-0.2940810024738312,0.0,0.0,-0.9903350472450256,0.0833603143692016
-0.0976685509085655,1.170845627784729,-0.0989327803254127,-0.3044981062412262,-0.0155968712642788,-0.2983848750591278,0.0,0.0,-0.9961111545562744,-0.1901503801345825
-0.0988348945975303,1.1638431549072266,-0.1012873873114585,-0.3114422261714935,-0.0307469628751277,-0.3030019104480743,0.0,0.0,-0.9969173669815063,-0.6887916922569275
-0.100071907043457,1.1566941738128662,-0.1092645302414894,-0.3180908262729645,-0.0450137369334697,-0.28533536195755,0.0,0.0,-0.9913133978843688,0.5823314189910889
-0.1012845039367675,1.1493839025497437,-0.1052632182836532,-0.3254510164260864,-0.0608190931379795,-0.3161072134971618,0.0,0.0,-0.9923444390296936,-0.4771801233291626
-0.1025231331586837,1.1419215202331543,-0.1076090484857559,-0.3323984444141388,-0.0768999233841896,-0.3216169476509094,0.0,0.0,-0.9815916419029236,-0.5828694105148315
-0.1038354858756065,1.134317398071289,-0.1159168258309364,-0.3388245701789856,-0.0920639708638191,-0.303281158208847,0.0,0.0,-0.975853681564331,-0.6583968997001648
-0.1052130684256553,1.1265735626220703,-0.1231764927506446,-0.3451272547245025,-0.1065273806452751,-0.2892683148384094,0.0,0.0,-0.9867718815803528,-0.0850789546966552
-0.1066170707345008,1.118677258491516,-0.1255109906196594,-0.3520727157592773,-0.1213070005178451,-0.2955927848815918,0.0,0.0,-0.9932773113250732,-0.8214487433433533
-0.1081117615103721,1.110648512840271,-0.13596972823143,-0.3579904735088348,-0.1347524523735046,-0.2689090669155121,0.0,0.0,-0.9068127274513244,-0.3591566085815429
-0.1096329689025878,1.1024668216705322,-0.1382949948310852,-0.364934504032135,-0.1485388427972793,-0.2757276892662048,0.0,0.0,-0.9181686639785768,-0.3348540067672729
-0.1111806854605674,1.094132661819458,-0.1406154781579971,-0.3718797862529754,-0.1626777201890945,-0.2827775776386261,0.0,0.0,-0.8947722911834717,0.1286693811416626
-0.1127547249197959,1.085646390914917,-0.1429308801889419,-0.3788264393806457,-0.177180141210556,-0.2900485396385193,0.0,0.0,-0.8590037226676941,-0.6917964816093445
-0.1144207939505577,1.0770230293273926,-0.1534668207168579,-0.3848747014999389,-0.1903752088546753,-0.263901025056839,0.0,0.0,-0.6940332651138306,0.2189979553222656
-0.116113469004631,1.0682473182678225,-0.1557699292898178,-0.3918202817440033,-0.2039544731378555,-0.2715851664543152,0.0,0.0,-0.9361807107925416,-0.5381485819816589
-0.1178725212812423,1.059330701828003,-0.1630885750055313,-0.3981199264526367,-0.2168931066989898,-0.2587727904319763,0.0,0.0,-0.8042877912521362,-0.5591773986816406
-0.1196926087141037,1.050267457962036,-0.1696982681751251,-0.4046637415885925,-0.2293570339679718,-0.2492783069610595,0.0,0.0,-0.8582991361618042,0.6124703884124756
-0.1214840859174728,1.041035532951355,-0.1650547087192535,-0.4125627279281616,-0.2436647266149521,-0.2861539125442505,0.0,0.0,-0.7999308705329895,-0.2947572469711303
-0.1233019828796386,1.0316518545150757,-0.1673289686441421,-0.4195130467414856,-0.2583920061588287,-0.2945453822612762,0.0,0.0,-0.8589958548545837,-0.6739887595176697
-0.1251934021711349,1.022127628326416,-0.1755104064941406,-0.4257673621177673,-0.2723339796066284,-0.2788397371768951,0.0,0.0,-0.9728080630302428,-0.5619072914123535
