x_pos,y_pos,x_vel,y_vel,angle,ang_vel,leg_1,leg_2,main_booster,lat_booster
-0.0015490532387048,1.4035313129425049,-0.1572212129831314,-0.3283933699131012,0.0020692369434982,0.0408405438065528,0.0,0.0,-0.6293506086727507,-0.8170726318231587
-0.0031826018821448,1.396068453788757,-0.1671716719865799,-0.3316957354545593,0.0058422880247235,0.0754686966538429,0.0,0.0,-0.1769792659844231,0.2288062081448459
-0.0048418045043945,1.3885118961334229,-0.1700152903795242,-0.335863322019577,0.0098917614668607,0.0809972435235977,0.0,0.0,0.0244591143506529,-0.4522847739055806
-0.0066036223433911,1.3813260793685913,-0.1801942735910415,-0.3194037973880768,0.0138644529506564,0.0794610679149627,0.0,0.0,0.8268511687307443,0.2240844609881548
-0.0082583427429199,1.375131607055664,-0.1704625934362411,-0.2753598988056183,0.018796594813466,0.09865203499794,0.0,0.0,-0.4528939926363531,-0.4916552706885284
-0.0099387168884277,1.3688443899154663,-0.1733045279979705,-0.2795118987560272,0.0240032020956277,0.1041417941451072,0.0,0.0,-0.0038186552641727,0.1253153756015503
-0.0116447452455759,1.362464427947998,-0.176144927740097,-0.2836534082889557,0.0294837728142738,0.1096217036247253,0.0,0.0,-0.1481644762067839,-0.625420941079891
-0.0134135242551565,1.3559919595718384,-0.1836325377225875,-0.2878096401691437,0.0361682251095771,0.1337013691663742,0.0,0.0,-0.7463826484420939,0.6369211329463724
-0.0151590351015329,1.349436640739441,-0.1803256720304489,-0.291500449180603,0.0418846420943737,0.1143385991454124,0.0,0.0,-0.6721633815807782,0.3828355154690177
-0.0169301033020019,1.3427886962890625,-0.1831577718257904,-0.2956466376781463,0.0478697158396244,0.1197126135230064,0.0,0.0,-0.3328621802045892,-0.444310490744766
-0.0187268257141113,1.336048245429993,-0.1859869360923767,-0.2997933328151703,0.0541200451552867,0.1250178813934326,0.0,0.0,-0.7313971614251475,-0.027368116354384
-0.0205491073429584,1.3292152881622314,-0.188812643289566,-0.3039406538009643,0.0606331042945385,0.1302732825279235,0.0,0.0,0.9047516985937184,-0.6759184208667021
-0.0223377235233783,1.3235106468200684,-0.1874850839376449,-0.253905326128006,0.0691666901111602,0.1706877052783966,0.0,0.0,0.6394682556663602,-0.9264698704171316
-0.024172306060791,1.3182333707809448,-0.1942881643772125,-0.2350830435752868,0.0799099877476692,0.2148855477571487,0.0,0.0,0.2906929279689616,-0.7312286191494851
-0.0260186195373535,1.3138432502746582,-0.1973516047000885,-0.1958391964435577,0.0925353020429611,0.2525290548801422,0.0,0.0,0.905801225287741,-0.8766004352873736
-0.0278522484004497,1.309874415397644,-0.1983510851860046,-0.1773919612169265,0.1074331104755401,0.2979830503463745,0.0,0.0,0.1697823035892278,0.7652071654195811
-0.029606532305479,1.3067550659179688,-0.189226359128952,-0.1396859586238861,0.1211578175425529,0.2745193243026733,0.0,0.0,0.4152108782055936,0.6228940948377747
-0.0312436111271381,1.3040509223937988,-0.1767533719539642,-0.1212958395481109,0.1341637372970581,0.2601415514945984,0.0,0.0,0.8670721906442442,-0.7384814398377914
-0.0329681411385536,1.3026243448257446,-0.187459647655487,-0.0648305043578147,0.1491517722606659,0.2997875511646271,0.0,0.0,0.4092073732334222,-0.4342151109923035
-0.0348581299185752,1.30180823802948,-0.2038996517658233,-0.0378291644155979,0.1640485227108001,0.2979621291160583,0.0,0.0,-0.7062307597215367,0.7585725630691632
-0.0367032065987587,1.3009252548217771,-0.1977405548095703,-0.0407618768513202,0.1773305982351303,0.2656654417514801,0.0,0.0,0.3191698782146566,0.0280122101095404
-0.0386269576847553,1.3004759550094604,-0.2058525532484054,-0.021635016426444,0.1908787488937378,0.2709875404834747,0.0,0.0,0.8415999512773682,0.4491847748890437
-0.0405493751168251,1.3008713722229004,-0.2065695971250534,0.0156654827296733,0.2053159922361374,0.2887710630893707,0.0,0.0,0.8309741770206047,-0.7692832541945921
-0.0425435081124305,1.301684021949768,-0.2156198918819427,0.033784132450819,0.2216961532831192,0.3276328444480896,0.0,0.0,-0.086465115592476,-0.8024339529498588
-0.0446402542293071,1.3023841381072998,-0.2279752492904663,0.028261100873351,0.2402763068675995,0.3716360330581665,0.0,0.0,0.4615566188283462,0.859953501282968
-0.0469833388924598,1.3038591146469116,-0.2508776783943176,0.0627597197890281,0.2571413516998291,0.3373007178306579,0.0,0.0,-0.0508348189214376,-0.4054884385485491
-0.049351692199707,1.3052453994750977,-0.2535102963447571,0.0585912317037582,0.2742022573947906,0.3412187099456787,0.0,0.0,-0.4190522767045941,0.2737135041474807
-0.0517450347542762,1.3065431118011477,-0.2561202347278595,0.0544221810996532,0.2914528548717499,0.3450120389461517,0.0,0.0,-0.0692739204571817,-0.9714973954513808
-0.0542542450129985,1.3077199459075928,-0.2701060175895691,0.0483448095619678,0.3112804889678955,0.3965529203414917,0.0,0.0,0.7042116654624513,0.3684343150753288
-0.056963063776493,1.309517502784729,-0.2900295853614807,0.0756647884845733,0.331184446811676,0.3980793058872223,0.0,0.0,0.123674332458479,0.1888117451653185
-0.0598721504211425,1.3120508193969729,-0.3101303279399872,0.1080529987812042,0.3513172268867492,0.4026555120944977,0.0,0.0,-0.9488009810447692,0.9931622743606568
-0.0627407059073448,1.314526081085205,-0.304421991109848,0.1056049019098281,0.3698462545871734,0.3705803751945495,0.0,0.0,-0.9377121925354004,0.9966682195663452
-0.0655729323625564,1.3169580698013306,-0.299138456583023,0.1038801223039627,0.3867509365081787,0.3380936980247497,0.0,0.0,-0.9720706939697266,0.9614930152893066
-0.068364143371582,1.3193309307098389,-0.2934333086013794,0.1015006974339485,0.4020423889160156,0.3058289587497711,0.0,0.0,-0.951437771320343,0.9505667686462402
-0.0711089149117469,1.3216607570648191,-0.2869435846805572,0.0999492853879928,0.4154540002346039,0.2682324051856994,0.0,0.0,-0.947998344898224,0.9241647720336914
-0.0738101974129676,1.323951244354248,-0.2808176279067993,0.0986182317137718,0.4270172715187073,0.2312651872634887,0.0,0.0,-0.9739744663238524,0.7428042888641357
-0.0764820128679275,1.3261820077896118,-0.2765877842903137,0.0962583348155021,0.4372376501560211,0.2044076919555664,0.0,0.0,-0.9904116988182068,0.8467259407043457
-0.0791136771440506,1.3283721208572388,-0.2709158062934875,0.0948942229151725,0.445695549249649,0.1691577732563018,0.0,0.0,-0.9482862949371338,0.8614187240600586
-0.0817125290632247,1.3305195569992063,-0.2661658227443695,0.0934282913804054,0.452574759721756,0.137584701180458,0.0,0.0,-0.9540348649024964,0.7252175807952881
-0.084278866648674,1.3326148986816406,-0.2615444958209991,0.0915172323584556,0.4579740464687347,0.1079855114221572,0.0,0.0,-0.9354156255722046,0.8460466861724854
-0.0868185013532638,1.3346601724624634,-0.257623016834259,0.0896947160363197,0.4620078206062317,0.0806756243109703,0.0,0.0,-0.9959044456481934,0.7242298126220703
-0.0893157944083213,0.0,-0.2518154680728912,0.0880620256066322,0.4643108546733856,0.0460604205727577,0.0,0.0,-0.9832947850227356,0.528712272644043
-0.0917869582772255,1.3385887145996094,-0.2481167614459991,0.085507184267044,0.4654230177402496,0.0222433265298604,0.0,0.0,-0.9861488938331604,0.5580787658691406
-0.0942300781607627,1.3404606580734253,-0.24415984749794,0.0832515135407447,0.4652546644210815,-0.0033668589312583,0.0,0.0,-0.946654200553894,0.2647563219070434
-0.0966901779174804,1.3422398567199707,-0.2459273338317871,0.0791075974702835,0.4651589095592499,-0.0019150093430653,0.0,0.0,-0.9960458874702454,0.5551496744155884
-0.0991230010986328,1.3439528942108154,-0.2421250343322754,0.0765154138207435,0.4638856947422027,-0.0254640188068151,0.0,0.0,-0.9202243685722352,0.636124849319458
-0.1015209183096885,1.345606803894043,-0.237370491027832,0.0743111371994018,0.461209625005722,-0.0535212345421314,0.0,0.0,-0.8970184326171875,0.3002591133117676
-0.1039332374930381,1.347167730331421,-0.2388453185558319,0.0701674371957779,0.4585859775543213,-0.0524734556674957,0.0,0.0,-0.9732006788253784,0.4244991540908813
-0.1063587218523025,1.348636031150818,-0.2402113378047943,0.0660240203142166,0.4560081660747528,-0.0515561588108539,0.0,0.0,-0.8924136757850647,0.8629658222198486
-0.1087372750043869,1.3500523567199707,-0.2339576482772827,0.064211867749691,0.4517326354980469,-0.0855105146765708,0.0,0.0,-0.9874756932258606,0.6002037525177002
-0.1110744476318359,1.3514139652252195,-0.2284367978572845,0.0622119419276714,0.4459381401538849,-0.1158892884850502,0.0,0.0,-0.7784278988838196,0.4336686134338379
-0.1134217232465744,1.3526829481124878,-0.2294431179761886,0.0580672249197959,0.4401707947254181,-0.1153468936681747,0.0,0.0,-0.9947822093963624,0.3880131244659424
-0.1157776862382888,1.3538590669631958,-0.2303206026554107,0.0539227537810802,0.4344246387481689,-0.1149232536554336,0.0,0.0,-0.8413877487182617,0.5569474697113037
-0.1181028336286544,1.3549752235412598,-0.2261592447757721,0.0515478737652301,0.4275211989879608,-0.138069674372673,0.0,0.0,-0.9979755878448486,0.3871150016784668
-0.1204340904951095,1.3559985160827637,-0.226766899228096,0.047402698546648,0.4206275939941406,-0.1378722637891769,0.0,0.0,-0.987008571624756,0.4619019031524658
-0.1227702125906944,1.3569295406341553,-0.2272356003522873,0.0432577170431613,0.4137384593486786,-0.1377820521593094,0.0,0.0,-0.9752424359321594,-0.0660218596458435
-0.1251099556684494,1.3577678203582764,-0.2275633811950683,0.0391129031777381,0.4068487584590912,-0.1377946436405182,0.0,0.0,-0.999548316001892,0.2844088077545166
-0.1274516135454177,1.358513355255127,-0.2277489602565765,0.0349682420492172,0.3999534845352173,-0.1379053145647049,0.0,0.0,-0.9979844689369202,0.181572675704956
-0.1297941207885742,1.359166383743286,-0.2277918756008148,0.0308237113058567,0.3930480182170868,-0.1381091773509979,0.0,0.0,-0.9998013377189636,0.2564905881881714
-0.1321358680725097,1.3597267866134644,-0.2276924401521682,0.0266792979091405,0.3861279785633087,-0.1384010314941406,0.0,0.0,-0.9988420605659484,0.5581334829330444
-0.134430319070816,1.3602169752120972,-0.2217549830675125,0.0238465070724487,0.3779458999633789,-0.1636417210102081,0.0,0.0,-0.9982892274856568,-0.3769679069519043
-0.136721521615982,0.0,-0.2213739603757858,0.019700800999999,0.3697412610054016,-0.1640926301479339,0.0,0.0,-0.9985195398330688,0.4298639297485351
-0.1390077620744705,1.3609200716018677,-0.2208560705184936,0.0155551461502909,0.3615105450153351,-0.1646144688129425,0.0,0.0,-0.9994723796844482,0.1967660188674926
-0.1412881910800933,1.3611329793930054,-0.2202045172452926,0.0114095183089375,0.3532504737377167,-0.1652011573314666,0.0,0.0,-0.9998279213905334,0.7456021308898926
-0.143504336476326,1.3612791299819946,-0.2122542113065719,0.0087647186592221,0.3434151411056518,-0.1967068910598755,0.0,0.0,-0.9994409680366516,0.6343791484832764
-0.1456749886274337,1.3613535165786743,-0.2066381871700287,0.00575618352741,0.3325122594833374,-0.2180574685335159,0.0,0.0,-0.9987210631370544,-0.0389102697372436
-0.1478361189365387,1.3613362312316897,-0.2056082040071487,0.0016066048992797,0.3215723037719726,-0.2187991440296173,0.0,0.0,-0.9989950656890868,-0.2120256423950195
-0.1499863564968109,1.3612269163131714,-0.2044624537229538,-0.0025430531240999,0.3105933368206024,-0.2195795029401779,0.0,0.0,-0.9966500401496888,-0.056803286075592
-0.1521249711513519,0.0,-0.2032062262296676,-0.006692808587104,0.2995737493038177,-0.2203915864229202,0.0,0.0,-0.9990028142929076,-0.048729658126831
-0.1542506217956543,1.360733151435852,-0.2018449008464813,-0.0108426744118332,0.2885123193264007,-0.2212283909320831,0.0,0.0,-0.997019112110138,-0.1284223794937133
-0.1563625335693359,1.3603485822677612,-0.2003841698169708,-0.0149926645681262,0.2774081826210022,-0.2220827639102935,0.0,0.0,-0.9975711107254028,-0.4389292001724243
-0.1584596633911132,1.3598722219467163,-0.1988295316696167,-0.0191427879035472,0.2662608027458191,-0.2229475528001785,0.0,0.0,-0.983108937740326,-0.4279617667198181
-0.1605410575866699,1.3593041896820068,-0.1971865743398666,-0.0232930574566125,0.2550700604915619,-0.2238155305385589,0.0,0.0,-0.990860402584076,-0.0295716524124145
-0.1626060456037521,1.3586444854736328,-0.1954607665538787,-0.0274434816092252,0.2438361048698425,-0.2246793806552887,0.0,0.0,-0.9998282194137572,0.3366358280181885
-0.1646535843610763,1.357892990112305,-0.1936574429273605,-0.0315940640866756,0.2325595021247863,-0.2255317717790603,0.0,0.0,-0.9956427812576294,0.2804632186889648
-0.1666831076145172,1.3570499420166016,-0.1917818188667297,-0.035744808614254,0.2212412357330322,-0.2263653576374054,0.0,0.0,-0.9935519099235536,0.481367826461792
-0.1686939299106598,0.0,-0.1898388564586639,-0.0398957282304763,0.2098826020956039,-0.2271727323532104,0.0,0.0,-0.9995904564857484,0.6955139636993408
-0.170633316040039,1.3551121950149536,-0.1812570542097091,-0.0428271815180778,0.1971010565757751,-0.2556310594081878,0.0,0.0,-0.9967660903930664,-0.4239012598991394
-0.1725527793169021,1.354017972946167,-0.1791926622390747,-0.0469811893999576,0.1842828840017318,-0.2563633620738983,0.0,0.0,-0.9883217811584472,0.0338795185089111
-0.1744516342878341,1.3528327941894531,-0.1770746111869812,-0.051135379821062,0.1714305132627487,-0.257047563791275,0.0,0.0,-0.997119963169098,0.4933860301971435
-0.176329419016838,1.3515565395355225,-0.1749069988727569,-0.0552897565066814,0.1585467010736465,-0.2576764225959778,0.0,0.0,-0.9785375595092772,0.1476242542266845
-0.1781856566667556,1.3501890897750854,-0.1726936548948288,-0.0594443045556545,0.1456345617771148,-0.2582426965236664,0.0,0.0,-0.9821842312812804,0.8468611240386963
-0.1799647361040115,1.348743200302124,-0.1635161787271499,-0.062925286591053,0.1312891244888305,-0.2869091629981994,0.0,0.0,-0.9473416209220886,0.2342031002044677
-0.1817214041948318,1.3472065925598145,-0.1612212359905243,-0.0670833364129066,0.1169227212667465,-0.2873278856277466,0.0,0.0,-0.9643563628196716,-0.0198894739151
-0.18345507979393,1.345579743385315,-0.1588907390832901,-0.0712415277957916,0.1025395914912223,-0.2876627743244171,0.0,0.0,-0.9791061282157898,-0.7069136500358582
-0.1852130889892578,1.3438546657562256,-0.1625001281499862,-0.0758038982748985,0.089349664747715,-0.2637984156608581,0.0,0.0,-0.9687279462814332,-0.0881302952766418
-0.1869473457336425,1.342038869857788,-0.1601074635982513,-0.0799595639109611,0.0761523470282554,-0.2639460563659668,0.0,0.0,-0.9883511066436768,0.0318961143493652
-0.18865767121315,1.340132236480713,-0.1576873064041137,-0.0841152891516685,0.0629528760910034,-0.2639895677566528,0.0,0.0,-0.9962670803070068,-0.1258243322372436
-0.1903435736894607,1.3381346464157104,-0.1552419811487198,-0.0882710739970207,0.0497567541897296,-0.2639223933219909,0.0,0.0,-0.9548875093460084,-0.8839837312698364
-0.1920581758022308,1.3360353708267212,-0.1594886481761932,-0.092951662838459,0.0379228629171848,-0.2366780489683151,0.0,0.0,-0.9987416863441468,-0.8637548089027405
-0.1938169449567794,1.3338468074798584,-0.1656663566827774,-0.0970441773533821,0.0278378017246723,-0.2017010450363159,0.0,0.0,-0.9998824596405028,-0.8016763925552368
-0.1956107169389724,1.3315696716308594,-0.1707175225019455,-0.101063884794712,0.0192863959819078,-0.1710279583930969,0.0,0.0,-0.9986956119537354,-0.4308189749717712
-0.1973790228366851,1.3292006254196167,-0.1681918203830719,-0.1052112579345703,0.0107634793967008,-0.1704583168029785,0.0,0.0,-0.9988222718238832,-0.2819917201995849
-0.1991214752197265,1.3267391920089722,-0.1656500995159149,-0.1093585714697837,0.0022760895080864,-0.1697480231523513,0.0,0.0,-0.9984286427497864,-0.5671594738960266
-0.2008867710828781,1.3241835832595823,-0.1692165285348892,-0.113587237894535,-0.0049422765150666,-0.1443673074245453,0.0,0.0,-0.9938040375709534,-0.3359715938568115
-0.2026258409023285,1.321535587310791,-0.1666470468044281,-0.117732785642147,-0.0121102947741746,-0.1433604508638382,0.0,0.0,-0.9987727403640748,-0.2626370787620544
-0.2043385058641433,1.318794846534729,-0.1640656292438507,-0.1218782290816307,-0.0192201919853687,-0.1421978175640106,0.0,0.0,-0.992070734500885,-0.06503826379776
-0.206024557352066,1.3159617185592651,-0.1614734232425689,-0.1260235607624054,-0.0262639392167329,-0.1408750265836715,0.0,0.0,-0.9769872426986694,-0.1179696321487426
-0.2076838463544845,1.3130359649658203,-0.1588715314865112,-0.1301687359809875,-0.0332333296537399,-0.1393878310918808,0.0,0.0,-0.9824634790420532,-0.1577847599983215
-0.2093161642551422,1.3100178241729736,-0.156260997056961,-0.1343137919902801,-0.0401199534535408,-0.1377324163913726,0.0,0.0,-0.9943054914474488,-0.5874911546707153
-0.2109741270542144,1.3069143295288086,-0.1602610647678375,-0.1380940079689026,-0.0455853380262851,-0.1093076467514038,0.0,0.0,-0.969612956047058,-0.0793138742446899
-0.2126047611236572,1.3037179708480835,-0.1576358824968338,-0.1422373652458191,-0.050950638949871,-0.10730592161417,0.0,0.0,-0.968859851360321,0.0548168420791626
-0.2142079770565033,1.3004285097122192,-0.1550047099590301,-0.1463805139064788,-0.0562069751322269,-0.1051266342401504,0.0,0.0,-0.901636004447937,-0.4373246431350708
-0.2157836407423019,1.297046422958374,-0.1523683071136474,-0.1505234837532043,-0.0613453425467014,-0.1027673333883285,0.0,0.0,-0.9706541895866394,-0.3738289475440979
-0.2173316031694412,1.2935713529586792,-0.1497274339199066,-0.1546662449836731,-0.0663566514849662,-0.1002260223031044,0.0,0.0,-0.9173112511634828,-0.0355387926101684
-0.2188516557216644,1.2900031805038452,-0.1470827609300613,-0.1588087826967239,-0.0712317004799842,-0.0975010767579078,0.0,0.0,-0.8739274740219116,-0.3899585604667663
-0.2203437834978103,1.2863421440124512,-0.1444349735975265,-0.1629511266946792,-0.0759612619876861,-0.0945912599563598,0.0,0.0,-0.983756184577942,-0.3878220915794372
-0.2218078076839447,1.282588005065918,-0.1417846977710724,-0.1670932322740554,-0.0805360600352287,-0.0914957970380783,0.0,0.0,-0.9581589102745056,-0.3658158183097839
-0.2232436686754226,1.2787407636642456,-0.1391324996948242,-0.1712350845336914,-0.0849467664957046,-0.0882142335176467,0.0,0.0,-0.967713475227356,-0.1912537217140197
-0.2246512472629547,1.274800419807434,-0.1364789754152298,-0.1753766685724258,-0.0891840904951095,-0.0847465395927429,0.0,0.0,-0.5333418250083923,0.1469027996063232
-0.2260303497314453,1.2707668542861938,-0.1338246762752533,-0.1795180141925811,-0.0932387486100196,-0.0810930654406547,0.0,0.0,-0.8711425065994263,-0.2158339023590088
-0.2273809909820556,1.266640067100525,-0.1311701387166977,-0.1836591064929962,-0.0971014872193336,-0.0772545784711837,0.0,0.0,-0.9082015752792358,-0.4939683675765991
-0.228703111410141,1.2624201774597168,-0.1285159289836883,-0.1877999305725097,-0.1007630974054336,-0.0732321888208389,0.0,0.0,-0.82122802734375,-0.5880515575408936
-0.2300521433353424,1.2581162452697754,-0.1328456550836563,-0.1914249062538147,-0.1028034687042236,-0.040807619690895,0.0,0.0,-0.91940176486969,-0.4180634617805481
-0.231372445821762,1.2537188529968262,-0.1301934719085693,-0.1955645531415939,-0.1046245768666267,-0.0364222973585128,0.0,0.0,-0.5123415589332581,-0.0922149419784545
-0.2326639145612716,1.2492278814315796,-0.1275431215763092,-0.1997040361166,-0.1062175035476684,-0.0318585708737373,0.0,0.0,-0.8963757157325745,-0.0959944725036621
-0.2339265346527099,1.2446436882019043,-0.1248950958251953,-0.2038433700799942,-0.1075734496116638,-0.0271189250051975,0.0,0.0,-0.6741293668746948,-0.0724408030509948
-0.2351602017879486,1.239965796470642,-0.1222499012947082,-0.207982525229454,-0.1086837574839592,-0.0222061593085527,0.0,0.0,-0.4766944646835327,0.3548853397369385
-0.2363649308681488,1.235194444656372,-0.1196080595254898,-0.2121215164661407,-0.1095399260520935,-0.0171232987195253,0.0,0.0,-0.1349400877952575,0.0906412601470947
-0.2375405728816986,1.230329513549805,-0.1169700771570205,-0.2162603884935379,-0.1101336181163787,-0.0118737388402223,0.0,0.0,-0.4279075860977173,0.1814180612564087
-0.2386872321367263,1.2253711223602295,-0.1143365055322647,-0.2203991413116455,-0.1104566752910614,-0.0064609348773956,0.0,0.0,-0.2266724705696106,0.5455831289291382
