x_pos,y_pos,x_vel,y_vel,angle,ang_vel,leg_1,leg_2,main_booster,lat_booster
-0.001564884209074,1.403449535369873,-0.1582752466201782,-0.3320250809192657,0.0016004267381504,0.0315578281879425,0.0,0.0,-0.3727189302444458,0.1425709724426269
-0.0031704902648925,1.3958271741867063,-0.1619437038898468,-0.3387721478939056,0.0029647352639585,0.0272895209491252,0.0,0.0,-0.3552385568618774,0.6924874782562256
-0.0047492980957031,1.3880246877670288,-0.1573741137981414,-0.3467775285243988,0.0024648269172757,-0.0099992817267775,0.0,0.0,-0.1451700925827026,0.7785725593566895
-0.0063175200484693,1.380044937133789,-0.1548743695020675,-0.3546582460403442,0.0005422957474365,-0.0384542420506477,0.0,0.0,0.0334539413452148,0.6463830471038818
-0.0077809332869946,1.3725041151046753,-0.143035739660263,-0.3351434767246246,-0.002728400984779,-0.0654199570417404,0.0,0.0,-0.3248230218887329,0.4774467945098877
-0.0092804906889796,1.3647886514663696,-0.1464788168668747,-0.342923641204834,-0.0061766277067363,-0.0689706951379776,0.0,0.0,-0.0576157569885253,-0.0410429835319519
-0.010815143585205,1.356898307800293,-0.1498039066791534,-0.3506971895694732,-0.009797646664083,-0.072426825761795,0.0,0.0,0.2229708433151245,-0.2146323323249817
-0.01226806640625,1.3495501279830933,-0.1420053392648697,-0.3266154527664184,-0.0130588728934526,-0.0652302056550979,0.0,0.0,-0.0077564716339111,0.3719079494476318
-0.0137534141540527,1.342026948928833,-0.1450750678777694,-0.3343967795372009,-0.0164820738136768,-0.0684702098369598,0.0,0.0,-0.7451152205467224,-0.3441003561019897
-0.0152695653960108,1.3343290090560913,-0.1480052769184112,-0.3421702682971954,-0.0200606007128953,-0.0715769678354263,0.0,0.0,-0.0125948190689086,0.5296022891998291
-0.016767406836152,1.3264554738998413,-0.1448071151971817,-0.3500093817710876,-0.024987718090415,-0.0985513180494308,0.0,0.0,-0.2932921648025512,0.145652174949646
-0.018292998895049,1.318407416343689,-0.1474346220493316,-0.3577862679958343,-0.0300565175712108,-0.1013852581381797,0.0,0.0,0.091862678527832,0.3754323720932007
-0.0197446830570697,1.3108739852905271,-0.1403160393238067,-0.3349232375621795,-0.0348536893725395,-0.0959520116448402,0.0,0.0,-0.8676776885986328,-0.0764321684837341
-0.0212206840515136,1.3031659126281738,-0.1426198184490203,-0.3427057564258575,-0.0397788919508457,-0.0985132008790969,0.0,0.0,-0.6078058481216431,-0.2432928681373596
-0.0227190963923931,1.2952831983566284,-0.1447507739067077,-0.3504810333251953,-0.0448238812386989,-0.1009089201688766,0.0,0.0,-0.721182644367218,0.0874712467193603
-0.0242382045835256,1.2872262001037598,-0.1467040032148361,-0.3582580685615539,-0.0499806627631187,-0.103144958615303,0.0,0.0,-0.637986421585083,0.2111721038818359
-0.0257760994136333,1.2789946794509888,-0.1484738439321518,-0.3660357594490051,-0.0552407018840312,-0.1052102223038673,0.0,0.0,-0.6295285224914551,0.0564609766006469
-0.0273307804018259,1.2705886363983154,-0.1500559151172638,-0.3738135993480682,-0.0605951286852359,-0.1070983633399009,0.0,0.0,-0.9050130844116212,0.7551791667938232
-0.0288307182490825,1.2620089054107666,-0.1427446007728576,-0.3816263377666473,-0.0677758976817131,-0.1436281502246856,0.0,0.0,-0.7849084734916687,0.7706013917922974
-0.0302907936275005,0.0,-0.1373350918292999,-0.3897217512130737,-0.0763585194945335,-0.1716679036617279,0.0,0.0,-0.8317241668701172,-0.1044721603393554
-0.0317611694335937,1.2443159818649292,-0.1383237689733505,-0.3975038230419159,-0.0850061476230621,-0.1729684323072433,0.0,0.0,-0.6842986941337585,0.5896713733673096
-0.0331928245723247,1.2351995706558228,-0.1331913322210312,-0.4057716727256775,-0.0949067324399948,-0.1980293691158294,0.0,0.0,-0.8477314114570618,-0.0426753163337707
-0.0346305854618549,1.2259094715118408,-0.1337764263153076,-0.4135563969612121,-0.1048510000109672,-0.1989029496908188,0.0,0.0,-0.925291895866394,0.5125401020050049
-0.0360279083251953,1.2164331674575806,-0.1285550743341446,-0.4219898283481598,-0.1159712299704551,-0.2224243879318237,0.0,0.0,-0.8770331144332886,-0.7357876300811768
-0.0374983772635459,1.2067978382110596,-0.1376865655183792,-0.4289912581443786,-0.1252976506948471,-0.1865449249744415,0.0,0.0,-0.7714084982872009,0.049270749092102
-0.0389707572758197,1.1969674825668335,-0.1378518640995025,-0.4377220869064331,-0.1346360743045807,-0.1867687553167343,0.0,0.0,-0.7966813445091248,-0.5226552486419678
-0.0404814705252647,1.1869747638702393,-0.1427487581968307,-0.4448970258235931,-0.142935499548912,-0.1659882962703704,0.0,0.0,-0.6746545433998108,0.3919527530670166
-0.0419882759451866,1.1768079996109009,-0.142369344830513,-0.4526754021644592,-0.1512229591608047,-0.1657491028308868,0.0,0.0,-0.422990620136261,0.2789852619171142
-0.0434889793395996,1.1664671897888184,-0.1417988240718841,-0.4604536592960357,-0.1594860851764679,-0.1652621179819107,0.0,0.0,-0.8576547503471375,-0.1369673609733581
-0.0449815765023231,1.1559524536132812,-0.1410411894321441,-0.4682317078113556,-0.1677121818065643,-0.1645222306251526,0.0,0.0,-0.4346277713775635,-0.0122529864311218
-0.0464642532169818,1.145263433456421,-0.1401010304689407,-0.4760094285011291,-0.1758884042501449,-0.1635248214006424,0.0,0.0,-0.8404711484909058,-0.4171346426010132
-0.0479349121451377,1.1344003677368164,-0.1389833986759185,-0.4837868809700012,-0.1840017288923263,-0.1622666120529174,0.0,0.0,-0.4389604926109314,-0.3938543796539306
-0.0493918433785438,1.1233628988265991,-0.1376937478780746,-0.4915639460086822,-0.1920389235019683,-0.1607440412044525,0.0,0.0,-0.8351779580116272,-0.7125141024589539
-0.0508952140808105,1.112162709236145,-0.1440014541149139,-0.4986274838447571,-0.1984091401100158,-0.1274047344923019,0.0,0.0,-0.7738024592399597,0.3345984220504761
-0.0523812286555767,1.1007877588272097,-0.1423849463462829,-0.5064018964767456,-0.2046765238046646,-0.125347688794136,0.0,0.0,-0.5562577247619629,-0.282510757446289
-0.0538483634591102,1.0892380475997925,-0.1406145989894867,-0.5141760110855103,-0.2108275890350341,-0.1230213493108749,0.0,0.0,-0.0454499125480651,-0.765441358089447
-0.0553572662174701,1.0775294303894043,-0.1465093046426773,-0.5210133194923401,-0.2152449637651443,-0.0883475765585899,0.0,0.0,-0.6502657532691956,-0.2082028985023498
-0.0568440444767475,1.0656458139419556,-0.1444502621889114,-0.5287851691246033,-0.2195191085338592,-0.0854828804731369,0.0,0.0,-0.2178329229354858,-0.837950587272644
-0.0583746917545795,1.0536190271377563,-0.1507764011621475,-0.5348654985427856,-0.221832126379013,-0.0462600030004978,0.0,0.0,-0.1634871363639831,-0.8120360970497131
-0.0599398612976074,1.0414379835128784,-0.1559384763240814,-0.541463315486908,-0.222415804862976,-0.0116735380142927,0.0,0.0,0.4855048656463623,-0.8634334802627563
-0.061495017260313,1.030171275138855,-0.1567171514034271,-0.5005639791488647,-0.2212075889110565,0.0241641886532306,0.0,0.0,-0.2627929449081421,-0.2625561952590942
-0.0630228072404861,1.0187292098999023,-0.1541595309972763,-0.5083333849906921,-0.2198034077882766,0.0280832145363092,0.0,0.0,-0.5050881505012512,-0.4372344017028808
-0.0645217895507812,1.007111430168152,-0.1514933258295059,-0.5161025524139404,-0.2181905657052993,0.0322570689022541,0.0,0.0,-0.4285099506378174,-0.6150165796279907
-0.0660305991768837,0.995330274105072,-0.1537230908870697,-0.5231901407241821,-0.2153234928846359,0.0573410466313362,0.0,0.0,-0.6719586849212646,-0.4550918936729431
-0.0675085037946701,0.9833736419677734,-0.150857999920845,-0.5309594869613647,-0.212223008275032,0.0620095506310462,0.0,0.0,-0.955316960811615,0.0893640518188476
-0.0689544677734375,0.9712416529655457,-0.1479020565748214,-0.5387288331985474,-0.2088772058486938,0.0669158846139907,0.0,0.0,-0.9184760451316832,-0.1487879157066345
-0.0703673362731933,0.9589340686798096,-0.1448608487844467,-0.5464981198310852,-0.2052744179964065,0.0720556825399398,0.0,0.0,-0.9910473823547364,-0.2487485408782959
-0.071746252477169,0.9464511275291444,-0.1417396515607834,-0.5542672872543335,-0.2014033496379852,0.0774212777614593,0.0,0.0,-0.9725663661956788,-0.3273792266845703
-0.0730904564261436,0.9337928295135498,-0.1385435760021209,-0.5620366930961609,-0.1972530633211136,0.0830058231949806,0.0,0.0,-0.9793241024017334,0.165500521659851
-0.0743991881608963,0.9209589958190918,-0.1352774798870086,-0.5698061585426331,-0.192812979221344,0.0888018012046814,0.0,0.0,-0.8016737103462219,0.2934484481811523
-0.0756714791059494,0.907949924468994,-0.1319460570812225,-0.5775757431983948,-0.1880728900432586,0.0948018580675125,0.0,0.0,-0.9966126680374146,-0.0775332450866699
-0.0769067779183387,0.8947654962539673,-0.1285536885261535,-0.5853455662727356,-0.183022990822792,0.1009982600808143,0.0,0.0,-0.9980779886245728,-0.3723660707473755
-0.0781043022871017,0.881405770778656,-0.1251046508550644,-0.5931156277656555,-0.1776538491249084,0.1073832660913467,0.0,0.0,-0.9985193610191344,0.6472587585449219
-0.0792121887207031,0.86786288022995,-0.1151720881462097,-0.6013860702514648,-0.173257291316986,0.0879307836294174,0.0,0.0,-0.9504615068435668,0.1374995708465576
-0.080281063914299,0.8541446924209595,-0.1116212978959083,-0.6091556549072266,-0.1685238033533096,0.0946697369217872,0.0,0.0,-0.9581848978996276,-0.1553975343704223
-0.0813105553388595,0.8402509689331055,-0.108025312423706,-0.6169254779815674,-0.1634451150894165,0.1015739664435386,0.0,0.0,-0.984910011291504,0.5509815216064453
-0.0822499245405197,0.8261747360229492,-0.0980908498167991,-0.6251598000526428,-0.1592859923839569,0.0831822603940963,0.0,0.0,-0.9919567704200744,-0.2656047344207763
-0.0831488594412803,0.8119231462478638,-0.0944145023822784,-0.6329291462898254,-0.1547663062810897,0.0903941690921783,0.0,0.0,-0.9961798191070556,-0.1265407800674438
-0.084006980061531,0.7974962592124939,-0.0907028689980506,-0.6406989693641663,-0.1498788744211197,0.0977486819028854,0.0,0.0,-0.9629648327827454,0.054936408996582
-0.084823802113533,0.7828940749168396,-0.0869589447975158,-0.648469090461731,-0.144616961479187,0.1052384972572326,0.0,0.0,-0.9459607601165771,-0.1432527899742126
-0.0855991393327713,0.7681164145469666,-0.0831855908036232,-0.6562396287918091,-0.138974130153656,0.1128565445542335,0.0,0.0,-0.980803906917572,-0.5909209251403809
-0.0863861069083213,0.7531782984733582,-0.086136594414711,-0.6632433533668518,-0.1315651834011078,0.1481791138648986,0.0,0.0,-0.9908127784729004,0.4928550720214844
-0.0871308296918869,0.738065242767334,-0.0823127403855323,-0.6710163950920105,-0.1237635463476181,0.1560326218605041,0.0,0.0,-0.98805832862854,0.7838705778121948
-0.0877689346671104,0.722766637802124,-0.0704304799437522,-0.6794044971466064,-0.1171896383166313,0.131477877497673,0.0,0.0,-0.9860160946846008,0.6113436222076416
-0.0883161574602127,0.7072800993919373,-0.0604927539825439,-0.6878560185432434,-0.1114504039287567,0.1147848591208458,0.0,0.0,-0.9021080136299132,0.4344021081924438
-0.0888203606009483,0.6916182637214661,-0.0566105246543884,-0.6956278085708618,-0.1053031384944915,0.1229452490806579,0.0,0.0,-0.910747528076172,0.8284133672714233
-0.0892131775617599,0.6757803559303284,-0.0441735200583934,-0.7035701870918274,-0.1004507839679718,0.0970468968152999,0.0,0.0,-0.8362047672271729,0.8529844284057617
-0.089487075805664,0.6597456336021423,-0.0307549126446247,-0.7124354839324951,-0.0971178710460662,0.066658616065979,0.0,0.0,-0.3642019629478454,0.0200963020324707
-0.0897176712751388,0.6435354948043823,-0.026834387332201,-0.7202059030532837,-0.0933641046285629,0.0750752165913581,0.0,0.0,-0.4658432006835937,0.6365373134613037
-0.0898624435067176,0.627141535282135,-0.0176124572753906,-0.7284309267997742,-0.0902571454644203,0.0621391721069812,0.0,0.0,-0.536126434803009,0.2249952554702758
-0.0899635329842567,0.610572338104248,-0.0136767579242587,-0.7362013459205627,-0.0867220759391784,0.0707015842199325,0.0,0.0,0.0750540494918823,0.4402186870574951
-0.0899658203125,0.5944304466247559,-0.0043267039582133,-0.717185914516449,-0.0826629623770713,0.0811820477247238,0.0,0.0,-0.105556309223175,0.4588651657104492
-0.0899242386221885,0.5781133770942688,-0.0003835842653643,-0.7249571681022644,-0.0781693458557128,0.0898724049329757,0.0,0.0,0.526818037033081,0.0920281410217285
-0.0897295027971267,0.5624114871025085,0.0141821978613734,-0.6975964307785034,-0.0729241818189621,0.1049029603600502,0.0,0.0,0.1360254287719726,0.8073127269744873
-0.0894345268607139,0.5469264388084412,0.0253989659249782,-0.6880284547805786,-0.0688654854893684,0.0811738595366478,0.0,0.0,-0.0082928538322448,-0.4382001161575317
-0.089095689356327,0.5312663912773132,0.0293395724147558,-0.6958001255989075,-0.0643641501665115,0.0900266245007515,0.0,0.0,0.5538585186004639,0.1546885967254638
-0.0887220352888107,0.5159121155738831,0.0325032323598861,-0.6822124123573303,-0.0595553033053875,0.0961767062544822,0.0,0.0,-0.2032999396324157,-0.3762408494949341
-0.0883045196533203,0.5003829598426819,0.0364331975579261,-0.6899849772453308,-0.0542992837727069,0.105120301246643,0.0,0.0,0.6578227281570435,0.0696313381195068
-0.0877186805009841,0.485898494720459,0.0524444989860057,-0.643543541431427,-0.0482225194573402,0.1215354055166244,0.0,0.0,-0.1410557031631469,0.6760673522949219
-0.0870452895760536,0.4712429642677307,0.061834555119276,-0.6511915922164917,-0.0427880622446537,0.1086892113089561,0.0,0.0,-0.527671754360199,-0.0657664537429809
-0.086328312754631,0.4564126431941986,0.0657353922724723,-0.6589652895927429,-0.036900732666254,0.1177464723587036,0.0,0.0,0.1700905561447143,-0.0895107388496398
-0.0855186432600021,0.4422454237937927,0.0744116455316543,-0.6295084357261658,-0.0304267611354589,0.1294794827699661,0.0,0.0,-0.6912052035331726,0.2992638349533081
-0.0846655815839767,0.4279036819934845,0.0782842189073562,-0.6372836232185364,-0.0234968122094869,0.1385990530252456,0.0,0.0,-0.4792766571044922,0.8792343139648438
-0.0837059989571571,0.4133889377117157,0.0900795757770538,-0.6450196504592896,-0.0176987238228321,0.1159618720412254,0.0,0.0,0.3857119083404541,0.181774616241455
-0.0827030166983604,0.3995794951915741,0.0940006673336029,-0.6136891841888428,-0.0114884059876203,0.124206505715847,0.0,0.0,-0.1423032283782959,0.5538506507873535
-0.0816071480512619,0.3855948150157928,0.1041131392121315,-0.6215085983276367,-0.0060791922733187,0.108184278011322,0.0,0.0,0.2422816753387451,0.7204464673995972
-0.0803899765014648,0.3718138337135315,0.1171961203217506,-0.6124773621559143,-0.0016159047372639,0.0892658829689025,0.0,0.0,-0.3229234218597412,0.0999630689620971
-0.0791303664445877,0.357858270406723,0.1209665164351463,-0.6202518343925476,0.003309209132567,0.0985021144151687,0.0,0.0,0.1381623744964599,0.7090284824371338
-0.0776588469743728,0.3443187475204468,0.1430032551288604,-0.601768434047699,0.0074113886803388,0.0820435360074043,0.0,0.0,-0.022107720375061,0.0974950790405273
-0.0761453658342361,0.3306047320365906,0.146719604730606,-0.6095430254936218,0.0119769955053925,0.0913122445344924,0.0,0.0,0.7296476364135742,0.1942222118377685
-0.0746056586503982,0.3178957104682922,0.1489010602235794,-0.5648921728134155,0.016979232430458,0.1000448241829872,0.0,0.0,-0.5810178518295288,-0.0470839738845825
-0.0730247497558593,0.3050123155117035,0.1525555551052093,-0.5726678967475891,0.0224461536854505,0.1093385219573974,0.0,0.0,0.3097769021987915,0.5620307922363281
-0.0712624564766883,0.2927548289299011,0.1711294651031494,-0.5448617339134216,0.02748579159379,0.1007930487394332,0.0,0.0,-0.4422653913497925,-0.3079745769500732
-0.0694595351815223,0.2803229689598083,0.1747140735387802,-0.5526377558708191,0.0329910330474376,0.110104463994503,0.0,0.0,0.1693280935287475,-0.3133057951927185
-0.0676654800772667,0.2682553827762604,0.1735301464796066,-0.5364772081375122,0.0387901030480861,0.1159813180565834,0.0,0.0,0.1884596347808838,-0.57832270860672
-0.0658344253897667,0.2569521963596344,0.1754813492298126,-0.5025799870491028,0.0463246628642082,0.1506913751363754,0.0,0.0,-0.2412058115005493,-0.1161633133888244
-0.0639639869332313,0.2454752773046493,0.1789457201957702,-0.5103594064712524,0.0543254613876342,0.1600158512592315,0.0,0.0,-0.0177412629127502,-0.0906679630279541
-0.062054730951786,0.2338246256113052,0.1823658198118209,-0.5181397795677185,0.0627925097942352,0.1693409979343414,0.0,0.0,0.4726077318191528,0.0967252254486084
-0.0600686073303222,0.2229389995336532,0.1892185509204864,-0.4842256009578705,0.0720846354961395,0.185842365026474,0.0,0.0,0.1965805292129516,0.0901781320571899
-0.05812244489789,0.2126888781785965,0.1849458366632461,-0.4560537040233612,0.0816634446382522,0.191576212644577,0.0,0.0,-0.3267531991004944,0.3124692440032959
-0.0561388954520225,0.2022656798362732,0.1882204115390777,-0.4638374447822571,0.091708056628704,0.2008921653032302,0.0,0.0,-0.3077009916305542,-0.181541621685028
-0.0541184432804584,0.1916695237159729,0.1914422065019607,-0.4716223180294037,0.1022181138396263,0.2102010548114776,0.0,0.0,0.0487096309661865,0.6644258499145508
-0.0521323196589946,0.1814658939838409,0.1889811605215072,-0.4541801512241363,0.1117821112275123,0.1912798583507537,0.0,0.0,0.0473823547363281,0.0080512762069702
-0.0502424240112304,0.1715683341026306,0.1793519556522369,-0.4406434893608093,0.1213692650198936,0.1917430311441421,0.0,0.0,-0.1886969804763794,0.1703835725784301
-0.0483174324035644,0.1614978909492492,0.1824021488428115,-0.4484287202358246,0.1314201653003692,0.2010177820920944,0.0,0.0,0.4679572582244873,0.192057728767395
-0.0463469512760639,0.1517530232667923,0.186246708035469,-0.4340933859348297,0.1421861052513122,0.2153185606002807,0.0,0.0,0.0585036277770996,-0.2414454221725464
-0.0443200096487998,0.1425814479589462,0.1910160332918167,-0.4087868928909302,0.153843879699707,0.2331549376249313,0.0,0.0,0.1010228395462036,-0.3758406043052673
-0.0423542968928813,0.1340007334947586,0.1845175176858902,-0.382654994726181,0.1658919155597686,0.2409604340791702,0.0,0.0,-0.4994628429412842,-0.6914957165718079
-0.0403984077274799,0.1252458691596985,0.1820552945137024,-0.3906711637973785,0.1794514954090118,0.271191656589508,0.0,0.0,-0.0183655619621276,0.2222740650177002
-0.0384110435843467,0.1163196191191673,0.1847805082798004,-0.3984660804271698,0.193469151854515,0.2803531587123871,0.0,0.0,0.5483059883117676,0.6255148649215698
-0.0364995971322059,0.1083668321371078,0.1780384182929992,-0.3552254438400268,0.2066666930913925,0.2639504373073578,0.0,0.0,-0.0839645862579345,0.6488919258117676
-0.0345038399100303,0.1002654135227203,0.1874857544898986,-0.3618012964725494,0.2188785225152969,0.2442365139722824,0.0,0.0,0.2074310779571533,0.4849733114242553
-0.0324941650032997,0.0925023183226585,0.1881963908672332,-0.3469767570495605,0.2318154275417328,0.2587381303310394,0.0,0.0,0.4404739141464233,0.5007424354553223
-0.0306531898677349,0.0853297337889671,0.1721954643726349,-0.320706158876419,0.2439041137695312,0.2417741566896438,0.0,0.0,-0.280237078666687,-0.1106911897659301
-0.0287845619022846,0.0779855549335479,0.1745483726263046,-0.328499972820282,0.2564407587051391,0.250732958316803,0.0,0.0,0.5694165229797363,0.4974149465560913
-0.0270449630916118,0.0712393373250961,0.1613560765981674,-0.3020918667316437,0.2693279385566711,0.2577433586120605,0.0,0.0,0.5846316814422607,0.1662591695785522
-0.025391673669219,0.0650716871023178,0.1522267907857895,-0.2765861451625824,0.2827723920345306,0.2688890695571899,0.0,0.0,0.2504761219024658,0.2525948286056518
-0.023694610223174,0.0591666810214519,0.155795469880104,-0.265206903219223,0.297112762928009,0.2868067324161529,0.0,0.0,-0.0270918607711792,-0.2327572107315063
-0.0219733230769634,0.0530911535024642,0.1578293442726135,-0.2730069458484649,0.3118879795074463,0.2955045402050018,0.0,0.0,-0.0623881220817565,-0.0448117852210998
-0.0202292446047067,0.0468453988432884,0.159781351685524,-0.2808083891868591,0.3270939588546753,0.3041198849678039,0.0,0.0,0.4362655878067016,0.4147744178771972
-0.0184977538883686,0.0408415421843528,0.1579340398311615,-0.270359069108963,0.3429821729660034,0.3177646696567535,0.0,0.0,0.5008746385574341,0.1156063079833984
