x_pos,y_pos,x_vel,y_vel,angle,ang_vel,leg_1,leg_2,main_booster,lat_booster
-0.0015275955665856,1.4029898643493652,-0.1544654071331024,-0.3524590730667114,0.0015272470191121,0.0301087610423564,0.0,0.0,0.5337660447445458,0.9271359699513406
-0.0029328346718102,1.3950861692428589,-0.1400012075901031,-0.3512774109840393,0.0010067212861031,-0.0104109421372413,0.0,0.0,0.6764462499799715,0.8440700692774028
-0.0041264533065259,1.3871562480926514,-0.1171708852052688,-0.3524425327777862,-0.0011535903904587,-0.0432100668549537,0.0,0.0,0.9708974027440812,0.7887825132748586
-0.0054162978194653,1.3794832229614258,-0.1245845332741737,-0.3410305678844452,-0.0055032321251928,-0.0870011374354362,0.0,0.0,0.9028736015878184,-0.807443878357128
-0.0066081047989428,1.3723039627075195,-0.1165145263075828,-0.3190911710262298,-0.0081418212503194,-0.0527767054736614,0.0,0.0,-0.1456341647312022,-0.6425415232591799
-0.0078441621735692,1.3644895553588867,-0.1216585040092468,-0.3473208844661712,-0.0100597729906439,-0.0383625626564025,0.0,0.0,-0.2270607660652448,-0.8488820943123448
-0.0091547016054391,1.356041669845581,-0.1306162923574447,-0.3754671216011047,-0.0104971285909414,-0.008748197928071,0.0,0.0,0.5199551368293243,0.6682576861476096
-0.0102615356445312,1.3478505611419678,-0.1089579686522483,-0.3640608191490173,-0.0121960109099745,-0.0339807644486427,0.0,0.0,0.2893630529390327,0.9219294094643888
-0.011304092593491,1.340013027191162,-0.1004247814416885,-0.3483624458312988,-0.0159954242408275,-0.0759952366352081,0.0,0.0,-0.278573476208046,0.9173661425183338
-0.0122803691774606,1.3315452337265017,-0.0916775912046432,-0.3764194250106811,-0.0218776576220989,-0.1176554188132286,0.0,0.0,0.3435191379034168,-0.699694026356658
-0.013229084201157,1.3231680393218994,-0.0901934131979942,-0.3723956346511841,-0.0265088733285665,-0.0926327928900718,0.0,0.0,-0.4503601306877476,0.9882665488534386
-0.0140970228239893,1.3141512870788574,-0.079624630510807,-0.4008959233760834,-0.03360241279006,-0.1418833136558532,0.0,0.0,-0.9857056074561212,-0.9712608760019132
-0.0150310518220067,1.3045083284378052,-0.087488405406475,-0.4287174046039581,-0.0394573062658309,-0.11710886657238,0.0,0.0,-0.9123542362635112,0.9109427118246928
-0.0158918388187885,1.2942183017730713,-0.0778394490480423,-0.4575712382793426,-0.0476034805178642,-0.1629385650157928,0.0,0.0,-0.3987090762882423,0.9084474926380404
-0.0166703220456838,1.283298134803772,-0.0670992210507392,-0.4857214391231537,-0.0582474991679191,-0.2128998339176178,0.0,0.0,0.8666249004030402,0.7307038902315008
-0.0172444339841604,1.272222638130188,-0.0452407710254192,-0.4927592277526855,-0.0703016370534896,-0.2411046773195266,0.0,0.0,-0.9746747696248286,0.9089214561835643
-0.0177366249263286,1.2605164051055908,-0.0345451459288597,-0.5210344195365906,-0.0848496109247207,-0.2909858226776123,0.0,0.0,-0.2061372701090249,-0.9260246076374384
-0.0182913783937692,1.2481775283813477,-0.0419583320617675,-0.5492143034934998,-0.0982706099748611,-0.2684446275234222,0.0,0.0,0.8561667135293463,0.9698328104888216
-0.018566608428955,1.2365334033966064,-0.0119987176731228,-0.5186116099357605,-0.1136990711092948,-0.3085975646972656,0.0,0.0,0.4431286710958011,0.916026383042035
-0.0188000686466693,1.2249958515167236,-0.0056551466695964,-0.5142166018486023,-0.1313163489103317,-0.3523773550987243,0.0,0.0,-0.877559999285054,0.7825583266289426
-0.0189651492983102,1.2128198146820068,0.0033054524101316,-0.5430265069007874,-0.1511016488075256,-0.3957414329051971,0.0,0.0,0.3830131419016278,0.7581537382099535
-0.0190112106502056,1.2005441188812256,0.0169276464730501,-0.547913134098053,-0.1726673394441604,-0.4313529431819916,0.0,0.0,0.451221895894675,-0.9821822008236194
-0.018929099664092,1.1883317232131958,0.0278823673725128,-0.5451929569244385,-0.1924392879009246,-0.3954740762710571,0.0,0.0,-0.1261002767792962,0.8240891155486183
-0.0187830924987792,1.175460696220398,0.0362922623753547,-0.5750118494033813,-0.2143444269895553,-0.4381418824195862,0.0,0.0,0.173073326130861,-0.8677411427156726
-0.0187272075563669,1.162692666053772,0.0258153285831213,-0.570526123046875,-0.2348355203866958,-0.4098583161830902,0.0,0.0,-0.133061980890444,-0.7815933181613681
-0.0187550541013479,1.149305820465088,0.0157212149351835,-0.5980386734008789,-0.2536471486091614,-0.3762329220771789,0.0,0.0,0.0045613241427464,-0.7889909716364089
-0.0187355987727642,1.1359578371047974,0.0190566144883632,-0.5962978005409241,-0.2711414098739624,-0.3498856127262115,0.0,0.0,-0.5228922508919576,-0.9683235433529448
-0.018811035901308,1.1220266819000244,0.0074436776340007,-0.6220149397850037,-0.2865209281444549,-0.3075906336307525,0.0,0.0,-0.4619884656512873,0.8486793185644433
-0.0188418384641408,1.1074498891830444,0.0133948568254709,-0.6511932015419006,-0.3035256862640381,-0.3400959372520447,0.0,0.0,-0.0320769105311837,-0.9154423040093016
-0.0189518928527832,1.0922728776931765,0.003821785794571,-0.6777014136314392,-0.3188872933387756,-0.3072324395179748,0.0,0.0,0.4704271460883313,-0.6989376865684271
-0.0188658721745014,1.0775630474090576,0.0222035739570856,-0.6568257808685303,-0.3330628871917724,-0.2835119664669037,0.0,0.0,-0.8663298685497889,0.7305817898090288
-0.0187408439815044,1.0621942281723022,0.0275570601224899,-0.6866135001182556,-0.3488246202468872,-0.3152343928813934,0.0,0.0,-0.889948367748566,0.9076893625533468
-0.018562888726592,1.04617178440094,0.0345302671194076,-0.7162654399871826,-0.3664615452289581,-0.3527386784553528,0.0,0.0,0.7750430395700347,-0.8143249875888136
-0.0183850284665823,1.030130386352539,0.0332494005560874,-0.7169973254203796,-0.3828509747982025,-0.3277884125709533,0.0,0.0,-0.232682896913039,0.8401127862338905
-0.0181507114320993,1.013422966003418,0.0407038852572441,-0.747297465801239,-0.4012944400310516,-0.3688692152500152,0.0,0.0,-0.8796276653557542,0.7823205789880627
-0.0178631786257028,0.9960554242134094,0.0476797148585319,-0.7773858904838562,-0.4216732978820801,-0.4075770378112793,0.0,0.0,0.8527800764088469,-0.9660246171745086
-0.0174736026674509,0.9788202047348022,0.0561842694878578,-0.7712775468826294,-0.4403753578662872,-0.3740420043468475,0.0,0.0,-0.8291294198042165,0.8798021569872023
-0.0170221328735351,0.960915744304657,0.0642298609018325,-0.8018913269042969,-0.4612899720668793,-0.4182925224304199,0.0,0.0,-0.621638508723507,0.6180463779797162
-0.0165341384708881,0.942359745502472,0.0690092518925666,-0.8315721750259399,-0.4836739599704742,-0.4476795196533203,0.0,0.0,0.652533536868553,0.7148315843342404
-0.0156917572021484,0.9239247441291808,0.105713702738285,-0.8270493745803833,-0.5077672600746155,-0.481867253780365,0.0,0.0,0.7415873003625977,-0.9392053993055336
-0.0146269798278808,0.9060911536216736,0.1263137757778167,-0.8001461029052734,-0.5302984118461609,-0.4506228566169739,0.0,0.0,0.4521090984344482,-0.9985224604606628
-0.0132957454770803,0.8881877064704895,0.1510379314422607,-0.8028509616851807,-0.5509092211723328,-0.4122166633605957,0.0,0.0,0.6396480798721313,-0.9920186400413512
-0.011784553527832,0.8700196146965027,0.1671498268842697,-0.8141559362411499,-0.569578230381012,-0.3733806014060974,0.0,0.0,0.5700039863586426,-0.9761570692062378
-0.0099834445863962,0.8518301248550415,0.1943359822034835,-0.81458979845047,-0.5863264203071594,-0.3349626362323761,0.0,0.0,0.4595279693603515,-0.9929538369178772
-0.0081478115171194,0.8334242701530457,0.1960882246494293,-0.8236657381057739,-0.6012367010116577,-0.2982059717178345,0.0,0.0,0.2633394002914428,-0.9945961833000184
-0.0062081338837742,0.8147263526916504,0.2048110216856002,-0.8360411524772644,-0.6142717003822327,-0.2606995403766632,0.0,0.0,0.1960237026214599,-0.9724178314208984
-0.0041104317642748,0.7958099842071533,0.2190159857273101,-0.8451167941093445,-0.625468909740448,-0.2239444553852081,0.0,0.0,0.5772747993469238,-0.9991099238395692
-0.0017109870677813,0.7774133086204529,0.2476125508546829,-0.8213403224945068,-0.6348166465759277,-0.1869544833898544,0.0,0.0,0.0313638448715209,-0.9889249801635742
0.000834846519865,0.7591428160667419,0.2605392336845398,-0.814972996711731,-0.6421490907669067,-0.1466484516859054,0.0,0.0,0.153982400894165,-0.9976658821105956
0.0035089491866528,0.7407497763633728,0.2717763185501098,-0.8196650743484497,-0.6475415229797363,-0.1078482717275619,0.0,0.0,-0.1063639521598815,-0.9807443618774414
0.0061293602921068,0.721776008605957,0.2652677297592163,-0.8449046015739441,-0.6515358686447144,-0.0798863470554351,0.0,0.0,0.150204062461853,-0.9975234866142272
0.0089571001008152,0.7028999924659729,0.284383475780487,-0.8397587537765503,-0.6535441279411316,-0.0401654057204723,0.0,0.0,0.3211820125579834,-0.9523798823356628
0.0120127676054835,0.6837854981422424,0.3056740462779999,-0.8495808243751526,-0.653674840927124,-0.0026142753195017,0.0,0.0,0.1319895982742309,-0.9919581413269044
0.0153384208679199,0.6647639870643616,0.3310823440551758,-0.8446533679962158,-0.651838481426239,0.0367269366979599,0.0,0.0,0.3032273054122925,-0.9992826581001282
0.0189355853945016,0.6455111503601074,0.3566498160362243,-0.8541253805160522,-0.6480306386947632,0.0761563405394554,0.0,0.0,0.3582265377044678,-0.9992863535881042
0.0226234439760446,0.6262375712394714,0.364126592874527,-0.854262113571167,-0.6422692537307739,0.1152273193001747,0.0,0.0,0.1983450651168823,-0.9955639839172364
0.0266568176448345,0.6070302128791809,0.3970562815666199,-0.8505521416664124,-0.6345398426055908,0.1545887291431427,0.0,0.0,0.1586092710494995,-0.9974637031555176
0.0309953689575195,0.5877317786216736,0.4259458482265472,-0.853855311870575,-0.6248694062232971,0.1934083253145218,0.0,0.0,-0.1344020366668701,-0.9948718547821044
0.0352767929434776,0.5678688883781433,0.4187313914299011,-0.8783249258995056,-0.6134681105613708,0.2280244529247284,0.0,0.0,0.1875557899475097,-0.9990976452827454
0.0397643074393272,0.5481967329978943,0.4375775456428528,-0.8691421151161194,-0.6000388860702515,0.2685839533805847,0.0,0.0,0.2319566011428833,-0.9995766878128052
0.0443711280822753,0.5282560586929321,0.447751522064209,-0.8804391026496887,-0.5846344828605652,0.3080883920192718,0.0,0.0,0.1939306259155273,-0.9996899962425232
0.0491180419921875,0.5084580779075623,0.4598924219608307,-0.8734868764877319,-0.5672001242637634,0.3486877083778381,0.0,0.0,0.1450976133346557,-0.9871182441711426
0.0540720932185649,0.488461971282959,0.4787660539150238,-0.8817874193191528,-0.5478337407112122,0.3873271346092224,0.0,0.0,0.0856416225433349,-0.9940204620361328
0.0591812133789062,0.4683998227119446,0.4923460483551025,-0.8842626214027405,-0.5264866948127747,0.4269406795501709,0.0,0.0,-0.0477753281593322,-0.999363124370575
0.0642168074846267,0.4477611184120178,0.4830125272274017,-0.9095056056976318,-0.5031768679618835,0.4661968350410461,0.0,0.0,0.028499960899353,-0.9871155023574828
0.0692768096923828,0.4271023273468017,0.4833610653877258,-0.9100809693336488,-0.4778173267841339,0.5071905255317688,0.0,0.0,0.0305536985397338,-0.9959733486175536
0.0745276436209678,0.4065814912319183,0.5003026127815247,-0.9037417769432068,-0.4504570364952087,0.5472061038017273,0.0,0.0,0.2461907863616943,-0.993394136428833
0.0798626914620399,0.3857268393039703,0.5065790414810181,-0.918481707572937,-0.4211185276508331,0.58677077293396,0.0,0.0,0.4406156539916992,-0.9972057342529296
0.0854556113481521,0.3653099536895752,0.5301097631454468,-0.8990306258201599,-0.3897483050823211,0.6274052858352661,0.0,0.0,0.6314517259597778,-0.9125627279281616
0.0910597816109657,0.3450164794921875,0.5292501449584961,-0.8937543034553528,-0.3566922843456268,0.6611202955245972,0.0,0.0,0.6420058012008667,-0.9772948026657104
0.0967288017272949,0.3251469731330871,0.5335770845413208,-0.8752073645591736,-0.3217862546443939,0.6981214284896851,0.0,0.0,0.9571936130523682,-0.8916388750076294
0.1026003807783126,0.3057241439819336,0.5516215562820435,-0.8557730317115784,-0.2850142121315002,0.7354415059089661,0.0,0.0,0.9704256057739258,-0.8551376461982727
0.1085286140441894,0.2872430682182312,0.5555435419082642,-0.8145629167556763,-0.2468537241220474,0.7632105350494385,0.0,0.0,0.9980051517486572,0.138296365737915
0.1147110015153884,0.2691294252872467,0.5801960229873657,-0.799121618270874,-0.2082862555980682,0.7713498473167419,0.0,0.0,0.9967820644378662,0.1517896652221679
0.120948314666748,0.2511067688465118,0.5855499505996704,-0.7960842251777649,-0.1698969453573227,0.7677868604660034,0.0,0.0,0.996719479560852,-0.7335036396980286
0.1272782385349273,0.2330350428819656,0.5928438901901245,-0.7990930080413818,-0.1298037469387054,0.8018646240234375,0.0,0.0,0.9999115467071532,0.6967425346374512
0.1336710005998611,0.2149505168199539,0.600380539894104,-0.8008291721343994,-0.0911705791950225,0.772663950920105,0.0,0.0,0.9999985694885254,0.9542138576507568
0.140211671590805,0.1976842433214187,0.6169223189353943,-0.7655395865440369,-0.0544030033051967,0.7353521585464478,0.0,0.0,0.9999369382858276,-0.409339964389801
0.1468983590602874,0.1812726408243179,0.6309255957603455,-0.728458046913147,-0.0171186421066522,0.7456878423690796,0.0,0.0,0.9999165534973145,0.8456417322158813
0.1535160094499588,0.1657382845878601,0.6259346604347229,-0.6903848052024841,0.0182525254786014,0.7074240446090698,0.0,0.0,0.999833345413208,0.7297096252441406
0.1600102484226226,0.1501758843660354,0.6154001355171204,-0.6924195885658264,0.0518579855561256,0.6721097230911255,0.0,0.0,0.9999997615814208,0.5164732933044434
0.1665419638156891,0.1354387551546096,0.6199706792831421,-0.6564570069313049,0.0847034603357315,0.6569101214408875,0.0,0.0,0.999988317489624,0.97654128074646
0.1729514151811599,0.1211143359541893,0.6099033355712891,-0.6386843919754028,0.1154889166355133,0.6157092452049255,0.0,0.0,0.999997854232788,0.6902161836624146
0.1792442351579666,0.1073900088667869,0.599776029586792,-0.6125131845474243,0.144853338599205,0.5872889757156372,0.0,0.0,0.9999995231628418,-0.8609826564788818
0.1853260993957519,0.0942860916256904,0.5769686102867126,-0.5857298970222473,0.1760565191507339,0.6240640878677368,0.0,0.0,0.9999885559082032,0.7266151905059814
0.1914477348327636,0.081645518541336,0.5821279883384705,-0.5656471848487854,0.2062442302703857,0.603754997253418,0.0,0.0,0.9999992847442628,-0.7306367754936218
0.1974537819623947,0.0689764097332954,0.5690542459487915,-0.5677844882011414,0.2381574958562851,0.6382657289505005,0.0,0.0,0.9999351501464844,0.9204753637313844
0.2035307884216308,0.0564592219889164,0.577789306640625,-0.5614502429962158,0.268639475107193,0.6096401214599609,0.0,0.0,0.9979606866836548,0.7852118015289307
0.2096645385026931,0.0444196090102195,0.5846518278121948,-0.5406402945518494,0.2981638610363006,0.5904878973960876,0.0,0.0,0.9997947216033936,-0.3857862949371338
0.2158137261867523,0.0325163938105106,0.5854860544204712,-0.5353516340255737,0.3286778330802917,0.6102802753448486,0.0,1.0,0.9999969005584716,0.9941186904907228
0.2217841148376464,0.0224832147359848,0.5859474539756775,-0.4486928880214691,0.3395680785179138,0.2167943716049194,0.0,1.0,0.9998481273651124,-0.5445974469184875
0.2273012101650238,0.0138359880074858,0.5583167672157288,-0.3827309906482696,0.3330088555812835,-0.1307068020105362,0.0,1.0,0.99989652633667,-0.9804704189300536
0.2323955595493316,0.0062575316987931,0.5321768522262573,-0.3317388296127319,0.3095654547214508,-0.4685758054256439,0.0,1.0,0.9997286796569824,-0.9899356365203856
0.2371928244829177,-0.0008720302721485,0.5187356472015381,-0.3090748190879822,0.2694741189479828,-0.8016852140426636,0.0,1.0,0.998767614364624,-0.9756439328193665
0.2414534538984298,-0.0072976015508174,0.4820379316806793,-0.27633798122406,0.2125200927257537,-1.1391310691833496,0.0,1.0,0.8465585708618164,-0.9856834411621094
0.245411679148674,-0.0126186041161417,0.4601356089115143,-0.2285918742418289,0.1478204578161239,-1.2941676378250122,0.0,1.0,0.9308617115020752,-0.9782140254974364
0.2491688728332519,-0.0175643116235733,0.4383520185947418,-0.2148307263851165,0.0854277983307838,-1.2480021715164185,0.0,1.0,0.8776154518127441,-0.8377189040184021
0.2526389062404632,-0.0217852499336004,0.4077974259853363,-0.1852657943964004,0.0252776723355054,-1.2030465602874756,1.0,0.0,0.6912393569946289,-0.9961246252059937
0.2562007009983063,-0.0248529464006423,0.3972594738006592,-0.1365706920623779,-0.013276663608849,-0.7685501575469971,1.0,0.0,-0.9107255339622498,-0.993296205997467
0.2598501145839691,-0.0279332660138607,0.3823529183864593,-0.137151688337326,-0.0304699447005987,-0.3438647389411926,1.0,0.0,-0.7500053644180298,-0.9342658519744872
0.2635690569877624,-0.0310403723269701,0.3678532540798187,-0.1380132585763931,-0.026472058147192,0.0799503996968269,1.0,0.0,-0.6127865314483643,-0.5115360617637634
0.2671795785427093,-0.0337667129933834,0.3553972244262695,-0.1210675537586212,-0.0208851657807827,0.111746609210968,1.0,1.0,-0.1464540362358093,-0.9959551095962524
0.2706197798252105,-0.0360881127417087,0.3362301886081695,-0.1030815541744232,-0.013183762319386,0.1540409177541732,1.0,1.0,-0.0096467733383178,-0.9997133612632751
0.2738859057426452,-0.0380150824785232,0.3165030777454376,-0.0855837985873222,-0.0031958303879946,0.1997682750225067,1.0,1.0,-0.441546082496643,-0.8267914652824402
0.2770211100578308,-0.0395464785397052,0.3023486137390136,-0.0680786296725273,0.0078445086255669,0.2208137214183807,1.0,1.0,-0.5781683325767517,-0.9963383674621582
0.2800091803073883,-0.0407046563923358,0.2861633598804474,-0.0515915043652057,0.0203293301165103,0.2497012317180633,1.0,1.0,-0.5440652370452881,-0.9998573064804076
0.2828500866889953,-0.0415107496082782,0.2715286910533905,-0.036047026515007,0.0327294208109378,0.2480020821094513,1.0,1.0,-0.9208502173423768,-0.999467134475708
0.2854098379611969,-0.0414882563054561,0.2530466616153717,0.0009327055886387,0.035615473985672,0.0577256008982658,1.0,1.0,-0.9208502173423768,-0.999467134475708
