x_pos,y_pos,x_vel,y_vel,angle,ang_vel,leg_1,leg_2,main_booster,lat_booster
-0.0016234398353844,1.4029748439788818,-0.1650769412517547,-0.3531278073787689,0.0024522836320102,0.0484245084226131,0.0,0.0,-0.2995734581785931,-0.9338504838374366
-0.0034151077270507,1.394398212432861,-0.1839056462049484,-0.381193459033966,0.0071447934024035,0.0938596501946449,0.0,0.0,-0.8018514913938481,-0.9158202148017336
-0.0053643225692212,1.3851648569107056,-0.201716274023056,-0.4104249775409698,0.0138602629303932,0.1343221217393875,0.0,0.0,-0.7448533707880618,-0.89102079788363
-0.0074995993636548,1.3752779960632324,-0.2230752259492874,-0.4395356774330139,0.0233007874339818,0.1888279169797897,0.0,0.0,-0.1412826791664638,-0.6349729449689865
-0.0097769740968942,1.36474347114563,-0.2389036417007446,-0.4684079885482788,0.0343444496393203,0.2208935767412185,0.0,0.0,0.0042163865312516,0.6767851499322352
-0.0120203020051121,1.3540626764297483,-0.234854906797409,-0.4749740064144134,0.0447594784200191,0.2083197832107544,0.0,0.0,0.0268115613255923,0.7676831133210096
-0.0143392561003565,1.3432745933532717,-0.2414935082197189,-0.4797838926315307,0.0542626343667507,0.1900807619094848,0.0,0.0,0.624619519280786,-0.7841658886361398
-0.0166963580995798,1.3328020572662354,-0.2478244751691818,-0.4659258425235748,0.0662545189261436,0.2398598194122314,0.0,0.0,0.9620708157569982,-0.8608073673774507
-0.0193074233829975,1.3231711387634275,-0.2755201458930969,-0.4287422001361847,0.080535240471363,0.2856408953666687,0.0,0.0,0.288290542035994,0.6738057509685367
-0.0220169071108102,1.313750982284546,-0.2846192419528961,-0.419468492269516,0.0940964519977569,0.2712492346763611,0.0,0.0,0.6248626210373702,0.982146001613952
-0.0247139930725097,1.304582118988037,-0.2821418642997741,-0.4083284437656402,0.1064519584178924,0.2471324950456619,0.0,0.0,-0.7769239302192459,-0.9042339447500776
-0.0275786407291889,1.2947551012039185,-0.3011019825935364,-0.4378687143325805,0.1210171654820442,0.2913303077220917,0.0,0.0,0.1817349386746454,-0.6426231667616978
-0.0305562019348144,1.2850403785705566,-0.3144479393959045,-0.4331969916820526,0.1376447230577469,0.3325818181037903,0.0,0.0,-0.4803023131323161,0.8458928438833211
-0.0335651412606239,1.2746880054473877,-0.3162905573844909,-0.4616042077541351,0.1530184149742126,0.3075022101402282,0.0,0.0,0.4673893209318702,-0.9752224671378054
-0.036726951599121,1.2648015022277832,-0.3342198729515075,-0.4413590133190155,0.1710906624794006,0.3614783883094787,0.0,0.0,-0.3861995651671122,-0.926628482286096
-0.0400522239506244,1.2542452812194824,-0.3526513278484344,-0.471611350774765,0.1913048475980758,0.4043203294277191,0.0,0.0,0.9796800729029368,0.6555719218619709
-0.0434552207589149,1.2446284294128418,-0.3601163327693939,-0.4301021993160248,0.2112955152988433,0.3998503386974334,0.0,0.0,-0.3919151908715965,-0.7752528681666503
-0.0470090880990028,1.2343477010726929,-0.3768981099128723,-0.4601458609104156,0.2331001609563827,0.4361319541931152,0.0,0.0,-0.3096308682980553,-0.8891522688626341
-0.0507277473807334,1.223413586616516,-0.395346850156784,-0.4898489713668823,0.2570178210735321,0.4783968329429626,0.0,0.0,0.0759138909902712,-0.6379151851057698
-0.0547525398433208,1.2123324871063232,-0.427591323852539,-0.4971046447753906,0.2827678918838501,0.5150479078292847,0.0,0.0,-0.9833347217450172,-0.7177578523214214
-0.0589278228580951,1.200598955154419,-0.4441532492637634,-0.5268836617469788,0.310275137424469,0.5501944422721863,0.0,0.0,-0.8113889727221546,0.9353686815218696
-0.0631374344229698,1.1882565021514893,-0.4460789263248443,-0.554145097732544,0.3364595472812652,0.5237354040145874,0.0,0.0,-0.2371827558696904,-0.958816843157718
-0.0675089806318283,1.1752454042434692,-0.4640959203243255,-0.5848063230514526,0.3647964894771576,0.5667896866798401,0.0,0.0,0.0819508646151998,0.9235062591284198
-0.0719392746686935,1.161941409111023,-0.4684607088565826,-0.598004162311554,0.3918487429618835,0.5410940647125244,0.0,0.0,0.6889009185934951,0.7168902300702464
-0.0768215209245681,1.1488542556762695,-0.5122880339622498,-0.5884976983070374,0.4177024066448211,0.517119824886322,0.0,0.0,-0.2025607540230212,-0.6406547314567824
-0.0818613022565841,1.1350746154785156,-0.5298603773117065,-0.6203411817550659,0.4458106160163879,0.5621635913848877,0.0,0.0,0.0800072622831813,0.9985472368018996
-0.0871392264962196,1.1213586330413818,-0.5519785284996033,-0.6175430417060852,0.472430020570755,0.53238844871521,0.0,0.0,-0.3020875968914904,0.7402394709518021
-0.0924830436706543,1.107042670249939,-0.5577017068862915,-0.6444416642189026,0.4984240233898163,0.5198798775672913,0.0,0.0,0.8818969932733214,-0.9759635666744508
-0.0985672026872634,1.093085527420044,-0.6334930658340454,-0.6296890377998352,0.5268198251724243,0.5679162740707397,0.0,0.0,-0.0944352910690304,-0.8424779867913819
-0.1048125252127647,1.0784389972686768,-0.651329517364502,-0.6616774797439575,0.5576632022857666,0.6168680787086487,0.0,0.0,-0.7626241695234426,-0.8037294130267074
-0.1112164482474327,1.0631181001663208,-0.6685599088668823,-0.6930381655693054,0.5907427072525024,0.6615915894508362,0.0,0.0,0.1495710159883179,-0.7017674311185751
-0.1179885864257812,1.047444224357605,-0.706447184085846,-0.7101293206214905,0.6258658170700073,0.7024620771408081,0.0,0.0,-0.112891924090728,-0.93805437804754
-0.1249353438615799,1.0310741662979126,-0.7254881858825684,-0.7429459095001221,0.6638632416725159,0.7599486708641052,0.0,0.0,-0.7128041717187796,0.6535270228484966
-0.1319479048252105,1.014111042022705,-0.7306157946586609,-0.769766628742218,0.7011612057685852,0.7459604144096375,0.0,0.0,0.6164113964186173,0.9776894307618428
-0.1393882781267166,0.99731183052063,-0.7713092565536499,-0.7624809741973877,0.7368751168251038,0.7142784595489502,0.0,0.0,-0.1727077390487996,0.945091381650606
-0.1468772888183593,0.9799607396125792,-0.7741247415542603,-0.7868903875350952,0.770965039730072,0.6817989945411682,0.0,0.0,0.5075351737511757,0.6907331501867289
-0.1547343283891677,0.9624484181404114,-0.8093599081039429,-0.7941192388534546,0.8040177226066589,0.6610544919967651,0.0,0.0,0.8954708526973412,0.7015737662170427
-0.16325044631958,0.9453227519989014,-0.8738344311714172,-0.776962161064148,0.8361181020736694,0.642008364200592,0.0,0.0,-0.5165288085261706,0.6027051563150202
-0.1718369424343109,0.9276140332221984,-0.8795984387397766,-0.8029524683952332,0.867457926273346,0.6267963647842407,0.0,0.0,0.2892615114108934,-0.789948830722873
-0.1809034347534179,0.9096904397010804,-0.9283318519592284,-0.8141801357269287,0.9011524319648744,0.6738898754119873,0.0,0.0,-0.2643395697812192,-0.723407638329844
-0.1901078224182129,0.8910598754882812,-0.94271057844162,-0.8474199175834656,0.9373229742050172,0.7234112024307251,0.0,0.0,-0.9382284283638,0.9957749843597412
-0.1993494033813476,0.8719040751457214,-0.9440600275993348,-0.8700264096260071,0.9712091088294984,0.6777236461639404,0.0,0.0,-0.948518931865692,0.9986169338226318
-0.2086246907711029,0.8522149324417114,-0.9452614784240724,-0.8929034471511841,1.002890706062317,0.633632242679596,0.0,0.0,-0.7688561081886292,0.99664306640625
-0.2179378569126129,0.8319986462593079,-0.9470197558403016,-0.915399134159088,1.0323222875595093,0.5886326432228088,0.0,0.0,-0.7952076196670532,0.9911763668060304
-0.2272914946079254,0.8112279176712036,-0.9494730830192566,-0.9393380284309388,1.06005597114563,0.554673433303833,0.0,0.0,-0.810763418674469,0.985504984855652
-0.2366799414157867,0.7899178862571716,-0.9513015747070312,-0.9623429775238036,1.085740566253662,0.5136913657188416,0.0,0.0,-0.6739391088485718,0.995114803314209
-0.246102899312973,0.7680746912956238,-0.9531841278076172,-0.9849406480789183,1.1092612743377686,0.4704152047634125,0.0,0.0,-0.5815303325653076,0.977813482284546
-0.2555782198905945,0.7456751465797424,-0.9572784304618835,-1.008922457695007,1.1312973499298096,0.4407214522361755,0.0,0.0,-0.5772424936294556,0.9970338344573976
-0.2651031911373138,0.7227168679237366,-0.9611890912055968,-1.0329986810684204,1.1518762111663818,0.4115764498710632,0.0,0.0,-0.5241420269012451,0.996023178100586
-0.2746621966361999,0.6992141604423523,-0.9634539484977722,-1.0561293363571167,1.1705496311187744,0.3734690546989441,0.0,0.0,-0.5549365878105164,0.9851988554000854
-0.2842464447021484,0.6751946806907654,-0.9646784663200378,-1.0775734186172483,1.1866644620895386,0.3222974836826324,0.0,0.0,-0.4415291547775268,0.9907170534133912
-0.2938664853572845,0.6506280899047852,-0.9673482179641724,-1.1008466482162476,1.2009824514389038,0.2863592505455017,0.0,0.0,-0.6076986193656921,0.9902286529541016
-0.3035037517547607,0.6255382299423218,-0.9680026769638062,-1.1225839853286743,1.2128303050994873,0.2369575798511505,0.0,0.0,-0.61271733045578,0.9840254783630372
-0.3131685853004455,0.599911093711853,-0.969916820526123,-1.1451808214187622,1.2226146459579468,0.1956876367330551,0.0,0.0,-0.7247806191444397,0.9832464456558228
-0.3228429853916168,0.5737677216529846,-0.9698830842971802,-1.1664659976959229,1.2297508716583252,0.1427237540483474,0.0,0.0,-0.7171353101730347,0.9811239242553712
-0.3325324058532715,0.5470651984214783,-0.9707804918289183,-1.1902549266815186,1.2352068424224854,0.1091196089982986,0.0,0.0,-0.7896406054496765,0.9497497081756592
-0.3422339856624603,0.5198366045951843,-0.9711793661117554,-1.2121241092681885,1.2382811307907104,0.0614853277802467,0.0,0.0,-0.816972553730011,0.967869520187378
-0.3519377112388611,0.4920898079872131,-0.9705254435539246,-1.2334781885147097,1.238736867904663,0.0091148363426327,0.0,0.0,-0.7828154563903809,0.9723671674728394
-0.3616449236869812,0.4638164639472961,-0.9700746536254884,-1.2553495168685913,1.236788630485535,-0.0389658771455287,0.0,0.0,-0.8387333750724792,0.9610567092895508
-0.3713555932044983,0.434988796710968,-0.9698159098625184,-1.2788420915603638,1.2330453395843506,-0.0748648196458816,0.0,0.0,-0.8492339253425598,0.953587532043457
-0.3810490071773529,0.4056219756603241,-0.9673056602478028,-1.301360249519348,1.2270303964614868,-0.1202980279922485,0.0,0.0,-0.9077726006507874,0.960662007331848
-0.3907338678836822,0.3756952285766601,-0.9658181071281432,-1.3251605033874512,1.219287633895874,-0.154855877161026,0.0,0.0,-0.9224847555160522,0.9657516479492188
-0.4003905653953552,0.3452441692352295,-0.9620095491409302,-1.346816897392273,1.2089191675186155,-0.2073685228824615,0.0,0.0,-0.9266209602355956,0.9390472173690796
-0.4100205898284912,0.3142499029636383,-0.958434760570526,-1.3696130514144895,1.1963669061660769,-0.2510443925857544,0.0,0.0,-0.9497407674789428,0.9083173274993896
-0.4196144640445709,0.2827032804489136,-0.953883171081543,-1.3929158449172974,1.1817626953125,-0.2920837104320526,0.0,0.0,-0.954672873020172,0.833136796951294
-0.429177850484848,0.2505794763565063,-0.9500656127929688,-1.4177258014678955,1.1657134294509888,-0.3209842443466186,0.0,0.0,-0.9274691343307496,0.74811851978302
-0.438706636428833,0.2178929448127746,-0.9456466436386108,-1.4417266845703125,1.147918462753296,-0.3559014201164245,0.0,0.0,-0.8692382574081421,0.8203788995742798
-0.4481787085533142,0.1846523582935333,-0.9387640953063964,-1.465143799781799,1.1280063390731812,-0.3982428014278412,0.0,1.0,0.8228514194488525,0.9690691232681274
-0.4561958909034729,0.1658359915018081,-0.8751020431518555,-0.991715967655182,1.3458938598632812,4.208315849304199,0.0,1.0,-0.9989493489265442,0.1731775999069214
-0.4646245837211609,0.1462828963994979,-0.8686111569404602,-1.021803379058838,1.5605041980743408,4.199708461761475,0.0,1.0,-0.998361349105835,0.3346321582794189
-0.4683783650398254,0.1457520276308059,-0.2372885644435882,0.1392920911312103,1.6627085208892822,0.9498217701911926,0.0,1.0,-0.998361349105835,0.3346321582794189
