x_pos,y_pos,x_vel,y_vel,angle,ang_vel,leg_1,leg_2,main_booster,lat_booster
-0.0015294074546545,1.4031037092208862,-0.1542872041463852,-0.3473988473415375,0.0011918790405616,0.0234688706696033,0.0,0.0,-0.3557568192481994,0.1818810701370239
-0.0030643462669104,1.3947895765304563,-0.1540762931108474,-0.3695189356803894,0.0017693181289359,0.0115506323054432,0.0,0.0,-0.1037759780883789,0.8240528106689453
-0.0045246123336255,1.3859483003616333,-0.1440027952194214,-0.3929450809955597,-0.0002267355303047,-0.0399249196052551,0.0,0.0,0.1362522840499878,0.6293339729309082
-0.0060303686186671,1.3770997524261477,-0.1465637385845184,-0.3932793736457824,-0.0041975453495979,-0.0794235914945602,0.0,0.0,-0.037304401397705,0.1350855827331543
-0.0075386045500636,1.3677304983139038,-0.146220713853836,-0.4164328575134277,-0.0087516605854034,-0.0910905301570892,0.0,0.0,0.1197526454925537,0.439821720123291
-0.0089520458132028,1.358391523361206,-0.1366040557622909,-0.4150934219360351,-0.0134456157684326,-0.0938879251480102,0.0,0.0,0.1365221738815307,0.5665655136108398
-0.0103333471342921,1.3491276502609253,-0.1316202282905578,-0.4118020236492157,-0.0198783818632364,-0.1286668479442596,0.0,0.0,0.1747729778289795,0.0959208011627197
-0.0115984920412302,1.340030312538147,-0.1199379116296768,-0.4044279754161834,-0.0263890363276004,-0.130225270986557,0.0,0.0,0.3199583292007446,0.0683454275131225
-0.0128539083525538,1.3314156532287598,-0.1183256730437278,-0.3830116093158722,-0.033531654626131,-0.1428652554750442,0.0,0.0,0.1817110776901245,-0.2538759708404541
-0.0140896793454885,1.323060154914856,-0.1157554239034652,-0.3715513348579407,-0.0412624068558216,-0.1546294540166854,0.0,0.0,-0.2625347971916199,0.0729808807373046
-0.0153213497251272,1.3141850233078003,-0.1147541850805282,-0.3947080373764038,-0.0495792366564273,-0.1663521230220794,0.0,0.0,-0.2677978277206421,0.1253167390823364
-0.0165475849062204,1.3047902584075928,-0.1136292964220047,-0.4178615510463714,-0.0584824979305267,-0.1780813038349151,0.0,0.0,-0.5253553986549377,-0.0946208834648132
-0.0177671425044536,1.2948763370513916,-0.1123779192566871,-0.4410181939601898,-0.0679723918437957,-0.1898155510425567,0.0,0.0,0.0104577541351318,-0.4888942837715149
-0.0189218521118164,1.284764051437378,-0.1055080741643905,-0.4499121606349945,-0.0778499096632003,-0.1975681185722351,0.0,0.0,-0.4463902711868286,-0.5957181453704834
-0.0201027877628803,1.2741432189941406,-0.1084668189287185,-0.4725678563117981,-0.0874063447117805,-0.1911463439464569,0.0,0.0,-0.102392554283142,-0.6701542735099792
-0.0213168151676654,1.2630013227462769,-0.1122750639915466,-0.4957599639892578,-0.0964629724621772,-0.181148812174797,0.0,0.0,-0.4856247901916504,-0.8431982398033142
-0.0225692745298147,1.2513571977615356,-0.1168452724814415,-0.518072247505188,-0.1048101857304573,-0.1669594496488571,0.0,0.0,-0.4716503620147705,-0.7600810527801514
-0.0238545425236225,1.2391947507858276,-0.1206949204206466,-0.541117787361145,-0.1125925555825233,-0.1556615978479385,0.0,0.0,0.0222425460815429,-0.9135980606079102
-0.0250689499080181,1.227262020111084,-0.1148542761802673,-0.5308540463447571,-0.1191518157720565,-0.131197303533554,0.0,0.0,-0.6047714948654175,-0.8683220744132996
-0.0263445861637592,1.2148231267929075,-0.1223609000444412,-0.5532638430595398,-0.1243377029895782,-0.1037269681692123,0.0,0.0,0.0727258920669555,-0.8597061634063721
-0.0275126453489065,1.202592134475708,-0.1127629429101944,-0.5439437627792358,-0.1283715516328811,-0.0806841626763343,0.0,0.0,-0.4871126413345337,-0.97816002368927
-0.0287377350032329,1.1898502111434937,-0.1197823286056518,-0.5665388107299805,-0.1310829371213913,-0.0542324110865592,0.0,0.0,0.138538122177124,-0.7461747527122498
-0.0298508647829294,1.17713725566864,-0.10958943516016,-0.565175473690033,-0.1327989250421524,-0.0343227535486221,0.0,0.0,-0.4950737953186035,-0.5582429766654968
-0.0309817306697368,1.1639060974121094,-0.1117580756545066,-0.588176429271698,-0.134120911359787,-0.0264422241598367,0.0,0.0,0.1243208646774292,-0.6951034665107727
-0.0321939475834369,1.1508408784866333,-0.1205825358629226,-0.5807276368141174,-0.1347616314888,-0.012815942056477,0.0,0.0,-0.6178461313247681,-0.2698701620101928
-0.0333837494254112,1.1372345685958862,-0.1177536472678184,-0.6048308610916138,-0.135989561676979,-0.0245586428791284,0.0,0.0,-0.1303474903106689,-0.47249436378479
-0.0345479026436805,1.1231088638305664,-0.1145943403244018,-0.6279842853546143,-0.1378038823604583,-0.0362863391637802,0.0,0.0,0.0882366895675659,-0.6142333745956421
-0.0357534401118755,1.1093071699142456,-0.119249127805233,-0.6135292053222656,-0.1391046494245529,-0.0260149780660867,0.0,0.0,-0.2494372129440307,-0.5485082864761353
-0.0369823463261127,1.095001220703125,-0.1223364099860191,-0.6358707547187805,-0.1396533399820327,-0.010973785072565,0.0,0.0,0.6583905220031738,-0.7371675372123718
-0.0381940826773643,1.0809167623519895,-0.1214701905846595,-0.6259464025497437,-0.1393586695194244,0.0058934995904564,0.0,0.0,0.5883032083511353,-0.5004428029060364
-0.03928117826581,1.0675314664840698,-0.1094777733087539,-0.5948288440704346,-0.1385895758867263,0.015381870791316,0.0,0.0,-0.4554997682571411,-0.5381335020065308
-0.0403835289180278,1.0536333322525024,-0.1116495877504348,-0.6175647974014282,-0.1371863931417465,0.0280636642128229,0.0,0.0,-0.6071202158927917,-0.225813627243042
-0.041452120989561,1.0392155647277832,-0.1076878905296325,-0.6407182216644287,-0.1363597065210342,0.0165335945785045,0.0,0.0,-0.6333775520324707,-0.542854368686676
-0.0425331108272075,1.024282693862915,-0.1095510944724083,-0.6635484099388123,-0.1349098235368728,0.0289976894855499,0.0,0.0,-0.8268443942070007,-0.416098952293396
-0.0435776710510253,1.0088300704956057,-0.105341151356697,-0.6867015957832336,-0.1340310424566269,0.0175757519900798,0.0,0.0,0.0199247598648071,-0.1240232586860656
-0.0445111282169818,0.9935495853424072,-0.0937103554606437,-0.6791013479232788,-0.1336681991815567,0.0072570135816931,0.0,0.0,-0.6920421719551086,-0.3796018362045288
-0.0454057678580284,0.9777492880821228,-0.0892647057771682,-0.7022542953491211,-0.1338696628808975,-0.0040294202044606,0.0,0.0,-0.7518495321273804,-0.0181358456611633
-0.0462605468928813,0.9614291787147522,-0.0847064703702926,-0.7254071831703186,-0.1346315145492553,-0.0152364047244191,0.0,0.0,-0.5702292919158936,-0.6751319766044617
-0.0471298210322856,0.9446080923080444,-0.0870503857731819,-0.7475904822349548,-0.1345086693763733,0.0024568361695855,0.0,0.0,0.3846747875213623,-0.5017470121383667
-0.0479024872183799,0.9280280470848083,-0.0779075473546981,-0.7368351817131042,-0.1338716298341751,0.0127407191321253,0.0,0.0,-0.7929320931434631,-0.4350237846374511
-0.0486318580806255,0.9109281301498412,-0.0730345100164413,-0.7599879503250122,-0.1337803453207016,0.001825418905355,0.0,0.0,-0.0897262692451477,-0.3482879996299743
-0.0493169799447059,0.8933083415031433,-0.0680647045373916,-0.7831405997276306,-0.1342289745807647,-0.0089725321158766,0.0,0.0,-0.1662732362747192,-0.4164959192276001
-0.0499568954110145,0.8751687407493591,-0.0630024597048759,-0.806293249130249,-0.1352110654115677,-0.0196419097483158,0.0,0.0,0.4927170276641845,-0.8537295460700989
-0.050453282892704,0.8572108149528503,-0.0499712452292442,-0.7981047034263611,-0.134880930185318,0.0066026477143168,0.0,0.0,0.5180809497833252,-0.2739593982696533
-0.0509031303226947,0.8391426205635071,-0.0446252711117267,-0.8030621409416199,-0.1352423578500747,-0.0072281160391867,0.0,0.0,-0.2690484523773193,-0.8752065896987915
-0.0513691902160644,0.8205585479736328,-0.0473473705351352,-0.8258859515190125,-0.1345032304525375,0.014782166108489,0.0,0.0,0.3201318979263305,0.4590619802474975
-0.0516901984810829,0.8019757866859436,-0.0325671881437301,-0.8258630633354187,-0.1340400874614715,0.0092632444575428,0.0,0.0,0.2927510738372803,-0.3312450647354126
-0.0519615188241004,0.7838605046272278,-0.0266980268061161,-0.8051646947860718,-0.1344754099845886,-0.0087060183286666,0.0,0.0,-0.0303879976272583,-0.8691577315330505
-0.0522648803889751,0.7652496695518494,-0.0315475314855575,-0.8270374536514282,-0.1332690715789795,0.024126773700118,0.0,0.0,-0.1779429316520691,0.0759685039520263
-0.0525172241032123,0.7461189031600952,-0.0259685758501291,-0.8501893877983093,-0.1325325071811676,0.0147312777116894,0.0,0.0,0.0692508220672607,-0.3458554744720459
-0.0525768287479877,0.7269992232322693,-0.0066795297898352,-0.8496982455253601,-0.1318240761756897,0.0141686704009771,0.0,0.0,-0.2533710598945617,-0.7396538257598877
-0.0526472106575965,0.7073771953582764,-0.0089321229606866,-0.8719272017478943,-0.1299390643835067,0.0377002023160457,0.0,0.0,0.3544138669967651,-0.0705857276916503
-0.0525285713374614,0.6877598762512207,0.0099870283156633,-0.8717244863510132,-0.1280699968338012,0.0373811908066272,0.0,0.0,-0.1673085689544677,-0.095279574394226
-0.0523564331233501,0.6676222681999207,0.0157506447285413,-0.8948758244514465,-0.1266166269779205,0.0290674474090337,0.0,0.0,0.4798786640167236,-0.1993693113327026
-0.0519428253173828,0.6475892663002014,0.0396831594407558,-0.8902153372764587,-0.1249457150697708,0.0334182381629943,0.0,0.0,0.5590983629226685,-0.4990692138671875
-0.0515088066458702,0.6277145743370056,0.0425221398472785,-0.8832391500473022,-0.1240750551223754,0.0174131263047456,0.0,0.0,0.321850061416626,-0.8196525573730469
-0.0509201996028423,0.6082727909088135,0.0566219873726367,-0.8638982176780701,-0.1218376383185386,0.0447486452758312,0.0,0.0,0.2082042694091797,-0.8146092295646667
-0.0501651763916015,0.5890390872955322,0.0718652307987213,-0.854539692401886,-0.1182254180312156,0.0722444355487823,0.0,0.0,-0.0792969465255737,-0.8673868179321289
-0.0494136810302734,0.569304883480072,0.0703150480985641,-0.8767030239105225,-0.1134206727147102,0.0960948765277862,0.0,0.0,0.4922369718551636,-0.6508586406707764
-0.048651598393917,0.5501355528831482,0.0705205053091049,-0.85154789686203,-0.1077762842178344,0.1128880977630615,0.0,0.0,0.2159836292266845,-0.5301570892333984
-0.0478053092956543,0.5308483839035034,0.0780765265226364,-0.8567505478858948,-0.101278007030487,0.1299657523632049,0.0,0.0,0.6762731075286865,-0.4915968179702759
-0.0469323173165321,0.5121186971664429,0.0814938098192215,-0.8320475816726685,-0.0955146327614784,0.1152672916650772,0.0,0.0,0.5704683065414429,-0.7662578821182251
-0.0458874702453613,0.4935913383960724,0.0971443429589271,-0.8229871392250061,-0.0882364884018898,0.1455629169940948,0.0,0.0,0.6950931549072266,-0.7001096606254578
-0.0447598472237587,0.4754887819290161,0.1041701659560203,-0.8040743470191956,-0.0797243118286132,0.1702434718608856,0.0,0.0,0.8699655532836914,-0.6032902002334595
-0.0435782447457313,0.4575451612472534,0.1085165590047836,-0.7970063090324402,-0.0701812580227851,0.1908610612154007,0.0,0.0,0.4189574718475342,-0.6200201511383057
-0.0424699783325195,0.439859539270401,0.100342109799385,-0.7855682373046875,-0.0598123148083686,0.2073791325092315,0.0,0.0,0.8693865537643433,-0.2214583754539489
-0.0412236228585243,0.42310231924057,0.1141814589500427,-0.7443763613700867,-0.0494770519435405,0.2067054510116577,0.0,0.0,0.5958960056304932,0.3127048015594482
-0.0398283004760742,0.406243234872818,0.128819078207016,-0.7489719390869141,-0.0388962514698505,0.2116160839796066,0.0,0.0,0.8890218734741211,-0.0669088363647461
-0.0383087173104286,0.3903260827064514,0.1412005573511123,-0.7071816325187683,-0.0282687060534954,0.2125509530305862,0.0,0.0,0.3144369125366211,-0.1169315576553344
-0.0367980971932411,0.3744574785232544,0.1407125890254974,-0.7051067352294922,-0.0180586576461792,0.204201191663742,0.0,0.0,0.7686346769332886,-0.0637572407722473
-0.035318087786436,0.3591592311859131,0.1381695717573166,-0.6798326969146729,-0.008349341340363,0.1941860467195511,0.0,0.0,0.5809143781661987,0.145388126373291
-0.0337493903934955,0.3442342877388,0.1469147354364395,-0.6633027195930481,0.0014749893452972,0.196486696600914,0.0,0.0,0.5688111782073975,-0.0613539814949035
-0.0322505943477153,0.3299924731254577,0.1404993385076522,-0.63300621509552,0.0107370782643556,0.1852414309978485,0.0,0.0,0.2100609540939331,0.1986500024795532
-0.030649472028017,0.3158662319183349,0.1504469364881515,-0.6279280185699463,0.0202760249376297,0.1907790303230285,0.0,0.0,0.6621482372283936,0.2068474292755127
-0.0290379524230957,0.3018094599246979,0.151592880487442,-0.6249006986618042,0.0297099538147449,0.1886789053678512,0.0,0.0,0.8474783897399902,0.2545443773269653
-0.0273098945617675,0.2877816557884216,0.1628297865390777,-0.6236886978149414,0.0395710505545139,0.197221890091896,0.0,0.0,0.8923263549804688,-0.0408692359924316
-0.0255826953798532,0.273814857006073,0.1628045886754989,-0.6210365891456604,0.0493630282580852,0.1958395540714264,0.0,0.0,0.8805606365203857,0.3323650360107422
-0.0238600727170705,0.260680615901947,0.1622840315103531,-0.5841041207313538,0.0592316277325153,0.1973719000816345,0.0,0.0,0.7591392993927002,0.5844345092773438
-0.0220030788332223,0.2483455240726471,0.1765035837888717,-0.5486147999763489,0.0683176219463348,0.1817199289798736,0.0,0.0,0.5362476110458374,0.0345101356506347
-0.0202548019587993,0.2366175502538681,0.1659670323133468,-0.5216730833053589,0.0770843178033828,0.1753340661525726,0.0,0.0,0.6492133140563965,0.6919554471969604
-0.0185714717954397,0.2248472273349762,0.1609882712364196,-0.5235215425491333,0.0843570604920387,0.1454553604125976,0.0,0.0,0.488186240196228,0.0309470891952514
-0.0168671607971191,0.2136259377002716,0.1627117544412613,-0.4991779029369354,0.0920010432600975,0.1528797894716262,0.0,0.0,0.0403943061828613,0.1130667924880981
-0.0152164455503225,0.2024174481630325,0.1574321240186691,-0.4986448287963867,0.0995717644691467,0.1514143645763397,0.0,0.0,0.4517815113067627,0.2182562351226806
-0.0136312488466501,0.1915710270404815,0.1508755683898925,-0.4825910925865173,0.1071595773100853,0.1517560184001922,0.0,0.0,0.3492946624755859,-0.0010649561882019
-0.0120768547058105,0.1810552030801773,0.1475912928581237,-0.4679566621780395,0.1149593442678451,0.1559953242540359,0.0,0.0,0.5992391109466553,0.1421873569488525
-0.0104647632688283,0.1708734631538391,0.1526801884174347,-0.4531984627246856,0.1234231665730476,0.1692763417959213,0.0,0.0,0.4170465469360351,0.1251678466796875
-0.0088324546813964,0.1606131196022033,0.15434230864048,-0.4567707180976867,0.1322703659534454,0.1769441962242126,0.0,0.0,0.3065704107284546,0.2171058654785156
-0.0071350098587572,0.1503217369318008,0.1602160185575485,-0.4582692086696625,0.1417612880468368,0.1898185014724731,0.0,0.0,0.5713603496551514,0.178556203842163
-0.0053435326553881,0.1403475552797317,0.1686673164367675,-0.44432532787323,0.1522181779146194,0.2091378271579742,0.0,0.0,0.4372007846832275,0.6364351511001587
-0.003392505692318,0.1304001361131668,0.1853221654891967,-0.443136602640152,0.1620029211044311,0.1956945210695266,0.0,0.0,0.7086138725280762,-0.4861130118370056
-0.0015447617042809,0.1210827901959419,0.1746888011693954,-0.4152373671531677,0.1721058040857315,0.2020577192306518,0.0,0.0,0.4321588277816772,-0.6353421211242676
0.0001947402924997,0.1122182682156562,0.1621942520141601,-0.3953884840011596,0.1838951408863067,0.2357868701219558,0.0,0.0,0.278059720993042,-0.2650113105773926
0.0019574165344238,0.1036231815814971,0.1637263596057891,-0.3836104571819305,0.1964994370937347,0.2520858347415924,0.0,0.0,0.5377379655838013,0.2269797325134277
0.0037729262840002,0.0949849709868431,0.1682413220405578,-0.3857459127902984,0.2099183797836303,0.2683787047863006,0.0,0.0,0.6378786563873291,0.2078984975814819
0.0054497718811035,0.0865537524223327,0.1542613208293914,-0.3766862154006958,0.2234873622655868,0.271379679441452,0.0,0.0,0.7527344226837158,0.1529357433319091
0.0070259096100926,0.0789741873741149,0.1434327960014343,-0.3390866816043854,0.2378728091716766,0.287708967924118,0.0,0.0,0.593070387840271,0.771439790725708
0.0085196495056152,0.071690022945404,0.1364007294178009,-0.3258934319019317,0.2510687112808227,0.2639179825782776,0.0,0.0,0.712475061416626,0.3450324535369873
0.0096924779936671,0.0650387108325958,0.104525052011013,-0.297851413488388,0.2640877068042755,0.2603799104690552,0.0,0.0,0.4069268703460693,0.8008356094360352
0.0108565334230661,0.0587917417287826,0.1047628670930862,-0.2797885537147522,0.2760186195373535,0.2386180609464645,0.0,0.0,0.250016450881958,0.7908070087432861
0.0118833538144826,0.0528586246073246,0.0922570303082466,-0.2657006978988647,0.2867322266101837,0.2142727822065353,0.0,0.0,0.2314081192016601,0.8484094142913818
0.0127471927553415,0.0472147576510906,0.0772705152630806,-0.2526559233665466,0.2961127460002899,0.1876097023487091,0.0,0.0,0.4008773565292358,0.82265305519104
0.0135241504758596,0.0416739545762538,0.0698238089680671,-0.2478794157505035,0.3042463362216949,0.1626726388931274,0.0,0.0,0.6493031978607178,0.8596057891845703
0.0140555379912257,0.0364471524953842,0.0467213578522205,-0.2336609959602356,0.3108879625797272,0.1328324824571609,0.0,0.0,0.7367610931396484,0.9193811416625975
0.0143101690337061,0.0314385034143924,0.0206786934286355,-0.223641961812973,0.3158598840236664,0.0994384139776229,0.0,1.0,0.985060691833496,0.9973251819610596
0.0144681930541992,0.0282662007957696,0.0290070585906505,-0.1386339664459228,0.3009544610977173,-0.2998938262462616,0.0,1.0,0.9358842372894288,0.8847987651824951
0.0145359989255666,0.0260077808052301,0.0390460267663002,-0.0940849930047988,0.267653077840805,-0.6661726236343384,0.0,1.0,0.7762839794158936,0.3192881345748901
0.0144834518432617,0.0248655900359153,0.0349582433700561,-0.0439640171825885,0.2266032695770263,-0.8211178779602051,0.0,1.0,0.340590238571167,-0.3561187386512756
0.0143067361786961,0.0240974761545658,0.0211495123803615,-0.0286472905427217,0.1874193251132965,-0.7836796641349792,0.0,1.0,0.3394443988800049,-0.5681093335151672
0.0140775684267282,0.0238781068474054,0.014805307611823,-0.005420493427664,0.1496399939060211,-0.7555868625640869,0.0,0.0,-0.9982222318649292,0.1056337356567382
0.0138338087126612,0.0231574866920709,0.013084553182125,-0.028691018000245,0.1123362556099891,-0.7460751533508301,0.0,0.0,-0.9888879656791688,-0.5450311303138733
0.0135290147736668,0.0219324678182601,0.005537839140743,-0.0521261319518089,0.0766122415661811,-0.714480459690094,0.0,0.0,-0.8496813178062439,-0.7716949582099915
0.0131489755585789,0.020203623920679,-0.0037744990549981,-0.0754330530762672,0.0427552685141563,-0.6771398782730103,0.0,0.0,-0.3730542659759521,-0.7442106604576111
0.0126950265839695,0.017961798235774,-0.0129083972424268,-0.0990246757864952,0.0106731718406081,-0.6416422724723816,0.0,0.0,0.0491164922714233,-0.9917618036270142
0.0120388027280569,0.0157995801419019,-0.0356655977666378,-0.0961458981037139,-0.0188988856971263,-0.5914414525032043,0.0,0.0,0.3305718898773193,-0.9204086065292358
0.0111696245148777,0.0137520171701908,-0.0592446215450763,-0.0915757268667221,-0.0462277643382549,-0.5465776920318604,0.0,0.0,0.002503752708435,-0.936125099658966
0.0101944925263524,0.0117106772959232,-0.0722802802920341,-0.091692216694355,-0.0711831152439117,-0.4991067051887512,0.0,0.0,0.3302794694900512,-0.9142093658447266
0.0091662406921386,0.0098018022254109,-0.0799879357218742,-0.0860830172896385,-0.0937915965914726,-0.4521695971488952,0.0,0.0,0.1984782218933105,-0.6627455949783325
0.0083687780424952,0.008366391994059,-0.0783592164516449,-0.063906118273735,-0.0951065570116043,-0.0262209717184305,1.0,0.0,-0.2959510087966919,0.7375216484069824
0.0077436445280909,0.0070757125504314,-0.0773065090179443,-0.0565047413110733,-0.0803984329104423,0.2942368388175964,1.0,0.0,-0.648851752281189,0.746218204498291
0.0072593688964843,0.0057811355218291,-0.0753941461443901,-0.0563188754022121,-0.0536532551050186,0.5349670648574829,1.0,0.0,-0.0596342682838439,0.378955602645874
0.0067573548294603,0.0039476845413446,-0.0761929601430893,-0.0807575955986976,-0.0279790852218866,0.5134830474853516,1.0,0.0,-0.1328264474868774,0.8382134437561035
