x_pos,y_pos,x_vel,y_vel,angle,ang_vel,leg_1,leg_2,main_booster,lat_booster
-0.0015510559314861,1.403447508811951,-0.1570685505867004,-0.3321219682693481,0.0017617472913116,0.0347519777715206,0.0,0.0,-0.0066245198249816,0.5909451246261597
-0.0030810355674475,1.3958179950714111,-0.1534174084663391,-0.3390863537788391,0.002172777429223,0.0082219988107681,0.0,0.0,-0.289581298828125,-0.0389618277549743
-0.0046420097351074,1.3880109786987305,-0.1564664095640182,-0.3469807505607605,0.0025381287559866,0.0073075904510915,0.0,0.0,-0.2580982446670532,0.9467670917510986
-0.0061758994124829,1.3800238370895386,-0.1521809697151184,-0.3549801111221313,0.0013463653158396,-0.0238373726606369,0.0,0.0,0.1378982067108154,0.1357299089431762
-0.0076558114960789,1.3725335597991943,-0.1471546590328216,-0.3329015374183655,0.000519702443853,-0.0165347717702388,0.0,0.0,0.2654702663421631,0.5251692533493042
-0.0090160369873046,1.365489482879639,-0.1343366652727127,-0.3130731582641601,-0.0011488086311146,-0.0333732292056083,0.0,0.0,-0.1591761112213134,0.6756258010864258
-0.0103626251220703,1.3582682609558103,-0.1315959244966507,-0.3209523260593414,-0.0041791722178459,-0.0606131069362163,0.0,0.0,0.3601651191711426,0.0300415754318237
-0.0116230966523289,1.351668119430542,-0.1234912648797035,-0.2933457493782043,-0.0067038726992905,-0.0504985339939594,0.0,0.0,-0.0832670331001281,-0.6764973998069763
-0.0129785537719726,1.3448988199234009,-0.1342848688364029,-0.3008670806884765,-0.0079494873061776,-0.0249145813286304,0.0,0.0,0.0764174461364746,0.3594567775726318
-0.0143730165436863,1.3386623859405518,-0.1380864381790161,-0.2771851718425751,-0.0092907082289457,-0.0268269088119268,0.0,0.0,-0.4805468320846557,-0.0901453495025634
-0.0158111564815044,1.3322488069534302,-0.1423571705818176,-0.2850625216960907,-0.0107295336201787,-0.0287789739668369,0.0,0.0,-0.6862495541572571,0.405673623085022
-0.0172943118959665,1.325658082962036,-0.1467651128768921,-0.2929321825504303,-0.0122710354626178,-0.0308330543339252,0.0,0.0,-0.5578212141990662,0.1497832536697387
-0.0188241954892873,1.3188903331756592,-0.1513059437274933,-0.3008032143115997,-0.0139196272939443,-0.0329749509692192,0.0,0.0,-0.7890328168869019,0.32433021068573
-0.0204017646610736,1.3119456768035889,-0.155975192785263,-0.3086752593517303,-0.0156793463975191,-0.0351975299417972,0.0,0.0,-0.5031911134719849,0.3441400527954101
-0.0220284461975097,1.3048237562179563,-0.1607677638530731,-0.3165473937988281,-0.0175538659095764,-0.0374938957393169,0.0,0.0,-0.3603496551513672,0.6206216812133789
-0.0236474983394145,1.297516107559204,-0.1584268510341644,-0.3248283565044403,-0.0210022963583469,-0.068974994122982,0.0,0.0,-0.6960138082504272,0.2478654384613037
-0.0253180507570505,1.290031671524048,-0.1634459197521209,-0.3327013254165649,-0.0245711542665958,-0.0713837817311286,0.0,0.0,-0.7959446310997009,0.7907143831253052
-0.026963997632265,1.2823606729507446,-0.1589032113552093,-0.3410317301750183,-0.0302054602652788,-0.112696036696434,0.0,0.0,-0.6706035733222961,0.3955390453338623
-0.0286635402590036,1.2745132446289062,-0.1641261130571365,-0.3489064872264862,-0.0359649993479251,-0.1152009814977645,0.0,0.0,-0.515118420124054,0.7978740930557251
-0.0303628928959369,1.2664860486984253,-0.1626012027263641,-0.356963038444519,-0.043226208537817,-0.1452375054359436,0.0,0.0,-0.6153789758682251,0.1789561510086059
-0.0321177467703819,1.2582823038101196,-0.1680068075656891,-0.3648400008678436,-0.0506170019507408,-0.147829383611679,0.0,0.0,-0.8743118047714233,0.6781666278839111
-0.033874224871397,1.249894380569458,-0.166662186384201,-0.373118907213211,-0.0595153421163558,-0.1779830157756805,0.0,0.0,-0.6412488222122192,-0.1338182091712951
-0.0356877334415912,1.2413305044174194,-0.1722262352705001,-0.3809986412525177,-0.0685465559363365,-0.1806405931711197,0.0,0.0,-0.8035231828689575,0.544897198677063
-0.0375110618770122,0.0,-0.1718696057796478,-0.3894234001636505,-0.0789247676730156,-0.2075832188129425,0.0,0.0,-0.9587758779525756,0.6554198265075684
-0.0393531806766986,0.0,-0.1726014763116836,-0.3974875211715698,-0.0904355272650718,-0.230235606431961,0.0,0.0,-0.8251721262931824,0.680802583694458
-0.0412145629525184,1.2145240306854248,-0.1733594834804535,-0.4064719080924988,-0.1031116470694542,-0.2535223364830017,0.0,0.0,-0.7683821320533752,-0.0458059906959533
-0.0431355461478233,1.2052221298217771,-0.1791988462209701,-0.4143562912940979,-0.1159281060099601,-0.2563290297985077,0.0,0.0,-0.8464217782020569,0.2922530174255371
-0.0451167114078998,1.1957454681396484,-0.1850838363170623,-0.4222411513328552,-0.1288863718509674,-0.2591653764247894,0.0,0.0,-0.7452659606933594,0.2278997898101806
-0.0471582412719726,1.1860944032669067,-0.1910074353218078,-0.4301264584064483,-0.1419878751039505,-0.262029618024826,0.0,0.0,-0.7210898399353027,0.6900553703308105
-0.0492087379097938,1.1762553453445437,-0.1904395371675491,-0.4387504756450653,-0.1565666049718856,-0.2915745079517364,0.0,0.0,-0.88557368516922,-0.082140028476715
-0.0513201728463172,1.1662423610687256,-0.1964197605848312,-0.4466398060321808,-0.1712910830974578,-0.2944896221160888,0.0,0.0,-0.833755612373352,-0.5305257439613342
-0.0535396561026573,1.1560643911361694,-0.208314374089241,-0.4539891481399536,-0.1849640309810638,-0.2734590470790863,0.0,0.0,-0.6389387249946594,-0.3310213685035705
-0.0558202750980854,1.14571213722229,-0.2143206596374511,-0.4618766605854034,-0.198785200715065,-0.2764229774475097,0.0,0.0,-0.5902592539787292,-0.3511140346527099
-0.0581621155142784,1.135185480117798,-0.2203289568424224,-0.4697646200656891,-0.2127556651830673,-0.2794088721275329,0.0,0.0,-0.4089755415916443,-0.8268606662750244
-0.0606268867850303,1.1245063543319702,-0.2341179400682449,-0.476453423500061,-0.2252565622329712,-0.2500179409980774,0.0,0.0,-0.2664976716041565,-0.8469159603118896
-0.063214972615242,1.1136802434921265,-0.2479637116193771,-0.4828490912914276,-0.2362492084503173,-0.2198528051376342,0.0,0.0,-0.7307310700416565,-0.8783161044120789
-0.0659350380301475,1.1026999950408936,-0.2628501057624817,-0.4895054996013641,-0.2455490976572036,-0.1859974563121795,0.0,0.0,-0.2863398194313049,0.0650060176849365
-0.0687156692147255,1.091544508934021,-0.2687843143939972,-0.4973855018615722,-0.2550025582313537,-0.189069390296936,0.0,0.0,-0.1641555428504943,-0.4778420329093933
-0.0715564712882042,1.0802135467529297,-0.2746803164482116,-0.5052657723426819,-0.26461061835289,-0.1921608597040176,0.0,0.0,-0.7412526607513428,-0.0228780508041381
-0.0744571685791015,1.0687072277069092,-0.2805296778678894,-0.5131464004516602,-0.2743742167949676,-0.1952718198299408,0.0,0.0,-0.332879364490509,-0.8212491869926453
-0.0774890929460525,1.0570629835128784,-0.2954451739788055,-0.5189962983131409,-0.2823278903961181,-0.1590732485055923,0.0,0.0,-0.6477319598197937,-0.5812203288078308
-0.0806149467825889,1.0452569723129272,-0.3056073188781738,-0.5260784029960632,-0.2895025908946991,-0.1434942036867141,0.0,0.0,-0.4462600350379944,0.5789663791656494
-0.0837492942810058,1.0332465171813965,-0.3049817681312561,-0.5355002880096436,-0.2982079982757568,-0.1741081029176712,0.0,0.0,-0.2437644600868225,0.137291669845581
-0.0869406685233116,1.0210607051849363,-0.3105559945106506,-0.5433800220489502,-0.3070728182792663,-0.1772966086864471,0.0,0.0,-0.2142070531845092,-0.841179609298706
-0.0902576446533203,1.0087218284606934,-0.32474285364151,-0.5498853325843811,-0.3142797350883484,-0.1441380530595779,0.0,0.0,0.404929518699646,0.447160005569458
-0.093504711985588,0.9965943098068236,-0.3177976608276367,-0.5405152440071106,-0.3214673697948456,-0.1437524557113647,0.0,0.0,-0.4462814331054687,0.4212040901184082
-0.096805952489376,0.9842911958694458,-0.3230681717395782,-0.5483934879302979,-0.3288173973560333,-0.1470007002353668,0.0,0.0,0.2994477748870849,0.5152013301849365
-0.0999995246529579,0.9727755784988404,-0.3109544813632965,-0.5137450695037842,-0.3375900089740753,-0.175452247262001,0.0,0.0,-0.2106729745864868,-0.0512911081314086
-0.1032446846365928,0.9610844254493712,-0.3159753680229187,-0.5216254591941833,-0.3465270698070526,-0.1787413358688354,0.0,0.0,-0.1554973125457763,0.5684230327606201
-0.1064996719360351,0.949194610118866,-0.3157666027545929,-0.5308088660240173,-0.3567554652690887,-0.2045682668685913,0.0,0.0,-0.6238356828689575,-0.1020752191543579
-0.1098031029105186,0.9371297955513,-0.320497453212738,-0.5386916995048523,-0.3671504855155945,-0.2079003304243087,0.0,0.0,-0.1541908979415893,-0.2933166027069092
-0.1131535544991493,0.9248902201652528,-0.3250672519207001,-0.5465750098228455,-0.3777132332324981,-0.2112548649311065,0.0,0.0,-0.5343180894851685,0.1022330522537231
-0.116549015045166,0.9124756455421448,-0.3294654190540313,-0.554458737373352,-0.3884448409080505,-0.2146323174238205,0.0,0.0,-0.3852085471153259,-0.0668424367904663
-0.1199877709150314,0.8998863101005554,-0.3336811661720276,-0.5623428225517273,-0.3993465304374695,-0.2180331945419311,0.0,0.0,-0.1942225694656372,0.5026290416717529
-0.1234230995178222,0.8870922327041626,-0.3320106565952301,-0.5719204545021057,-0.4117185771465301,-0.2474411427974701,0.0,0.0,-0.2461050748825073,0.0470438003540039
-0.1268975287675857,0.874123752117157,-0.3358305096626282,-0.5798078775405884,-0.424263060092926,-0.2508895397186279,0.0,0.0,-0.5382187962532043,-0.1340119242668151
-0.1304088532924652,0.8609811067581177,-0.3394352793693542,-0.5876956582069397,-0.4369812309741974,-0.2543627619743347,0.0,0.0,-0.4688321352005005,-0.5307828187942505
-0.1339835226535797,0.8476864695549011,-0.3464384973049164,-0.5943494439125061,-0.4490191638469696,-0.2407588064670562,0.0,0.0,0.3786298036575317,-0.953529953956604
-0.1372921019792556,0.8351565003395081,-0.3215976059436798,-0.5598983764648438,-0.4591874480247497,-0.2033657729625702,0.0,0.0,0.7056698799133301,-0.6888900995254517
-0.1403944045305252,0.8236402869224548,-0.3019859790802002,-0.5145681500434875,-0.4682649970054626,-0.1815512925386428,0.0,0.0,0.8791520595550537,-0.2146832942962646
-0.1432820260524749,0.8124735951423645,-0.2806506752967834,-0.499064177274704,-0.4772520363330841,-0.1797405183315277,0.0,0.0,0.6411958932876587,-0.8250041007995605
-0.1460283249616623,0.8021842241287231,-0.2678035795688629,-0.4596788287162781,-0.484853059053421,-0.1520202159881591,0.0,0.0,0.4982305765151977,-0.6629220247268677
-0.1485160887241363,0.7922909259796143,-0.2432614266872406,-0.4416527152061462,-0.4910117387771606,-0.123173639178276,0.0,0.0,0.7172796726226807,-0.8428055047988892
-0.1507564485073089,0.7830931544303894,-0.2200047224760055,-0.410230278968811,-0.4955327808856964,-0.0904207229614257,0.0,0.0,0.9316837787628174,-0.8655417561531067
-0.1528430879116058,0.7743737697601318,-0.2061066329479217,-0.3884566724300384,-0.4984046220779419,-0.0574370548129081,0.0,0.0,0.946608304977417,-0.4041305184364319
-0.1547382324934005,0.7665005326271057,-0.1861954182386398,-0.3511281311511993,-0.5021361708641052,-0.0746309980750083,0.0,0.0,0.9850592613220216,-0.4474012851715088
-0.1561258286237716,0.759784996509552,-0.1353944242000579,-0.2997078895568847,-0.5059346556663513,-0.0759695321321487,0.0,0.0,0.9083154201507568,-0.3942737579345703
-0.1572735756635666,0.7532680034637451,-0.1116354092955589,-0.2908081412315368,-0.5094819664955139,-0.070945918560028,0.0,0.0,0.8884615898132324,-0.9346431493759156
-0.1579790115356445,0.7478907108306885,-0.0690486431121826,-0.2395471632480621,-0.5111714601516724,-0.0337894335389137,0.0,0.0,0.4198558330535888,-0.8629633188247681
-0.1586251258850097,0.7429829239845276,-0.0644789785146713,-0.2181674987077713,-0.5113207101821899,-0.0029855845496058,0.0,0.0,0.78232741355896,-0.8805204033851624
-0.159064382314682,0.7389890551567078,-0.0451272651553154,-0.1770607084035873,-0.5099676251411438,0.0270618982613086,0.0,0.0,0.1203229427337646,-0.8904960751533508
-0.1593294143676757,0.7354063391685486,-0.0291886236518621,-0.1582313328981399,-0.5069209933280945,0.0609310381114482,0.0,0.0,-0.711454451084137,-0.9480372667312622
-0.1596583425998687,0.7317226529121399,-0.0376063659787178,-0.1619926244020462,-0.501619815826416,0.1060229763388633,0.0,0.0,-0.337533950805664,-0.9643830060958862
-0.1600307524204254,0.7279111742973328,-0.0433738604187965,-0.1671731621026992,-0.4947258234024048,0.137879878282547,0.0,0.0,0.2704761028289795,-0.8831892013549805
-0.1603311598300933,0.7243859767913818,-0.0376601293683052,-0.1539612561464309,-0.4861918091773987,0.1706800907850265,0.0,0.0,-0.3753286600112915,-0.9743623733520508
-0.1606723815202713,0.7207240462303162,-0.043214201927185,-0.1595723778009414,-0.476050853729248,0.2028183490037918,0.0,0.0,-0.2174014449119568,-0.7966068387031555
-0.1610479354858398,0.7169257402420044,-0.0481236390769481,-0.1652248054742813,-0.464358389377594,0.2338490933179855,0.0,0.0,-0.0603880882263183,-0.7709150910377502
-0.1614460051059723,0.7130007147789001,-0.0517449602484703,-0.1705147325992584,-0.4512164890766144,0.2628381848335266,0.0,0.0,-0.0755885243415832,-0.737570583820343
-0.1618528366088867,0.7089413404464722,-0.0537551045417785,-0.1762614846229553,-0.4369265735149383,0.28579843044281,0.0,0.0,0.2338002920150756,-0.3602030277252197
-0.1620395630598068,0.705591082572937,-0.0312853083014488,-0.1450318843126297,-0.4232231080532074,0.2740695774555206,0.0,0.0,0.0209492444992065,-0.7102272510528564
-0.1622373610734939,0.7024316191673279,-0.0335912480950355,-0.1363437622785568,-0.4083064198493957,0.2983343005180359,0.0,0.0,-0.6234717965126038,-0.3376691341400146
-0.1623897552490234,0.6990988254547119,-0.0289627518504858,-0.1442372500896453,-0.393589437007904,0.2943393886089325,0.0,0.0,-0.7249677181243896,-0.106309175491333
-0.1624933183193206,0.6955926418304443,-0.0239628814160823,-0.1521301418542862,-0.3790724873542785,0.2903391420841217,0.0,0.0,-0.559838593006134,0.1815199851989746
-0.1625441610813141,0.6919129490852356,-0.018596451729536,-0.1600224822759628,-0.3647556602954864,0.2863364517688751,0.0,0.0,-0.9627214074134828,0.2660685777664184
-0.1625388115644455,0.6880595684051514,-0.0128691615536808,-0.1679142266511917,-0.3506389558315277,0.282334566116333,0.0,0.0,-0.9861958026885986,0.6235418319702148
-0.162421315908432,0.6840035319328308,-0.0001227285683853,-0.1774251461029052,-0.3381858468055725,0.2490626871585846,0.0,0.0,-0.99131178855896,0.715064287185669
-0.1621873825788498,0.6797370314598083,0.0131197068840265,-0.1872418820858001,-0.3274611234664917,0.2144948989152908,0.0,0.0,-0.9908089637756348,0.6443502902984619
-0.1618330925703048,0.6752632260322571,0.0267861932516098,-0.1969092935323715,-0.318459540605545,0.1800316572189331,0.0,0.0,-0.9933897256851196,-0.3216232061386108
-0.1614095717668533,0.6706140637397766,0.0338883586227893,-0.2047906965017318,-0.3096557855606079,0.176074594259262,0.0,0.0,-0.999546468257904,0.165796160697937
-0.1609133780002594,0.6657896637916565,0.0413115620613098,-0.21267169713974,-0.3010488450527191,0.1721390187740326,0.0,0.0,-0.9809102416038512,0.3407402038574219
-0.1603415459394455,0.6607899069786072,0.0490461960434913,-0.2205522358417511,-0.2926373481750488,0.1682292819023132,0.0,0.0,-0.9938830733299256,0.7818024158477783
-0.1596277207136154,0.6555919647216797,0.0650151744484901,-0.2297503799200058,-0.2860845327377319,0.1310568153858184,0.0,0.0,-0.9999625086784364,-0.1619803309440612
-0.1588324606418609,0.6502184271812439,0.0733431726694107,-0.2376281470060348,-0.2797238826751709,0.1272133886814117,0.0,0.0,-0.9996541142463684,0.7536337375640869
-0.157887652516365,0.6446323990821838,0.0902080088853836,-0.247453287243843,-0.2753459215164184,0.0875589326024055,0.0,0.0,-0.9998039603233336,-0.5128340125083923
-0.1568984985351562,0.6388868689537048,0.0937298014760017,-0.2543877065181732,-0.2700268030166626,0.1063824519515037,0.0,0.0,-0.9996687173843384,-0.1363486051559448
-0.1558196991682052,0.6329652667045593,0.1028669327497482,-0.2622638940811157,-0.2648930251598358,0.1026748567819595,0.0,0.0,-0.9996312856674194,-0.4073585271835327
-0.1546487808227539,0.6268675923347473,0.1122519522905349,-0.2701398134231567,-0.2599419355392456,0.0990218073129654,0.0,0.0,-0.9999765753746032,-0.7737796306610107
-0.1534531563520431,0.6206292510032654,0.1130311265587806,-0.276122510433197,-0.2532751262187958,0.1333359032869339,0.0,0.0,-0.9999374747276306,-0.1110610961914062
-0.15216064453125,0.6142148375511169,0.122878648340702,-0.2839995920658111,-0.2467848807573318,0.1298048645257949,0.0,0.0,-0.993655264377594,-0.5613644123077393
-0.1508152037858963,0.6076462268829346,0.1271195709705352,-0.290712296962738,-0.2392296344041824,0.1511047333478927,0.0,0.0,-0.999984323978424,-0.3285832405090332
-0.1493685692548751,0.6009017825126648,0.1373871862888336,-0.2985900640487671,-0.2318440228700637,0.1477121710777282,0.0,0.0,-0.9995567202568054,-0.4658161997795105
-0.147818848490715,0.5939815044403076,0.1478495299816131,-0.3064674735069275,-0.2246242761611938,0.1443948745727539,0.0,0.0,-0.9999850988388062,-0.1205924153327941
-0.146164134144783,0.5868852138519287,0.1584965586662292,-0.3143444955348968,-0.2175664603710174,0.14115671813488,0.0,0.0,-0.999892234802246,-0.4213804006576538
-0.1444026976823806,0.5796129107475281,0.1693184673786163,-0.3222212195396423,-0.2106663882732391,0.138001263141632,0.0,0.0,-0.9992998242378236,-0.5734115242958069
-0.1425686776638031,0.5721797943115234,0.1757630556821823,-0.3292959034442901,-0.2029667645692825,0.1539923846721649,0.0,0.0,-0.99931001663208,-0.7761243581771851
-0.1406795531511306,0.5645807385444641,0.1800344586372375,-0.3365379869937897,-0.1940200179815292,0.1789346039295196,0.0,0.0,-0.9999600648880004,0.1367440223693847
-0.1386788338422775,0.5568060874938965,0.1913242787122726,-0.3444166779518127,-0.185217797756195,0.1760443449020385,0.0,0.0,-0.9999738335609436,-0.1827115416526794
-0.1365651190280914,0.548855721950531,0.202752947807312,-0.3522949814796448,-0.1765553951263427,0.1732475161552429,0.0,0.0,-0.999983251094818,0.0851324796676635
-0.1343368589878082,0.5407295823097229,0.2143121659755706,-0.3601729273796081,-0.1680280864238739,0.1705462485551834,0.0,0.0,-0.9999983310699464,0.0960966348648071
-0.1319930106401443,0.5324274897575378,0.2259941101074218,-0.3680505454540252,-0.1596309691667556,0.1679422855377197,0.0,0.0,-0.999866783618927,0.6988540887832642
-0.1294776946306228,0.5239433646202087,0.2446354925632476,-0.3763473331928253,-0.1527374684810638,0.1378702819347381,0.0,0.0,-0.999935746192932,0.4993261098861694
-0.1268444955348968,0.5152830481529236,0.2565410137176513,-0.3842225670814514,-0.1459642052650451,0.1354654133319854,0.0,0.0,-0.9997861981391908,-0.1296887397766113
-0.124092198908329,0.5064464807510376,0.2685476243495941,-0.3920975625514984,-0.1393061429262161,0.1331612169742584,0.0,0.0,-0.9998091459274292,-0.0918062925338745
-0.121220014989376,0.4974336326122284,0.2806487679481506,-0.3999723196029663,-0.132758229970932,0.130958080291748,0.0,0.0,-0.9999693632125854,0.8498846292495728
-0.1181747466325759,0.4882315695285797,0.2994014024734497,-0.4085312783718109,-0.1276525259017944,0.1021145209670066,0.0,0.0,-0.9992675185203552,-0.5531766414642334
-0.1150526031851768,0.4788614511489868,0.306027352809906,-0.4159354865550995,-0.1215027719736099,0.1229947954416275,0.0,0.0,-0.9999603629112244,-0.6562990546226501
-0.1118573173880577,0.4693228006362915,0.3121758997440338,-0.4233589172363281,-0.1141949892044067,0.1461555808782577,0.0,0.0,-0.999687433242798,-0.4268358945846557
-0.1085387244820594,0.4596079587936401,0.3245955407619476,-0.4312340021133423,-0.1069773286581039,0.1443530172109604,0.0,0.0,-0.9955055713653564,-0.3426592946052551
-0.1050960570573806,0.4497168362140655,0.3370814919471741,-0.4391089081764221,-0.0998449325561523,0.1426480710506439,0.0,0.0,-0.997686803340912,-0.8610607385635376
-0.1015931144356727,0.4396674335002899,0.3415298163890838,-0.446073442697525,-0.091144748032093,0.1740036755800247,0.0,0.0,-0.9945374727249146,-0.9736587405204772
