x_pos,y_pos,x_vel,y_vel,angle,ang_vel,leg_1,leg_2,main_booster,lat_booster
-0.001583480858244,1.4033164978027344,-0.161090463399887,-0.3379369080066681,0.0024648683611303,0.0486738197505474,0.0,0.0,-0.6383378698104549,0.9685774434398832
-0.0031427382491528,1.3954237699508667,-0.1569094955921173,-0.3507884740829468,0.0034395768307149,0.0194968897849321,0.0,0.0,-0.4732944499895068,-0.539904991268181
-0.0047913552261888,1.3872185945510864,-0.167350172996521,-0.3646822869777679,0.0058953058905899,0.0491193309426307,0.0,0.0,0.3235555015210185,0.9285163668179895
-0.0065335272811353,1.3793025016784668,-0.1754111349582672,-0.3518299460411072,0.0070664300583302,0.0234247557818889,0.0,0.0,0.5914694567372765,0.9008487624969024
-0.0081222532317042,1.372025728225708,-0.1591160744428634,-0.3234134316444397,0.0073182750493288,0.0050373957492411,0.0,0.0,-0.4420822762469625,-0.8599837924022332
-0.0098128318786621,1.3644391298294067,-0.1713060289621353,-0.3371924459934234,0.0095324451103806,0.0442872755229473,0.0,0.0,-0.060374870456104,0.931830310004542
-0.0114802364259958,1.3565459251403809,-0.167833536863327,-0.3508194386959076,0.0106158405542373,0.0216698944568634,0.0,0.0,0.6382018185461573,-0.7914452715585681
-0.0130976680666208,1.3493108749389648,-0.1653994172811508,-0.321580559015274,0.0142299514263868,0.0722888559103012,0.0,0.0,-0.4871858438042804,0.6277027374790847
-0.0147086139768362,1.3417761325836182,-0.1641523092985153,-0.3349156081676483,0.0172665826976299,0.0607377178966999,0.0,0.0,0.7901465847140634,-0.520332859595161
-0.0164135936647653,1.335116267204285,-0.1752532720565796,-0.2960523068904876,0.0219730697572231,0.0941382870078086,0.0,0.0,-0.2341967193145437,-0.6020599276502878
-0.018194580450654,1.3281481266021729,-0.184540256857872,-0.309806615114212,0.0283402577042579,0.1273557245731353,0.0,0.0,-0.3275106674200925,0.5257968530634249
-0.0199612621217966,1.320873737335205,-0.1825761497020721,-0.3234313428401947,0.0341790542006492,0.1167866215109825,0.0,0.0,0.8378299633650441,-0.5271047330312025
-0.0216706283390522,1.314467191696167,-0.1790065765380859,-0.2849375903606415,0.0421565063297748,0.1595639884471893,0.0,0.0,-0.5446543911309618,-0.5263582995439053
-0.0234414096921682,1.307746648788452,-0.1867019236087799,-0.2989881336688995,0.0516890287399292,0.1906678378582,0.0,0.0,0.2262297954509113,0.5818859396690141
-0.0251034740358591,1.3016550540924072,-0.1755345910787582,-0.2710873484611511,0.0609159767627716,0.1845559328794479,0.0,0.0,0.8099371599545917,-0.8667330354649753
-0.0267376899719238,1.2957406044006348,-0.1753595322370529,-0.2633935809135437,0.0727430135011673,0.2365622967481613,0.0,0.0,-0.545184125180423,-0.5835092624160545
-0.02842035330832,1.289523720741272,-0.1817170083522796,-0.2770105898380279,0.0860819518566131,0.2668030261993408,0.0,0.0,-0.1379523881794935,-0.8097061905184448
-0.0301596634089946,1.282989263534546,-0.1892286092042923,-0.2913709580898285,0.1012693792581558,0.3037758469581604,0.0,0.0,-0.1806716603906395,0.9988305344866596
-0.0318126678466796,1.2761735916137695,-0.1788675785064697,-0.3038912415504455,0.1147560998797416,0.2697586417198181,0.0,0.0,-0.1816687457572088,0.8578260149780006
-0.0334070213139057,1.2690627574920654,-0.1721043288707733,-0.3170562982559204,0.1273716241121292,0.2523333430290222,0.0,0.0,0.0362067763389495,-0.996026154248762
-0.035039234906435,1.262359857559204,-0.1784180253744125,-0.2992734014987945,0.1425272226333618,0.3031390905380249,0.0,0.0,0.2299055233539042,-0.9149796822952988
-0.0367702469229698,1.255824089050293,-0.1906925737857818,-0.2922497689723968,0.1601155251264572,0.3517976403236389,0.0,0.0,-0.2015641855320831,-0.587713202002905
-0.0385239608585834,1.248976707458496,-0.1944166421890258,-0.3064971566200256,0.1792198121547699,0.3821198046207428,0.0,0.0,-0.3966577533367885,0.9078521691688134
-0.0401801094412803,1.241838455200195,-0.1831791698932647,-0.3194727003574371,0.1968875676393509,0.3533868491649627,0.0,0.0,-0.1188538602149997,-0.8664906693568734
-0.0418977737426757,1.2343759536743164,-0.1919739097356796,-0.3344826996326446,0.2172883599996566,0.4080525934696197,0.0,0.0,0.728943074426734,-0.8423671611763605
-0.0439756400883197,1.2275993824005127,-0.2298721969127655,-0.3045758903026581,0.2396641373634338,0.4475153982639313,0.0,0.0,-0.332076102172453,-0.5617083614864011
-0.0460668578743934,1.2205116748809814,-0.2327566593885421,-0.3190389275550842,0.2637378573417663,0.4814742505550384,0.0,0.0,0.7976187028422839,-0.6417658191401177
-0.0485566146671772,1.2143532037734983,-0.2738929688930511,-0.278406023979187,0.2892974019050598,0.5111910104751587,0.0,0.0,-0.6215481876323601,-0.8032391579629494
-0.0510846152901649,1.2078715562820437,-0.2799767255783081,-0.2937207520008087,0.3173985481262207,0.5620233416557312,0.0,0.0,0.5215354449195935,-0.8136632318854218
-0.0537933334708213,1.20169198513031,-0.2999047636985779,-0.2812963724136352,0.3476878702640533,0.6057872176170349,0.0,0.0,0.5605570326716547,0.5465091311691372
-0.0566750541329383,1.1963834762573242,-0.3163622915744781,-0.2430330216884613,0.3774472773075104,0.5951888561248779,0.0,0.0,-0.908667802810669,0.9916118383407592
-0.0594459548592567,1.190812349319458,-0.3038311004638672,-0.2549346089363098,0.4059796333312988,0.5706470608711243,0.0,0.0,-0.7964687943458557,0.9920424222946168
-0.0621088035404682,1.1849939823150637,-0.2915336191654205,-0.2660790681838989,0.4332656562328338,0.5457206964492798,0.0,0.0,-0.802156925201416,0.988152265548706
-0.064654067158699,1.1789146661758425,-0.2782948315143585,-0.2777436077594757,0.4592572450637817,0.5198320150375366,0.0,0.0,-0.9085395336151124,0.9868447780609132
-0.067074105143547,1.1725926399230957,-0.264031708240509,-0.2884388267993927,0.4836510419845581,0.4878760874271393,0.0,0.0,-0.8930899500846863,0.9584625959396362
-0.069370649755001,1.1660326719284058,-0.2500153183937073,-0.2988610565662384,0.5064765214920044,0.4565098881721496,0.0,0.0,-0.7601011991500854,0.975089430809021
-0.0715418830513954,1.1592222452163696,-0.2359624207019806,-0.3097997307777405,0.5278503894805908,0.4274784624576568,0.0,0.0,-0.871259331703186,0.9731285572052002
-0.0735838860273361,1.152179718017578,-0.2213208228349685,-0.3197951018810272,0.5475195646286011,0.3933837711811065,0.0,0.0,-0.8792802095413208,0.9816712141036988
-0.0755043029785156,1.1449017524719238,-0.2077003270387649,-0.3299468755722046,0.5657097697257996,0.3638041019439697,0.0,0.0,-0.7926216125488281,0.919127345085144
-0.0772955864667892,1.1373838186264038,-0.1932685226202011,-0.3402118384838104,0.5823237299919128,0.3322794735431671,0.0,0.0,-0.8790627121925354,0.9649279117584229
-0.0789701491594314,1.1296218633651731,-0.1804041862487793,-0.3507392704486847,0.5976938009262085,0.3074017465114593,0.0,0.0,-0.7173694372177124,0.9579882621765136
-0.0804999321699142,1.121631741523743,-0.1641042828559875,-0.3602328300476074,0.6110435128211975,0.2669940888881683,0.0,0.0,-0.9166733622550964,0.9872109889984132
-0.0818809494376182,1.113406538963318,-0.147474780678749,-0.3699859380722046,0.6223853826522827,0.2268387824296951,0.0,0.0,-0.6311203837394714,0.9422115087509156
-0.0831189155578613,1.1049509048461914,-0.1315222680568695,-0.3795253038406372,0.6317911148071289,0.1881152093410492,0.0,0.0,-0.7360161542892456,0.956866979598999
-0.0842222198843956,1.096243977546692,-0.1167851313948631,-0.3901483714580536,0.6397039890289307,0.1582573354244232,0.0,0.0,-0.9889074563980104,0.8071491718292236
-0.0851927772164344,1.0872868299484253,-0.1022825017571449,-0.4007108509540558,0.6461515426635742,0.1289506405591964,0.0,0.0,-0.8874127864837646,0.8641512393951416
-0.086026094853878,1.0780879259109497,-0.0871863439679145,-0.4107838273048401,0.6509280204772949,0.0955298393964767,0.0,0.0,-0.9255654811859132,0.6828138828277588
-0.0867508873343467,1.0686293840408323,-0.0756436958909034,-0.4219960570335388,0.6548575162887573,0.0785901024937629,0.0,0.0,-0.9830110669136048,0.8952701091766357
-0.0873580947518348,1.0589213371276855,-0.0629238486289978,-0.4325993955135345,0.657607913017273,0.0550066940486431,0.0,0.0,-0.9845614433288574,0.1968691349029541
-0.0878864303231239,1.0489083528518677,-0.0553147383034229,-0.4463019669055938,0.6606975197792053,0.061791818588972,0.0,0.0,-0.9971266388893129,0.6231282949447632
-0.0882883071899414,1.0386449098587036,-0.041559312492609,-0.4568672478199005,0.6624183058738708,0.0344160087406635,0.0,0.0,-0.9917287230491638,0.278814435005188
-0.0886102691292762,1.028075933456421,-0.0338069871068,-0.4705674052238464,0.6644347310066223,0.0403286293148994,0.0,0.0,-0.9940147995948792,0.6452196836471558
-0.0888039618730545,1.0172531604766846,-0.0198697298765182,-0.4812727272510528,0.6650607585906982,0.0125203356146812,0.0,0.0,-0.991200625896454,-0.0874168872833252
-0.0889169722795486,1.006124496459961,-0.0119967469945549,-0.4949702024459839,0.66593337059021,0.0174516681581735,0.0,0.0,-0.9753208160400392,0.3110113143920898
-0.0889490097761154,0.9946898818016052,-0.0040706200525164,-0.5086663961410522,0.6670260429382324,0.0218533258885145,0.0,0.0,-0.9858238697052002,0.4389510154724121
-0.0888997092843055,0.9829489588737488,0.0039043421857059,-0.5223612189292908,0.6683110594749451,0.025699745863676,0.0,0.0,-0.9925239682197572,0.5916554927825928
-0.0887297615408897,0.970954656600952,0.0170451197773218,-0.5330509543418884,0.6682513952255249,-0.0011938645038753,0.0,0.0,-0.9462807178497314,0.4466891288757324
-0.0884780883789062,0.958653688430786,0.0251060631126165,-0.5467425584793091,0.6683250665664673,0.0014735327567905,0.0,0.0,-0.9862606525421144,0.7033699750900269
-0.0880997627973556,0.9461079835891724,0.0390846505761146,-0.5569274425506592,0.666756272315979,-0.0313756391406059,0.0,0.0,-0.9865267276763916,0.7965171337127686
-0.0876002311706543,0.933310329914093,0.0523764416575431,-0.5675166249275208,0.6637220978736877,-0.0606841519474983,0.0,0.0,-0.97957044839859,0.7039792537689209
-0.086969569325447,0.9202553629875184,0.0667824670672416,-0.5782954692840576,0.6590650677680969,-0.0931394845247268,0.0,0.0,-0.9566085338592528,0.9064059257507324
-0.0862128287553787,0.9069499969482422,0.0807336792349815,-0.588745653629303,0.6527532339096069,-0.1262367069721222,0.0,0.0,-0.957983136177063,0.9126960039138794
-0.0853057876229286,0.8934129476547241,0.0977498963475227,-0.5980798602104187,0.6440160870552063,-0.1747424751520156,0.0,0.0,-0.986203134059906,0.9352413415908812
-0.0842576995491981,0.8796374201774597,0.1136835217475891,-0.607844889163971,0.6330974102020264,-0.2183733880519867,0.0,0.0,-0.9855213165283204,0.634042501449585
-0.0830863937735557,0.8655950427055359,0.1273007690906524,-0.619179904460907,0.6206956505775452,-0.2480355501174926,0.0,0.0,-0.9671330451965332,0.3602398633956909
-0.0818341225385665,0.8512455821037292,0.1356034576892852,-0.6328688263893127,0.6081649661064148,-0.250614583492279,0.0,0.0,-0.9638296961784364,0.4586668014526367
-0.0805008858442306,0.8365885615348816,0.1439254730939865,-0.6465566158294678,0.5954724550247192,-0.2538499236106872,0.0,0.0,-0.9547357559204102,-0.2261965274810791
-0.0790867805480957,0.8216242790222168,0.152265191078186,-0.6602433323860168,0.5825860500335693,-0.2577280402183532,0.0,0.0,-0.8036771416664124,0.0217494964599609
-0.0775919929146766,0.8063521385192871,0.1606210619211197,-0.6739293336868286,0.5694745182991028,-0.2622322142124176,0.0,0.0,-0.6781660318374634,-0.1060776710510253
-0.0760166198015213,0.7907724380493164,0.1689916253089904,-0.6876145601272583,0.5561074018478394,-0.267342746257782,0.0,0.0,0.1102916002273559,-0.0530380010604858
-0.0746534317731857,0.7754155993461609,0.14835986495018,-0.6776034235954285,0.5421700477600098,-0.2787467539310455,0.0,0.0,-0.547249436378479,0.0954588651657104
-0.0732100456953048,0.7597510814666748,0.1567562371492386,-0.691288411617279,0.5279199481010437,-0.2850018739700317,0.0,0.0,0.284196138381958,-0.752991259098053
-0.072168156504631,0.7445067167282104,0.1157174259424209,-0.6731016039848328,0.5147935748100281,-0.2625282108783722,0.0,0.0,-0.5652238130569458,0.7031331062316895
-0.0709927529096603,0.7289999723434448,0.1309610158205032,-0.6842081546783447,0.4996327757835388,-0.303216814994812,0.0,0.0,0.3863140344619751,-0.1453432440757751
-0.0699196830391883,0.7135974764823914,0.121297463774681,-0.6795517206192017,0.483952134847641,-0.3136125206947326,0.0,0.0,-0.0572342276573181,0.5775817632675171
-0.0687209144234657,0.6979172229766846,0.1355763077735901,-0.6914963126182556,0.4665176272392273,-0.348690927028656,0.0,0.0,0.5576645135879517,-0.9396404027938844
-0.0676795020699501,0.6822781562805176,0.1185851246118545,-0.6903048157691956,0.4505979418754577,-0.3183933794498443,0.0,0.0,0.5757443904876709,-0.0700436234474182
-0.0668956786394119,0.6673479080200195,0.0933975502848625,-0.6588116884231567,0.4341885149478912,-0.3281883597373962,0.0,0.0,-0.5437134504318237,-0.3144750595092773
-0.0660329833626747,0.6521106958389282,0.1018427014350891,-0.6725000739097595,0.4173077940940857,-0.3376144766807556,0.0,0.0,0.1744304895401001,-0.3813084959983825
-0.0653999298810958,0.63731449842453,0.0797929242253303,-0.6528339982032776,0.3995695114135742,-0.3547658920288086,0.0,0.0,-0.8621292114257812,0.2038602828979492
-0.0646883994340896,0.6222118735313416,0.0882422178983688,-0.6665264964103699,0.381326675415039,-0.3648571074008941,0.0,0.0,-0.430452823638916,-0.5660985112190247
-0.0639382377266883,0.6067842841148376,0.091694638133049,-0.6813144683837891,0.3636468946933746,-0.3535961508750915,0.0,0.0,-0.4632719755172729,-0.141646146774292
-0.0631098747253418,0.5910503268241882,0.1001408547163009,-0.6950077414512634,0.3454339504241943,-0.3642588257789612,0.0,0.0,-0.1221387982368469,-0.6884620189666748
-0.0622594840824604,0.5749825239181519,0.1014965921640396,-0.7102668285369873,0.3282108604907989,-0.344461590051651,0.0,0.0,0.4156773090362549,-0.4380756616592407
-0.0615340247750282,0.5594542622566223,0.0896967053413391,-0.6863558888435364,0.3103829026222229,-0.3565593957901001,0.0,0.0,-0.3797551393508911,-0.4630499482154846
-0.0607307441532611,0.5436199903488159,0.0981296822428703,-0.7000513672828674,0.291986882686615,-0.3679206669330597,0.0,0.0,0.1971086263656616,-0.6756882667541504
-0.0599522590637207,0.5278149247169495,0.0949364155530929,-0.699120819568634,0.2744181156158447,-0.3513750731945038,0.0,0.0,0.6829907894134521,-0.5537490248680115
-0.0591510757803916,0.5123153328895569,0.0965033918619155,-0.6858828067779541,0.2576529681682586,-0.3353032767772674,0.0,0.0,0.2244877815246582,-0.3890398740768432
-0.0582747459411621,0.4971650540828705,0.1041772961616516,-0.6705275177955627,0.2407969683408737,-0.3371204733848572,0.0,0.0,0.7433037757873535,-0.5928477644920349
-0.0573115348815918,0.4823500216007232,0.1119424477219581,-0.6559666395187378,0.2249420434236526,-0.3170985281467438,0.0,0.0,0.6893597841262817,-0.9656956791877748
-0.0565241798758506,0.4683306515216827,0.09311193972826,-0.620954692363739,0.2104090899229049,-0.2906586527824402,0.0,0.0,-0.4288034439086914,-0.5915258526802063
-0.0557036399841308,0.4539947807788849,0.095966562628746,-0.6352269053459167,0.1963858008384704,-0.2804657220840454,0.0,0.0,0.371559739112854,-0.7195250391960144
-0.0548574440181255,0.4401862621307373,0.0975845009088516,-0.6120458841323853,0.1833636611700058,-0.2604433000087738,0.0,0.0,0.1773568391799926,-0.7788141369819641
-0.0539553649723529,0.4264111518859863,0.1021794453263282,-0.6107944846153259,0.1713532656431198,-0.2402075231075287,0.0,0.0,0.3625314235687256,-0.6105162501335144
-0.0531425476074218,0.4129230082035064,0.0927868336439132,-0.5981892347335815,0.159842386841774,-0.230217769742012,0.0,0.0,0.4811794757843017,-0.8536897301673889
-0.0523599609732627,0.4002869427204132,0.0886090621352195,-0.5605242848396301,0.1495097875595092,-0.2066520005464553,0.0,0.0,0.2518377304077148,-0.0993854403495788
-0.0515829101204872,0.3879789113998413,0.0887901335954666,-0.545948326587677,0.138456106185913,-0.2210736721754074,0.0,0.0,-0.0103155374526977,-0.7199100852012634
-0.0507987029850482,0.3753554821014404,0.0884290337562561,-0.5601399540901184,0.128492459654808,-0.1992732435464859,0.0,0.0,-0.3437656164169311,-0.7258598208427429
-0.0499879829585552,0.362418532371521,0.0904971659183502,-0.5741915106773376,0.1191213428974151,-0.1874225288629531,0.0,0.0,0.5686298608779907,-0.5090847015380859
-0.0492809303104877,0.3502214848995209,0.0799126103520393,-0.5413808226585388,0.1099712252616882,-0.1830026656389236,0.0,0.0,0.6957159042358398,-0.1299070119857788
-0.0486678108572959,0.3388487100601196,0.0715864598751068,-0.5047315359115601,0.0997771173715591,-0.2038823366165161,0.0,0.0,-0.3709553480148315,-0.8123992681503296
-0.048046588897705,0.3271557092666626,0.0713598877191543,-0.519097089767456,0.0906171575188636,-0.1831992417573928,0.0,0.0,0.143000841140747,-0.0944449305534362
-0.0474693290889263,0.3157658874988556,0.0680091604590416,-0.5056236982345581,0.0804284214973449,-0.2037749737501144,0.0,0.0,-0.2381144762039184,-0.2749679684638977
-0.0468185432255268,0.3040688931941986,0.0760405361652374,-0.5193126201629639,0.0695824548602104,-0.2169194966554641,0.0,0.0,-0.2056066989898681,-0.9488224387168884
-0.0461565963923931,0.2920639514923095,0.0762535780668258,-0.533114492893219,0.059633120894432,-0.1989864408969879,0.0,0.0,0.1677401065826416,-0.8695117831230164
-0.0454556457698345,0.2801331281661987,0.0790479108691215,-0.5299298167228699,0.0507801882922649,-0.17705899477005,0.0,0.0,0.4166690111160278,-0.9608893990516664
-0.044649600982666,0.2688874006271362,0.088187888264656,-0.4995743632316589,0.0432911217212677,-0.1497812718153,0.0,0.0,-0.09885174036026,-0.7925135493278503
-0.0438372604548931,0.2573363780975342,0.0878251120448112,-0.5132043361663818,0.0367753319442272,-0.1303157806396484,0.0,0.0,0.5683059692382812,-0.7574324607849121
-0.0428945533931255,0.2467071563005447,0.0997416898608207,-0.4722844362258911,0.0313712507486343,-0.1080814450979232,0.0,0.0,0.0728650093078613,-0.8985449075698853
-0.0419060699641704,0.2363338768482208,0.1031741946935653,-0.4609503149986267,0.0270933341234922,-0.0855584144592285,0.0,0.0,0.2588489055633545,-0.830653727054596
-0.0409373268485069,0.2265908867120742,0.1002121716737747,-0.4329665601253509,0.023796796798706,-0.0659308284521102,0.0,0.0,-0.1759569644927978,-0.9080588817596436
-0.0399649627506732,0.2165454775094986,0.0996136143803596,-0.4464243352413177,0.0214590821415185,-0.0467542894184589,0.0,0.0,0.3119164705276489,-0.9200500249862672
-0.0389317497611045,0.2067334502935409,0.1044554114341735,-0.4360725283622741,0.0203378703445196,-0.0224244575947523,0.0,0.0,0.1378157138824463,-0.9753114581108092
-0.0380176529288291,0.1972482949495315,0.091244600713253,-0.4215664863586426,0.0204958617687225,0.0031599781941622,0.0,0.0,-0.1915075778961181,-0.950297713279724
-0.0371292121708393,0.1874497234821319,0.0870302021503448,-0.4355174899101257,0.022282300516963,0.0357288643717765,0.0,0.0,0.3201888799667358,-0.9520940780639648
-0.0362816825509071,0.1780149340629577,0.081713393330574,-0.4193721711635589,0.0252861641347408,0.0600770115852355,0.0,0.0,0.6452572345733643,-0.9348012804985046
-0.0354292877018451,0.1690653711557388,0.0809515714645385,-0.3978372514247894,0.0295249074697494,0.0847748890519142,0.0,0.0,0.2274662256240844,-0.8388745784759521
-0.0344777107238769,0.1602028459310531,0.0897627770900726,-0.3940052688121795,0.0348566137254238,0.1066340431571006,0.0,0.0,0.1293851137161255,-0.8082766532897949
-0.0334690101444721,0.1517376452684402,0.0944704487919807,-0.3763966560363769,0.0411809757351875,0.1264873147010803,0.0,0.0,-0.061877429485321,-0.8903599381446838
-0.0324689857661724,0.1429691165685653,0.0925494134426117,-0.3899354040622711,0.0485399924218654,0.1471804678440094,0.0,0.0,0.1828634738922119,-0.4869657754898071
-0.0313769355416297,0.134230837225914,0.1022121086716651,-0.3886083662509918,0.0554491579532623,0.1381835639476776,0.0,0.0,0.0601454973220825,-0.3200656175613403
