x_pos,y_pos,x_vel,y_vel,angle,ang_vel,leg_1,leg_2,main_booster,lat_booster
-0.0015898704295977,1.4030405282974243,-0.1613028794527053,-0.3502084016799927,0.0020722991321235,0.0409013107419014,0.0,0.0,0.7691456134895791,0.5683944305854288
-0.003143310546875,1.3953382968902588,-0.1567021161317825,-0.3423160314559936,0.0034049537498503,0.0266564041376113,0.0,0.0,0.1079121703477632,-0.6693416177802962
-0.0047157285735011,1.387453556060791,-0.1603455245494842,-0.350451111793518,0.0064727193675935,0.0613608546555042,0.0,0.0,-0.2722459088080313,0.7217772538004325
-0.0063091279007494,1.3789827823638916,-0.1615733802318573,-0.3764934837818146,0.0086769927293062,0.0440894737839698,0.0,0.0,-0.3641146883584283,0.5635973730896473
-0.007915305905044,1.3699305057525637,-0.1617727875709533,-0.4023327529430389,0.009821817278862,0.0228987131267786,0.0,0.0,-0.2742102528398165,0.6275442528554286
-0.009527301415801,1.3602941036224363,-0.1611198186874389,-0.4282812774181366,0.0097451824694871,-0.0015328964218497,0.0,0.0,0.1979020318385669,0.6797331965783856
-0.0111745838075876,1.3507024049758911,-0.1635753065347671,-0.4262947142124176,0.0086070802062749,-0.0227643232792615,0.0,0.0,-0.3168682511927356,-0.8525678432615224
-0.0129385944455862,1.3405282497406006,-0.1768623292446136,-0.4521842002868652,0.0090600764378905,0.0090607115998864,0.0,0.0,0.932434106754454,0.892988761682217
-0.0147230150178074,1.3312488794326782,-0.1774104833602905,-0.4124139845371246,0.0080401683226227,-0.0204000733792781,0.0,0.0,0.990762868115218,0.8437490113590881
-0.0165151599794626,1.3227039575576782,-0.1768342405557632,-0.3797566294670105,0.005684683099389,-0.0471140369772911,0.0,0.0,-0.9945170562129082,-0.9739925265763528
-0.0184391979128122,1.313575267791748,-0.1920397281646728,-0.4057209193706512,0.0053294352255761,-0.0071057574823498,0.0,0.0,0.0589323145186491,0.6946143216718746
-0.0203245170414447,1.3043699264526367,-0.1871895641088485,-0.4091231524944305,0.004002658650279,-0.02653787471354,0.0,0.0,-0.1291743934572742,0.6644737448490106
-0.0222120285034179,1.2945842742919922,-0.1861551254987716,-0.4349131882190704,0.0014355658786371,-0.0513470582664012,0.0,0.0,0.5448753236087793,-0.8372084931004271
-0.0241597183048725,1.2847050428390503,-0.194339171051979,-0.439078539609909,0.0010117518249899,-0.0084769651293754,0.0,0.0,-0.9011731586676766,0.7291861172096874
-0.0261021610349416,1.2742493152618408,-0.1923928558826446,-0.4646993279457092,-0.0008233273983933,-0.0367050990462303,0.0,0.0,0.3112419857787611,-0.6596235254630187
-0.0280657764524221,1.263555645942688,-0.1963796019554138,-0.4752725958824157,-0.0007959344657137,0.0005478399107232,0.0,0.0,-0.721492584480439,0.6614678076714346
-0.0300307273864746,1.2522854804992676,-0.195285752415657,-0.5008957386016846,-0.0019950752612203,-0.0239848643541336,0.0,0.0,-0.8749771855417192,-0.5017774167515432
-0.0320915207266807,1.2404271364212036,-0.2060277760028839,-0.5270369648933411,-0.0020391591824591,-0.0008817164343781,0.0,0.0,-0.0363151770742646,-0.6529161676808021
-0.0342608466744422,1.2279911041259766,-0.2183987647294998,-0.5527139902114868,-0.0005977347609587,0.0288309995085001,0.0,0.0,0.7897483889239671,0.8403070702357482
-0.0365250594913959,1.2158902883529663,-0.2264151871204376,-0.5378152132034302,-0.0006067076465114,-0.0001791400572983,0.0,0.0,0.1109164973980325,-0.5700607877011332
-0.0388039574027061,1.2039676904678345,-0.2295961081981659,-0.529891848564148,0.0010870798723772,0.0338786579668521,0.0,0.0,-0.4796154305133253,-0.8756486323891777
-0.0412158966064453,1.191455960273743,-0.2450418919324875,-0.5560792088508606,0.0048985849134624,0.0762368589639663,0.0,0.0,-0.4337753319990387,-0.5765083943375646
-0.0437285415828228,1.1783596277236938,-0.2564565241336822,-0.582086443901062,0.0100253280252218,0.1025440096855163,0.0,0.0,0.0594607455776863,-0.8351330254546143
-0.0463217720389366,1.164970636367798,-0.266628086566925,-0.5951356291770935,0.0172482151538133,0.1444706916809082,0.0,0.0,-0.9710059215121344,0.7105072061791249
-0.048936940729618,1.151001214981079,-0.2681581079959869,-0.6209523677825928,0.0238140597939491,0.1313288211822509,0.0,0.0,0.4519477488556274,-0.8460757125602456
-0.0518423095345497,1.1373522281646729,-0.2991407215595245,-0.6067879796028137,0.0323044545948505,0.1698078364133834,0.0,0.0,-0.6564091398071377,0.7051055918697102
-0.0547560676932334,1.1231272220611572,-0.298976182937622,-0.6324041485786438,0.0398123189806938,0.1501571089029312,0.0,0.0,-0.5836446304237353,-0.8154493241983503
-0.0578126907348632,1.1083232164382937,-0.315696656703949,-0.6582520604133606,0.0497242361307144,0.1982384622097015,0.0,0.0,0.9649077257187784,0.9679159079478156
-0.0610744468867778,1.0943176746368408,-0.3343880772590637,-0.6227640509605408,0.0578403361141681,0.1623220592737198,0.0,0.0,-0.1621292941168524,-0.8119381809138996
-0.0644662827253341,1.0797208547592163,-0.3495200276374817,-0.6491852402687073,0.0680626332759857,0.204445794224739,0.0,0.0,0.1834919875609009,0.689940507932864
-0.0678937882184982,1.0654640197753906,-0.3521476984024048,-0.6340910792350769,0.0773622021079063,0.185991495847702,0.0,0.0,-0.998580515384674,0.9934902191162108
-0.0713161453604698,1.0506268739700315,-0.350320965051651,-0.6598714590072632,0.0853739157319068,0.1602341681718826,0.0,0.0,-0.9859659075737,0.9944057464599608
-0.0747344940900802,1.0352247953414917,-0.3486257791519165,-0.6849381327629089,0.092106319963932,0.1346481591463089,0.0,0.0,-0.9828457832336426,0.9531776905059814
-0.0781478881835937,1.019240379333496,-0.34685879945755,-0.7107658386230469,0.0975753813982009,0.109381154179573,0.0,0.0,-0.9477633833885192,0.9521563053131104
-0.0815469771623611,1.0026862621307373,-0.3438887000083923,-0.7360095381736755,0.1015253439545631,0.0789990499615669,0.0,0.0,-0.974157452583313,0.954852819442749
-0.0849311798810958,0.9855676293373108,-0.3408654332160949,-0.7609941363334656,0.1039404869079589,0.0483031049370765,0.0,0.0,-0.882942795753479,0.962943434715271
-0.0883045196533203,0.9678720831871032,-0.3383440971374511,-0.7865399122238159,0.1049479022622108,0.0201480872929096,0.0,0.0,-0.9313018321990968,0.9448971748352052
-0.0916606932878494,0.9496128559112548,-0.3350400626659393,-0.8114815950393677,0.1043733060359954,-0.0114918639883399,0.0,0.0,-0.8273322582244873,0.9929416179656982
-0.0950056090950965,0.9307926297187804,-0.3324714601039886,-0.8363136649131775,0.1023648306727409,-0.0401691570878028,0.0,0.0,-0.1772263050079345,0.9793300628662108
-0.0983304977416992,0.9114027619361876,-0.3288227915763855,-0.8615249991416931,0.0987288355827331,-0.0727199167013168,0.0,0.0,-0.3848206996917724,0.9920821189880372
-0.1016516685485839,0.8914475440979004,-0.3272279500961303,-0.8865833282470703,0.0938758328557014,-0.0970600321888923,0.0,0.0,0.7275855541229248,0.9975165128707886
-0.1048604026436805,0.8717560172080994,-0.3145694136619568,-0.8747966885566711,0.0876332893967628,-0.1248508840799331,0.0,0.0,-0.2205806374549865,0.9945926666259766
-0.1080362349748611,0.8514828085899353,-0.3093702495098114,-0.9005767703056335,0.079495869576931,-0.1627484709024429,0.0,0.0,0.2995790243148803,0.9900221824645996
-0.1111344322562217,0.8312669396400452,-0.3000425696372986,-0.8979967832565308,0.0698204934597015,-0.1935078203678131,0.0,0.0,0.5831623077392578,0.9598708152770996
-0.114277459681034,0.8108831644058228,-0.3029346168041229,-0.9054595828056335,0.058576513081789,-0.224879503250122,0.0,0.0,0.9185285568237304,0.9950772523880004
-0.1173616424202919,0.7905006408691406,-0.2955274581909179,-0.905440390110016,0.0458337478339672,-0.2548553347587585,0.0,0.0,0.8840591907501221,0.9867656230926514
-0.1203694343566894,0.7703055739402771,-0.2864023149013519,-0.8971800208091736,0.031627781689167,-0.284119188785553,0.0,0.0,0.9835026264190674,0.9857573509216307
-0.1235354393720626,0.7510375380516052,-0.3003441393375397,-0.8560864925384521,0.0155696459114551,-0.3211629986763,0.0,0.0,0.6852892637252808,0.9885427951812744
-0.1268423050642013,0.7324022650718689,-0.3125974237918854,-0.8281404376029968,-0.0022886027581989,-0.3571649491786957,0.0,0.0,0.4967544078826904,0.9989826679229736
-0.1301437318325042,0.7138758897781372,-0.3103780448436737,-0.8235434293746948,-0.0218025110661983,-0.3902781307697296,0.0,0.0,0.1196001768112182,0.9988257884979248
-0.1332931518554687,0.6953446269035339,-0.2934944331645965,-0.8240633606910706,-0.0429867915809154,-0.4236857891082763,0.0,0.0,0.8568222522735596,0.9557151794433594
-0.136453241109848,0.6774823665618896,-0.2928650081157684,-0.7946951985359192,-0.065860316157341,-0.4574707150459289,0.0,0.0,0.3717924356460571,0.9241049289703368
-0.139460951089859,0.6595732569694519,-0.2762169241905212,-0.7972214221954346,-0.0901716277003288,-0.4862264096736908,0.0,0.0,0.8144786357879639,0.8314418792724609
-0.1423667967319488,0.6423950791358948,-0.2647292017936706,-0.7652360796928406,-0.1158250197768211,-0.5130683183670044,0.0,0.0,0.426682710647583,-0.7618089318275452
-0.1451866179704666,0.625250518321991,-0.2582330107688904,-0.763996422290802,-0.1394483894109726,-0.4724678099155426,0.0,0.0,0.8747587203979492,0.1132242679595947
-0.1480827331542968,0.608345627784729,-0.2657204568386078,-0.753738284111023,-0.1632955223321914,-0.4769428670406341,0.0,0.0,0.888721227645874,-0.1932795047760009
-0.150765985250473,0.5921856164932251,-0.2452829331159591,-0.7209152579307556,-0.1863824725151062,-0.4617390632629394,0.0,0.0,0.6259229183197021,-0.7424325942993164
-0.1532759666442871,0.5764034986495972,-0.2300784587860107,-0.704194188117981,-0.2074433863162994,-0.4212181568145752,0.0,0.0,0.5437345504760742,-0.8553869128227234
-0.1556530892848968,0.561176598072052,-0.2189200818538665,-0.6795039772987366,-0.2264372110366821,-0.3798764646053314,0.0,0.0,0.2699149847030639,-0.8352895379066467
-0.1580579727888107,0.5463038086891174,-0.2235877811908722,-0.6636976599693298,-0.2435860335826873,-0.342976450920105,0.0,0.0,0.6331079006195068,-0.75733482837677
-0.160412311553955,0.5313778519630432,-0.220396876335144,-0.6659438014030457,-0.2589109539985657,-0.3064981997013092,0.0,0.0,0.7119177579879761,-0.9721810221672058
-0.1627969741821289,0.5170028209686279,-0.2254257947206497,-0.6412466168403625,-0.27224001288414,-0.2665809988975525,0.0,0.0,0.8299422264099121,-0.5648758411407471
-0.1649579107761383,0.5028305053710938,-0.2047600448131561,-0.6320305466651917,-0.2838691174983978,-0.2325820028781891,0.0,0.0,0.7590749263763428,-0.9466314911842346
-0.1670055389404297,0.489035815000534,-0.1955113559961319,-0.6149272918701172,-0.2933958172798157,-0.1905341148376464,0.0,0.0,0.8501396179199219,-0.9687387943267822
-0.1690108329057693,0.4753242135047912,-0.1933291852474212,-0.6108754873275757,-0.3008275628089905,-0.1486346274614334,0.0,0.0,0.9861242771148682,-0.9460753798484802
-0.1710528433322906,0.4621531367301941,-0.1986845731735229,-0.586531400680542,-0.3065292537212372,-0.114034429192543,0.0,0.0,0.8798578977584839,-0.5918067097663879
-0.1728354394435882,0.4498064517974853,-0.1740695238113403,-0.5496324300765991,-0.3108732104301452,-0.0868798270821571,0.0,0.0,0.9889123439788818,-0.6964382529258728
-0.1744765341281891,0.4373469948768616,-0.161579430103302,-0.5542978048324585,-0.3134899735450744,-0.0523349717259407,0.0,0.0,0.9710018634796144,-0.9013256430625916
-0.1758451461791992,0.4257828891277313,-0.136217325925827,-0.5140994787216187,-0.3141612410545349,-0.0134252775460481,0.0,0.0,0.9933793544769288,0.2774269580841064
-0.1771522462368011,0.4145021438598633,-0.129563957452774,-0.5016147494316101,-0.3153505325317383,-0.0237858332693576,0.0,0.0,0.9929673671722412,-0.266169011592865
-0.1783149689435959,0.4038538634777069,-0.1146238595247268,-0.4736202955245971,-0.3170687556266784,-0.0343638360500335,0.0,0.0,0.9877636432647704,-0.6218537092208862
-0.179253488779068,0.3936943709850311,-0.0934822410345077,-0.4516130983829498,-0.3174514770507812,-0.0076546808704733,0.0,0.0,0.995169162750244,-0.434195876121521
-0.1800187081098556,0.3844773769378662,-0.0753973349928855,-0.409891128540039,-0.3186186850070953,-0.0233442597091197,0.0,0.0,0.9504166841506958,-0.554909348487854
-0.1805184334516525,0.3756250739097595,-0.0501096919178962,-0.3934047520160675,-0.3184801936149597,0.0027697046753019,0.0,0.0,0.9685115814208984,-0.3869959115982055
-0.1809013336896896,0.3668719828128814,-0.038141556084156,-0.3890616595745086,-0.3186416923999786,-0.0032300725579261,0.0,0.0,0.9746253490447998,-0.3701516985893249
-0.1810732781887054,0.358050674200058,-0.017269667237997,-0.3920424282550812,-0.3185662925243377,0.0015080261509865,0.0,0.0,0.8765451908111572,-0.8062141537666321
-0.1812086999416351,0.3492359220981598,-0.0149508984759449,-0.3914591670036316,-0.3170983791351318,0.0293584279716014,0.0,0.0,0.9379277229309082,-0.7511602640151978
-0.1811007559299469,0.341202974319458,0.0081024896353483,-0.3564323484897613,-0.314303994178772,0.0558874197304248,0.0,0.0,0.046433687210083,-0.5991491079330444
-0.1808016747236251,0.3333252668380737,0.0261673089116811,-0.3493152260780334,-0.3104231059551239,0.0776175633072853,0.0,0.0,-0.6921036243438721,-0.8006690740585327
-0.1805485785007476,0.3249066472053528,0.0199149660766124,-0.3730161786079407,-0.3048363327980041,0.1117352470755577,0.0,0.0,-0.0798330307006836,-0.6752282381057739
-0.1803324669599533,0.3159281015396118,0.0148517210036516,-0.3976463675498962,-0.2978490889072418,0.1397448033094406,0.0,0.0,0.1038770675659179,-0.4332154989242553
-0.1799070388078689,0.3071127235889435,0.03592499345541,-0.3904553651809692,-0.2910236716270447,0.1365086287260055,0.0,0.0,-0.1411284208297729,-0.598416268825531
-0.1795035302639007,0.2977388799190521,0.0326398909091949,-0.4150963425636291,-0.2830879390239715,0.1587148904800415,0.0,0.0,0.3141540288925171,-0.4019569158554077
-0.1789582222700119,0.2885777950286865,0.0473199002444744,-0.4057788252830505,-0.2756873369216919,0.1480123251676559,0.0,0.0,0.1318364143371582,-0.6422039270401001
-0.1783044785261154,0.2795537710189819,0.057245135307312,-0.399554431438446,-0.2673497796058655,0.1667511016130447,0.0,0.0,0.2987241744995117,-0.6057925820350647
-0.1774660050868988,0.2705989181995392,0.0747186690568924,-0.3963578045368194,-0.2580243051052093,0.1865089982748031,0.0,0.0,-0.1754176616668701,-0.617837131023407
-0.1766350716352462,0.2610745728015899,0.0731662660837173,-0.4215884208679199,-0.2479038685560226,0.2024088650941848,0.0,0.0,0.0084303617477417,-0.0098886489868164
-0.1756484061479568,0.2513054609298706,0.088869035243988,-0.4325610399246216,-0.2379427999258041,0.1992218196392059,0.0,0.0,0.2137691974639892,-0.1405242085456848
-0.1744157820940017,0.2415284216403961,0.1133873909711837,-0.4329725801944732,-0.2279234826564788,0.2003865987062454,0.0,0.0,0.1747336387634277,0.1555310487747192
-0.1729797422885894,0.2315461784601211,0.1337092220783233,-0.4421572983264923,-0.2179071754217147,0.20032599568367,0.0,0.0,-0.072036325931549,-0.2784360647201538
-0.1714988648891449,0.2209824919700622,0.1386441737413406,-0.4681304395198822,-0.2083714306354522,0.1907148659229278,0.0,0.0,0.8648600578308105,-0.550078272819519
-0.1698003709316253,0.2111000120639801,0.159681037068367,-0.4378193616867065,-0.1981207281351089,0.2050139456987381,0.0,0.0,0.0500154495239257,-0.332625150680542
-0.1678936034440994,0.2012364268302917,0.1806344389915466,-0.4370719790458679,-0.1880205869674682,0.2020029574632644,0.0,0.0,-0.2584240436553955,-0.9110020399093628
-0.1659986525774002,0.1907989084720611,0.1784500926733017,-0.4625248908996582,-0.1769382655620575,0.2216465175151825,0.0,0.0,0.1477651596069336,-0.3578037023544311
-0.1640281677246093,0.1803122609853744,0.1867011338472366,-0.4648743271827698,-0.166574627161026,0.2072731554508209,0.0,0.0,0.3831175565719604,0.20919930934906
-0.1618180274963379,0.1702950298786163,0.2108936756849289,-0.4441075325012207,-0.156448557972908,0.2025215178728103,0.0,0.0,0.1166784763336181,-0.9170525670051576
-0.1595869064331054,0.1602874547243118,0.2117092609405517,-0.4436233937740326,-0.145069271326065,0.2275860011577606,0.0,0.0,0.4740774631500244,0.3053104877471924
-0.1573114395141601,0.150776132941246,0.2172427624464035,-0.4217567443847656,-0.1347976177930832,0.205433040857315,0.0,0.0,0.4927841424942016,-0.6582897901535034
-0.1548647880554199,0.1416169255971908,0.2334605753421783,-0.4060984849929809,-0.1236429139971733,0.2230942696332931,0.0,0.0,0.2194468975067138,-0.4021922349929809
-0.1523361206054687,0.1327079087495803,0.2424570024013519,-0.3951252996921539,-0.1132910549640655,0.2070369720458984,0.0,0.0,0.5727410316467285,-0.8651405572891235
-0.1498283445835113,0.1243124604225158,0.2393710911273956,-0.3723041713237762,-0.1019697412848472,0.226426288485527,0.0,0.0,0.3168272972106933,-0.8619074821472168
-0.1473167389631271,0.1159390285611152,0.2386863678693771,-0.3713475465774536,-0.0895949676632881,0.2474955320358276,0.0,0.0,0.295145034790039,-0.6613174080848694
-0.1448616087436676,0.1077100858092308,0.2325196266174316,-0.3650005757808685,-0.0767240077257156,0.2574194371700287,0.0,0.0,0.6250026226043701,-0.8582439422607422
-0.1425443589687347,0.0996955707669258,0.2179283201694488,-0.3555531799793243,-0.0630659535527229,0.2731609642505646,0.0,0.0,0.5544021129608154,-0.2463480234146118
-0.1400296241044998,0.0921027064323425,0.2378770112991333,-0.336943656206131,-0.0496207475662231,0.2689040303230285,0.0,0.0,0.5931503772735596,-0.7871249914169312
-0.137438490986824,0.0844548344612121,0.2444932162761688,-0.3394865691661834,-0.0351791568100452,0.2888317704200744,0.0,0.0,0.5952144861221313,-0.5385714173316956
-0.1346576660871505,0.0773289501667022,0.2626754641532898,-0.3164155781269073,-0.0199671667069196,0.3042399883270263,0.0,0.0,0.5831801891326904,-0.7182528972625732
-0.1318865716457367,0.0707460939884185,0.2610147297382355,-0.2924347817897796,-0.0040725376456975,0.3178926706314087,0.0,0.0,0.631380558013916,-0.845115602016449
-0.1289654672145843,0.0648577511310577,0.274760901927948,-0.2617448270320892,0.0130497347563505,0.3424456119537353,0.0,0.0,0.7761696577072144,-0.2356787323951721
-0.1259137094020843,0.0593253225088119,0.2881708741188049,-0.2461185753345489,0.0298379864543676,0.3357648551464081,0.0,0.0,0.8540921211242676,-0.8320320248603821
-0.1229072585701942,0.0545912608504295,0.2827305495738983,-0.2108498662710189,0.0475427694618701,0.3540956079959869,0.0,0.0,0.4727027416229248,-0.4855059385299682
-0.1198228821158409,0.0503326281905174,0.2910069227218628,-0.1899166107177734,0.0647718161344528,0.3445808887481689,0.0,0.0,0.7637147903442383,-0.689486026763916
-0.1166741400957107,0.0462264157831668,0.2966057658195495,-0.1833869814872741,0.0828570798039436,0.3617052137851715,0.0,0.0,0.6795923709869385,-0.2628592848777771
-0.113643929362297,0.0424636714160442,0.2861039638519287,-0.168257400393486,0.0996306240558624,0.335470974445343,0.0,0.0,0.524207592010498,-0.0869906544685363
-0.1107212081551551,0.0388105027377605,0.276680052280426,-0.1634760648012161,0.1151151359081268,0.3096901774406433,0.0,0.0,0.1908214092254638,-0.4643139839172363
-0.1078027710318565,0.0351778604090213,0.2770920991897583,-0.1626495271921157,0.1297821104526519,0.2933398187160492,0.0,0.0,0.4582103490829468,-0.2475593090057373
-0.1048646941781044,0.0316674560308456,0.2797294557094574,-0.1573020070791244,0.1438053101301193,0.2804637551307678,0.0,0.0,0.5140984058380127,-0.4527682065963745
-0.1017975807189941,0.0280891042202711,0.2928745150566101,-0.1604321449995041,0.1576284766197204,0.2764631807804107,0.0,0.0,0.2820193767547607,-0.4233704805374145
-0.0986809730529785,0.0247314795851707,0.2982556223869324,-0.1507052332162857,0.1710443198680877,0.2683166563510895,0.0,0.0,0.0035102367401123,-0.6961406469345093
-0.0956274047493934,0.0215116832405328,0.29134202003479,-0.1447728723287582,0.1851029694080352,0.2811731398105621,0.0,0.0,0.0206518173217773,-0.5021183490753174
-0.0927611365914344,0.0185807086527347,0.2912843823432922,-0.1296808570623397,0.1804709881544113,-0.092587761580944,0.0,1.0,-0.3309680223464966,-0.3804544806480407
