x_pos,y_pos,x_vel,y_vel,angle,ang_vel,leg_1,leg_2,main_booster,lat_booster
-0.0015525817871093,1.4032458066940308,-0.1576335579156875,-0.3410780131816864,0.0021278513595461,0.0420010611414909,0.0,0.0,0.728656620005719,-0.9447631446454486
-0.003150749253109,1.3959355354309082,-0.1642462462186813,-0.3249109983444214,0.0065066725946962,0.0875857472419738,0.0,0.0,0.3166147283171494,0.7763019002792405
-0.0046028136275708,1.3887253999710083,-0.1485890746116638,-0.3204722702503204,0.0098548317328095,0.0669689774513244,0.0,0.0,-0.6888326170936734,0.8021201986995692
-0.0060384748503565,1.3811347484588623,-0.1460062563419342,-0.337380051612854,0.0122646214440464,0.0482003130018711,0.0,0.0,0.6326768497628059,0.8719310475855431
-0.0073072435334324,1.3741387128829956,-0.1281526386737823,-0.3109417259693146,0.013525323010981,0.0252162180840969,0.0,0.0,-0.0337446535945458,0.7391949724034536
-0.0085419658571481,1.3667644262313845,-0.1232657060027122,-0.3277442157268524,0.013324661180377,-0.0040132687427103,0.0,0.0,0.5143885246220072,-0.7841905089903773
-0.0099070547148585,1.3598040342330933,-0.138173446059227,-0.3093708455562591,0.01496974658221,0.0329045355319976,0.0,0.0,-0.5539056092237695,-0.7009483383567219
-0.0113537786528468,1.3524658679962158,-0.147721916437149,-0.3261665105819702,0.0179906617850065,0.0604235902428627,0.0,0.0,0.4438359454715499,-0.9654867596681024
-0.0129430769011378,1.3458545207977295,-0.1642438918352127,-0.2939079403877258,0.0232423581182956,0.1050435677170753,0.0,0.0,-0.5780738104427301,0.9501971054423972
-0.0145003320649266,1.3388733863830566,-0.1594611853361129,-0.3103385865688324,0.0269427224993705,0.074013851583004,0.0,0.0,-0.8757218231021382,0.8746392754302474
-0.0160223003476858,1.3315176963806152,-0.1542683690786361,-0.326959490776062,0.0289919227361679,0.0409879460930824,0.0,0.0,0.0794553624879423,0.9564655643027704
-0.017468262463808,1.324304699897766,-0.145080879330635,-0.3205868601799011,0.0294696874916553,0.0095561929047107,0.0,0.0,-0.4695544493967658,-0.8988429030373775
-0.0190151222050189,1.3167152404785156,-0.1569185554981231,-0.3373521864414215,0.0316707827150821,0.0440260581672191,0.0,0.0,0.116822047208251,0.8758150266448965
-0.0204920768737792,1.3091051578521729,-0.1485145688056945,-0.3382469117641449,0.0324800983071327,0.0161878243088722,0.0,0.0,-0.524732680545893,-0.6266337813554068
-0.0220540054142475,1.3011209964752195,-0.1582962572574615,-0.3548932671546936,0.0345642082393169,0.0416858755052089,0.0,0.0,0.015764188268913,-0.872777949341079
-0.0236586574465036,1.2930229902267456,-0.1646447777748108,-0.3600145280361175,0.0387028418481349,0.0827800408005714,0.0,0.0,0.3454980985362228,-0.8661668840890008
-0.0252793319523334,1.28560471534729,-0.1684517860412597,-0.3298835158348083,0.0450097285211086,0.1261492818593979,0.0,0.0,-0.8212036386407731,0.7613805729453937
-0.0268747322261333,1.2778066396713257,-0.1643345654010772,-0.3467309176921844,0.0497617535293102,0.0950488969683647,0.0,0.0,-0.206556637481349,0.6420807315919349
-0.0284609794616699,1.2696410417556765,-0.162234827876091,-0.3630439937114715,0.0533441454172134,0.0716541036963462,0.0,0.0,0.791233945521348,-0.7562150644975936
-0.0302846916019916,1.2620036602020264,-0.1876067966222763,-0.339638352394104,0.0585306026041507,0.1037382930517196,0.0,0.0,-0.0542029761613782,0.6131247578054481
-0.0321002006530761,1.2539973258972168,-0.1856045424938202,-0.355991393327713,0.0625433474779129,0.0802618414163589,0.0,0.0,-0.1261818969271941,-0.8440617838822573
-0.0340313911437988,1.2456026077270508,-0.1991353034973144,-0.3733729124069214,0.0685056746006012,0.1192571744322776,0.0,0.0,-0.8728156942877137,0.9346744981138406
-0.0359238609671592,1.2368375062942505,-0.1932700723409652,-0.3897490501403808,0.0725044161081314,0.0799819752573967,0.0,0.0,0.2349864005481532,-0.7239299500750309
-0.0378820411860942,1.228035569190979,-0.2016851007938385,-0.39148810505867,0.0783168599009513,0.116259291768074,0.0,0.0,0.1425049719934901,0.9634719706848508
-0.0399662964046001,1.2195191383361816,-0.2126350849866867,-0.3787332475185394,0.0824953541159629,0.0835773274302482,0.0,0.0,-0.6792434664688245,-0.8224829333754535
-0.0421812050044536,1.2105977535247805,-0.2280550450086593,-0.3968810737133026,0.0889943912625312,0.1299807429313659,0.0,0.0,0.6495300950201444,-0.6701609283786729
-0.044560719281435,1.2023801803588867,-0.2461389005184173,-0.3657350838184356,0.0971177592873573,0.1624672561883926,0.0,0.0,-0.8935962067901679,-0.7643896342695111
-0.04706497117877,1.1937826871871948,-0.2607652842998504,-0.3828147649765014,0.1073687821626663,0.2050202786922454,0.0,0.0,0.3675711688761147,0.9260961795875152
-0.0497398376464843,1.185763955116272,-0.2761290669441223,-0.3570352792739868,0.1159407570958137,0.1714396476745605,0.0,0.0,-0.1722657959914491,0.6313968166457745
-0.0524177551269531,1.1773738861083984,-0.2754465043544769,-0.3735081255435943,0.1235627233982086,0.1524397581815719,0.0,0.0,-0.0011783172514894,0.984819103726722
-0.0550674423575401,1.1686320304870603,-0.2708509862422943,-0.3890229165554046,0.1294117420911789,0.1169804483652114,0.0,0.0,0.3345774189050341,-0.8137484032757034
-0.0579472556710243,1.1600083112716677,-0.2956561744213104,-0.3839612007141113,0.1370608657598495,0.152982547879219,0.0,0.0,0.956454475978184,-0.9834814127158764
-0.0611921325325965,1.1523890495300293,-0.3341937065124511,-0.339556485414505,0.1467350423336029,0.1934832036495208,0.0,0.0,-0.7684912645073425,0.6033133680360782
-0.0644440650939941,1.1443967819213867,-0.3340520858764648,-0.3561117947101593,0.1555741876363754,0.1767831444740295,0.0,0.0,-0.4798243731014315,0.8121282359343543
-0.0676805526018142,1.136044144630432,-0.331050843000412,-0.3720170557498932,0.1629776805639267,0.1480704694986343,0.0,0.0,0.9411516579567968,0.656141846282964
-0.0710368156433105,1.128652572631836,-0.3419995605945587,-0.329229474067688,0.1693513244390487,0.127472922205925,0.0,0.0,0.5136208824847888,0.6610630965093108
-0.0744858756661415,1.121503233909607,-0.3501172065734863,-0.3183508515357971,0.1745700687170028,0.1043753176927566,0.0,0.0,-0.4650016318859093,-0.7080595278518431
-0.0780350714921951,1.113968014717102,-0.3616627752780914,-0.3357062041759491,0.1813291162252426,0.1351809501647949,0.0,0.0,-0.4993184592467583,-0.8379838673771882
-0.081702135503292,1.1060457229614258,-0.3754234910011291,-0.35319784283638,0.1900797486305236,0.1750130504369735,0.0,0.0,-0.9073104861403648,-0.7679133961672842
-0.0854728668928146,1.097731113433838,-0.3874304592609405,-0.3709060847759247,0.2004987746477127,0.2083803862333297,0.0,0.0,0.5162783685310879,0.6801170403871712
-0.0894854515790939,1.0900795459747314,-0.4102229475975036,-0.3413108289241791,0.2095286399126052,0.1805975139141082,0.0,0.0,-0.7776479125022888,0.9964988231658936
-0.0934502631425857,1.0820780992507937,-0.4032272398471832,-0.3565907478332519,0.2163304388523101,0.1360362321138382,0.0,0.0,-0.7511371374130249,0.9953174591064452
-0.097368910908699,1.0737175941467283,-0.3964743316173553,-0.3722584843635559,0.2209919840097427,0.0932313576340675,0.0,0.0,-0.7580922842025757,0.9975528717041016
-0.1012413948774337,1.0650074481964111,-0.3897120058536529,-0.3874910771846771,0.22348552942276,0.0498712584376335,0.0,0.0,-0.6412680745124817,0.991689682006836
-0.1050835624337196,1.0559319257736206,-0.3850185871124267,-0.4034730195999145,0.2242885529994964,0.0160605944693088,0.0,0.0,-0.8297402262687683,0.9633140563964844
-0.1088864356279373,1.0464961528778076,-0.3791727423667907,-0.4192005097866058,0.2231661826372146,-0.0224473401904106,0.0,0.0,-0.6621139645576477,0.981343388557434
-0.1126461997628212,1.0367053747177124,-0.372863620519638,-0.4346780478954315,0.2200191468000412,-0.0629407912492752,0.0,0.0,-0.8275955319404602,0.9934900999069214
-0.1163852661848068,1.0265679359436035,-0.3693182468414306,-0.4498764276504516,0.2153773307800293,-0.0928362160921096,0.0,0.0,-0.7074742913246155,0.995885133743286
-0.1201047897338867,1.0160808563232422,-0.3659331202507019,-0.4652256667613983,0.2092993110418319,-0.1215603724122047,0.0,0.0,-0.6304498910903931,0.9980956315994264
-0.1237875968217849,1.005237102508545,-0.3604499697685241,-0.4808569550514221,0.2014123499393463,-0.1577391326427459,0.0,0.0,-0.6372490525245667,0.9799113273620604
-0.1274133622646331,0.994044840335846,-0.3524364829063415,-0.4960940480232239,0.1912057995796203,-0.2041313350200653,0.0,0.0,-0.923615574836731,0.9555907249450684
-0.1310089081525802,0.9825013279914856,-0.3477681875228882,-0.5115643739700317,0.1793712079524994,-0.2366919815540313,0.0,0.0,-0.9527193307876588,0.9530315399169922
-0.1345510482788086,0.9706003069877625,-0.3402586579322815,-0.5273051857948303,0.1653861105442047,-0.2797023355960846,0.0,0.0,-0.984671950340271,0.9559650421142578
-0.1380531340837478,0.95835143327713,-0.334373414516449,-0.5427140593528748,0.1495681405067443,-0.3163596987724304,0.0,0.0,-0.9667108654975892,0.79981529712677
-0.1415094435214996,0.9457424879074096,-0.3278525471687317,-0.5587098002433777,0.1318463683128357,-0.3544357717037201,0.0,0.0,-0.9728555679321288,0.9738397598266602
-0.144932359457016,0.9327680468559264,-0.3229270279407501,-0.5750405192375183,0.1125734001398086,-0.3854592442512512,0.0,0.0,-0.980137050151825,0.9053516387939452
-0.1483038961887359,0.9194428324699402,-0.3157086372375488,-0.5907517075538635,0.0912855342030525,-0.4257570803165436,0.0,0.0,-0.9653654098510742,0.9576020240783693
-0.1516119986772537,0.9057623744010924,-0.3070090413093567,-0.6067333221435547,0.0677210763096809,-0.4712896347045898,0.0,0.0,-0.9478966593742372,0.8979666233062744
-0.15486840903759,0.8917288184165955,-0.2998343110084533,-0.6227434873580933,0.0422089174389839,-0.5102435350418091,0.0,0.0,-0.8994522094726562,0.967010736465454
-0.1580844819545745,0.877338707447052,-0.2941286861896515,-0.6390131711959839,0.0150730982422828,-0.5427168011665344,0.0,0.0,-0.8968852758407593,0.8235594034194946
-0.1612545996904373,0.8625749945640564,-0.2877681255340576,-0.6561292409896851,-0.0137870013713836,-0.5772024989128113,0.0,0.0,-0.8405547142028809,0.0581086874008178
-0.1644479781389236,0.8474435806274414,-0.2901539206504822,-0.6730248928070068,-0.042600393295288,-0.5762683153152466,0.0,0.0,-0.2553088068962097,0.5113906860351562
-0.1676142662763595,0.8319408297538757,-0.2862967550754547,-0.6901512742042542,-0.0725991502404213,-0.5999754071235657,0.0,0.0,0.2256984710693359,0.9495806694030762
-0.1706725060939788,0.8167435526847839,-0.2736763656139374,-0.6773081421852112,-0.1044460833072662,-0.6369391679763794,0.0,0.0,-0.0156734585762023,0.3424698114395141
-0.1737492531538009,0.8011807203292847,-0.2756671607494354,-0.6942185163497925,-0.1362623572349548,-0.636326014995575,0.0,0.0,0.7730295658111572,0.3726027011871338
-0.1768883764743805,0.7862226963043213,-0.2814545035362243,-0.6680890917778015,-0.1686676442623138,-0.6481065154075623,0.0,0.0,0.2643163204193115,0.4408532381057739
-0.1799166649580001,0.7718642354011536,-0.2706459760665893,-0.642135739326477,-0.2009762823581695,-0.6461731195449829,0.0,0.0,0.7487533092498779,-0.9570050239562988
-0.1828774511814117,0.7575770020484924,-0.2661491930484772,-0.6393340826034546,-0.2312141805887222,-0.6047579050064087,0.0,0.0,0.469268798828125,-0.4832320809364319
-0.1856534034013748,0.7440230250358582,-0.2479914128780365,-0.6073192358016968,-0.261329710483551,-0.6023110747337341,0.0,0.0,0.6069042682647705,-0.8943040370941162
-0.1884893476963043,0.730832040309906,-0.2558598518371582,-0.5914636254310608,-0.2897725105285644,-0.5688565969467163,0.0,0.0,0.8986541032791138,-0.9017089009284972
-0.1912917196750641,0.718474805355072,-0.2543039917945862,-0.5545979142189026,-0.3165857791900635,-0.5362651944160461,0.0,0.0,0.5317658185958862,-0.9524238705635072
-0.1939634382724762,0.7065914273262024,-0.2433458119630813,-0.5335510969161987,-0.3414230048656463,-0.4967446327209472,0.0,0.0,0.4258542060852051,-0.9829692840576172
-0.1965894699096679,0.6954800486564636,-0.2408231496810913,-0.4991674125194549,-0.3643233776092529,-0.4580073356628418,0.0,0.0,0.2452389001846313,-0.6563550233840942
-0.1990577727556228,0.6846008896827698,-0.2265809476375579,-0.4888165891170501,-0.3857911229133606,-0.4293547570705414,0.0,0.0,0.6665763854980469,-0.9518302083015442
-0.201489970088005,0.6739535927772522,-0.2249108552932739,-0.4782987236976623,-0.4053627848625183,-0.3914330303668976,0.0,0.0,0.7198338508605957,-0.9243780970573424
-0.2037902325391769,0.6633855700492859,-0.2137274295091629,-0.4744549393653869,-0.4229356944561004,-0.3514580130577087,0.0,0.0,0.6249468326568604,-0.9629818797111512
-0.2060610800981521,0.6529582738876343,-0.2126791030168533,-0.4678326249122619,-0.4385759532451629,-0.3128049671649933,0.0,0.0,0.8091342449188232,-0.841732919216156
-0.2080327570438385,0.6433899998664856,-0.1844476759433746,-0.4292985498905182,-0.4524879157543182,-0.278239369392395,0.0,0.0,0.879521369934082,-0.945987582206726
-0.2095740288496017,0.6346880793571472,-0.1434194147586822,-0.390271931886673,-0.4642714560031891,-0.2356705218553543,0.0,0.0,0.9280016422271729,-0.9572540521621704
-0.2108832895755767,0.6270442605018616,-0.1218740493059158,-0.3427741825580597,-0.4742897450923919,-0.2003660202026367,0.0,0.0,0.986175537109375,-0.9245765805244446
-0.2122310101985931,0.6197128891944885,-0.1272025555372238,-0.3284558951854706,-0.482706755399704,-0.1683397740125656,0.0,0.0,0.9186646938323976,-0.8675346374511719
-0.2131647169589996,0.6132415533065796,-0.087535336613655,-0.2896660566329956,-0.4892173707485199,-0.1302116066217422,0.0,0.0,0.9128379821777344,-0.8085359930992126
-0.2139533013105392,0.6074091196060181,-0.0743132457137107,-0.260842502117157,-0.4943060576915741,-0.101774588227272,0.0,0.0,0.960134506225586,-0.9513227939605712
-0.2144862711429596,0.6023678183555603,-0.0504272580146789,-0.225095734000206,-0.4975265264511108,-0.0644095242023468,0.0,0.0,0.9247721433639526,-0.916376531124115
-0.2147031724452972,0.598088264465332,-0.0205097086727619,-0.1906351149082183,-0.4988577663898468,-0.0266248993575572,0.0,0.0,0.6030994653701782,-0.966802716255188
-0.2146296501159668,0.5941595435142517,0.0066558197140693,-0.1743566244840622,-0.4980772733688354,0.0156100634485483,0.0,0.0,0.1639144420623779,-0.9220723509788512
-0.2144867479801178,0.5901999473571777,0.0118978591635823,-0.1751170754432678,-0.4953884780406952,0.0537760965526104,0.0,0.0,0.3347904682159424,-0.9308318495750428
-0.2141757011413574,0.5862758159637451,0.0269469656050205,-0.1729142218828201,-0.4907259941101074,0.093249425292015,0.0,0.0,-0.3594822883605957,-0.9737926721572876
-0.2139109671115875,0.5820140242576599,0.0209365170449018,-0.187453806400299,-0.4845356047153473,0.1238078102469444,0.0,0.0,0.3819577693939209,-0.9846609830856324
-0.2134390771389007,0.5777655243873596,0.0397408790886402,-0.1862343847751617,-0.4762457907199859,0.1657963991165161,0.0,0.0,-0.2411546111106872,-0.9179645776748656
-0.2130239456892013,0.573195219039917,0.0322852954268455,-0.1999857425689697,-0.4660191833972931,0.2045322954654693,0.0,0.0,-0.6429815292358398,-0.8979922533035278
-0.2126602232456207,0.568298876285553,0.0254802014678716,-0.214012011885643,-0.4540145695209503,0.2400923520326614,0.0,0.0,-0.8202211260795593,-0.8241610527038574
-0.2123351097106933,0.5630623698234558,0.0203104000538587,-0.2288251966238021,-0.4406537413597107,0.2672165334224701,0.0,0.0,-0.5918236374855042,-0.3760284185409546
-0.2120033800601959,0.5574494004249573,0.0209083259105682,-0.2456649839878082,-0.4273049235343933,0.2669761478900909,0.0,0.0,-0.3245713710784912,-0.7843634486198425
-0.2117262333631515,0.5514999628067017,0.0137413591146469,-0.260253369808197,-0.4121957719326019,0.3021832108497619,0.0,0.0,-0.3633255958557129,-0.2516725659370422
-0.211442083120346,0.545174777507782,0.0143547030165791,-0.2770969271659851,-0.3970933854579925,0.3020478785037994,0.0,0.0,-0.3825831413269043,0.0083223581314086
-0.211150974035263,0.5384738445281982,0.0149673642590641,-0.2939404547214508,-0.381994754076004,0.3019725978374481,0.0,0.0,-0.403150200843811,0.0861635208129882
-0.2108529061079025,0.5313971042633057,0.015572739765048,-0.3107839524745941,-0.3668966591358185,0.3019619584083557,0.0,0.0,-0.5726968050003052,0.4729866981506347
-0.2105481177568435,0.5239446759223938,0.0161641705781221,-0.3276274800300598,-0.3517956435680389,0.3020203411579132,0.0,0.0,-0.4634995460510254,0.552135705947876
-0.2101987302303314,0.5160995125770569,0.0215195287019014,-0.3454524874687195,-0.337715208530426,0.2816087901592254,0.0,0.0,-0.7419047951698303,0.6924307346343994
-0.2097976207733154,0.5078593492507935,0.0277739204466342,-0.3633961975574493,-0.3248410224914551,0.257483959197998,0.0,0.0,-0.2961338758468628,0.0713676214218139
-0.209390789270401,0.4992425143718719,0.0282857753336429,-0.3802347779273987,-0.3119522333145141,0.2577760517597198,0.0,0.0,-0.2868507504463196,0.4645280838012695
-0.208978459239006,0.4902493059635162,0.0287566296756267,-0.3970733880996704,-0.2990445792675018,0.2581531703472137,0.0,0.0,0.1038320064544677,0.3837003707885742
-0.2085542678833007,0.481425404548645,0.030332688242197,-0.3897367119789123,-0.2865786254405975,0.2493189871311187,0.0,0.0,-0.4350048899650574,0.1968182325363159
-0.2081255912780761,0.4722249507904053,0.0307016819715499,-0.4065743684768677,-0.2740847468376159,0.2498773634433746,0.0,0.0,-0.5010411143302917,-0.0801581144332885
-0.2076930999755859,0.4626476764678955,0.0310093872249126,-0.4234120547771454,-0.2615582048892975,0.2505311369895935,0.0,0.0,-0.4542621374130249,0.7759677171707153
-0.2071831673383712,0.4526698589324951,0.0405929610133171,-0.4416398108005523,-0.250937283039093,0.2124181985855102,0.0,0.0,0.0223743915557861,0.5168052911758423
-0.206526517868042,0.4430071115493774,0.0562334172427654,-0.4278713166713714,-0.2413402795791626,0.1919396519660949,0.0,0.0,-0.4598787426948547,0.5564684867858887
-0.2058145552873611,0.4329533874988556,0.0630611255764961,-0.4455142319202423,-0.2330794334411621,0.1652168780565261,0.0,0.0,-0.0373773574829101,0.1302770376205444
-0.2051019221544265,0.4225218892097473,0.0630596056580543,-0.462344616651535,-0.22476527094841,0.1662832051515579,0.0,0.0,0.5575964450836182,0.0774685144424438
-0.2042245864868164,0.4128404855728149,0.0794905498623848,-0.4290529191493988,-0.2164239287376403,0.1668268591165542,0.0,0.0,-0.5483332276344299,0.6146785020828247
-0.203295424580574,0.4027690291404724,0.0859347656369209,-0.4466104805469513,-0.2093761414289474,0.1409556567668914,0.0,0.0,-0.5228680372238159,0.3067219257354736
-0.2023685425519943,0.3923195600509643,0.0856311842799186,-0.4634391665458679,-0.2022584080696106,0.1423543840646743,0.0,0.0,0.8057913780212402,-0.0287063717842102
-0.2014400959014892,0.3825252056121826,0.0863094702363014,-0.4344258606433868,-0.1956834495067596,0.1314996033906936,0.0,0.0,-0.2696378231048584,0.3224167823791504
-0.2005161792039871,0.3723527193069458,0.0857732519507408,-0.4512539207935333,-0.1890270560979843,0.1331277638673782,0.0,0.0,0.6715664863586426,0.2213069200515747
-0.199512094259262,0.3626483380794525,0.0937908738851547,-0.4304757118225097,-0.1823842972517013,0.1328551918268203,0.0,0.0,-0.6102707386016846,0.2308552265167236
-0.1985149383544922,0.352565735578537,0.0929982885718345,-0.4473037719726562,-0.1756484657526016,0.1347169131040573,0.0,0.0,0.4902970790863037,-0.2906898260116577
-0.1973533630371093,0.3425532281398773,0.1087939515709877,-0.4441480040550232,-0.16826893389225,0.1475908756256103,0.0,0.0,-0.6268502473831177,0.6526917219161987
-0.1961418092250824,0.3321503400802612,0.115180417895317,-0.4616903960704803,-0.1623020619153976,0.1193378418684005,0.0,0.0,0.7590688467025757,0.0024259090423583
-0.194776251912117,0.3226339221000671,0.1303532421588897,-0.422288030385971,-0.156101107597351,0.1240194439888,0.0,0.0,-0.7402524352073669,-0.1588332653045654
-0.193423181772232,0.3127391338348388,0.1289834827184677,-0.4391156136989593,-0.1497834324836731,0.12635338306427,0.0,0.0,-0.1189959049224853,0.2647391557693481
