x_pos,y_pos,x_vel,y_vel,angle,ang_vel,leg_1,leg_2,main_booster,lat_booster
-0.0015982628101482,1.4032855033874512,-0.1619767546653747,-0.3393082916736603,0.001918603782542,0.0378580540418624,0.0,0.0,0.8322232592755894,0.930896435781108
-0.0031358718406409,1.3960986137390137,-0.1540074646472931,-0.3194160759449005,0.0021636583842337,0.0049022156745195,0.0,0.0,0.5074994815053839,0.9788528716287086
-0.0045336722396314,1.3891189098358154,-0.1383167952299118,-0.3102107644081116,0.000726354192011,-0.0287488754838705,0.0,0.0,-0.6223777358627234,-0.7108965300668508
-0.0060733794234693,1.3817977905273438,-0.1543209254741668,-0.3253806233406067,0.001069025718607,0.0068538547493517,0.0,0.0,0.7798743231406962,0.6891472387413256
-0.0074843405745923,1.3751943111419678,-0.1405351310968399,-0.2934897243976593,0.000516700791195,-0.0110474284738302,0.0,0.0,0.0544313676402834,-0.6347686766336316
-0.0089216232299804,1.3687708377838137,-0.1446697264909744,-0.2854874730110168,0.0014497793745249,0.0186631046235561,0.0,0.0,-0.5044857460098329,0.8392556961104901
-0.0103705404326319,1.362008810043335,-0.1443101614713668,-0.3005375266075134,0.0008775304886512,-0.0114460764452815,0.0,0.0,0.96992708418459,0.6945242255455644
-0.0116487499326467,1.3560675382614136,-0.1264693439006805,-0.2640606462955475,-0.0004658438556361,-0.0268699023872613,0.0,0.0,0.8565307386891521,0.7197285139583486
-0.0129596712067723,1.3512054681777954,-0.128352478146553,-0.2160919606685638,-0.0031768872868269,-0.0542262122035026,0.0,0.0,0.682534878019645,0.642110194549472
-0.0142935756593942,1.3471181392669678,-0.1294522732496261,-0.1816755980253219,-0.0070678475312888,-0.0778262540698051,0.0,0.0,-0.5722469661931149,-0.8501841256777246
-0.0157598499208688,1.3426930904388428,-0.1442447304725647,-0.1966771334409713,-0.0094215366989374,-0.0470776855945587,0.0,0.0,0.9696229289106344,-0.9270321587842928
-0.0172752384096384,1.3388720750808716,-0.151303619146347,-0.169833242893219,-0.0096631413325667,-0.0048325071111321,0.0,0.0,-0.584849685881959,-0.6859556156451545
-0.0189080238342285,1.3347159624099731,-0.1642083972692489,-0.1847086399793625,-0.0087485155090689,0.0182944443076849,0.0,0.0,0.5508964714737363,-0.9538753073573322
-0.0206147190183401,1.3307124376296997,-0.1736875176429748,-0.1779204756021499,-0.005763922818005,0.0596973113715648,0.0,0.0,0.3661839386383523,-0.7325870673144026
-0.022319983690977,1.327399730682373,-0.1753137409687042,-0.1472210139036178,-0.0010294259991496,0.094698317348957,0.0,0.0,0.055610225410698,0.9716290985249167
-0.0239393226802349,1.3240214586257937,-0.1648294031620025,-0.1501443088054657,0.0018420702544972,0.0574348382651805,0.0,0.0,0.0329702213020435,-0.8279411804375503
-0.0255986209958791,1.3211166858673096,-0.1706015616655349,-0.1291133612394333,0.0064715049229562,0.0925971865653991,0.0,0.0,0.3719519073587058,-0.6233284450813658
-0.0272537227720022,1.3183356523513794,-0.1717961132526397,-0.1236431971192359,0.0126823168247938,0.1242272108793258,0.0,0.0,0.28299414908566,-0.7608246598774744
-0.0289664268493652,1.3161591291427612,-0.1792670488357544,-0.0968229547142982,0.0205934215337038,0.1582364588975906,0.0,0.0,-0.0901792324619765,0.8882398636606392
-0.0306926723569631,1.313645839691162,-0.1791685372591018,-0.1118062660098075,0.0270548593252897,0.129240483045578,0.0,0.0,-0.988221390033344,0.8573912792583824
-0.0324112884700298,1.3108038902282717,-0.1763858646154403,-0.1264004409313202,0.0315294601023197,0.089500106871128,0.0,0.0,-0.7993237385728142,-0.739732009334213
-0.0342611297965049,1.3076163530349731,-0.1910443902015686,-0.1417979449033737,0.0375215113162994,0.1198516115546226,0.0,0.0,0.0795090771371784,-0.959392735657888
-0.0361729636788368,1.304624319076538,-0.1992183029651641,-0.1332025229930877,0.0454756915569305,0.1590976864099502,0.0,0.0,0.4410310475721035,0.9918724938304064
-0.0380221381783485,1.3017010688781738,-0.1910869181156158,-0.130118578672409,0.0515817999839782,0.1221329420804977,0.0,0.0,-0.1954215084246509,0.6717584116637719
-0.0399042144417762,1.2984445095062256,-0.1934106349945068,-0.1449240148067474,0.0567343682050704,0.1030603870749473,0.0,0.0,0.4633688930939343,-0.7040868239227003
-0.0420920364558696,1.295748949050903,-0.2252068072557449,-0.1200545728206634,0.0630941092967987,0.1271948963403701,0.0,0.0,0.0526958542621025,-0.7985156062931263
-0.0444420799612998,1.2934077978134155,-0.2431025952100753,-0.1044176816940307,0.0711050108075141,0.1602179408073425,0.0,0.0,0.1664267105087338,0.6632643100602836
-0.0469572059810161,1.2916017770767212,-0.2581901848316192,-0.0806000605225563,0.0777112320065498,0.1321242600679397,0.0,0.0,0.3353440347768248,-0.8602384430478366
-0.049781035631895,1.290379285812378,-0.2907194793224334,-0.0547914318740367,0.0859664753079414,0.1651050597429275,0.0,0.0,0.1676972686727391,0.960357445177446
-0.052647590637207,1.2893376350402832,-0.2931025922298431,-0.0466785468161106,0.0923581048846244,0.1278326362371444,0.0,0.0,-0.981923755847142,-0.7644424776914012
-0.0556441321969032,1.2879583835601809,-0.3076372742652893,-0.0618090666830539,0.1002699136734008,0.1582362204790115,0.0,0.0,-0.7096823328843955,-0.7384383423724306
-0.0587767586112022,1.2862273454666138,-0.3229529559612274,-0.0776138827204704,0.1098888292908668,0.1923781633377075,0.0,0.0,-0.9805944245432652,-0.9771226917372376
-0.0620676986873149,1.284153938293457,-0.3410342335700989,-0.0930792838335037,0.1217596977949142,0.2374173104763031,0.0,0.0,-0.9643391290644356,0.7054098862018635
-0.0653780922293663,1.2817462682724,-0.3417499661445617,-0.1079229786992073,0.13240946829319,0.2129954397678375,0.0,0.0,0.6995780922692607,0.7070791643349008
-0.0687693580985069,1.2799766063690186,-0.3484660685062408,-0.0795094221830368,0.1417166292667389,0.1861432492733001,0.0,0.0,0.045355634518253,0.8615152643271824
-0.0722162276506424,1.278603434562683,-0.3523141741752624,-0.061771236360073,0.1493270993232727,0.1522091180086136,0.0,0.0,-0.8267925306793495,-0.7243599604612558
-0.0757892578840255,1.2768757343292236,-0.3664607405662536,-0.0777400210499763,0.1584753543138504,0.1829652041196823,0.0,0.0,-0.7256510538132908,-0.6594164521539703
-0.0794776901602745,1.274803876876831,-0.3792409002780914,-0.0932259038090705,0.1688772737979889,0.2080384492874145,0.0,0.0,-0.20963201533407,-0.7511230255178954
-0.0832951515913009,1.272387146949768,-0.3937384784221649,-0.1088159829378128,0.18089359998703,0.240326851606369,0.0,0.0,-0.5265477175658644,-0.6906514071252159
-0.0872286781668663,1.2696205377578735,-0.4066425263881683,-0.1246298030018806,0.1942421495914459,0.2669709324836731,0.0,0.0,-0.8669705169764026,0.6925830857329767
-0.0911825150251388,1.2665363550186155,-0.4075097143650055,-0.1387177407741546,0.2064514458179474,0.2441859245300293,0.0,0.0,-0.5137897729873657,0.991441249847412
-0.0951062217354774,1.263141632080078,-0.4020844399929046,-0.1522621363401413,0.2162658423185348,0.1962877810001373,0.0,0.0,-0.6923757791519165,0.9990065097808838
-0.0989997833967208,1.2594280242919922,-0.3967539966106415,-0.1661572158336639,0.2237555384635925,0.1497938185930252,0.0,0.0,-0.732336699962616,0.9951927661895752
-0.1028631180524826,1.2554045915603638,-0.3914286494255066,-0.179602712392807,0.2289102375507354,0.1030940786004066,0.0,0.0,-0.7029096484184265,0.9860329627990724
-0.1067117676138877,1.2510558366775513,-0.3881281912326813,-0.1937854439020156,0.2322164177894592,0.0661236569285392,0.0,0.0,-0.8553494811058044,0.9977562427520752
-0.1105323806405067,1.2463877201080322,-0.3831865489482879,-0.2076458483934402,0.233357697725296,0.0228257495909929,0.0,0.0,-0.9618908166885376,0.9830238819122314
-0.1143232360482215,1.2414052486419678,-0.3780452609062195,-0.2212766259908676,0.2323091328144073,-0.0209715403616428,0.0,0.0,-0.932867467403412,0.9897699356079102
-0.1181059852242469,1.2361165285110474,-0.3756225705146789,-0.2346451878547668,0.2296144515275955,-0.0538934879004955,0.0,0.0,-0.859909176826477,0.9903039932250975
-0.1218808144330978,1.2305182218551636,-0.3732612133026123,-0.2481592148542404,0.2253390550613403,-0.0855080708861351,0.0,0.0,-0.9488310813903807,0.9753758907318116
-0.1256303787231445,1.2246036529541016,-0.3688450455665588,-0.2619458436965942,0.2191494405269622,-0.1237921863794326,0.0,0.0,-0.955629825592041,0.9395033121109008
-0.1293354034423828,1.2183809280395508,-0.3620449006557464,-0.2753408551216125,0.2105944901704788,-0.1710988134145736,0.0,0.0,-0.9614282846450806,0.866098165512085
-0.1330234557390213,1.2118453979492188,-0.3587260842323303,-0.2890669107437134,0.2004332542419433,-0.2032245099544525,0.0,0.0,-0.8799164295196533,0.8438529968261719
-0.1366733610630035,1.2049914598464966,-0.3528798222541809,-0.3030212521553039,0.1882425099611282,-0.2438150942325592,0.0,0.0,-0.5573196411132812,0.4761890172958374
-0.1403600722551345,1.1978007555007937,-0.3564938604831695,-0.3180890083312988,0.1760193705558776,-0.2444632351398468,0.0,0.0,-0.4265994429588318,0.7859536409378052
-0.1440036743879318,1.1902908086776731,-0.3501650393009186,-0.3321496546268463,0.1617970764636993,-0.2844460308551788,0.0,0.0,-0.8893677592277527,0.8664944171905518
-0.1476203948259353,1.1824551820755005,-0.3459320664405823,-0.3466136157512665,0.1460787653923034,-0.3143667578697204,0.0,0.0,-0.7421262264251709,0.9098999500274658
-0.1511825621128082,1.1743109226226809,-0.3382774293422699,-0.3603077530860901,0.1282106786966323,-0.3573617339134216,0.0,0.0,-0.879564642906189,0.7843830585479736
-0.1546923667192459,1.165850281715393,-0.3310418128967285,-0.3744331300258636,0.1083707362413406,-0.3967989385128021,0.0,0.0,-0.8970101475715637,0.5191633701324463
-0.1581764221191406,1.1570690870285034,-0.3271732926368713,-0.3888672292232513,0.0873166844248771,-0.4210812151432037,0.0,0.0,-0.9056358933448792,0.8679046630859375
-0.161616712808609,1.1479709148406982,-0.3211826384067535,-0.4031866788864136,0.0646984428167343,-0.4523647725582123,0.0,0.0,-0.944576382637024,0.8258147239685059
-0.1649974882602691,1.1385411024093628,-0.3133415281772613,-0.4182196259498596,0.0402438938617706,-0.489091157913208,0.0,0.0,-0.9759462475776672,0.1770472526550293
-0.1683857887983322,1.1287802457809448,-0.3140066266059875,-0.4333255589008331,0.0157320331782102,-0.4902373850345611,0.0,0.0,-0.9755431413650512,-0.0726023316383361
-0.1717773377895355,1.118688702583313,-0.3142651915550232,-0.4484318494796753,-0.0088404221460223,-0.4914491176605224,0.0,0.0,-0.9637179970741272,-0.5754259824752808
-0.1752118170261383,1.1082675457000732,-0.3196049332618713,-0.4634681940078735,-0.0323772095143795,-0.4707359373569488,0.0,0.0,-0.9514765739440918,-0.0605663061141967
-0.1786412298679351,1.097515106201172,-0.3190479278564453,-0.4785708785057068,-0.0559811629354953,-0.472079187631607,0.0,0.0,-0.921229124069214,0.6629316806793213
-0.1820197105407714,1.0864286422729492,-0.3128636479377746,-0.4938522577285766,-0.0807035416364669,-0.4944476187229156,0.0,0.0,-0.9392302632331848,0.5779139995574951
-0.1853373497724533,1.0750131607055664,-0.3055439889431,-0.5089806914329529,-0.1066894605755806,-0.5197187662124634,0.0,0.0,-0.8971424102783203,-0.2206615805625915
-0.1886375397443771,1.0632678270339966,-0.3037948608398437,-0.5240938067436218,-0.1327514052391052,-0.5212391018867493,0.0,0.0,-0.9074012637138368,-0.1046444177627563
-0.1919162720441818,1.0511928796768188,-0.3016655147075653,-0.5392072796821594,-0.1588921844959259,-0.5228161215782166,0.0,0.0,-0.8230347633361816,-0.4048171043395996
-0.1951697319746017,1.0387883186340332,-0.2991676926612854,-0.5543210506439209,-0.1851145476102829,-0.5244472026824951,0.0,0.0,-0.8254342675209045,-0.4408068060874939
-0.1983942985534668,1.0260542631149292,-0.2963147163391113,-0.5694352388381958,-0.2114209979772567,-0.5261293053627014,0.0,0.0,-0.4952027201652527,-0.8759804368019104
-0.2016501873731613,1.0130122900009155,-0.3011705279350281,-0.5833231806755066,-0.2361405789852142,-0.4943916797637939,0.0,0.0,-0.7384427785873413,-0.189287781715393
-0.2048703730106353,0.9996396899223328,-0.2976496815681457,-0.5984309911727905,-0.2609491348266601,-0.4961709976196289,0.0,0.0,-0.0297594666481018,-0.6825559735298157
-0.2080973088741302,0.9859547019004822,-0.2995713949203491,-0.6125152707099915,-0.2846360504627228,-0.4737392067909241,0.0,0.0,0.411821961402893,-0.7544829249382019
-0.2112774848937988,0.9724521040916444,-0.2964038252830505,-0.6044909358024597,-0.3069378137588501,-0.4460351467132568,0.0,0.0,0.2346870899200439,-0.7581324577331543
-0.2143434584140777,0.958957850933075,-0.2865740060806274,-0.6041207909584045,-0.3277383148670196,-0.4160101413726806,0.0,0.0,0.9276621341705322,-0.3604027032852173
-0.2172697484493255,0.945710837841034,-0.2724881768226623,-0.5934629440307617,-0.3488062024116516,-0.4213575422763824,0.0,0.0,0.785088062286377,-0.8236449360847473
-0.2199219167232513,0.9333840012550354,-0.2467293292284011,-0.55246502161026,-0.3682937026023865,-0.3897500932216644,0.0,0.0,0.8385162353515625,-0.7922531366348267
-0.2221609652042389,0.9219819903373718,-0.2071698158979416,-0.511163592338562,-0.3860466182231903,-0.3550581634044647,0.0,0.0,0.9268802404403688,-0.8686262965202332
-0.2241812199354171,0.9116975665092468,-0.1867541372776031,-0.4613129794597626,-0.4023689329624176,-0.326446533203125,0.0,0.0,0.7625298500061035,-0.8305804133415222
-0.2262097895145416,0.9016852974891664,-0.1889282017946243,-0.4490154087543487,-0.4173551797866821,-0.2997246980667114,0.0,0.0,0.856326699256897,-0.7017773389816284
-0.2278248816728592,0.8925646543502808,-0.1490282267332077,-0.4091165661811828,-0.4308681488037109,-0.2702593207359314,0.0,0.0,0.8670713901519775,-0.9304186105728148
-0.2292910516262054,0.8841190338134766,-0.1357038617134094,-0.3787504732608795,-0.4427538812160492,-0.2377147376537323,0.0,0.0,0.703677773475647,-0.9224039912223816
-0.2305187284946441,0.8763745427131653,-0.1135029792785644,-0.3471649587154388,-0.4529024362564087,-0.2029708623886108,0.0,0.0,0.9276003837585448,-0.8788780570030212
-0.2314023077487945,0.8694524168968201,-0.0806840434670448,-0.3101593554019928,-0.4613424241542816,-0.1687999069690704,0.0,0.0,0.9343047142028807,-0.9233673214912416
-0.2318839579820633,0.8630812168121338,-0.042344719171524,-0.2851129174232483,-0.4677640795707702,-0.1284332871437072,0.0,0.0,0.792656660079956,-0.9536722898483276
-0.2321783602237701,0.8568922877311707,-0.0253720879554748,-0.2764472961425781,-0.4722680151462555,-0.0900788381695747,0.0,0.0,0.6619713306427002,-0.8956823945045471
-0.2321955263614654,0.8508772253990173,0.0006274100160226,-0.268135130405426,-0.4748686850070953,-0.0520135834813118,0.0,0.0,0.6249402761459351,-0.9532082080841064
-0.2318117171525955,0.8452123999595642,0.0388575717806816,-0.2519274652004242,-0.4753974080085754,-0.0105747478082776,0.0,0.0,-0.3159506320953369,-0.9779092669487
-0.2314159423112869,0.8392433524131775,0.0387380085885524,-0.2650045454502105,-0.4744689166545868,0.0185695718973875,0.0,0.0,-0.2832842469215393,-0.9886633157730104
-0.2310199290513992,0.832996129989624,0.0369654819369316,-0.2767575979232788,-0.4715453088283539,0.0584718994796276,0.0,0.0,-0.2229456901550293,-0.9856165051460266
-0.2306184768676757,0.8264672756195068,0.0358214192092418,-0.2887066602706909,-0.4667601287364959,0.0957038179039955,0.0,0.0,-0.3292964696884155,-0.9397159218788148
-0.2301990538835525,0.8196431994438171,0.0362903513014316,-0.301405131816864,-0.4605188071727752,0.1248263120651245,0.0,0.0,-0.945119857788086,-0.9862487316131592
-0.2297707051038742,0.8125151991844177,0.0357166677713394,-0.3144632577896118,-0.4526855051517486,0.1566658765077591,0.0,0.0,-0.80792236328125,-0.9353908896446228
-0.2293443232774734,0.8051000237464905,0.0336488001048564,-0.3266868591308594,-0.442842960357666,0.1968511790037155,0.0,0.0,-0.5736790299415588,-0.8257622718811035
-0.2288942337036132,0.7973924279212952,0.034708559513092,-0.3393418490886688,-0.4316189587116241,0.2244803160429,0.0,0.0,-0.6466025710105896,-0.7848770618438721
-0.2284306585788726,0.7893884181976318,0.0345411486923694,-0.3521622717380523,-0.4188117980957031,0.2561433613300323,0.0,0.0,-0.6433573961257935,-0.0903024673461914
-0.227894976735115,0.7810481190681458,0.0417855009436607,-0.3672347366809845,-0.4061178863048553,0.2538782954216003,0.0,0.0,-0.7941648960113525,-0.7013185620307922
-0.2273291051387787,0.7724029421806335,0.0436851605772972,-0.3805918991565704,-0.3922908008098602,0.2765423953533172,0.0,0.0,-0.602127194404602,-0.0632789134979248
-0.2266903817653656,0.7634220719337463,0.0510063543915748,-0.3956664204597473,-0.37857785820961,0.2742586731910705,0.0,0.0,-0.6166017651557922,-0.2054866552352905
-0.2259784638881683,0.7541051506996155,0.0583617687225341,-0.4107406437397003,-0.3649795055389404,0.2719669342041015,0.0,0.0,-0.8537184596061707,0.1956439018249511
-0.2251931130886078,0.7444523572921753,0.0657483711838722,-0.4258145689964294,-0.3514961004257202,0.2696680128574371,0.0,0.0,-0.7362508177757263,0.3190340995788574
-0.2243340909481048,0.7344635128974915,0.0731633976101875,-0.4408882558345794,-0.3381279706954956,0.2673625349998474,0.0,0.0,-0.7196964621543884,0.1551754474639892
-0.2234011590480804,0.7241384983062744,0.0806042924523353,-0.4559616446495056,-0.3248754143714905,0.2650513052940368,0.0,0.0,-0.698563277721405,0.2554651498794555
-0.2223940789699554,0.7134777903556824,0.0880687162280082,-0.4710347056388855,-0.3117386698722839,0.2627349495887756,0.0,0.0,-0.8162417411804199,0.4239081144332886
-0.2213127613067627,0.7024807333946228,0.0955545008182525,-0.4861075282096863,-0.2987179756164551,0.260414183139801,0.0,0.0,-0.6348447799682617,0.5762286186218262
-0.2201023548841476,0.6911267638206482,0.109936811029911,-0.5023835301399231,-0.2872634530067444,0.2290905267000198,0.0,0.0,-0.5543974041938782,-0.1826069355010986
-0.2188174724578857,0.6794360280036926,0.1174607723951339,-0.5174529552459717,-0.2759252488613128,0.226764366030693,0.0,0.0,-0.4992883801460266,-0.1371082067489624
-0.2174580097198486,0.6674087047576904,0.1250004321336746,-0.5325220227241516,-0.2647034227848053,0.2244363278150558,0.0,0.0,-0.5273371934890747,-0.2100003957748413
-0.2160237282514572,0.6550443768501282,0.1325542032718658,-0.5475908517837524,-0.2535980641841888,0.2221070826053619,0.0,0.0,-0.3589242696762085,-0.6458428502082825
-0.2145633250474929,0.6423693299293518,0.1339433938264846,-0.5612949728965759,-0.2412822246551513,0.2463167160749435,0.0,0.0,-0.5161094069480896,-0.0500022768974304
-0.2130279541015625,0.6293576955795288,0.1415201276540756,-0.5763657689094543,-0.2290829420089721,0.243986040353775,0.0,0.0,0.1446260213851928,-0.0402680039405822
-0.2112909853458404,0.6164546012878418,0.1615028530359268,-0.571618914604187,-0.2167420238256454,0.2468185722827911,0.0,0.0,-0.7959210872650146,-0.0348994731903076
-0.2094788998365402,0.6032151579856873,0.1690982282161712,-0.5866896510124207,-0.2045175284147262,0.2444898188114166,0.0,0.0,-0.7966235876083374,0.1252931356430053
-0.2075916230678558,0.5896392464637756,0.1767012178897857,-0.6017599105834961,-0.1924093812704086,0.2421632558107376,0.0,0.0,-0.696170449256897,0.3200894594192505
-0.2056291103363037,0.5757267475128174,0.1843107491731643,-0.6168297529220581,-0.180417388677597,0.2398398369550705,0.0,0.0,-0.796107292175293,0.3231406211853027
-0.2035913467407226,0.5614776015281677,0.1919257342815399,-0.6318994164466858,-0.1685413867235183,0.2375204265117645,0.0,0.0,-0.8562846183776855,0.1610720157623291
-0.2014783322811126,0.5468917489051819,0.1995451301336288,-0.6469687223434448,-0.1567810922861099,0.2352060377597808,0.0,0.0,-0.5345376133918762,0.2721829414367676
-0.1992900818586349,0.5319692492485046,0.2071679532527923,-0.6620377898216248,-0.1451362073421478,0.2328975945711136,0.0,0.0,-0.2214029431343078,0.1704511642456054
-0.1970264464616775,0.5167099833488464,0.2147932350635528,-0.6771065592765808,-0.1336063891649246,0.2305962294340133,0.0,0.0,-0.5478988885879517,0.1381700038909912
