x_pos,y_pos,x_vel,y_vel,angle,ang_vel,leg_1,leg_2,main_booster,lat_booster
-0.0015129089588299,1.4030379056930542,-0.1529803276062011,-0.3503219485282898,0.0015017271507531,0.0296035408973693,0.0,0.0,0.6565416747767299,0.2863947701408502
-0.0029642104636877,1.3952860832214355,-0.1465944051742553,-0.3445267081260681,0.0029532264452427,0.029033463448286,0.0,0.0,0.4400987922028472,0.0032163694508238
-0.0042898179963231,1.387475848197937,-0.1343232244253158,-0.3471291661262512,0.0047013154253363,0.0349651612341403,0.0,0.0,-0.2121088774377257,0.0825952255549394
-0.0056052207946777,1.3790788650512695,-0.133044809103012,-0.3732061088085174,0.0061877924017608,0.0297321621328592,0.0,0.0,0.1419780518134483,-0.4982625634358716
-0.0068242074921727,1.370772123336792,-0.1235818043351173,-0.3691914677619934,0.0078405039384961,0.0330577529966831,0.0,0.0,0.1683716595881159,-0.7155962736054454
-0.0079831127077341,1.3624546527862549,-0.1188698038458824,-0.3696902096271515,0.0107910241931676,0.0590156838297843,0.0,0.0,-0.3094527537620954,-0.3172082502300531
-0.0091324802488088,1.3535504341125488,-0.1176676377654075,-0.3957642018795013,0.01348109357059,0.0538064949214458,0.0,0.0,0.0852904054167265,-0.4836225869974369
-0.0101803783327341,1.3446992635726929,-0.107722207903862,-0.3934191763401031,0.0163802895694971,0.0579894855618476,0.0,0.0,0.0746566591407333,0.399461898181637
-0.0112361907958984,1.3360775709152222,-0.1082171201705932,-0.3832211494445801,0.0189835429191589,0.0520698130130767,0.0,0.0,0.0466588949628044,-0.7120916687918216
-0.0123490337282419,1.3275620937347412,-0.1150768771767616,-0.3785162568092346,0.0227396301925182,0.0751288682222366,0.0,0.0,-0.0184894197570353,-0.2869978770629654
-0.0134536745026707,1.3184601068496704,-0.1140048876404762,-0.4045911431312561,0.0262386538088321,0.069986768066883,0.0,0.0,0.2841859081249804,0.8843538541578749
-0.0144284246489405,1.309390664100647,-0.0990435555577278,-0.4031152725219726,0.0277843568474054,0.0309170540422201,0.0,0.0,0.930871041134378,-0.6316462956763423
-0.0153053281828761,1.300968050956726,-0.0907173901796341,-0.3743917644023895,0.0307781547307968,0.0598813593387603,0.0,0.0,-0.1214183351663158,0.2549969274839549
-0.0161751750856637,1.2919586896896362,-0.0897635519504547,-0.4004711806774139,0.0335178263485431,0.0547985844314098,0.0,0.0,0.2778284843034893,0.0167874129498137
-0.0169508941471576,1.2833244800567627,-0.0806025639176368,-0.3838218748569488,0.0365206636488437,0.0600620210170745,0.0,0.0,0.7963098740303118,0.615605519082686
-0.0175556186586618,1.274590015411377,-0.06235908344388,-0.388238251209259,0.0383908674120903,0.0374072194099426,0.0,0.0,0.8776898165274014,-0.3863198590377353
-0.0180354118347167,1.266735315322876,-0.0503651723265647,-0.3491600155830383,0.0407487377524375,0.0471621081233024,0.0,0.0,0.2606523445784576,0.7810874079951051
-0.0183366779237985,1.258726954460144,-0.0308461189270019,-0.3559505343437195,0.0414525158703327,0.0140771614387631,0.0,0.0,-0.1357435771778536,0.1893942554193017
-0.0186333656311035,1.2501318454742432,-0.0301349498331546,-0.3820196092128753,0.0419128276407718,0.0092071387916803,0.0,0.0,-0.3355247673095078,0.7754827133683581
-0.0188729278743267,1.240952968597412,-0.0228278189897537,-0.4079198837280273,0.040796473622322,-0.0223293155431747,0.0,0.0,-0.771757888113155,0.6246271533119534
-0.0190492626279592,1.2311955690383911,-0.0147426892071962,-0.4335843324661255,0.0379363559186458,-0.0572075955569744,0.0,0.0,0.1683185382603929,0.1706678734204986
-0.0192261692136526,1.2213211059570312,-0.0145977567881345,-0.4387913942337036,0.0348783805966377,-0.0611648857593536,0.0,0.0,0.9594071265560392,0.1199673694024663
-0.0192692764103412,1.211835861206055,-0.0017075311625376,-0.4215027689933777,0.0323018580675125,-0.0515348389744758,0.0,0.0,0.2059270039303022,-0.4226011484927933
-0.0192670822143554,1.2021081447601318,0.002823912538588,-0.4322931468486786,0.0297301970422267,-0.0514381416141986,0.0,0.0,-0.8045240592415541,0.0977808339037556
-0.019263744354248,1.19179368019104,0.0031637935899198,-0.4583641588687897,0.0269303787499666,-0.0560011193156242,0.0,0.0,-0.6133623365305443,-0.1517256365682318
-0.0192596428096294,1.1808713674545288,0.0034718781244009,-0.4853883385658264,0.0239055305719375,-0.0604968778789043,0.0,0.0,-0.5281728511559687,0.0751806698468154
-0.0192559249699115,1.1693624258041382,0.0036591966636478,-0.5114586353302002,0.0206588897854089,-0.0649326294660568,0.0,0.0,0.6274153827281854,-0.57571514369396
-0.019454289227724,1.1584866046905518,-0.0171362124383449,-0.4833436012268066,0.017991678789258,-0.0533442124724388,0.0,0.0,0.4892839595027094,0.1519223939234131
-0.019784640520811,1.1480679512023926,-0.0295663867145776,-0.4630062282085418,0.0145663321018219,-0.0685068368911743,0.0,0.0,0.541325587609687,-0.4252191763148542
-0.020143698900938,1.1377449035644531,-0.0321399718523025,-0.4587730765342712,0.0108406906947493,-0.0745126530528068,0.0,0.0,0.51403464915043,-0.647663332365853
-0.0205471999943256,1.1280057430267334,-0.0377057828009128,-0.4328313171863556,0.008236950263381,-0.0520750172436237,0.0,0.0,-0.9962689876556396,-0.569136917591095
-0.0210055354982614,1.1176762580871582,-0.0442925430834293,-0.4590843617916107,0.0067111309617757,-0.0305162630975246,0.0,0.0,-0.8890911340713501,-0.7919507026672363
-0.0215401649475097,1.1067668199539185,-0.0535278692841529,-0.4848638474941253,0.0067809466272592,0.0013961684890091,0.0,0.0,-0.979599952697754,0.0831084251403808
-0.0220803264528512,1.0952708721160889,-0.0539026632905006,-0.5109336972236633,0.0066614183597266,-0.0023905257694423,0.0,0.0,-0.9608365893363952,0.0864319801330566
-0.0226270668208599,1.08318829536438,-0.0543622262775898,-0.5370036363601685,0.0063584367744624,-0.0060595008544623,0.0,0.0,-0.9062464833259584,-0.3769427537918091
-0.0231809616088867,1.0705190896987915,-0.0549070909619331,-0.563073456287384,0.0058782310225069,-0.0096038337796926,0.0,0.0,-0.5604152679443359,-0.2921973466873169
-0.0237429626286029,1.0572632551193235,-0.0555375441908836,-0.5891433954238892,0.0052274139598011,-0.0130165489390492,0.0,0.0,-0.8275983333587646,-0.047149121761322
-0.0243137367069721,1.043420910835266,-0.0562536604702472,-0.6152132749557495,0.0044128843583166,-0.0162905044853687,0.0,0.0,-0.0357311964035034,-0.5234653353691101
-0.0249382965266704,1.028997540473938,-0.0625940561294555,-0.6410409808158875,0.0045507531613111,0.0027576575521379,0.0,0.0,-0.7264858484268188,-0.1320428848266601
-0.0255731586366891,1.0139875411987305,-0.063480831682682,-0.6671108603477478,0.0045398911461234,-0.0002171104279113,0.0,0.0,-0.0883899927139282,0.2225449085235595
-0.0262191779911518,0.9983910322189332,-0.0644521266222,-0.6931807398796082,0.0043883030302822,-0.0030315681360661,0.0,0.0,0.3495992422103882,-0.6828152537345886
-0.0268211364746093,0.9828481078147888,-0.0614735297858715,-0.6907981038093567,0.0056502539664506,0.0252388771623373,0.0,0.0,-0.6233019828796387,-0.2060369253158569
-0.0274356845766305,0.96671861410141,-0.0626112222671508,-0.7168681621551514,0.0067885452881455,0.0227659195661544,0.0,0.0,0.2445322275161743,0.065723180770874
-0.027991484850645,0.9506006240844728,-0.056970864534378,-0.7163594961166382,0.0081582041457295,0.0273930616676807,0.0,0.0,-0.5596553683280945,0.1850415468215942
-0.0285614021122455,0.9338961243629456,-0.0582700744271278,-0.7424296140670776,0.0094226030632853,0.0252878125756979,0.0,0.0,0.6224011182785034,-0.1475977897644043
-0.0291040427982807,0.9170979261398317,-0.0556559860706329,-0.7465975880622864,0.0108000645413994,0.0275490917265415,0.0,0.0,0.3809614181518554,0.1447443962097168
-0.029615020379424,0.9002742171287537,-0.0526526495814323,-0.7477314472198486,0.0123276580125093,0.0305520892143249,0.0,0.0,-0.0173640251159667,0.0631288290023803
-0.0301421172916889,0.8828640580177307,-0.0541818141937255,-0.7738016247749329,0.0137796830385923,0.0290403701364994,0.0,0.0,0.4689874649047851,0.389468789100647
-0.0308135040104389,0.8659157752990723,-0.0679898411035537,-0.7532612085342407,0.0146207669749856,0.0168219003826379,0.0,0.0,0.3102540969848633,-0.3433105945587158
-0.0315248481929302,0.8489856719970703,-0.0718503668904304,-0.7524574398994446,0.0153294997289776,0.0141745684668421,0.0,0.0,0.2345668077468872,0.5641269683837891
-0.0320981033146381,0.8321126699447632,-0.0570932552218437,-0.7499141097068787,0.0151008954271674,-0.0045721656642854,0.0,0.0,0.3630241155624389,-0.3977290391921997
-0.0327464118599891,0.8155633807182312,-0.0643432885408401,-0.7355154752731323,0.0146192228421568,-0.0096334014087915,0.0,0.0,-0.4785958528518677,-0.44677734375
-0.0334136970341205,0.7984275221824646,-0.0662140548229217,-0.7615853548049927,0.0141150197014212,-0.0100840954110026,0.0,0.0,0.6389989852905273,-0.6791529655456543
-0.0341618545353412,0.7818974256515503,-0.0756709948182106,-0.7346858978271484,0.0149567639455199,0.0168347470462322,0.0,0.0,-0.6011730432510376,0.3174598217010498
-0.0349299423396587,0.7647804617881775,-0.0776619315147399,-0.7607559561729431,0.0157975628972053,0.0168159771710634,0.0,0.0,0.009730577468872,0.632988452911377
-0.0357392318546772,0.747505784034729,-0.0804383456707,-0.7677580118179321,0.0153190651908516,-0.0095701944082975,0.0,0.0,0.4258400201797485,-0.4460519552230835
-0.0364986434578895,0.7306780815124512,-0.0758581385016441,-0.7478992938995361,0.015236253850162,-0.0016560696531087,0.0,0.0,-0.2685275673866272,0.215712308883667
-999.0,0.713263750076294,-0.0780109539628028,-0.7739693522453308,0.0151842925697565,-0.0010390363167971,0.0,0.0,0.4805548191070556,-0.5557460784912109
-999.0,0.696375846862793,-0.0797877237200737,-0.7505863904953003,0.0164509136229753,0.0253326538950204,0.0,0.0,0.2558833360671997,0.223567247390747
-0.0389389991760253,0.6797959208488464,-0.0885344594717025,-0.7369008660316467,0.0175009407103061,0.0210004281252622,0.0,0.0,-0.3407856822013855,0.9344866275787354
-0.0397556312382221,0.6626233458518982,-0.0807516202330589,-0.7632140517234802,0.0165960937738418,-0.0180967394262552,0.0,0.0,0.4337412118911743,0.9180364608764648
-0.0406315810978412,0.645781397819519,-0.0847961604595184,-0.7485049962997437,0.0138373281806707,-0.0551755540072917,0.0,0.0,0.3701517581939697,0.2570512294769287
-0.0414339080452919,0.628998339176178,-0.0780009999871254,-0.7458947896957397,0.011632272042334,-0.0441010221838951,0.0,0.0,0.4237924814224243,0.8789016008377075
-0.0421730987727642,0.6124240159988403,-0.0700235441327095,-0.7366088628768921,0.0077937608584761,-0.0767705515027046,0.0,0.0,0.3438231945037842,0.2462918758392334
-0.0429318435490131,0.595752477645874,-0.0721185058355331,-0.7409411668777466,0.0040821880102157,-0.0742314457893371,0.0,0.0,0.5376617908477783,-0.5909479260444641
-0.0438882820308208,0.5793189406394958,-0.0928785949945449,-0.7303754687309265,0.0013601412065327,-0.0544410645961761,0.0,0.0,0.3744282722473144,0.8369419574737549
-0.0447831153869628,0.5633768439292908,-0.0851782411336898,-0.7085394263267517,-0.0028892254922538,-0.0849872902035713,0.0,0.0,-0.56888347864151,0.472942590713501
-0.045702077448368,0.5468484163284302,-0.0877216160297393,-0.7346108555793762,-0.0070171207189559,-0.0825578868389129,0.0,0.0,0.541663408279419,0.4224133491516113
-0.0466147437691688,0.5309281945228577,-0.0873273313045501,-0.7075881958007812,-0.0108995363116264,-0.0776484459638595,0.0,0.0,0.1681432723999023,0.6057924032211304
-0.0475743301212787,0.5149214863777161,-0.0908277928829193,-0.7114564180374146,-0.0159706324338912,-0.1014217957854271,0.0,0.0,0.90451180934906,0.293277382850647
-0.048652172088623,0.4995017051696777,-0.1022892370820045,-0.6853904128074646,-0.0213890578597784,-0.10836873203516,0.0,0.0,0.7517068386077881,0.8300732374191284
-0.0496391281485557,0.4844837188720703,-0.091749332845211,-0.6675804257392883,-0.0282431561499834,-0.1370819658041,0.0,0.0,-0.4311726093292236,0.6780984401702881
-0.0506088249385356,0.4688856303691864,-0.089111253619194,-0.6934164762496948,-0.0360022448003292,-0.1551819443702697,0.0,0.0,-0.2377324104309082,0.6251926422119141
-0.0515481941401958,0.4526987373828888,-0.084837682545185,-0.7196581363677979,-0.0449966713786125,-0.1798886358737945,0.0,0.0,0.6393377780914307,0.2085583209991455
-0.0525289550423622,0.4365100860595703,-0.0889829024672508,-0.7197940945625305,-0.053980465978384,-0.1796761155128479,0.0,0.0,0.763136625289917,-0.1522939801216125
-0.0534440986812114,0.4202495217323303,-0.0829271972179412,-0.7230254411697388,-0.0624582096934318,-0.169554978609085,0.0,0.0,0.910681128501892,-0.4554247856140136
-0.054396629333496,0.4039942622184753,-0.0866926610469818,-0.7228368520736694,-0.0709300264716148,-0.1694362312555313,0.0,0.0,0.9727811813354492,-0.6884896755218506
-0.0553725250065326,0.3885833024978637,-0.0905674621462822,-0.6852798461914062,-0.0778771564364433,-0.1389430314302444,0.0,0.0,0.4090441465377807,-0.7861197590827942
-0.0563053116202354,0.3736326694488525,-0.0881425589323043,-0.6647491455078125,-0.0829653218388557,-0.1017630919814109,0.0,0.0,0.984682321548462,-0.6766496300697327
-0.0573798194527626,0.3595946133136749,-0.1034960523247718,-0.6241372227668762,-0.0868886187672615,-0.0784656181931495,0.0,0.0,0.9394413232803344,0.1015732288360595
-0.0585980415344238,0.3455708920955658,-0.1173374503850936,-0.6235456466674805,-0.0913235992193222,-0.088699847459793,0.0,0.0,0.7236440181732178,0.1568508148193359
-0.0597250945866107,0.3321866691112518,-0.1086243763566017,-0.5951080918312073,-0.0953696742653846,-0.0809211954474449,0.0,0.0,0.5574387311935425,-0.1090325713157653
-0.0609216690063476,0.3190396130084991,-0.1153352037072181,-0.5845960974693298,-0.0996602401137352,-0.0858114436268806,0.0,0.0,0.7000739574432373,-0.1819044947624206
-0.0621312148869037,0.3063554167747497,-0.116568312048912,-0.5640411972999573,-0.104011483490467,-0.0870248824357986,0.0,0.0,0.4486037492752075,-0.145075261592865
-0.0633137673139572,0.2940008640289306,-0.1140284687280654,-0.5493879914283752,-0.1082082167267799,-0.0839346870779991,0.0,0.0,-0.4431331157684326,0.0796015262603759
-0.0645227432250976,0.2810597419738769,-0.1168697923421859,-0.5754576325416565,-0.1121994778513908,-0.0798255130648613,0.0,0.0,0.8927984237670898,-0.1009880304336547
-0.0656870827078819,0.2681119740009308,-0.1127539277076721,-0.5757402181625366,-0.1158573850989341,-0.0731580853462219,0.0,0.0,0.9077682495117188,-0.2989435195922851
-0.0667176246643066,0.2552515268325805,-0.1000905036926269,-0.5718076825141907,-0.1188099086284637,-0.0590502843260765,0.0,0.0,0.9271581172943116,-0.4227102994918823
-0.0675253868103027,0.2427659630775451,-0.0788103938102722,-0.55507493019104,-0.1207566782832145,-0.0389354564249515,0.0,0.0,0.8867597579956055,-0.6975276470184326
-0.0681897178292274,0.2303376793861389,-0.0665115267038345,-0.5523624420166016,-0.1206856966018676,0.0014196000993251,0.0,0.0,0.9256908893585204,0.0889819860458374
-0.0687817558646202,0.2186275869607925,-0.05946034938097,-0.5204274654388428,-0.1204300224781036,0.0051135555841028,0.0,0.0,0.8725200891494751,0.4436142444610595
-0.069262221455574,0.2076045572757721,-0.0486827008426189,-0.4898625612258911,-0.119795374572277,0.0126929748803377,0.0,0.0,0.5551638603210449,0.02447509765625
-0.0695777907967567,0.1969086974859237,-0.0329581163823604,-0.4752597510814667,-0.1184003204107284,0.0279010534286499,0.0,0.0,0.2445214986801147,-0.7380544543266296
-0.0698643699288368,0.18597973883152,-0.0318593755364418,-0.4854817688465118,-0.1152114793658256,0.0637765899300575,0.0,0.0,0.6249845027923584,0.0057581663131713
-0.0701711624860763,0.1752192080020904,-0.0338727571070194,-0.4780031144618988,-0.1120413392782211,0.06340292096138,0.0,0.0,0.6558353900909424,0.5825891494750977
-0.0702707320451736,0.1651446968317031,-0.0124388532713055,-0.4475726783275604,-0.1095804274082183,0.0492185652256011,0.0,0.0,-0.0137372016906738,-0.3024206161499023
-0.0703969001770019,0.1544833034276962,-0.0153197152540087,-0.4736410975456238,-0.1068973168730735,0.0536621510982513,0.0,0.0,0.936125874519348,0.2919654846191406
-0.0705950707197189,0.1446488946676254,-0.0220710523426532,-0.4369260370731354,-0.1046659275889396,0.044627871364355,0.0,0.0,0.7481870651245117,-0.4058653116226196
-0.0706511512398719,0.1353148072957992,-0.0085033364593982,-0.4146475195884704,-0.1017850115895271,0.0576183721423149,0.0,0.0,0.5902342796325684,-0.3735607266426086
-0.0707115158438682,0.1264794617891311,-0.0089277792721986,-0.3924888968467712,-0.0989185199141502,0.0573298931121826,0.0,0.0,0.2847613096237182,-0.6282251477241516
-0.0708608627319336,0.1179489716887474,-0.0191846974194049,-0.3788580298423767,-0.0946992188692092,0.0843862295150756,0.0,0.0,0.5353853702545166,0.1971089839935302
-0.0710158348083496,0.1095261871814727,-0.019874483346939,-0.3740749955177307,-0.0903622359037399,0.0867395177483558,0.0,0.0,0.5531854629516602,0.1618727445602417
-0.0712554007768631,0.1013762801885604,-0.0280522145330905,-0.3619775772094726,-0.0863078385591507,0.0810879915952682,0.0,0.0,0.7669974565505981,0.5368680953979492
-0.0716017708182334,0.0934922993183136,-0.0373935662209987,-0.350243866443634,-0.083575889468193,0.0546389333903789,0.0,0.0,0.8500379323959351,0.8781397342681885
-0.0717073455452919,0.0862044915556907,-0.0120217092335224,-0.3238236606121063,-0.0821261256933212,0.0289954636245965,0.0,0.0,0.3453978300094604,0.3828067779541015
-0.0717648491263389,0.078772909939289,-0.0076659717597067,-0.3301888704299927,-0.0802206248044967,0.0381100699305534,0.0,0.0,0.8106639385223389,0.7990627288818359
-0.0715443640947341,0.0719823464751243,0.021138684824109,-0.3017556071281433,-0.0793287083506584,0.0178385842591524,0.0,0.0,0.1448591947555542,-0.6707879900932312
-0.0713779479265213,0.0654230192303657,0.0141908135265111,-0.2913945913314819,-0.0768976807594299,0.0486203804612159,0.0,0.0,0.0740833282470703,0.1584274768829345
-0.0711023360490799,0.0590972267091274,0.024441884830594,-0.2809907495975494,-0.0738140046596527,0.0616738870739936,0.0,0.0,0.0925246477127075,0.5798120498657227
-0.0707226768136024,0.052746757864952,0.0357099883258342,-0.2821304500102997,-0.071574792265892,0.0447837598621845,0.0,0.0,0.6227264404296875,0.6948654651641846
-0.070263959467411,0.0470113381743431,0.0447924770414829,-0.2548581063747406,-0.0705113261938095,0.0212695598602294,0.0,0.0,-0.112729012966156,0.6613731384277344
-0.06977329403162,0.0406888350844383,0.0492270812392234,-0.281008243560791,-0.070674329996109,-0.0032600108534097,0.0,0.0,0.6414439678192139,-0.3375548124313354
-0.0691963210701942,0.0344525910913944,0.0572649240493774,-0.2771443426609039,-0.0702462345361709,0.0085620637983083,0.0,0.0,0.7286911010742188,0.009829044342041
-0.0687271133065223,0.0286111682653427,0.0468613728880882,-0.2596181035041809,-0.0701903030276298,0.0011185136390849,0.0,0.0,0.7120680809020996,0.640195369720459
-0.0683388710021972,0.0229892581701278,0.0401753708720207,-0.2499277144670486,-0.0715344101190567,-0.0268818084150552,0.0,0.0,0.796334981918335,0.7012976408004761
-0.0679021850228309,0.0176940057426691,0.0462808273732662,-0.2354708164930343,-0.0741158500313758,-0.051628828048706,0.0,0.0,0.7951227426528931,0.5421719551086426
-0.067374899983406,0.0126700494438409,0.0561227910220623,-0.2234594374895095,-0.0774769932031631,-0.0672227889299392,0.0,0.0,0.6925941705703735,0.7328321933746338
-0.0666406601667404,0.0075800395570695,0.0777739584445953,-0.2264539450407028,-0.0817822739481926,-0.086105965077877,0.0,0.0,0.9267261028289796,0.1349438428878784
-0.0656691566109657,0.0038400387857109,0.0815408006310463,-0.1654589921236038,-0.0662619471549987,0.3104807734489441,1.0,0.0,0.86474609375,-0.4406323432922363
-0.0645039528608322,0.0014770841225981,0.0845753103494644,-0.1040478125214576,-0.0342410653829574,0.6409732699394226,1.0,0.0,0.3175886869430542,0.0308200120925903
-0.0632219314575195,-0.0007742547895759,0.0867879465222358,-0.0996331870555877,0.0067040575668215,0.8189714550971985,1.0,0.0,0.8847696781158447,0.4353899955749511
