x_pos,y_pos,x_vel,y_vel,angle,ang_vel,leg_1,leg_2,main_booster,lat_booster
-0.0014716148143634,1.4034323692321775,-0.148733451962471,-0.332793116569519,0.001403184607625,0.027652433142066,0.0,0.0,0.3255348888447358,-0.6994083122779184
-0.002901840256527,1.396327257156372,-0.1455376744270324,-0.3157886862754822,0.0039014930371195,0.0499714389443397,0.0,0.0,0.7457433788119576,-0.9194215752985196
-0.0041996957734227,1.3896634578704834,-0.1340931951999664,-0.2961810529232025,0.0081603089347481,0.0851839333772659,0.0,0.0,-0.7208974800436392,0.8520111004061537
-0.0053964615799486,1.3828054666519165,-0.1222831234335899,-0.3048181235790252,0.010733631439507,0.0514710620045661,0.0,0.0,-0.9803720491206604,0.898184099605553
-0.0064620971679687,1.375759482383728,-0.1066537126898765,-0.3131564855575561,0.0108206216245889,0.001740269945003,0.0,0.0,-0.8155117463387676,0.8785740035691805
-0.0073994635604321,1.368521213531494,-0.0913315713405609,-0.3216784596443176,0.0084453066810965,-0.0475107505917549,0.0,0.0,-0.2094768800168391,0.7516057446158406
-0.008238410577178,1.3610918521881104,-0.0797213762998581,-0.3301810622215271,0.0043110693804919,-0.082692340016365,0.0,0.0,-0.4646021050968927,0.8346823707931155
-0.0089564323425292,1.3534735441207886,-0.0651994943618774,-0.3385871350765228,-0.0022100126370787,-0.130433976650238,0.0,0.0,0.6565952060040592,-0.849197490475182
-0.0097161289304494,1.3469316959381104,-0.0707228556275367,-0.2907692790031433,-0.0073954076506197,-0.1037175878882408,0.0,0.0,0.7317807680742283,0.7057799210998579
-0.0103813167661428,1.341343879699707,-0.0595392659306526,-0.2484034150838852,-0.0143028888851404,-0.1381622850894928,0.0,0.0,0.2571019506532015,-0.9298864480065352
-0.0110059734433889,1.3362430334091189,-0.0570637583732605,-0.2267569601535797,-0.0196368936449289,-0.1066899746656417,0.0,0.0,-0.065676982342727,0.7370650674882958
-0.0115371700376272,1.3309473991394043,-0.0457607544958591,-0.2354773879051208,-0.0269199479371309,-0.1456743031740188,0.0,0.0,0.2555394839326084,-0.8605097869331901
-0.0119827268645167,1.326259970664978,-0.0386974886059761,-0.2084509879350662,-0.0327077284455299,-0.1157663092017173,0.0,0.0,0.9181084915425246,-0.6037058774428152
-0.0123545648530125,1.321991205215454,-0.0324691496789455,-0.189831331372261,-0.0373676717281341,-0.0932072401046752,0.0,0.0,-0.825529149711568,0.6771375359049829
-0.0126411439850926,1.3175339698791504,-0.0219708122313022,-0.1982735097408294,-0.0439902283251285,-0.1324635297060012,0.0,0.0,-0.8861757694274446,-0.6496263715068203
-0.0129540441557765,1.3128806352615356,-0.0253624282777309,-0.2070033401250839,-0.0498590171337127,-0.117386519908905,0.0,0.0,0.7095532036649916,-0.7358624164313124
-0.0131124500185251,1.3093628883361816,-0.0114285517483949,-0.1564959585666656,-0.0542272292077541,-0.0873720869421958,0.0,0.0,-0.4435906434399228,0.6292276596303779
-0.0132007598876953,1.3056429624557495,-0.0025687823072075,-0.165568396449089,-0.0604352466762065,-0.1241710782051086,0.0,0.0,-0.2846462143390336,0.8873761139095582
-0.0132020954042673,1.3017326593399048,0.008492418564856,-0.1741507351398468,-0.068975493311882,-0.1708205044269561,0.0,0.0,-0.2528707697867711,0.8001728141861336
-0.0131466863676905,1.2976256608963013,0.0158277042210102,-0.1830347925424575,-0.0791753679513931,-0.2040158808231353,0.0,0.0,0.2012601063603636,0.7952012368899828
-0.012880802154541,1.2941317558288574,0.0386475659906864,-0.1559695452451706,-0.0911340489983558,-0.2391952574253082,0.0,0.0,0.955235878128432,0.824399606205477
-0.0124923707917332,1.2912144660949707,0.0527772195637226,-0.1305619925260543,-0.1049731597304344,-0.2768072187900543,0.0,0.0,-0.7540820483894681,-0.6247265868914633
-0.0121506694704294,1.2881128787994385,0.0473592206835746,-0.1388267129659652,-0.1180990636348724,-0.2625414431095123,0.0,0.0,-0.514973965592638,-0.972206936847578
-0.0118890758603811,1.284822702407837,0.037876259535551,-0.1471932828426361,-0.1297730803489685,-0.2335010766983032,0.0,0.0,-0.2553352416648369,0.7847005765650181
-0.011595344170928,1.281335711479187,0.0425210557878017,-0.1561707705259323,-0.1428952068090438,-0.2624654769897461,0.0,0.0,0.6730771842500305,0.7168595943244688
-0.0113238338381052,1.2787232398986816,0.0423165708780288,-0.1176384836435318,-0.1580288112163543,-0.3026724457740783,0.0,0.0,0.503820504508399,0.6060677552769685
-0.0109185222536325,1.2768933773040771,0.057099737226963,-0.0831727236509323,-0.174603521823883,-0.3314940929412842,0.0,0.0,0.5505365867048995,-0.7640605940306959
-0.0105955125764012,1.2760783433914185,0.0477520413696765,-0.0381185673177242,-0.1901079416275024,-0.3100884556770324,0.0,0.0,-0.8234240569658258,0.8334247045244161
-0.0102485660463571,1.2750672101974487,0.0516116693615913,-0.0471992008388042,-0.2071416825056076,-0.3406747579574585,0.0,0.0,0.6412995485758983,0.749422627008019
-0.0097973821684718,1.2745659351348877,0.0637341886758804,-0.0250012818723917,-0.2259437888860702,-0.3760425448417663,0.0,0.0,0.960023310537927,0.6246341439410953
-0.0090816495940089,1.2753283977508545,0.0914728939533233,0.0307170655578374,-0.2461424320936203,-0.403973251581192,0.0,0.0,-0.7935687962508391,-0.7813524139243484
-0.0084694866091012,1.2759253978729248,0.0794653668999672,0.0233658198267221,-0.2647613883018493,-0.3723791539669037,0.0,0.0,-0.4762709119527959,-0.6937134330385524
-0.0079540256410837,1.276365876197815,0.0683315843343734,0.01643917709589,-0.2819670140743255,-0.3441125750541687,0.0,0.0,0.3338391920070123,0.9060374257944748
-0.0073873521760106,1.27702534198761,0.075382262468338,0.025581182911992,-0.3012430965900421,-0.3855225443840027,0.0,0.0,0.6528997292161036,0.9147411271218872
-0.0065896986052393,1.278359293937683,0.1002892255783081,0.0548839941620826,-0.3225243985652923,-0.4256260991096496,0.0,0.0,-0.4993091621188055,-0.8111722390334313
-0.0058932304382324,1.2795419692993164,0.0886437147855758,0.0482106730341911,-0.3423537611961365,-0.3965881168842315,0.0,0.0,0.6644395533126706,-0.9301261669575982
-0.0051864623092114,1.2812331914901731,0.0879235342144966,0.070962056517601,-0.3604735732078552,-0.362395703792572,0.0,0.0,-0.3544101684123253,0.9358991111150377
-0.0044520376250147,1.282702922821045,0.0926085636019706,0.0603656694293022,-0.380768358707428,-0.4058959484100342,0.0,0.0,-0.7936405324973428,0.754915758327284
-0.0037127495743334,1.2839634418487549,0.094412937760353,0.0503973923623561,-0.4026354253292084,-0.4373421669006347,0.0,0.0,-0.7810689331863039,0.99500623903675
-0.0029477118514478,1.284991979598999,0.0988956168293953,0.0391625016927719,-0.426773190498352,-0.4827559888362884,0.0,0.0,-0.2263858454536769,0.7960733607412095
-0.0021847723983228,1.285810470581055,0.0997747853398323,0.0290482454001903,-0.452367752790451,-0.51189124584198,0.0,0.0,-0.9049900770187378,-0.9981494545936584
-0.0015300750965252,1.2864835262298584,0.0872378796339035,0.0226627960801124,-0.4763997197151184,-0.4806388020515442,0.0,0.0,-0.6741825938224792,-0.9989538788795472
-0.000990581465885,1.2870066165924072,0.0739983916282653,0.0161853209137916,-0.49876868724823,-0.4473799169063568,0.0,0.0,-0.7190845608711243,-0.9051209688186646
-0.000557804130949,1.287384271621704,0.061722207814455,0.0099292360246181,-0.5196128487586975,-0.4168830513954162,0.0,0.0,-0.93390154838562,-0.9946973919868468
-0.0002566337643656,1.287625789642334,0.0464437752962112,0.0043942998163402,-0.5382791757583618,-0.3733268082141876,0.0,0.0,-0.4900673627853393,-0.9763428568840028
-7.62939453125e-05,1.287724852561951,0.0325831398367881,-0.0014882801333442,-0.5550825595855713,-0.3360671997070312,0.0,0.0,-0.8346185684204102,-0.8397045731544495
-5.53131121705519e-06,1.287677526473999,0.0201326087117195,-0.0075869965367019,-0.5703074932098389,-0.3044988512992859,0.0,0.0,-0.8802156448364258,-0.9423269033432008
-6.30378708592616e-05,1.2875189781188965,0.0051376176998019,-0.0117615610361099,-0.5831311941146851,-0.2564743161201477,0.0,0.0,-0.5680188536643982,-0.9633232355117798
-0.0002535819949116,1.2872521877288818,-0.0103840297088027,-0.0157042611390352,-0.5934112071990967,-0.2056007087230682,0.0,0.0,-0.6107397079467773,-0.9864804148674012
-0.0005717277526855,1.286858320236206,-0.0250519178807735,-0.0205690339207649,-0.6014779210090637,-0.1613341122865677,0.0,0.0,-0.7120458483695984,-0.9864630699157716
-0.0009994506835937,1.2863218784332275,-0.0374311283230781,-0.0263017807155847,-0.6078892350196838,-0.128226026892662,0.0,0.0,-0.8214201927185059,-0.9732696413993835
-0.0015545844798907,1.2856693267822266,-0.0521597862243652,-0.0305656138807535,-0.6119356155395508,-0.0809281840920448,0.0,0.0,-0.888574481010437,-0.9067234396934508
-0.0022214888595044,1.2848697900772097,-0.0647177398204803,-0.0364604592323303,-0.614319920539856,-0.0476866289973259,0.0,0.0,-0.6859363913536072,-0.8924100995063782
-0.0030044554732739,1.2839435338974,-0.0779938623309135,-0.0413037464022636,-0.6146880984306335,-0.0073638134635984,0.0,0.0,-0.5046544671058655,-0.8894202709197998
-0.0038947104476392,1.2828668355941772,-0.0899848267436027,-0.0474010668694973,-0.6135164499282837,0.0234331414103508,0.0,0.0,-0.4281685352325439,-0.7698249816894531
-0.0049064634367823,1.2816540002822876,-0.1038393378257751,-0.0526545606553554,-0.6103084087371826,0.0641613528132438,0.0,0.0,-0.4782772064208984,-0.8312451243400574
-0.0060236928984522,1.2803013324737549,-0.1157763227820396,-0.0582439862191677,-0.6054429411888123,0.097310334444046,0.0,0.0,-0.424373984336853,-0.8567769527435303
-0.0072458265349268,1.2788022756576538,-0.1275947988033294,-0.0641588494181633,-0.5990021824836731,0.1288147270679474,0.0,0.0,-0.3909042477607727,-0.7309847474098206
-0.0085703851655125,1.2771586179733276,-0.1391570121049881,-0.0700234845280647,-0.5910100936889648,0.1598421186208725,0.0,0.0,-0.0935142636299133,0.1355620622634887
-0.0099592208862304,1.2753223180770874,-0.1457723379135131,-0.0785608068108558,-0.5828450918197632,0.1633004248142242,0.0,0.0,-0.3549516797065735,-0.4795747995376587
-0.0114125255495309,1.2732932567596436,-0.1524166762828827,-0.0870977938175201,-0.5744929909706116,0.1670410931110382,0.0,0.0,0.0047876834869384,-0.3738187551498413
-0.0127499578520655,1.2716580629348757,-0.1407845318317413,-0.0696552544832229,-0.5662223100662231,0.1654138267040252,0.0,0.0,-0.5886303186416626,0.0443637371063232
-0.0141520500183105,1.2698301076889038,-0.1474790126085281,-0.0781914293766021,-0.5577377676963806,0.169691115617752,0.0,0.0,-0.2804144620895386,-0.0564070343971252
-0.0156190870329737,1.267809271812439,-0.1541952341794967,-0.0867274478077888,-0.5490267276763916,0.174221321940422,0.0,0.0,-0.410202145576477,-0.6212930083274841
-0.0171932224184274,1.2656288146972656,-0.1662938147783279,-0.093315839767456,-0.5387771725654602,0.2049907147884369,0.0,0.0,0.1359809637069702,-0.0927178859710693
-0.0186967849731445,1.263844609260559,-0.1591606736183166,-0.0758250579237937,-0.528671145439148,0.2021204531192779,0.0,0.0,0.0844496488571167,-0.1938074827194214
-0.0199696533381938,1.2625844478607178,-0.1364359557628631,-0.0524776801466941,-0.5182387828826904,0.2086474597454071,0.0,0.0,-0.1037831902503967,0.1304582357406616
-0.0213074684143066,1.2611316442489624,-0.1432201266288757,-0.0610152669250965,-0.5075347423553467,0.2140799462795257,0.0,0.0,-0.0329564809799194,-0.3167850971221924
-0.0227100364863872,1.259486198425293,-0.1500164121389389,-0.0695531293749809,-0.4965492486953735,0.2197098433971405,0.0,0.0,-0.2690490484237671,-0.4124788641929626
-0.0241774562746286,1.257648229598999,-0.1568231284618377,-0.0780913457274437,-0.4852729737758636,0.2255260497331619,0.0,0.0,0.0784207582473754,-0.1517826318740844
-0.0255566593259573,1.2562459707260132,-0.1480744332075119,-0.0587900169193744,-0.4739743173122406,0.2259728908538818,0.0,0.0,-0.1032813191413879,-0.5534219741821289
-0.0270368568599224,1.254680633544922,-0.1595113724470138,-0.0656986534595489,-0.4612645506858825,0.2541960179805755,0.0,0.0,0.0316890478134155,-0.2760455012321472
-0.0284191127866506,1.2536851167678833,-0.1497330963611602,-0.0404814295470714,-0.448611319065094,0.2530648112297058,0.0,0.0,0.1263948678970337,0.0693020820617675
-0.0296500213444232,1.2529971599578855,-0.1351871192455291,-0.0267535429447889,-0.4354036450386047,0.2641535401344299,0.0,0.0,-0.0945177674293518,0.0453054904937744
-0.0309454910457134,1.2521172761917114,-0.1420235931873321,-0.0352960787713527,-0.4218665063381195,0.2707428634166717,0.0,0.0,-0.5456989407539368,0.4754248857498169
-0.0323054306209087,1.251045823097229,-0.1488613933324813,-0.0438394956290721,-0.4079936444759369,0.2774577736854553,0.0,0.0,-0.7255145907402039,0.519618034362793
-0.0336957946419715,1.2497549057006836,-0.1513429433107376,-0.0538901053369045,-0.3948058784008026,0.2637551128864288,0.0,0.0,-0.1468541026115417,0.60001540184021
-0.0351063720881938,1.248250126838684,-0.152610570192337,-0.0637186244130134,-0.3824868500232696,0.2463811635971069,0.0,0.0,-0.4186047315597534,0.6000868082046509
-0.0365304946899414,1.2465288639068604,-0.1530236005783081,-0.0736943557858467,-0.3712100088596344,0.2255367934703827,0.0,0.0,-0.5370191931724548,0.2829614877700805
-0.0380188003182411,1.2446151971817017,-0.1598478406667709,-0.0822343826293945,-0.3595764636993408,0.232671171426773,0.0,0.0,-0.4666447639465332,0.6086976528167725
-0.0395379066467285,1.2424837350845337,-0.1623668074607849,-0.0921510159969329,-0.3485709428787231,0.2201102524995803,0.0,0.0,-0.4831455945968628,0.5881568193435669
-0.0410736091434955,1.2401396036148071,-0.1631964296102523,-0.1018916517496109,-0.3384809494018554,0.2018006294965744,0.0,0.0,-0.1794161796569824,0.5784645080566406
-0.042637825012207,1.237583875656128,-0.1654874682426452,-0.1114908158779144,-0.3290071189403534,0.1894764602184295,0.0,0.0,-0.2206770777702331,0.3572189807891845
-0.0442659370601177,1.234835505485535,-0.1722761690616607,-0.1200288236141204,-0.3191614151000976,0.1969142258167266,0.0,0.0,-0.3702247738838196,0.6889064311981201
-0.0459069237112998,1.2318729162216189,-0.1726090908050537,-0.1298226416110992,-0.3103147745132446,0.1769334822893142,0.0,0.0,-0.3640776872634887,0.5652434825897217
-0.0475629791617393,1.2286943197250366,-0.1732464432716369,-0.1396647095680236,-0.3024088144302368,0.1581189185380935,0.0,0.0,-0.4644151329994201,0.8990538120269775
-0.0492143630981445,1.2252814769744873,-0.1713038682937622,-0.1504206657409668,-0.2960335314273834,0.1275051832199096,0.0,0.0,0.0544714927673339,0.6898154020309448
-0.0507386215031147,1.2219856977462769,-0.1576678603887558,-0.1454192101955413,-0.2906256914138794,0.108156993985176,0.0,0.0,-0.6342170238494873,0.8296642303466797
-0.0522482879459857,1.2184616327285769,-0.1545531004667282,-0.1559222489595413,-0.2869309484958648,0.0738949403166771,0.0,0.0,-0.6421580910682678,0.7663843631744385
-0.0537508949637413,1.2147066593170166,-0.1523560583591461,-0.1664750576019287,-0.2847720086574554,0.0431788675487041,0.0,0.0,-0.0464700460433959,0.6794306039810181
-0.0552644729614257,1.210740566253662,-0.1525091230869293,-0.1760484874248504,-0.2835863530635834,0.0237133391201496,0.0,0.0,-0.4083380699157715,0.5701249837875366
-0.0567944534122943,1.206565022468567,-0.1533487439155578,-0.1855066120624542,-0.283223420381546,0.0072588426992297,0.0,0.0,-0.2680139541625976,0.2785191535949707
-0.058386705815792,1.2021960020065308,-0.159958615899086,-0.1940384060144424,-0.2824693322181701,0.0150816496461629,0.0,0.0,0.0757330656051635,0.3129521608352661
-0.0599185936152935,1.1979119777679443,-0.1546027064323425,-0.1901250779628753,-0.2810192108154297,0.0290029495954513,0.0,0.0,-0.0078675150871276,0.5735981464385986
-0.0614727959036827,1.1934157609939575,-0.1561833620071411,-0.1996888667345047,-0.2802395522594452,0.0155933871865272,0.0,0.0,0.1661109924316406,0.6746022701263428
-0.0628026947379112,1.189561367034912,-0.1328856647014618,-0.1713216602802276,-0.2803424894809723,-0.002058854792267,0.0,0.0,0.3444149494171142,0.4745268821716308
-0.0640835762023925,1.1861889362335205,-0.1282837092876434,-0.1498501747846603,-0.2801379859447479,0.0040903645567595,0.0,0.0,-0.2984957695007324,-0.5123583674430847
-0.0654707923531532,1.182647466659546,-0.1405358016490936,-0.1570498645305633,-0.2782788276672363,0.037183579057455,0.0,0.0,0.4545445442199707,0.0020526647567749
-0.066675566136837,1.17976713180542,-0.123025894165039,-0.1275365203619003,-0.2756686508655548,0.0522035434842109,0.0,0.0,-0.3304743766784668,0.4066665172576904
-0.0679400414228439,1.176693081855774,-0.1293719708919525,-0.1360690146684646,-0.2726613581180572,0.0601455941796302,0.0,0.0,-0.8009963631629944,0.9300305843353271
-0.0692012757062912,1.1734064817428589,-0.1278732568025589,-0.1457467526197433,-0.2708763480186462,0.0357009097933769,0.0,0.0,-0.2019997835159301,0.7821941375732422
-0.0704646110534668,1.1699000597000122,-0.1269842088222503,-0.1557196527719497,-0.2702153623104095,0.0132198957726359,0.0,0.0,-0.7152082920074463,-0.4678977727890014
-0.0717860236763954,1.166200041770935,-0.1331703066825866,-0.1642517447471618,-0.2691562473773956,0.0211821533739566,0.0,0.0,-0.3872422575950622,0.1415637731552124
-0.0731647461652755,1.1623064279556274,-0.139295682311058,-0.1727839261293411,-0.2676988840103149,0.0291474126279354,0.0,0.0,0.5939438343048096,0.1459395885467529
-0.0743182152509689,1.159181833267212,-0.1176216825842857,-0.1384603232145309,-0.2653705179691314,0.0465671308338642,0.0,0.0,-0.4236804246902466,0.9496791362762452
-0.0754496604204177,1.1558231115341189,-0.1137258037924766,-0.1491665989160537,-0.2647702395915985,0.0120053486898541,0.0,0.0,0.1526684761047363,-0.0258392691612243
-0.0763993263244628,1.1530017852783203,-0.0964034870266914,-0.1251333206892013,-0.2633036971092224,0.029330875724554,0.0,0.0,-0.0230867862701416,0.7323791980743408
-0.077348805963993,1.1499711275100708,-0.09538035094738,-0.1346186697483062,-0.2628597915172577,0.0088778510689735,0.0,0.0,-0.6272831559181213,0.5872178077697754
-0.078295424580574,1.14673113822937,-0.094052143394947,-0.144108310341835,-0.2634822130203247,-0.0124481962993741,0.0,0.0,0.0554587841033935,-0.8598787784576416
-0.0792084708809852,1.1438381671905518,-0.0927924066781997,-0.1283154040575027,-0.2619616687297821,0.0304107163101434,0.0,0.0,-0.0115669965744018,0.3854326009750366
-0.0801733955740928,1.1407514810562134,-0.0983689874410629,-0.1368479579687118,-0.260044127702713,0.0383506454527378,0.0,0.0,-0.4048556089401245,0.7258310317993164
-0.0811271667480468,1.137453317642212,-0.0960681289434433,-0.1464666575193405,-0.2593409717082977,0.0140632018446922,0.0,0.0,-0.2970098257064819,0.7875041961669922
-0.0820634812116622,1.1339306831359863,-0.0929357782006263,-0.1566843539476394,-0.2600519061088562,-0.0142184840515255,0.0,0.0,-0.3163758516311645,-0.5940972566604614
-0.0831027999520301,1.130237340927124,-0.1050450801849365,-0.1639560610055923,-0.2589204907417297,0.0226283278316259,0.0,0.0,-0.5547618269920349,0.2631031274795532
-0.0841898918151855,1.1263504028320312,-0.1101949214935302,-0.172488659620285,-0.2573945522308349,0.0305183324962854,0.0,0.0,0.3069911003112793,0.6201677322387695
-0.0851806625723838,1.1229050159454346,-0.0997014120221138,-0.1530184894800186,-0.2567636370658874,0.0126181319355964,0.0,0.0,-0.2420946359634399,-0.0537405014038085
-0.0862166434526443,1.1192662715911863,-0.1046032160520553,-0.1615511327981948,-0.2557399570941925,0.0204735733568668,0.0,0.0,0.0440508127212524,0.7534279823303223
-0.0870903953909874,1.115698218345642,-0.0873163342475891,-0.1585855782032013,-0.2558029592037201,-0.0012601594207808,0.0,0.0,-0.7770178318023682,0.5087711811065674
-0.087961196899414,1.1119214296340942,-0.0862270295619964,-0.1680112928152084,-0.2566686868667602,-0.0173144843429327,0.0,0.0,-0.3037753701210022,0.8389030694961548
-0.0888049155473709,1.107932448387146,-0.0821801275014877,-0.1776667088270187,-0.2589050531387329,-0.0447276011109352,0.0,0.0,-0.2744398713111877,-0.818787693977356
