x_pos,y_pos,x_vel,y_vel,angle,ang_vel,leg_1,leg_2,main_booster,lat_booster
-0.0014566421741619,1.4029210805892944,-0.1473674029111862,-0.3555201590061188,0.0015293606556952,0.0301507227122783,0.0,0.0,-0.3535112142562866,0.6382167339324951
-0.0027913092635571,1.3942384719848633,-0.1333925276994705,-0.3858934938907623,0.0014506836887449,-0.00157305970788,0.0,0.0,0.1092171669006347,0.2877064943313598
-0.0039690970443189,1.3852587938308716,-0.1179304122924804,-0.3990956246852875,0.0016036314191296,0.0030591054819524,0.0,0.0,-0.4628312587738037,0.8288567066192627
-0.0050268173217773,1.3755728006362915,-0.1043923944234848,-0.4304855465888977,0.0002400143130216,-0.0272747781127691,0.0,0.0,0.009095549583435,0.0297173261642456
-0.0059379576705396,1.3657808303833008,-0.0899230390787124,-0.4351992905139923,-0.0009460386354476,-0.0237231664359569,0.0,0.0,-0.1870559453964233,-0.0075101852416992
-0.0067814826034009,1.3552851676940918,-0.0829437747597694,-0.4664739370346069,-0.0023337318561971,-0.0277563072741031,0.0,0.0,-0.4605703353881836,-0.5003425478935242
-0.0075981141999363,1.3440861701965332,-0.0810923054814338,-0.4977335929870605,-0.0028954823501408,-0.0112360892817378,0.0,0.0,0.323375940322876,-0.6145794987678528
-0.0082622524350881,1.3329622745513916,-0.0671484321355819,-0.494388610124588,-0.002174159977585,0.0144281405955553,0.0,0.0,-0.447273850440979,-0.7086896896362305
-0.008915901184082,1.3211429119110107,-0.0673359856009483,-0.5253122448921204,-0.0002249360550194,0.038987923413515,0.0,0.0,-0.567198634147644,-0.7514085173606873
-0.009561538696289,1.308624505996704,-0.0678348988294601,-0.5563713312149048,0.003010663203895,0.0647178366780281,0.0,0.0,-0.581576406955719,-0.7811482548713684
-0.01019287109375,1.295403242111206,-0.0675370246171951,-0.587630569934845,0.0073680155910551,0.0871547311544418,0.0,0.0,-0.5925230979919434,-0.5817013382911682
-0.0107977865263819,1.281476974487305,-0.0657195970416069,-0.6189799904823303,0.0125376842916011,0.1034030094742775,0.0,0.0,-0.5364491939544678,-0.2663840055465698
-0.0113361356779932,1.2668473720550537,-0.058849386870861,-0.6502515077590942,0.0175014920532703,0.0992849990725517,0.0,0.0,-0.5954754948616028,0.2529256343841553
-0.0118081094697117,1.251514554023743,-0.0520032234489917,-0.6815230846405029,0.0222594793885946,0.0951682850718498,0.0,0.0,-0.3549851179122925,-0.0504564642906188
-0.0122138978913426,1.235478401184082,-0.0451842509210109,-0.7127944827079773,0.0268111713230609,0.0910419523715972,0.0,0.0,-0.1115623116493225,0.0093750953674316
-0.012553977780044,1.2187387943267822,-0.0383955538272857,-0.7440659403800964,0.0311563201248645,0.0869109258055687,0.0,0.0,-0.6398935914039612,0.1398588418960571
-0.0128285409882664,1.2012958526611328,-0.0316401906311512,-0.7753371596336365,0.0352947749197483,0.0827762931585311,0.0,0.0,-0.4210288524627685,0.794333815574646
-0.0129603389650583,1.1831467151641846,-0.0151834655553102,-0.8066790699958801,0.0372772701084613,0.0396534241735935,0.0,0.0,-0.032817006111145,0.2694354057312011
-0.0130272861570119,1.164293885231018,-0.0084982113912701,-0.8379489779472351,0.0390538498759269,0.0355350151658058,0.0,0.0,-0.3362394571304321,0.3127604722976684
-0.0130300521850585,1.1447373628616333,-0.0018565146019682,-0.8692187666893005,0.0406232587993145,0.0313909575343132,0.0,0.0,0.6968318223953247,0.0602519512176513
-0.0128692630678415,1.1256425380706787,0.0140804350376129,-0.8487110733985901,0.0425972118973732,0.0394824929535388,0.0,0.0,0.0838639736175537,0.1357767581939697
-0.0126498220488429,1.1062794923782349,0.0201214924454689,-0.8606348633766174,0.0443996302783489,0.0360519289970397,0.0,0.0,0.727604866027832,-0.006614863872528
-0.0122571941465139,1.0870749950408936,0.0370104536414146,-0.8536022901535034,0.0466268435120582,0.0445483326911926,0.0,0.0,0.6717374324798584,0.0014641284942626
-0.0117464065551757,1.0676449537277222,0.0487022139132022,-0.8636325597763062,0.0489751100540161,0.0469694659113884,0.0,0.0,0.7548847198486328,0.4079302549362182
-0.0113580701872706,1.0485243797302246,0.0373664535582065,-0.849852979183197,0.0504175387322902,0.0288509540259838,0.0,0.0,0.4986467361450195,0.3151857852935791
-0.0110723497346043,1.029625415802002,0.0279470942914485,-0.8399764895439148,0.0510429516434669,0.0125082405284047,0.0,0.0,0.463188886642456,0.1167552471160888
-0.0107556339353322,1.0109866857528689,0.0312348250299692,-0.8283971548080444,0.0514789819717407,0.0087205059826374,0.0,0.0,0.2168092727661132,-0.4640927314758301
-0.0105066299438476,0.9925475120544434,0.0251220576465129,-0.8195105791091919,0.0512655898928642,-0.0042680529877543,0.0,0.0,0.7771008014678955,0.2224347591400146
-0.0103815076872706,0.9746420979499816,0.013592891395092,-0.7957620024681091,0.0501995384693145,-0.0213209968060255,0.0,0.0,0.6024973392486572,-0.2282018661499023
-0.0102421762421727,0.9567398428916932,0.0153018254786729,-0.7956053018569946,0.0488369055092334,-0.0272524021565914,0.0,0.0,0.3229955434799194,0.1984668970108032
-0.0100637432187795,0.9391509890556335,0.0193574987351894,-0.7816823720932007,0.047342300415039,-0.0298921279609203,0.0,0.0,-0.323212206363678,0.2981903553009033
-0.0098288534209132,0.9208583235740662,0.0252074841409921,-0.8129499554634094,0.0456475093960762,-0.0338959917426109,0.0,0.0,0.3442295789718628,-0.0467280745506286
-0.0096351625397801,0.9028348326683044,0.0215961206704378,-0.8009758591651917,0.0434429049491882,-0.0440919175744056,0.0,0.0,0.128304123878479,-0.122864544391632
-0.0094409938901662,0.8844740986824036,0.0220464412122964,-0.8159581422805786,0.0408391468226909,-0.0520749278366565,0.0,0.0,0.5563786029815674,0.1985887289047241
-0.0092020034790039,0.8662964701652527,0.0266617387533187,-0.807827889919281,0.0381098501384258,-0.0545858442783355,0.0,0.0,0.7025525569915771,-0.1386178135871887
-0.0089212413877248,0.8485845923423767,0.0309437718242406,-0.7871267795562744,0.0352721996605396,-0.0567529574036598,0.0,0.0,0.3834775686264038,0.5420148372650146
-0.008583259768784,0.8307389616966248,0.0380165502429008,-0.7930444478988647,0.0311085376888513,-0.0832734256982803,0.0,0.0,0.2905844449996948,-0.9517407417297364
-0.0082541462033987,0.8130866885185242,0.0353873185813427,-0.784490704536438,0.0286629982292652,-0.0489107891917228,0.0,0.0,0.0601389408111572,-0.1082202792167663
-0.0079162595793604,0.7955406308174133,0.036569271236658,-0.7797743082046509,0.0259104333817958,-0.0550510808825492,0.0,0.0,0.1597543954849243,-0.5631473660469055
-0.0075638769194483,0.7779309153556824,0.03704534471035,-0.7826324701309204,0.0241286251693964,-0.0356363132596015,0.0,0.0,-0.2437860965728759,0.4542993307113647
-0.007164382841438,0.7596175074577332,0.0419435277581214,-0.813900351524353,0.0221603512763977,-0.0393655374646186,0.0,0.0,-0.3651606440544128,0.1259455680847168
-0.0067190169356763,0.7406004071235657,0.0467179305851459,-0.8451685309410095,0.020007649436593,-0.0430540069937706,0.0,0.0,0.1487936973571777,-0.0927979350090026
-0.0061658858321607,0.7212089896202087,0.0573675818741321,-0.8618158102035522,0.0179851911962032,-0.0404491238296031,0.0,0.0,0.2500233650207519,-0.4173512458801269
-0.0055014612153172,0.7017159461975098,0.0683257952332496,-0.8663384318351746,0.0161302685737609,-0.0370988324284553,0.0,0.0,0.4055731296539306,-0.275391936302185
-0.0048335073515772,0.6818942427635193,0.0690111368894577,-0.8809413909912109,0.0139378476887941,-0.0438486970961093,0.0,0.0,0.7390563488006592,-0.6869135499000549
-0.0041316030547022,0.6618894934654236,0.0710859522223472,-0.8890901803970337,0.0130562940612435,-0.0176311768591403,0.0,0.0,0.8604913949966431,-0.7050381898880005
-0.0033782958053052,0.6419326066970825,0.0748002231121063,-0.8869803547859192,0.0135804498568177,0.0104830795899033,0.0,0.0,0.1705106496810913,-0.661328911781311
-0.0027368545997887,0.6221622228622437,0.0625822693109512,-0.8786944150924683,0.0151270823553204,0.0309329032897949,0.0,0.0,0.8131707906723022,-0.2869108319282532
-0.0022174834739416,0.6029823422431946,0.0512262471020221,-0.8524446487426758,0.0158339086920022,0.0141360266134142,0.0,0.0,0.8380914926528931,-0.1070822477340698
-0.0016954422462731,0.5839471817016602,0.0517697557806968,-0.8460153937339783,0.0162687432020902,0.0086967181414365,0.0,0.0,0.7024892568588257,-0.2837691307067871
-0.0010013580322265,0.565094530582428,0.0684367269277572,-0.8379054665565491,0.01722770370543,0.0191792231053113,0.0,0.0,0.6392761468887329,-0.4606187343597412
-0.0003446578921284,0.5466331243515015,0.065122902393341,-0.8205123543739319,0.01776634901762,0.0107730282470583,0.0,0.0,0.8421213626861572,-0.4541617631912231
0.0004559516964945,0.5282148718833923,0.0790990442037582,-0.8186015486717224,0.0187166426330804,0.0190057344734668,0.0,0.0,0.9292086362838744,-0.4734835624694824
0.0012722968822345,0.5104900598526001,0.0808039829134941,-0.7877781391143799,0.0195359848439693,0.0163870491087436,0.0,0.0,0.3816781044006347,-0.666317880153656
0.0021935463882982,0.492673248052597,0.0898486971855163,-0.7918893098831177,0.0217852070927619,0.0449842996895313,0.0,0.0,0.8698501586914062,-0.7397925853729248
0.0029538155067712,0.4749436378479004,0.0726688504219055,-0.7880331873893738,0.0250996220856905,0.0662884563207626,0.0,0.0,0.8314440250396729,0.5057938098907471
0.0038673400413244,0.4578457176685333,0.0888221263885498,-0.7599509954452515,0.027597889304161,0.0499653071165084,0.0,0.0,0.8868535757064819,-0.4855366349220276
0.0049407957121729,0.4412058591842651,0.1042068973183631,-0.7396117448806763,0.0306953135877847,0.0619485490024089,0.0,0.0,0.1278265714645385,-0.6428377628326416
0.0060255052521824,0.4247121512889862,0.1040838733315467,-0.7331489324569702,0.0350231043994426,0.086556002497673,0.0,0.0,0.5129245519638062,-0.1940390467643737
0.0070360181853175,0.4085900783538818,0.0971179753541946,-0.7166309952735901,0.0389089062809944,0.0777162462472915,0.0,0.0,0.5703427791595459,-0.2450758218765258
0.008100795559585,0.3922951221466064,0.102433443069458,-0.7243321537971497,0.0429060533642768,0.0799430385231971,0.0,0.0,0.8584866523742676,-0.5759550333023071
0.0089838979765772,0.3764715790748596,0.0835416764020919,-0.7034124135971069,0.0476096533238887,0.0940718948841095,0.0,0.0,0.8358464241027832,0.2335132360458374
0.0099931713193655,0.3608156442642212,0.095638133585453,-0.6959982514381409,0.0528463087975978,0.1047332882881164,0.0,0.0,0.8000569343566895,-0.107792854309082
0.0110081676393747,0.3454588055610657,0.0961799100041389,-0.6827224493026733,0.0581062361598014,0.1051985844969749,0.0,0.0,0.8838688135147095,0.2165066003799438
0.0120195392519235,0.330083966255188,0.095861829817295,-0.6835391521453857,0.0633184388279914,0.1042440980672836,0.0,0.0,0.8746702671051025,0.3437327146530151
0.0128609659150242,0.3149964809417724,0.0796107947826385,-0.6707546710968018,0.0677986219525337,0.0896036997437477,0.0,0.0,0.925695300102234,0.257038950920105
0.013671207241714,0.3007009625434875,0.0764566287398338,-0.6355684399604797,0.0723192021250724,0.0904119163751602,0.0,0.0,0.916712522506714,0.5363733768463135
0.0146105764433741,0.2862188220024109,0.0902194678783416,-0.6438336968421936,0.0760000497102737,0.0736167803406715,0.0,0.0,0.9405889511108398,0.0626775026321411
0.0155144687741994,0.2725366353988647,0.0865957885980606,-0.6082934141159058,0.0797667056322097,0.0753332152962684,0.0,0.0,0.8033201694488525,0.1522140502929687
0.016282845288515,0.2589112818241119,0.0735696032643318,-0.6057471036911011,0.0830044671893119,0.0647551789879798,0.0,0.0,0.9158835411071776,0.460159420967102
0.0168869011104106,0.245742991566658,0.0576796121895313,-0.5854091048240662,0.0857033506035804,0.053977895528078,0.0,0.0,0.9713349342346193,0.68930983543396
0.0175268165767192,0.2329944223165512,0.0625926405191421,-0.5666852593421936,0.087089292705059,0.0277186688035726,0.0,0.0,0.883080005645752,0.1636774539947509
0.0179415699094533,0.2209614664316177,0.0407940335571765,-0.5348354578018188,0.0877648070454597,0.0135104358196258,0.0,0.0,0.959995985031128,0.1474509239196777
0.0183870308101177,0.2092601656913757,0.0434774197638034,-0.5201215744018555,0.0888199135661125,0.0211021937429904,0.0,0.0,0.8195518255233765,-0.4006677865982055
0.0187602043151855,0.1974938511848449,0.0364437215030193,-0.5229973196983337,0.089687205851078,0.0173457451164722,0.0,0.0,0.9543401002883912,0.4215697050094604
0.0191811565309762,0.185609370470047,0.0408545210957527,-0.5282755494117737,0.0909180641174316,0.0246171578764915,0.0,0.0,0.9094197750091552,0.0153795480728149
0.0195314399898052,0.1736022979021072,0.0339560620486736,-0.5337098240852356,0.0919788926839828,0.0212166383862495,0.0,0.0,0.9910879135131836,-0.1745275259017944
0.0197844505310058,0.1623182892799377,0.0242667719721794,-0.5015777349472046,0.0929993167519569,0.0204087439924478,0.0,0.0,0.979447603225708,0.7229423522949219
0.0201059337705373,0.1518199741840362,0.0323143079876899,-0.466579258441925,0.0928419977426529,-0.0031466470099985,0.0,0.0,0.990796446800232,-0.3716042637825012
0.0202007293701171,0.142070397734642,0.010246654972434,-0.4332683980464935,0.092079721391201,-0.0152456117793917,0.0,0.0,0.994282603263855,-0.0262926220893859
0.0201017372310161,0.1321929991245269,-0.0084272203966975,-0.4389073252677917,0.0906224846839904,-0.0291449315845966,0.0,0.0,0.9280166625976562,0.8403793573379517
0.0200343132019042,0.1230137646198272,-0.0037193309981375,-0.4077881574630737,0.0876277834177017,-0.0598937049508094,0.0,0.0,0.9160832166671752,0.5433652400970459
0.0198245048522949,0.1141177713871002,-0.0165412928909063,-0.3951246440410614,0.0832296758890152,-0.0879620462656021,0.0,0.0,0.9096803665161132,0.3029631376266479
0.0194833762943744,0.105681762099266,-0.0294186528772115,-0.3746781051158905,0.0785854905843734,-0.0928838178515434,0.0,0.0,0.7751526832580566,0.7260280847549438
0.0191230773925781,0.0976751148700714,-0.0299050901085138,-0.3555437624454498,0.072516418993473,-0.1213812977075576,0.0,0.0,0.5951434373855591,0.7801997661590576
0.0188726428896188,0.0898229703307151,-0.017560401931405,-0.348642498254776,0.06511702388525,-0.1479878723621368,0.0,0.0,0.5479140281677246,-0.2861949205398559
0.0186195373535156,0.0817501619458198,-0.0180060341954231,-0.3584882915019989,0.0578847862780094,-0.1446446776390075,0.0,0.0,0.7458736896514893,-0.9025579690933228
0.0183751098811626,0.0736082643270492,-0.019184174016118,-0.3616679608821869,0.0526967234909534,-0.1037613898515701,0.0,0.0,0.8557391166687012,-0.3317463397979736
0.0182575229555368,0.0657370910048484,-0.0073590069077908,-0.3496833741664886,0.048347819596529,-0.0869781672954559,0.0,0.0,0.8577065467834473,-0.7453154921531677
0.0182252880185842,0.0578293651342392,-0.0007883920334279,-0.3513792753219604,0.0459441468119621,-0.0480735525488853,0.0,0.0,0.9345099925994872,-0.6222242712974548
0.0180914886295795,0.0505369044840335,-0.0122638065367937,-0.3240746855735779,0.0448425859212875,-0.022031357511878,0.0,0.0,0.9803636074066162,-0.210787296295166
0.0179491993039846,0.0439059846103191,-0.0133771048858761,-0.2946816384792328,0.0440007895231246,-0.0168361123651266,0.0,0.0,0.9645055532455444,-0.2176973223686218
0.017915153875947,0.0377700179815292,-0.003338138340041,-0.2727078795433044,0.0439362078905105,-0.0012917385902255,0.0,0.0,0.9342505931854248,-0.44845712184906
0.0179775245487689,0.0315111018717289,0.0056534819304943,-0.2781927287578583,0.044513713568449,0.0115499561652541,0.0,0.0,0.9159601926803588,-0.6759142279624939
0.0178900714963674,0.0254237744957208,-0.0106270210817456,-0.2706044018268585,0.0463710688054561,0.037147156894207,0.0,0.0,0.9880826473236084,0.709784984588623
0.0179154388606548,0.0202087014913558,0.0017086395528167,-0.231807455420494,0.0471899323165416,0.0163772366940975,0.0,0.0,0.6011309623718262,-0.512276828289032
0.0178458206355571,0.0151118608191609,-0.0088595263659954,-0.2265878021717071,0.0490685850381851,0.0375731885433197,0.0,0.0,0.9450387954711914,-0.8609026670455933
0.0174975395202636,0.0107058146968483,-0.0382423773407936,-0.1959404051303863,0.0524434372782707,0.0674967095255851,0.0,0.0,0.8929359912872314,0.9509718418121338
0.0172890666872262,0.0068134283646941,-0.0226533003151416,-0.1730563342571258,0.0542235933244228,0.0356033369898796,0.0,0.0,0.7578010559082031,0.9044392108917236
0.0170418731868267,0.0034205412957817,-0.0247106216847896,-0.1507961153984069,0.054212287068367,-0.0002259635075461,0.0,1.0,0.9607315063476562,0.948659896850586
0.0166884418576955,0.0009472226956859,-0.0267178528010845,-0.1098944395780563,0.0448425374925136,-0.188474103808403,0.0,1.0,0.7609328031539917,0.2760424613952636
0.0162177085876464,-0.0011187219060957,-0.0283285491168499,-0.0913708209991455,0.0262876823544502,-0.3711433410644531,0.0,1.0,0.6802955865859985,0.514580249786377
0.0156044960021972,-0.0027549767401069,-0.0350385271012783,-0.0724717825651168,0.0003080122405663,-0.5196370482444763,0.0,1.0,0.4770209789276123,0.5311431884765625
0.0150839807465672,-0.0036560201551765,-0.0389469638466835,-0.0401238054037094,-0.0125439064577221,-0.2569366693496704,1.0,1.0,0.7933789491653442,-0.034458577632904
0.0148846628144383,-0.0032967114821076,-0.0201660506427288,0.015857370570302,-0.0118778338655829,0.013854855671525,1.0,1.0,-0.7902560234069824,-0.0018314719200134
0.0147445676848292,-0.0028447771910578,-0.0192410610616207,0.0201127622276544,-0.0067204525694251,0.1031359210610389,1.0,1.0,-0.2524878978729248,0.9926924705505372
0.0147027019411325,-0.0022549771238118,-0.0071057765744626,0.0262180101126432,-0.0038410234265029,0.057586945593357,1.0,1.0,-0.2843027114868164,0.8239743709564209
0.0147150037810206,-0.0015198731562122,0.0005512963980436,0.032665841281414,-0.0031702569685876,0.0134179489687085,1.0,1.0,-0.6691851019859314,0.1519091129302978
0.0147799495607614,-0.0008630180382169,0.0014408577699214,0.0291964840143919,0.0018133135745301,0.0996727049350738,1.0,1.0,-0.1019888520240783,0.9707289934158324
0.0148950573056936,-0.000858511950355,0.0115223294124007,0.0002009530726354,0.0018157252343371,4.931464718538337e-05,1.0,1.0,-0.71940016746521,-0.2316586375236511
0.0149444583803415,-0.0008613014360889,0.0049611208960413,-0.0001263217272935,0.0018072904786095,-0.0001648696343181,1.0,1.0,-0.9069272875785828,0.0180534124374389
0.0149394031614065,-0.0008613014360889,-0.0005201665917411,-3.606901827879483e-06,0.0018151178956031,0.0001539695222163,1.0,1.0,-0.8586556315422058,-0.1140700578689575
0.0149202346801757,-0.0008613014360889,-0.0019543506205081,-9.2216771463427e-07,0.0018446684116497,0.0005766556714661,1.0,1.0,-0.8502513766288757,0.0266356468200683
0.0149094583466649,-0.0008612298988737,-0.001101610600017,-9.78987486632832e-07,0.0018613341962918,0.0003248477878514,1.0,1.0,-0.8765208721160889,0.1183921098709106
0.0149086955934762,-0.0008612298988737,-8.094556687865406e-05,-8.068901991009626e-08,0.0018625312950462,2.385307743679732e-05,1.0,1.0,-0.7751515507698059,0.2844206094741821
0.0149116516113281,-0.0008612298988737,0.0003055128618143,2.846441304882319e-07,0.0018578896997496,-9.002927254186943e-05,1.0,1.0,-0.8968429565429688,0.0500147342681884
0.0149139408022165,-0.0008612298988737,0.0002249846438644,2.0884729678982694e-07,0.001854459173046,-6.62570382701233e-05,1.0,1.0,-0.7260956168174744,-0.0582210421562194
0.0149144176393747,-0.0008612298988737,4.696797986980528e-05,4.2589128668169e-08,0.0018537383293733,-1.3834741366736124e-05,1.0,1.0,-0.6379225254058838,0.0684497356414794
0.0149140357971191,-0.0008612298988737,-4.261341382516548e-05,-3.909450896344424e-08,0.0018543658079579,1.2544694982352668e-05,1.0,1.0,-0.5504662394523621,-0.044727087020874
0.0149135589599609,-0.0008612298988737,-4.2989464418496937e-05,-4.022402677605896e-08,0.0018550204113125,1.2662681911024263e-05,1.0,1.0,-0.7644952535629272,-0.2444373369216919
0.0149134639650583,-0.0008612298988737,-1.4109617040958256e-05,-1.1930933574433313e-08,0.0018552141264081,4.170548891124781e-06,1.0,1.0,-0.8155769109725952,0.0498263835906982
