x_pos,y_pos,x_vel,y_vel,angle,ang_vel,leg_1,leg_2,main_booster,lat_booster
-0.0015315056079998,1.4034225940704346,-0.1551458537578582,-0.3332255482673645,0.0017839528154581,0.0351915620267391,0.0,0.0,-0.5440663695335388,0.6936578750610352
-0.0030123710166662,1.3957430124282837,-0.1483459323644638,-0.3413145244121551,0.0020399163477122,0.0051204743795096,0.0,0.0,-0.5899280905723572,0.3600771427154541
-0.0045019150711596,1.3878610134124756,-0.1492216885089874,-0.3503126204013824,0.0023024235852062,0.0052506932988762,0.0,0.0,-0.32388436794281,0.463367223739624
-0.0060005187988281,1.379776954650879,-0.1501301676034927,-0.3592920303344726,0.002571219112724,0.005376479588449,0.0,0.0,0.4136897325515747,0.4548203945159912
-0.0073993680998682,1.372328281402588,-0.1407052427530288,-0.3310497403144836,0.0033749439753592,0.01607571169734,0.0,0.0,-0.6843109130859375,0.4059169292449951
-0.0088077541440725,1.3646777868270874,-0.1416632533073425,-0.3400318324565887,0.0041845957748591,0.0161947309970855,0.0,0.0,-0.2648476958274841,0.8367633819580078
-0.0101625444367527,1.356825590133667,-0.1346838176250457,-0.3489814400672912,0.0034061348997056,-0.0155705334618687,0.0,0.0,-0.0343517661094665,0.2924411296844482
-0.0115269664674997,1.3487714529037476,-0.1356609612703323,-0.35795658826828,0.0026345937512815,-0.0154322404414415,0.0,0.0,-0.1195296645164489,0.6430685520172119
-0.0128515241667628,1.3405227661132812,-0.1304170787334442,-0.3666103780269623,0.0006203957018442,-0.0402876622974872,0.0,0.0,-0.579234778881073,0.5058401823043823
-0.0141459461301565,1.3320752382278442,-0.126398354768753,-0.3754436075687408,-0.0023882749956101,-0.0601791851222515,0.0,0.0,0.0383275747299194,0.2843685150146484
-0.0153947826474905,1.3239861726760864,-0.1221113428473472,-0.3595205843448639,-0.0051344418898224,-0.0549280121922493,0.0,0.0,-0.2476052045822143,0.6088950634002686
-0.0165994651615619,1.315693497657776,-0.116332471370697,-0.3685800731182098,-0.0092243729159235,-0.081806406378746,0.0,0.0,-0.1941762566566467,0.2889248132705688
-0.0178133007138967,1.307199239730835,-0.1172534823417663,-0.3775545060634613,-0.0133090307936072,-0.081700749695301,0.0,0.0,-0.7746343016624451,0.5358105897903442
-0.0189889911562204,1.298497438430786,-0.1122436970472335,-0.3868053555488586,-0.0185744576156139,-0.1053181886672973,0.0,0.0,-0.677949845790863,0.4856185913085937
-0.020173167809844,1.289594054222107,-0.1130987852811813,-0.3957829177379608,-0.0238359495997428,-0.1052390933036804,0.0,0.0,-0.8142463564872742,0.6187132596969604
-0.0213078502565622,1.280479907989502,-0.1066882759332656,-0.4051986336708069,-0.0305465254932642,-0.134223461151123,0.0,0.0,-0.5529586672782898,0.2747803926467895
-0.0224502570927143,1.2711641788482666,-0.1074509844183921,-0.4141776263713836,-0.0372544080018997,-0.1341699808835983,0.0,0.0,-0.5080997943878174,-0.0603415369987487
-0.0235995296388864,1.261647343635559,-0.1081603541970253,-0.4231570959091186,-0.0439614579081535,-0.1341529488563537,0.0,0.0,-0.820845365524292,0.4183597564697265
-0.0247554779052734,1.2519291639328003,-0.1088096052408218,-0.4321364760398865,-0.0506683550775051,-0.1341502368450164,0.0,0.0,-0.8089236617088318,-0.6538466215133667
-0.0259756091982126,1.2420135736465454,-0.1167318671941757,-0.4408822059631347,-0.0559030324220657,-0.1047029495239257,0.0,0.0,-0.4167182445526123,0.6473829746246338
-0.0271389000117778,1.231895923614502,-0.1094625368714332,-0.4499402046203613,-0.0626991912722587,-0.1359353959560394,0.0,0.0,-0.6618228554725647,-0.5771947503089905
-0.0283512119203805,1.2215780019760132,-0.1155075579881668,-0.4588308334350586,-0.0683727636933326,-0.1134817972779274,0.0,0.0,0.1421903371810913,0.784005880355835
-0.0293766967952251,1.211603760719299,-0.095322735607624,-0.4436422288417816,-0.0755309760570526,-0.1431771069765091,0.0,0.0,-0.8555822968482971,0.3698248863220215
-0.0304046627134084,1.2014280557632446,-0.0955737605690956,-0.4526273906230926,-0.0826943665742874,-0.143280804157257,0.0,0.0,-0.98324054479599,-0.6468738913536072
-0.0314971916377544,1.1910607814788818,-0.1036248430609703,-0.4610900282859802,-0.0882723554968833,-0.1115699037909507,0.0,0.0,-0.6651948690414429,-0.661323070526123
-0.0326560959219932,1.1804825067520142,-0.1119067296385765,-0.4703846275806427,-0.0922223702073097,-0.0789999514818191,0.0,0.0,-0.2944167256355285,-0.0801206231117248
-0.0338147170841693,1.169702649116516,-0.1118635088205337,-0.4793596267700195,-0.0961837023496627,-0.0792268738150596,0.0,0.0,-0.2411978840827942,0.6550886631011963
-0.0349309928715229,1.1587220430374146,-0.1065900176763534,-0.488359659910202,-0.1011781841516494,-0.0998897701501846,0.0,0.0,-0.2980509996414184,-0.9302372336387634
-0.0361330024898052,1.1475608348846436,-0.1174373254179954,-0.4962388873100281,-0.1039278209209442,-0.0549927838146686,0.0,0.0,-0.6483274102210999,-0.7792476415634155
-0.0373948104679584,1.1362050771713257,-0.1250109374523162,-0.5047892332077026,-0.1050867289304733,-0.0231780316680669,0.0,0.0,-0.0205029249191284,-0.3694345951080322
-0.0386512763798236,1.1246472597122192,-0.1244658604264259,-0.5137630701065063,-0.1062636449933052,-0.0235383566468954,0.0,0.0,-0.1826358437538147,0.0292195081710815
-0.039901066571474,1.112887620925903,-0.1237814798951149,-0.5227368474006653,-0.1074603572487831,-0.0239341035485267,0.0,0.0,-0.3633512854576111,0.8364046812057495
-0.0410855300724506,1.100924730300903,-0.1157709136605262,-0.5318759679794312,-0.1101152226328849,-0.0530973374843597,0.0,0.0,0.0045974254608154,-0.6895801424980164
-0.0423352234065532,1.089097261428833,-0.1236262917518615,-0.5257695317268372,-0.1114540994167327,-0.0267774015665054,0.0,0.0,-0.5363207459449768,0.5791221857070923
-0.0435270294547081,1.0770612955093384,-0.1166152730584144,-0.5351280570030212,-0.1140043884515762,-0.0510057508945465,0.0,0.0,-0.6423074007034302,-0.4188238382339477
-0.0447062477469444,1.0648235082626345,-0.1153243407607078,-0.5441024303436279,-0.1165817826986312,-0.0515481606125831,0.0,0.0,-0.1399790048599243,-0.6391512751579285
-0.0459238998591899,1.0523899793624878,-0.1204742938280105,-0.5527076125144958,-0.1178585439920425,-0.0255356468260288,0.0,0.0,-0.952512502670288,-0.6162978410720825
-0.0471705421805381,1.0397672653198242,-0.1245100647211074,-0.5610228180885315,-0.1180121153593063,-0.0030713924206793,0.0,0.0,-0.8878106474876404,-0.3045159578323364
-0.0483996383845806,1.0269426107406616,-0.1227192878723144,-0.5699967741966248,-0.1181986257433891,-0.0037301965057849,0.0,0.0,-0.6285877823829651,-0.2850344777107239
-0.0496093742549419,1.013916254043579,-0.1207549944519996,-0.5789706707000732,-0.1184200271964073,-0.0044279834255576,0.0,0.0,-0.665234386920929,0.5236232280731201
-0.0507639870047569,1.0006862878799438,-0.1143316626548767,-0.5880867838859558,-0.1195362210273742,-0.0223240014165639,0.0,0.0,-0.6806552410125732,-0.3983564376831054
-0.0518957152962684,0.9872543215751648,-0.1120119839906692,-0.5970609188079834,-0.1206912249326706,-0.0231000613421201,0.0,0.0,-0.9898374676704408,-0.6426922678947449
-0.0530457496643066,0.973621428012848,-0.1148813143372535,-0.6059189438819885,-0.1208141595125198,-0.0024585938081145,0.0,0.0,0.3844685554504394,-0.8755983710289001
-0.0540909767150878,0.9604399800300598,-0.1062074154615402,-0.585709273815155,-0.1191361024975776,0.0335611253976821,0.0,0.0,-0.9875922203063964,0.3163142204284668
-0.0551078803837299,0.947056531906128,-0.1033392995595932,-0.5946835279464722,-0.117502711713314,0.032667938619852,0.0,0.0,-0.9881073832511902,-0.1818089485168457
-0.0560948364436626,0.9334715604782104,-0.1002858057618141,-0.6036577224731445,-0.1159158945083618,0.0317360088229179,0.0,0.0,-0.9764450788497924,-0.3575631380081177
-0.057049848139286,0.9196845889091492,-0.0970463007688522,-0.6126319766044617,-0.1143776178359985,0.0307657122611999,0.0,0.0,-0.9885966777801514,-0.5974658727645874
-0.0580262169241905,0.9057118892669678,-0.1005661934614181,-0.6207872033119202,-0.111472487449646,0.0581025592982769,0.0,0.0,-0.9877761006355286,0.0162650346755981
-0.0589670166373252,0.8915375471115112,-0.0969545319676399,-0.6297619342803955,-0.108619675040245,0.0570566169917583,0.0,0.0,-0.4983887672424316,0.6539827585220337
-0.0598208419978618,0.8771513104438782,-0.0869416743516922,-0.6392728686332703,-0.1070804297924041,0.030784860253334,0.0,0.0,-0.9425923824310304,-0.0905542969703674
-0.0606355667114257,0.8625633716583252,-0.0829599052667617,-0.6482470631599426,-0.1055971607565879,0.0296655409038066,0.0,0.0,-0.865055501461029,-0.056656002998352
-0.061409093439579,0.8477737307548523,-0.0787949636578559,-0.6572213768959045,-0.1041716337203979,0.0285104606300592,0.0,0.0,-0.8824480772018433,-0.6385213136672974
-0.0621811859309673,0.8327850103378296,-0.0796342939138412,-0.6659930348396301,-0.1017647981643676,0.048136930912733,0.0,0.0,-0.8106731176376343,0.3635432720184326
-0.06290864944458,0.8175947070121765,-0.0751084312796592,-0.6749677062034607,-0.0994191840291023,0.0469125099480152,0.0,0.0,-0.8889980316162109,-0.1374767422676086
-0.0635896697640419,0.8022025227546692,-0.0704054683446884,-0.6839421987533569,-0.0971364378929138,0.0456547662615776,0.0,0.0,-0.7899472117424011,-0.6088011860847473
-0.0642783194780349,0.7866142392158508,-0.0725170001387596,-0.6925837993621826,-0.0935130044817924,0.0724687576293945,0.0,0.0,-0.8852574825286865,-0.3335925340652466
-0.0649171844124794,0.770824134349823,-0.0674682855606079,-0.7015589475631714,-0.0899556651711463,0.0711468160152435,0.0,0.0,-0.7981838583946228,-0.1609390974044799
-0.0655045509338378,0.7548325657844543,-0.0622513778507709,-0.7105340957641602,-0.0864659547805786,0.0697942152619361,0.0,0.0,-0.7164958119392395,-0.3307139873504638
-0.0660387054085731,0.7386391758918762,-0.0568697825074195,-0.7195092439651489,-0.0830453559756279,0.0684120059013366,0.0,0.0,-0.869836151599884,0.4021028280258178
-0.0665181130170822,0.7222440838813782,-0.0513272210955619,-0.7284843325614929,-0.0796952918171882,0.0670013278722763,0.0,0.0,-0.3340319991111755,0.439075231552124
-0.0669412612915039,0.7056474089622498,-0.0456276386976242,-0.7374593615531921,-0.0764171406626701,0.065563254058361,0.0,0.0,0.0312740802764892,0.6833317279815674
-0.0672904998064041,0.6895092725753784,-0.0367224738001823,-0.7171573042869568,-0.0746351107954979,0.0356402844190597,0.0,0.0,-0.1318106651306152,0.0840485095977783
-0.0675804167985916,0.6731693744659424,-0.0307212825864553,-0.7261315584182739,-0.0729275494813919,0.034151155501604,0.0,0.0,-0.2731862664222717,-0.2778138518333435
-0.0678096786141395,0.6566278338432312,-0.0245758723467588,-0.7351058721542358,-0.0712956190109252,0.0326383039355278,0.0,0.0,-0.1057254076004028,-0.1386176347732544
-0.0679768547415733,0.6398842334747314,-0.0182907544076442,-0.7440801858901978,-0.0697404742240905,0.0311029516160488,0.0,0.0,-0.003337025642395,0.1749080419540405
-0.0680807083845138,0.6229389905929565,-0.0118705341592431,-0.7530544400215149,-0.0682631433010101,0.0295463856309652,0.0,0.0,0.3246824741363525,-0.3629658222198486
-0.0680557265877723,0.6068170666694641,0.0009996814187616,-0.7164641618728638,-0.06678506731987,0.0295615848153829,0.0,0.0,-0.4820469617843628,-0.154940664768219
-0.0679648369550705,0.5904932618141174,0.0076760435476899,-0.7254384160041809,-0.0653867423534393,0.027966434136033,0.0,0.0,-0.2435333728790283,-0.3901856541633606
-0.0678067207336425,0.573967695236206,0.0144733693450689,-0.7344125509262085,-0.0640690475702285,0.0263539161533117,0.0,0.0,0.1692817211151123,-0.4948781728744507
-0.0676254257559776,0.5577481985092163,0.0171976126730442,-0.7208273410797119,-0.063140869140625,0.018563350662589,0.0,0.0,0.1633943319320678,-0.2205080986022949
-0.0674090385437011,0.5420467257499695,0.0210818164050579,,-0.0625940188765525,0.0109373591840267,0.0,0.0,-0.3354694843292236,-0.4489894509315491
-0.0671222656965255,0.5261434316635132,0.0282135121524333,-0.7067920565605164,-0.0621299743652343,0.0092808920890092,0.0,0.0,0.398061990737915,-0.4205964207649231
-0.0668283477425575,0.5111184120178223,0.0295166820287704,-0.6677843332290649,-0.0622536540031433,-0.0024736567866057,0.0,0.0,0.1556960344314575,-0.7897375822067261
-0.0664402022957801,0.4964966475963592,0.0373803526163101,-0.6497981548309326,-0.0608433820307254,0.0282056424766778,0.0,0.0,-0.5742635130882263,-0.3714156746864319
-0.0659788101911544,0.4816730320453644,0.044804148375988,-0.6587722897529602,-0.0595175139605999,0.026517380028963,0.0,0.0,-0.399910032749176,-0.6202818751335144
-0.0654868111014366,0.4666450023651123,0.0468363799154758,-0.6678208708763123,-0.0571827068924903,0.0466962493956089,0.0,0.0,-0.3185198307037353,-0.6585915684700012
-0.0649747848510742,0.4514133632183075,0.0475358143448829,-0.6768246293067932,-0.0535548664629459,0.0725564882159233,0.0,0.0,0.2850230932235718,-0.1447640061378479
-0.0643603354692459,0.4369046688079834,0.0578958094120025,-0.6447070837020874,-0.0500425845384597,0.0702458545565605,0.0,0.0,0.0763311386108398,-0.3979853391647339
-0.0635905265808105,0.4229866564273834,0.0732698962092399,-0.6184617280960083,-0.046374712139368,0.0733575448393821,0.0,0.0,-0.6703462600708008,-0.6273454427719116
-0.0628019347786903,0.4088773727416992,0.0737281367182731,-0.6269285082817078,-0.0413107685744762,0.1012790203094482,0.0,0.0,-0.0934531092643737,0.0981427431106567
-0.0619354248046875,0.3945666253566742,0.0816154405474662,-0.6359045505523682,-0.0363325998187065,0.0995633080601692,0.0,0.0,0.1649514436721801,-0.2086691260337829
-0.0609415061771869,0.380888283252716,0.0943013504147529,-0.6078110337257385,-0.0313086509704589,0.1004789024591445,0.0,0.0,-0.3368275165557861,-0.1201464533805847
-0.0598684325814247,0.3670083880424499,0.1023097783327102,-0.6167868971824646,-0.026370383799076,0.0987652540206909,0.0,0.0,-0.054017961025238,0.1220185756683349
-0.0587156303226947,0.3529269993305206,0.1103728786110878,-0.6257627010345459,-0.0215176455676555,0.0970548614859581,0.0,0.0,0.3874697685241699,-0.7126567959785461
-0.0575372688472271,0.3395305573940277,0.1115853562951088,-0.5953187346458435,-0.0153510076925158,0.1233327612280845,0.0,0.0,0.2319540977478027,-0.2379052639007568
-0.0562065131962299,0.3265819847583771,0.1266105473041534,-0.5754401683807373,-0.0089685935527086,0.1276482045650482,0.0,0.0,-0.60622638463974,0.151138424873352
-0.0547945983707904,0.3134320080280304,0.1348150074481964,-0.5844172239303589,-0.0026707635261118,0.1259561777114868,0.0,0.0,-0.1852302551269531,-0.0502797365188598
-0.0533010475337505,0.3000806868076324,0.1430592834949493,-0.5933941602706909,0.0035428958944976,0.1242733225226402,0.0,0.0,0.6119730472564697,0.2713710069656372
-0.051583956927061,0.287364512681961,0.1648267209529876,-0.5651944279670715,0.0103369345888495,0.1358806788921356,0.0,0.0,0.5901362895965576,-0.3377690315246582
-0.0496542938053607,0.275018572807312,0.1855367422103881,-0.5487788915634155,0.0176686067134141,0.1466334611177444,0.0,0.0,0.3800926208496094,-0.0076236724853515
-0.0476579666137695,0.2634123861789703,0.1923215836286544,-0.5159313082695007,0.0248960554599761,0.1445489227771759,0.0,0.0,-0.100679874420166,-0.4237843751907348
-0.0455786697566509,0.2516050338745117,0.200690358877182,-0.5249090790748596,0.0320419780910015,0.1429184377193451,0.0,0.0,0.6397974491119385,-0.7217361927032471
-0.0433591827750206,0.2405956536531448,0.2130516767501831,-0.4895195662975311,0.0408173389732837,0.1755072176456451,0.0,0.0,0.0396913290023803,-0.3601963520050049
-0.0410015098750591,0.2296971678733825,0.2266692668199539,-0.4846509397029876,0.0498065240681171,0.1797839850187301,0.0,0.0,0.1380541324615478,-0.8532665371894836
-0.0386873260140419,0.2191128134727478,0.2207130640745163,-0.4708029627799988,0.0603959672152996,0.2117885798215866,0.0,0.0,0.5702348947525024,-0.7318694591522217
-0.0363087654113769,0.2095675021409988,0.2255903780460357,-0.4247721433639526,0.0725298672914505,0.2426778376102447,0.0,0.0,-0.3624323606491089,-0.8726097345352173
-0.0339180938899517,0.19981449842453,0.2250651866197586,-0.4342059195041656,0.0863921865820884,0.2772466540336609,0.0,0.0,0.0922611951828002,-0.3737702965736389
-0.0315711013972759,0.1906371861696243,0.2211733311414718,-0.4087149202823639,0.099798709154129,0.2681306004524231,0.0,0.0,-0.3596827983856201,-0.134905457496643
-0.0291404724121093,0.1812602579593658,0.2296327650547027,-0.4177028238773346,0.1131314113736152,0.2666540145874023,0.0,0.0,0.2293745279312133,-0.1637449264526367
-0.0267288200557231,0.1725088953971862,0.2280184924602508,-0.3899949491024017,0.1262074708938598,0.2615211009979248,0.0,0.0,-0.6618128418922424,0.2712793350219726
-0.0242334362119436,0.1635578274726867,0.2364737540483474,-0.3989819586277008,0.1392127424478531,0.2601056694984436,0.0,0.0,-0.4400880336761474,-0.7000065445899963
-0.0217115394771099,0.1543928235769271,0.2377747297286987,-0.4087410569190979,0.15360689163208,0.2878830730915069,0.0,0.0,-0.2387154698371887,0.347097635269165
-0.019106101244688,0.1450284868478775,0.2462128102779388,-0.4177308678627014,0.1679336279630661,0.2865346372127533,0.0,0.0,0.1733382940292358,0.3113152980804443
-0.0165849681943655,0.1359880715608596,0.2383777648210525,-0.4034064710140228,0.1817004233598709,0.2753360569477081,0.0,0.0,-0.0516531467437744,-0.2167174816131591
-0.013980770483613,0.126748114824295,0.2467833310365677,-0.4123946130275726,0.195403590798378,0.2740633189678192,0.0,0.0,0.712653398513794,0.4922035932540893
-0.0113056180998682,0.1178898885846138,0.2536879479885101,-0.3955836594104767,0.209339290857315,0.278714120388031,0.0,0.0,0.724418044090271,-0.081638216972351
-0.0085651399567723,0.1100477576255798,0.2596160769462585,-0.3506447672843933,0.2239157557487487,0.2915291488170624,0.0,0.0,0.13691246509552,-0.1494497656822204
-0.0058764456771314,0.1027821898460388,0.2546257972717285,-0.3251440823078155,0.2383619546890258,0.2889241576194763,0.0,0.0,-0.134702980518341,-0.8374624252319336
-0.0031563758384436,0.0953090488910675,0.2566010057926178,-0.3347126841545105,0.2540343403816223,0.3134470880031585,0.0,0.0,0.3277081251144409,-0.6653568148612976
-0.0004570960882119,0.0883194282650947,0.2532231509685516,-0.3136338889598846,0.2711120545864105,0.3415542244911194,0.0,0.0,0.366902232170105,-0.391828179359436
0.002136516617611,0.0821052864193916,0.2428035289049148,-0.2793416678905487,0.2881115972995758,0.3399909436702728,0.0,0.0,0.3178043365478515,-0.518737256526947
0.0046422006562352,0.0766059011220932,0.2330176830291748,-0.2479929476976394,0.3062297701835632,0.3623636364936828,0.0,0.0,-0.4249352216720581,-0.5279653072357178
0.0071938512846827,0.0708899348974227,0.2368559390306472,-0.2580164670944214,0.3252363801002502,0.3801323473453522,0.0,0.0,-0.2550514340400696,-0.5576446652412415
0.0097743030637502,0.0649523809552192,0.2385805398225784,-0.2683975100517273,0.3455691039562225,0.4066546857357025,0.0,0.0,0.2334382534027099,-0.340961754322052
0.0122126583009958,0.0593115203082561,0.2249702215194702,-0.2553592324256897,0.3654181659221649,0.3969819545745849,0.0,0.0,0.0895009040832519,0.3018155097961426
0.0145823480561375,0.0539866536855697,0.2183538675308227,-0.2415378838777542,0.3851640224456787,0.3949177265167236,0.0,0.0,0.2351875305175781,0.4782752990722656
0.0168971065431833,0.0490298606455326,0.212941363453865,-0.2254367619752884,0.4049649834632873,0.3960194885730743,0.0,0.0,0.1452112197875976,0.312901496887207
0.0192726142704486,0.0442729815840721,0.2188261449337005,-0.2168997228145599,0.4251528680324554,0.4037575125694275,0.0,0.0,0.3784390687942505,0.549405574798584
0.0216480251401662,0.0415389873087406,0.235250785946846,-0.1221986934542656,0.4276563823223114,0.0500948503613472,0.0,1.0,0.9181480407714844,0.9555011987686156
0.023470114916563,0.0405843369662761,0.1993884146213531,-0.037333358079195,0.409083604812622,-0.3714829087257385,0.0,1.0,0.9401381015777588,-0.3728933334350586
0.0250768661499023,0.0403309911489486,0.1874436438083648,-0.0037883713375777,0.3804347217082977,-0.5729793906211853,0.0,1.0,0.4552799463272095,-0.9347810745239258
