x_pos,y_pos,x_vel,y_vel,angle,ang_vel,leg_1,leg_2,main_booster,lat_booster
-0.0015396118396893,1.403348445892334,-0.1554590016603469,-0.3365113437175751,0.0013382219476625,0.0263662226498127,0.0,0.0,-0.5083636045455933,0.4629150629043579
-0.0030954361427575,1.395524263381958,-0.1564696878194809,-0.347744345664978,0.0022167519200593,0.0175729468464851,0.0,0.0,0.1062185764312744,0.5389672517776489
-0.0045265196822583,1.3878259658813477,-0.1427105963230133,-0.3421468734741211,0.0018171288538724,-0.0079933060333132,0.0,0.0,-0.5270984768867493,0.455418586730957
-0.0059733390808105,1.3798515796661377,-0.1438937783241272,-0.3544146120548248,0.0010317330015823,-0.0157092660665512,0.0,0.0,-0.1748214364051818,0.7600228786468506
-0.0073633193969726,1.3716039657592771,-0.1359826028347015,-0.3665619194507599,-0.0019448759267106,-0.0595376715064048,0.0,0.0,-0.168858528137207,-0.0318853855133056
-0.0087685585021972,1.363080620765686,-0.1371722817420959,-0.3788232505321502,-0.0052661895751953,-0.0664323568344116,0.0,0.0,-0.0036051869392395,0.0826877355575561
-0.0101891513913869,1.354281663894653,-0.1383678913116455,-0.3910848200321197,-0.0089126350358128,-0.0729354470968246,0.0,0.0,0.222935676574707,0.2163803577423095
-0.0115098003298044,1.345923900604248,-0.1286129355430603,-0.3714842200279236,-0.0123356552794575,-0.0684664398431778,0.0,0.0,-0.217298150062561,0.137711763381958
-0.0128455162048339,1.3372901678085327,-0.1298208683729171,-0.3837517201900482,-0.0160412769764661,-0.0741193890571594,0.0,0.0,0.088134765625,0.7499933242797852
-0.0141297336667776,1.3291019201278689,-0.1229084879159927,-0.3639911115169525,-0.0214933659881353,-0.1090516448020935,0.0,0.0,-0.7151545286178589,0.2122039794921875
-0.0154284480959177,1.3206381797790527,-0.1241210252046585,-0.3762603998184204,-0.0271831285208463,-0.1138054728507995,0.0,0.0,-0.5036090612411499,0.2152837514877319
-0.0167415626347064,1.311899185180664,-0.1253383308649063,-0.3885220885276794,-0.0330894514918327,-0.1181375235319137,0.0,0.0,-0.2659457921981811,0.1670068502426147
-0.0180688854306936,1.302884817123413,-0.1265596598386764,-0.4007862210273742,-0.0391898527741432,-0.1220194920897483,0.0,0.0,-0.40834641456604,0.4191286563873291
-0.0194101333618164,1.2935951948165894,-0.1277851462364196,-0.4130507707595825,-0.0454620942473411,-0.125456228852272,0.0,0.0,-0.7818031907081604,0.3536549806594848
-0.0207651145756244,1.284030556678772,-0.12901471555233,-0.425315648317337,-0.0518839545547962,-0.128448873758316,0.0,0.0,0.2258909940719604,0.2505918741226196
-0.0220410339534282,1.2745144367218018,-0.1213664561510086,-0.423163890838623,-0.0580507256090641,-0.1233464851975441,0.0,0.0,-0.8175976872444153,-0.20383882522583
-0.0233304016292095,1.2647230625152588,-0.1226054280996322,-0.4354315102100372,-0.0643233507871627,-0.1254639327526092,0.0,0.0,-0.7510838508605957,-0.7362285852432251
-0.0246776584535837,1.2546544075012207,-0.1294323801994323,-0.4477342963218689,-0.0695637539029121,-0.1048175245523452,0.0,0.0,-0.5304490327835083,-0.265970230102539
-0.0260379798710346,1.2443101406097412,-0.1306818425655365,-0.4599984884262085,-0.0748669505119323,-0.1060731187462806,0.0,0.0,-0.6557633876800537,0.2225674390792846
-0.0274111740291118,1.23369038105011,-0.1319340616464615,-0.47226282954216,-0.0802108868956565,-0.1068884879350662,0.0,0.0,0.6018143892288208,0.0111737251281738
-0.0286152847111225,1.2238703966140747,-0.1155985593795776,-0.4367140531539917,-0.0849978178739547,-0.0957471430301666,0.0,0.0,-0.9822630882263184,-0.0964797139167785
-0.0298321731388568,1.2137746810913086,-0.1168607100844383,-0.4489861726760864,-0.0897847712039947,-0.0957478657364845,0.0,0.0,-0.7132047414779663,-0.3986077308654785
-0.0310613624751567,1.2034032344818115,-0.1181240826845169,-0.4612464606761932,-0.0945509076118469,-0.0953312367200851,0.0,0.0,-0.9142672419548036,0.7237656116485596
-0.0322398170828819,1.1927392482757568,-0.1114613562822341,-0.474370390176773,-0.1008888632059097,-0.1267707347869873,0.0,0.0,-0.6411793231964111,0.0569872856140136
-0.0334301963448524,1.1817998886108398,-0.1127265319228172,-0.4866358339786529,-0.1071664616465568,-0.1255630105733871,0.0,0.0,-0.0768617987632751,-0.2843767404556274
-0.0346341133117675,1.170563817024231,-0.1141478270292282,-0.4998492002487182,-0.1133665293455123,-0.124001070857048,0.0,0.0,0.0090564489364624,-0.5307922959327698
-0.0358386039733886,1.1597232818603516,-0.1153734698891639,-0.4821968972682953,-0.1184066087007522,-0.100801482796669,0.0,0.0,-0.4427099227905273,-0.5681570768356323
-0.0371086113154888,1.1486225128173828,-0.123435340821743,-0.4936559498310089,-0.1219511926174163,-0.0708915293216705,0.0,0.0,0.2334381341934204,-0.1851669549942016
-0.0384164825081825,1.1381244659423828,-0.1269072592258453,-0.4668953716754913,-0.1258165538311004,-0.0773072689771652,0.0,0.0,-0.9294523000717164,0.9052902460098268
-0.0396676063537597,1.1273345947265625,-0.1196206659078598,-0.4800304472446441,-0.1312820017337799,-0.1093088760972023,0.0,0.0,0.3817847967147827,-0.397125244140625
-0.0408218391239643,1.1173187494277954,-0.1101651415228843,-0.4456205666065216,-0.1365132182836532,-0.1046247035264968,0.0,0.0,0.106066346168518,0.377508282661438
-0.041998766362667,1.107473611831665,-0.1123853325843811,-0.4380523562431335,-0.1418085396289825,-0.1059061661362648,0.0,0.0,0.0095678567886352,0.480618953704834
-0.0431674942374229,1.098090887069702,-0.1115179806947708,-0.4175299406051636,-0.1471459716558456,-0.1067487224936485,0.0,0.0,-0.8134070038795471,0.5265923738479614
-0.0443106666207313,1.0884194374084473,-0.1082360297441482,-0.4304563105106354,-0.1532225608825683,-0.121531918644905,0.0,0.0,-0.7644287943840027,0.1168919801712036
-0.0454646125435829,1.078472137451172,-0.1095336303114891,-0.4427156746387481,-0.1590810418128967,-0.1171697229146957,0.0,0.0,-0.8898857235908508,-0.1876063346862793
-0.0466291420161724,1.068248987197876,-0.1108312010765075,-0.4549745917320251,-0.1647089570760727,-0.1125582605600357,0.0,0.0,-0.7899866104125977,-0.0522502064704895
-0.0478042587637901,1.0577501058578491,-0.1121284514665603,-0.4672329723834991,-0.1700944751501083,-0.1077102646231651,0.0,0.0,-0.8659195899963379,-0.3520066738128662
-0.0489896759390831,1.0469748973846436,-0.1134250536561012,-0.4794908761978149,-0.175226405262947,-0.1026385575532913,0.0,0.0,-0.9080641269683838,0.5342917442321777
-0.0501458160579204,1.0359193086624146,-0.1097683534026146,-0.492064893245697,-0.1810915768146515,-0.1173030361533165,0.0,0.0,-0.6790329813957214,-0.295988917350769
-0.0513121597468853,1.0245875120162964,-0.1110630258917808,-0.5043227076530457,-0.186682641506195,-0.1118213757872581,0.0,0.0,-0.7671741843223572,-0.6576617956161499
-0.0525479316711425,1.0130021572113037,-0.1198439374566078,-0.5153864026069641,-0.1904330104589462,-0.0750075131654739,0.0,0.0,-0.6791704893112183,-0.8124631643295288
-0.0538440719246864,1.0011528730392456,-0.1274570375680923,-0.5269128084182739,-0.1925959140062332,-0.043258000165224,0.0,0.0,-0.7134869694709778,-0.92722350358963
-0.0552116408944129,0.9890345931053162,-0.1364557594060897,-0.5386293530464172,-0.1929043084383011,-0.006167534738779,0.0,0.0,-0.4126292467117309,-0.7682800889015198
-0.0566390044987201,0.9766528010368348,-0.1440154016017913,-0.5501376986503601,-0.191617801785469,0.0257301293313503,0.0,0.0,-0.7676810622215271,0.6044888496398926
-0.0580332763493061,0.96397465467453,-0.1398923546075821,-0.5634156465530396,-0.1911531686782837,0.0092927273362874,0.0,0.0,-0.9692177176475524,-0.1232103109359741
-0.0594371780753135,0.9510197639465332,-0.1411715596914291,-0.5756696462631226,-0.1903674900531768,0.0157137103378772,0.0,0.0,-0.9722294211387634,0.1146342754364013
-0.0608506202697753,0.9377882480621338,-0.1424469053745269,-0.5879236459732056,-0.1892549395561218,0.0222509279847145,0.0,0.0,-0.8997794985771179,0.1067525148391723
-0.0622735023498535,0.9242802262306212,-0.1437178999185562,-0.6001775860786438,-0.1878102570772171,0.0288934800773859,0.0,0.0,-0.9259832501411438,-0.2596964240074157
-0.063705638051033,0.9104955196380616,-0.1449840366840362,-0.6124315857887268,-0.1860287338495254,0.0356305427849292,0.0,0.0,-0.9341458678245544,-0.4631617069244385
-0.0651469230651855,0.8964340090751648,-0.1462447494268417,-0.6246856451034546,-0.1839061677455902,0.0424514859914779,0.0,0.0,-0.9475333094596864,0.303781509399414
-0.0665972679853439,0.882095992565155,-0.1474995017051696,-0.6369398236274719,-0.1814388930797577,0.0493458993732929,0.0,0.0,-0.8004513382911682,0.1770327091217041
-0.0680566802620887,0.8674816489219666,-0.1487476527690887,-0.6491941213607788,-0.1786237210035324,0.0563035681843757,0.0,0.0,-0.9464308619499208,0.5500454902648926
-0.0694748908281326,0.852573812007904,-0.1436726599931717,-0.6623471975326538,-0.1767631024122238,0.0372123457491397,0.0,0.0,-0.8999220728874207,-0.5129894018173218
-0.0709409713745117,0.8374046683311462,-0.149838849902153,-0.6738002300262451,-0.1735238581895828,0.0647846311330795,0.0,0.0,-0.7454856038093567,-0.1708115339279174
-0.0724157318472862,0.8219591975212097,-0.1510630249977111,-0.6860551238059998,-0.1699302345514297,0.0718725249171257,0.0,0.0,-0.730259358882904,-0.2761147022247314
-0.0738989859819412,0.8062371611595154,-0.1522776782512664,-0.6983102560043335,-0.1659810245037078,0.0789844840764999,0.0,0.0,-0.6079471707344055,-0.4650031328201294
-0.0753908157348632,0.7902387380599976,-0.1534819453954696,-0.7105657458305359,-0.1616754680871963,0.0861112177371978,0.0,0.0,-0.6903473138809204,0.2565720081329345
-0.0768909454345703,0.7739639282226562,-0.1546748578548431,-0.7228215932846069,-0.1570132970809936,0.0932434722781181,0.0,0.0,-0.6511810421943665,0.5016510486602783
-0.0783546417951583,0.7574076056480408,-0.1502705067396164,-0.7354347705841064,-0.1531204134225845,0.0778576657176017,0.0,0.0,-0.4333856105804443,-0.2985486984252929
-0.0798264518380165,0.7405747771263123,-0.1514375358819961,-0.7476904988288879,-0.1488717049360275,0.0849739387631416,0.0,0.0,-0.4240329265594482,0.6118730306625366
-0.0812548622488975,0.7234486937522888,-0.1461219638586044,-0.7608321309089661,-0.1455989629030227,0.0654549971222877,0.0,0.0,-0.376234769821167,0.617027997970581
-0.0826505646109581,0.7060405611991882,-0.1421742737293243,-0.773440957069397,-0.1429997086524963,0.05198510363698,0.0,0.0,-0.1466009020805359,0.02056884765625
-0.0840538963675499,0.6883561015129089,-0.1432937383651733,-0.7856963276863098,-0.1400491446256637,0.0590116381645202,0.0,0.0,0.8983359336853027,0.336685299873352
-0.0853395462036132,0.6714357733726501,-0.1320056468248367,-0.751699686050415,-0.1366243213415146,0.0684965699911117,0.0,0.0,0.3546366691589355,-0.4837092161178589
-0.0865814238786697,0.6547260880470276,-0.1280038654804229,-0.7423042058944702,-0.1328236013650894,0.0760143920779228,0.0,0.0,0.7404501438140869,0.8321666717529297
-0.0878253951668739,0.6386818885803223,-0.1266251504421234,-0.7128801941871643,-0.1306036114692688,0.0443998053669929,0.0,0.0,-0.6206669807434082,0.585566520690918
-0.0890281647443771,0.6223587393760681,-0.1216319948434829,-0.7253578901290894,-0.1292523294687271,0.027025306597352,0.0,0.0,0.7250754833221436,0.1522411108016967
-0.0901133567094802,0.6061967611312866,-0.1106065064668655,-0.7181283235549927,-0.1271690726280212,0.0416652075946331,0.0,0.0,0.4257346391677856,-0.0897471904754638
-0.0910883918404579,0.5908502340316772,-0.1000417843461036,-0.6818558573722839,-0.1246467605233192,0.050446294248104,0.0,0.0,-0.6208488941192627,0.2259606122970581
-0.0920697227120399,0.5752273201942444,-0.1010002344846725,-0.6941120028495789,-0.121798038482666,0.0569744929671287,0.0,0.0,0.4568719863891601,0.0144762992858886
-0.0930649787187576,0.5602319836616516,-0.1023333445191383,-0.6662322282791138,-0.1190025731921196,0.0559094026684761,0.0,0.0,-0.1863218545913696,0.4761884212493896
-0.0940658599138259,0.5449604988098145,-0.1032304614782333,-0.6784887909889221,-0.1158912852406501,0.062225766479969,0.0,0.0,0.502417802810669,0.3178895711898803
-0.0951000228524208,0.5305773615837097,-0.1063019782304763,-0.6390285491943359,-0.113011859357357,0.0575883463025093,0.0,0.0,-0.6890515089035034,0.1241514682769775
-0.0961391478776931,0.515917956829071,-0.1071302443742752,-0.6512855291366577,-0.1098286435008049,0.0636643171310424,0.0,0.0,0.0331929922103881,0.7993931770324707
-0.0971185714006424,0.5013346076011658,-0.0998338907957077,-0.6480126976966858,-0.1079535707831382,0.0375017710030078,0.0,0.0,0.5163161754608154,0.662927508354187
-0.0979509353637695,0.4868934750556946,-0.0842222571372985,-0.6417592167854309,-0.1069737300276756,0.0195971522480249,0.0,0.0,0.031788945198059,0.3571927547454834
-0.0987845435738563,0.4724953770637512,-0.0845392197370529,-0.6398308277130127,-0.1058018878102302,0.0234365109354257,0.0,0.0,0.7163691520690918,0.6473830938339233
-0.0994930267333984,0.4590494334697723,-0.0709811076521873,-0.597588837146759,-0.1056654900312423,0.0027277958579361,0.0,0.0,-0.6553771495819092,0.737062931060791
-0.1001387611031532,0.445324182510376,-0.0633069276809692,-0.6101034283638,-0.1069237515330314,-0.0251651406288146,0.0,0.0,0.229920744895935,-0.4948370456695556
-0.1008057594299316,0.4322434961795807,-0.065305694937706,-0.5814617276191711,-0.1083085164427757,-0.0276951044797897,0.0,0.0,-0.6770560145378113,0.6841733455657959
-0.1014338508248329,0.4188728630542755,-0.060582511126995,-0.5944151282310486,-0.1105159074068069,-0.0441481620073318,0.0,0.0,0.613919734954834,0.157351016998291
-0.1019398719072341,0.4063707590103149,-0.0488102659583091,-0.5557820200920105,-0.1122979372739791,-0.0356405302882194,0.0,0.0,0.0305095911026,0.29936683177948
-0.1024703979492187,0.3941382467746734,-0.0512025542557239,-0.54380863904953,-0.1141380593180656,-0.0368022546172142,0.0,0.0,-0.4580467939376831,0.205216646194458
-0.1030025482177734,0.3816295862197876,-0.0515811219811439,-0.5560657978057861,-0.1157529577612876,-0.0322982594370842,0.0,0.0,0.0330201387405395,-0.2532733678817749
-0.1034925431013107,0.369497537612915,-0.047564260661602,-0.5393146872520447,-0.1171865165233612,-0.028670722618699,0.0,0.0,0.7138864994049072,-0.0071958899497985
-0.1038228049874305,0.3579726219177246,-0.0322160832583904,-0.5122835636138916,-0.1179950311779975,-0.016170460730791,0.0,0.0,0.5129978656768799,0.1837873458862304
-0.104094885289669,0.3466346859931946,-0.0266899354755878,-0.5039501190185547,-0.1185061335563659,-0.0102222580462694,0.0,0.0,-0.3098372220993042,-0.4112001061439514
-0.1043666824698448,0.3350205719470978,-0.0268558710813522,-0.5162073969841003,-0.1188299879431724,-0.0064769648015499,0.0,0.0,-0.7334563732147217,0.0564792156219482
-0.1046379059553146,0.3231303095817566,-0.0269679687917232,-0.5284647345542908,-0.1189764067530632,-0.0029285543132573,0.0,0.0,0.1543418169021606,-0.2863885164260864
-0.1047784835100174,0.3113570511341095,-0.0145366881042718,-0.5232160687446594,-0.1185047999024391,0.0094322925433516,0.0,0.0,0.7459264993667603,-0.7589277625083923
-0.1048892959952354,0.3005076348781585,-0.0132303480058908,-0.4820289313793182,-0.1163721457123756,0.0426530912518501,0.0,0.0,0.0625441074371337,0.2984688282012939
-0.104921817779541,0.2901055216789245,-0.0056328428909182,-0.462130606174469,-0.1140000447630882,0.0474421568214893,0.0,0.0,-0.2243939638137817,-0.0802016258239746
-0.1049518585205078,0.2794274687767029,-0.0055332565680146,-0.4743889272212982,-0.111490674316883,0.0501873567700386,0.0,0.0,0.4305135011672973,0.3301893472671509
-0.1048608794808387,0.2688803672790527,0.0060347719117999,-0.4685386121273041,-0.108450211584568,0.0608092062175273,0.0,0.0,0.3761658668518066,0.2817881107330322
-0.1047642678022384,0.2586969137191772,0.0066806548275053,-0.4523842930793762,-0.1054952144622802,0.059100192040205,0.0,0.0,-0.0619509816169738,-0.091952383518219
-0.1046640425920486,0.24823759496212,0.0069300308823585,-0.4646431505680084,-0.102433294057846,0.0612386167049407,0.0,0.0,-0.016144573688507,0.5018757581710815
-0.1045220345258712,0.2374963909387588,0.0119914188981056,-0.4772365689277649,-0.1002365797758102,0.0439342819154262,0.0,0.0,0.6623417139053345,0.4961813688278198
-0.1044201850891113,0.2276926636695861,0.0084723914042115,-0.4356057941913605,-0.0985320806503295,0.0340898856520652,0.0,0.0,-0.0915241241455078,0.3590240478515625
-0.1043136566877365,0.2176130563020706,0.0088595543056726,-0.4478645324707031,-0.0967505201697349,0.0356314145028591,0.0,0.0,0.1685638427734375,-0.1898085474967956
-0.1041885390877723,0.2080553919076919,0.0108251590281724,-0.4246784150600433,-0.095076747238636,0.0334755852818489,0.0,0.0,0.2806903123855591,0.0768687725067138
-0.1040668487548828,0.1990976631641388,0.0107235070317983,-0.3980289995670318,-0.0936418622732162,0.0286976601928472,0.0,0.0,-0.5798627138137817,-0.1629733443260193
-0.1039395332336425,0.1898641437292099,0.0112338485196232,-0.4102879166603088,-0.0921586528420448,0.0296642072498798,0.0,0.0,-0.4088284969329834,-0.3931835889816284
-0.1038063988089561,0.1803546696901321,0.0117818024009466,-0.422546923160553,-0.0906363502144813,0.030445959419012,0.0,0.0,0.0548161268234252,0.2796417474746704
-0.1037324890494346,0.1710820347070694,0.0062737367115914,-0.4120520949363708,-0.0895284116268158,0.0221588220447301,0.0,0.0,-0.3091984987258911,-0.1517623662948608
-0.1036520972847938,0.1615335047245025,0.0068917013704776,-0.4243111610412597,-0.088399238884449,0.0225836765021085,0.0,0.0,0.2854423522949219,0.3536626100540161
-0.103492259979248,0.1521318256855011,0.0146092204377055,-0.4177740812301636,-0.087036557495594,0.0272535774856805,0.0,0.0,0.333414077758789,-0.5689337253570557
-0.1031891852617263,0.1433680206537246,0.0275142453610897,-0.389341652393341,-0.0842660292983055,0.0554104819893837,0.0,0.0,0.5187498331069946,-0.136812686920166
-0.1028398498892784,0.1353974193334579,0.0322333686053752,-0.3540997803211212,-0.0815964117646217,0.0533923879265785,0.0,0.0,-0.1832778453826904,-0.0465891361236572
-0.102483369410038,0.1271510869264602,0.0329708829522132,-0.3663595616817474,-0.0789381563663482,0.0531648211181163,0.0,0.0,0.2383075952529907,-0.5446239709854126
-0.1020655632019043,0.1192764863371849,0.0378870815038681,-0.3497837483882904,-0.0750868394970893,0.0770263448357582,0.0,0.0,0.1169248819351196,-0.5442165732383728
-0.1016468033194542,0.1119628548622131,0.0369279906153678,-0.3248113095760345,-0.0701857507228851,0.0980219393968582,0.0,0.0,-0.134887158870697,0.8576024770736694
-0.10114536434412,0.1043732762336731,0.0471244938671588,-0.337176114320755,-0.0671950504183769,0.059813879430294,0.0,0.0,0.4055891036987304,0.5287750959396362
-0.1004941016435623,0.0970774516463279,0.0630241185426712,-0.3241665661334991,-0.0651205331087112,0.0414905622601509,0.0,0.0,0.1241400241851806,-0.5971364378929138
-0.0999471694231033,0.0901502668857574,0.0515855550765991,-0.3077397346496582,-0.0620456039905548,0.0614986792206764,0.0,0.0,0.109458327293396,0.4800630807876587
-0.0994565933942794,0.0834729969501495,0.0464005693793296,-0.2966594398021698,-0.059420071542263,0.0525106713175773,0.0,0.0,0.2448587417602539,0.2587929964065552
-0.0989487618207931,0.0771575793623924,0.0482688620686531,-0.2805909514427185,-0.0569254532456398,0.0498919188976287,0.0,0.0,-0.0535157918930053,0.9577226638793944
-0.0983535796403884,0.0705577731132507,0.059071160852909,-0.2933055162429809,-0.0564803108572959,0.0089031616225838,0.0,0.0,0.3884356021881103,0.2548075914382934
-0.0976230651140213,0.064125545322895,0.0721423178911209,-0.2858440577983856,-0.0555926337838172,0.0177539978176355,0.0,0.0,0.4369722604751587,-0.0476007461547851
-0.0967663750052452,0.0583012215793132,0.0844506174325943,-0.2588158249855041,-0.0543818846344947,0.0242149624973535,0.0,0.0,-0.381904125213623,0.2114969491958618
-0.0959008187055587,0.0522010885179042,0.085397757589817,-0.2710753679275512,-0.0532438457012176,0.0227610282599926,0.0,0.0,0.5537271499633789,0.8507353067398071
