x_pos,y_pos,x_vel,y_vel,angle,ang_vel,leg_1,leg_2,main_booster,lat_booster
-0.0014720916515216,1.4033974409103394,-0.1491500735282898,-0.3343448340892792,0.0017434386536478,0.0343891233205795,0.0,0.0,-0.4311152696609497,0.636820912361145
-0.0028388977516442,1.3956677913665771,-0.1370189636945724,-0.3435414731502533,0.0020688562653958,0.0065098591148853,0.0,0.0,-0.3823466300964355,0.1939905881881714
-0.0041559217497706,1.387710452079773,-0.1320051103830337,-0.3536591529846191,0.002375922165811,0.0061416439712047,0.0,0.0,-0.2385556101799011,0.5266423225402832
-0.0053907395340502,1.3795243501663208,-0.1229209154844284,-0.363826721906662,0.0018164943903684,-0.0111894654110074,0.0,0.0,-0.2269405722618103,-0.1485489606857299
-0.0065779685974121,1.3711110353469849,-0.1181109100580215,-0.3739210665225982,0.0012161284685134,-0.0120085962116718,0.0,0.0,-0.3307704925537109,0.5056462287902832
-0.0076699256896972,1.362470030784607,-0.1072902679443359,-0.3840428590774536,-0.0006651129806414,-0.037628561258316,0.0,0.0,-0.3999514579772949,0.9391262531280518
-0.0086454395204782,1.3536020517349243,-0.093787170946598,-0.3941415250301361,-0.0043986570090055,-0.0746777579188346,0.0,0.0,-0.2662663459777832,-0.2417444586753845
-0.0095772743225097,1.3445069789886477,-0.0893340483307838,-0.404236763715744,-0.0082052964717149,-0.0761396139860153,0.0,0.0,-0.4362143278121948,0.1152777671813964
-0.0104667665436863,1.3351850509643557,-0.085019551217556,-0.4143321812152862,-0.0120961824432015,-0.077824629843235,0.0,0.0,-0.5275074243545532,-0.3028905391693115
-0.0113155366852879,1.3256362676620483,-0.0808516293764114,-0.424427717924118,-0.0160807892680168,-0.0796994119882583,0.0,0.0,-0.5252350568771362,-0.1700832247734069
-0.0121252061799168,1.3158605098724363,-0.0768393501639366,-0.4345234930515289,-0.0201685819774866,-0.0817633122205734,0.0,0.0,-0.4949483871459961,-0.652164101600647
-0.0129429819062352,1.3058580160140991,-0.0786850303411483,-0.4446026980876922,-0.0232275519520044,-0.0611845329403877,0.0,0.0,-0.8722845315933228,-0.6524006128311157
-0.0137656209990382,1.295633316040039,-0.0800677090883255,-0.4544716775417328,-0.0253935828804969,-0.043324626982212,0.0,0.0,-0.6967892050743103,-0.245737075805664
-0.0145546915009617,1.2851814031600952,-0.0765844583511352,-0.4645670652389526,-0.0276890713721513,-0.0459140203893184,0.0,0.0,-0.7173641920089722,-0.2334102392196655
-0.0153121948242187,1.2745026350021362,-0.0732945054769516,-0.4746623933315277,-0.0301212649792432,-0.0486483015120029,0.0,0.0,-0.6384803652763367,-0.5543985366821289
-0.0160762779414653,1.263591766357422,-0.0747092962265014,-0.4849570393562317,-0.0317981205880641,-0.0335403904318809,0.0,0.0,-0.9647646546363832,-0.6550113558769226
-0.0168529506772756,1.2524635791778564,-0.0768234804272651,-0.4946068525314331,-0.0326224640011787,-0.0164884515106678,0.0,0.0,-0.6817610263824463,-0.7150273323059082
-0.0176478382200002,1.2411043643951416,-0.079597607254982,-0.5048551559448242,-0.0325208865106105,0.0020319004543125,0.0,0.0,-0.953501284122467,-0.2353951930999755
-0.0184204094111919,1.229517936706543,-0.0771876946091651,-0.514950156211853,-0.0325827486813068,-0.0012372807832434,0.0,0.0,-0.9294959902763368,-0.1704670190811157
-0.0191728584468364,1.2177045345306396,-0.0750193446874618,-0.5250453948974609,-0.0328128449618816,-0.0046022180467844,0.0,0.0,-0.9267456531524658,-0.1722774505615234
-0.0199079513549804,1.2056641578674316,-0.0731018334627151,-0.5351406335830688,-0.0332161858677864,-0.0080674616619944,0.0,0.0,-0.8872896432876587,-0.3352236747741699
-0.0206282623112201,1.1933965682983398,-0.0714436545968055,-0.5452359318733215,-0.0337971448898315,-0.0116200521588325,0.0,0.0,-0.6620929837226868,-0.5439542531967163
-0.0213701240718364,1.180903077125549,-0.0742853879928588,-0.5552694201469421,-0.0337114445865154,0.0017142433207482,0.0,0.0,-0.8219580054283142,-0.7593877911567688
-0.0221561435610055,1.1681766510009766,-0.0798485353589057,-0.5655904412269592,-0.0324775055050849,0.0246811117976903,0.0,0.0,-0.2342843413352966,-0.6393964886665344
-0.0229983329772949,0.0,-0.0868559777736663,-0.5754374861717224,-0.0298606511205434,0.0523416176438331,0.0,0.0,-0.6693454384803772,0.2649376392364502
-0.0238373763859272,1.142031192779541,-0.0863616317510604,-0.5864866375923157,-0.0274349935352802,0.0485130026936531,0.0,0.0,-0.798455536365509,0.4260239601135254
-0.0246758460998535,1.128607153892517,-0.0861105769872665,-0.5965802669525146,-0.0252027418464422,0.0446453429758548,0.0,0.0,-0.7165202498435974,0.4522383213043213
-0.0255167968571186,1.114956259727478,-0.0861564874649047,-0.6066737771034241,-0.0231659188866615,0.0407366715371608,0.0,0.0,-0.8452426195144653,-0.4461214542388916
-0.0263630859553813,1.1010783910751345,-0.0865021795034408,-0.6167671084403992,-0.0213262885808944,0.0367928445339202,0.0,0.0,-0.854599118232727,0.4560074806213379
-0.0272179599851369,0.0,-0.0871493071317672,-0.6268603801727295,-0.0196853410452604,0.0328191071748733,0.0,0.0,-0.8630087971687317,-0.4452599287033081
-0.028084373101592,1.0726416110992432,-0.088098406791687,-0.636953592300415,-0.018244307488203,0.0288206003606319,0.0,0.0,-0.7908329367637634,-0.1891340017318725
-0.0289652831852436,1.0580826997756958,-0.0893487632274627,-0.6470468044281006,-0.0170042291283607,0.0248017776757478,0.0,0.0,-0.0318461060523986,0.3272266387939453
-0.0298637393862009,1.0432968139648438,-0.0908984988927841,-0.6571398973464966,-0.0159658771008253,0.0207669474184513,0.0,0.0,-0.3083647489547729,0.0470825433731079
-0.0307826995849609,1.0282838344573977,-0.0927445515990257,-0.6672330498695374,-0.0151298651471734,0.0167201291769742,0.0,0.0,-0.7669929265975952,-0.5351126194000244
-0.0317663177847862,1.0130459070205688,-0.1000506877899169,-0.6772242784500122,-0.0134612070396542,0.0333732031285762,0.0,0.0,-0.6575747132301331,-0.0497027039527893
-0.0327761657536029,0.9975809454917908,-0.1024757251143455,-0.6873174905776978,-0.0119956051930785,0.0293121747672557,0.0,0.0,-0.8457146286964417,0.2233884334564209
-0.0338151939213275,0.9818890690803528,-0.105181336402893,-0.697410523891449,-0.0107331722974777,0.0252484865486621,0.0,0.0,-0.799492359161377,0.6487619876861572
-0.0348314270377159,0.96597421169281,-0.1013078838586807,-0.7073305249214172,-0.0110454708337783,-0.0062458580359816,0.0,0.0,-0.264344573020935,-0.6939220428466797
-0.0359406471252441,0.0,-0.111886441707611,-0.7170267701148987,-0.0100905057042837,0.0190993901342153,0.0,0.0,-0.8598493337631226,-0.5165805816650391
-0.0371258743107318,0.9334818720817566,-0.1202754378318786,-0.7270575761795044,-0.0083593586459755,0.034622848033905,0.0,0.0,-0.3176560401916504,0.2019487619400024
-0.0383506789803504,0.9168958067893982,-0.1240241080522537,-0.7371506094932556,-0.0068307775072753,0.0305715892463922,0.0,0.0,-0.3303604125976562,-0.2962597608566284
-0.0396173484623432,0.9000827074050903,-0.1280104517936706,-0.7472435832023621,-0.005504379980266,0.0265279803425073,0.0,0.0,0.4743318557739258,-0.2915965914726257
-0.040839958935976,0.8834617137908936,-0.1238057017326355,-0.7387095093727112,-0.0039786403067409,0.0305148065090179,0.0,0.0,-0.7627028822898865,0.2678604125976562
-0.042108915746212,0.8666135668754578,-0.1282368600368499,-0.7488024830818176,-0.0026540937833487,0.0264908876270055,0.0,0.0,-0.1702919006347656,-0.3011799454689026
-0.0434263236820697,0.8495384454727173,-0.1328746825456619,-0.7588953375816345,-0.0015301475068554,0.0224787630140781,0.0,0.0,0.1612911224365234,0.3784778118133545
-0.0447613708674907,0.8325884342193604,-0.1345940083265304,-0.7533328533172607,-0.0004568021686282,0.0214668996632099,0.0,0.0,-0.8509144186973572,0.3453700542449951
-0.0461486801505088,0.8154114484786987,-0.1396135985851287,-0.7634255886077881,0.000417287898017,0.0174816008657217,0.0,0.0,-0.2072968482971191,0.5298976898193359
-0.0475558266043663,0.7980129718780518,-0.1405287086963653,-0.7732642292976379,0.0002357460034545,-0.0036308832932263,0.0,0.0,-0.0037261843681335,-0.1606131196022033
-0.0490185730159282,0.7803875207901001,-0.145888552069664,-0.7833569049835205,-0.0001435094018233,-0.007585272192955,0.0,0.0,0.5186498165130615,0.0564466714859008
-0.0505578033626079,0.7632362246513367,-0.1532493531703949,-0.7622802257537842,-0.0008096657693386,-0.0133228320628404,0.0,0.0,-0.6498353481292725,0.5156024694442749
-0.0521050468087196,0.7458576560020447,-0.1525703370571136,-0.7723824977874756,-0.0029413262382149,-0.0426332578063011,0.0,0.0,0.3476238250732422,0.8337674140930176
-0.0536977760493755,0.7291590571403503,-0.1551758795976638,-0.7421734929084778,-0.0069847516715526,-0.0808684974908828,0.0,0.0,0.5099742412567139,0.6687541007995605
-0.0551864616572856,0.7128377556800842,-0.1434471905231475,-0.7254268527030945,-0.0123314224183559,-0.1069334521889686,0.0,0.0,-0.2249547243118286,-0.6180024743080139
-0.0567860603332519,0.6962961554527283,-0.1555879563093185,-0.7352186441421509,-0.0166484322398901,-0.086340382695198,0.0,0.0,0.0575397014617919,-0.4309566020965576
-0.0583485588431358,0.6799938082695007,-0.1521304845809936,-0.7246105074882507,-0.0207161474972963,-0.0813543051481247,0.0,0.0,-0.7135589122772217,-0.4641926288604736
-0.0599756240844726,0.663464367389679,-0.1583861112594604,-0.7347049713134766,-0.0249746106564998,-0.0851692259311676,0.0,0.0,-0.8829892873764038,0.8661394119262695
-0.0615885742008686,0.646713376045227,-0.1547837853431701,-0.7446110844612122,-0.0314135178923606,-0.1287783086299896,0.0,0.0,-0.7094237208366394,-0.8200087547302246
-0.0633179694414138,0.6297416090965271,-0.1674897670745849,-0.7544283270835876,-0.0367831140756607,-0.1073920279741287,0.0,0.0,-0.0772581100463867,0.8265190124511719
-0.0650405883789062,0.612547755241394,-0.1647717803716659,-0.764371931552887,-0.0441867262125015,-0.1480723619461059,0.0,0.0,0.2640156745910644,-0.554252564907074
-0.066911980509758,0.5960404872894287,-0.1804403066635131,-0.7338687777519226,-0.0508025251328945,-0.1323160231113433,0.0,0.0,-0.8777262568473816,0.4458298683166504
-0.0688519477844238,0.5793069005012512,-0.1871092915534973,-0.7439659237861633,-0.0576023943722248,-0.1359972953796386,0.0,0.0,-0.8590943217277527,0.961000919342041
-0.0707974433898925,0.5623465776443481,-0.1858838200569152,-0.7541471719741821,-0.0661779791116714,-0.1715119034051895,0.0,0.0,0.474926233291626,0.1204781532287597
-0.0726721733808517,0.5458405017852783,-0.1791372001171112,-0.733997642993927,-0.074424423277378,-0.1649289429187774,0.0,0.0,-0.056975781917572,0.046297550201416
-0.0746171027421951,0.5291082859039307,-0.1859877407550811,-0.744097113609314,-0.0828500911593437,-0.1685134023427963,0.0,0.0,0.4123554229736328,0.1331257820129394
-0.0765977874398231,0.5126616954803467,-0.1894177496433258,-0.7314655780792236,-0.091422289609909,-0.1714441478252411,0.0,0.0,0.4606049060821533,0.3719654083251953
-0.0787109360098838,0.4967845976352691,-0.2019832134246826,-0.7062426805496216,-0.1006763875484466,-0.1850819289684295,0.0,0.0,-0.9675307273864746,0.8704450130462646
-0.0808239951729774,0.4806814789772033,-0.2000024020671844,-0.7164948582649231,-0.1118979528546333,-0.2244313061237335,0.0,0.0,-0.9115777015686036,0.6999436616897583
-0.0829470604658126,0.4643346071243286,-0.199250042438507,-0.7275569438934326,-0.124881312251091,-0.2596670389175415,0.0,0.0,-0.9208583831787108,0.8569129705429077
-0.0850713700056076,0.4477601051330566,-0.1974181532859802,-0.7379663586616516,-0.1398175358772277,-0.2987250089645386,0.0,0.0,-0.5105262398719788,-0.7325922250747681
-0.0873347297310829,0.4309723377227783,-0.2128855735063552,-0.7474386692047119,-0.153229534626007,-0.2682401537895202,0.0,0.0,0.1725196838378906,0.2653223276138305
-0.0896617919206619,0.4146875441074371,-0.2188273221254348,-0.7252551317214966,-0.1671080142259597,-0.2775698900222778,0.0,0.0,-0.1380215883255005,0.6273647546768188
-0.0920104011893272,0.3981670141220093,-0.2195252478122711,-0.7360404133796692,-0.1824693381786346,-0.3072263598442077,0.0,0.0,-0.0182607769966125,-0.1252286434173584
-0.0944321602582931,0.3814229369163513,-0.2267219126224517,-0.7461549043655396,-0.197990745306015,-0.3104283511638641,0.0,0.0,0.9472683668136596,-0.6004460453987122
-0.0967491120100021,0.36544269323349,-0.2175935506820678,-0.7121772170066833,-0.2122101038694381,-0.2843872308731079,0.0,0.0,0.929191827774048,0.179593801498413
-0.0990818962454795,0.349920779466629,-0.2188855111598968,-0.6920003890991211,-0.2267665416002273,-0.2911287844181061,0.0,0.0,0.789776086807251,-0.7404853701591492
-0.1013892143964767,0.3346743881702423,-0.2178641110658645,-0.6796518564224243,-0.2398169636726379,-0.2610085308551788,0.0,0.0,0.7547694444656372,-0.621333122253418
-0.1037684455513954,0.3197530210018158,-0.2260971814393997,-0.6651477217674255,-0.2518573999404907,-0.2408089339733123,0.0,0.0,0.8719890117645264,-0.6792173981666565
-0.1060585007071495,0.3059420585632324,-0.2183951139450073,-0.615678608417511,-0.2626909017562866,-0.216669350862503,0.0,0.0,0.0602304935455322,-0.5680427551269531
-0.1082737892866134,0.2926647663116455,-0.2120125293731689,-0.5918378233909607,-0.272428035736084,-0.1947427093982696,0.0,0.0,0.4356398582458496,-0.4846229553222656
-0.1104661971330642,0.2802275419235229,-0.2091793268918991,-0.5546720027923584,-0.2827562987804413,-0.2065652906894683,0.0,0.0,0.5122624635696411,-0.7289047837257385
-0.1128308326005935,0.2680732905864715,-0.2274873703718185,-0.5419522523880005,-0.2919792532920837,-0.1844591200351715,0.0,0.0,0.2080382108688354,-0.8123190402984619
-0.1151309013366699,0.2565436363220215,-0.2225793153047561,-0.5139380693435669,-0.2996516823768616,-0.1534483730792999,0.0,0.0,0.7067247629165649,0.169979453086853
-0.1174302101135253,0.2456865608692169,-0.2219214886426925,-0.4842068254947662,-0.3079379200935364,-0.1657247245311737,0.0,0.0,0.2892570495605469,-0.6462743282318115
-0.1197370514273643,0.2354071289300918,-0.22376549243927,-0.4583500325679779,-0.3151089251041412,-0.1434202045202255,0.0,0.0,0.0917483568191528,-0.7422387599945068
-0.1220388412475586,0.2255955338478088,-0.2246103733778,-0.4372917115688324,-0.3208909928798675,-0.1156418099999427,0.0,0.0,0.2057931423187255,0.0130349397659301
-0.1242210417985916,0.2161320596933365,-0.2128439843654632,-0.4218027293682098,-0.3264968395233154,-0.1121164411306381,0.0,0.0,0.7770130634307861,-0.3968694806098938
-0.126336008310318,0.2069532424211502,-0.2061230242252349,-0.4091723561286926,-0.3320987522602081,-0.1120383292436599,0.0,0.0,0.488132119178772,-0.9528391361236572
-0.1283901184797287,0.1980459541082382,-0.2018861025571823,-0.3966972529888153,-0.3357838988304138,-0.0737027376890182,0.0,0.0,0.3914403915405273,0.1364550590515136
-0.1302437782287597,0.1895319819450378,-0.1822845637798309,-0.3791165947914123,-0.3390013873577118,-0.0643505156040191,0.0,0.0,0.9522473812103271,-0.9005009531974792
-0.1319148987531662,0.1813892275094986,-0.1660169959068298,-0.3621586561203003,-0.3401496112346649,-0.0229645930230617,0.0,0.0,0.8222453594207764,-0.6553462147712708
-0.133438304066658,0.1742251515388488,-0.1524251401424408,-0.3183840215206146,-0.3400638997554779,0.0017142451833933,0.0,0.0,0.603729248046875,-0.8609325885772705
-0.1348218023777008,0.1678988486528396,-0.140074074268341,-0.2807607650756836,-0.3382521271705627,0.0362357087433338,0.0,0.0,0.5933427810668945,-0.8926916122436523
-0.1360049247741699,0.162227377295494,-0.1218922361731529,-0.2512336373329162,-0.3345193862915039,0.0746550410985946,0.0,0.0,-0.0729985237121582,-0.9626568555831908
-0.1373248100280761,0.1563509851694107,-0.1370386481285095,-0.2600121796131134,-0.3292414844036102,0.1055581718683242,0.0,0.0,-0.0005837082862854,-0.7100560069084167
-0.1387772560119629,0.1502758115530014,-0.1517439931631088,-0.268541157245636,-0.3224659264087677,0.1355110108852386,0.0,0.0,0.5543055534362793,0.3671808242797851
-0.139971449971199,0.1450914293527603,-0.126221090555191,-0.2289195656776428,-0.3153948485851288,0.1414214223623275,0.0,0.0,0.0025486946105957,-0.8385562896728516
-0.1412117034196853,0.1402117311954498,-0.1324200332164764,-0.2150736302137375,-0.3066812753677368,0.1742717176675796,0.0,0.0,0.1568726301193237,-0.1374202966690063
-0.1424410790205001,0.1359420120716095,-0.1309130489826202,-0.188099667429924,-0.2984336018562317,0.1649536490440368,0.0,0.0,0.2006325721740722,-0.420088529586792
-0.1435351371765136,0.1321455836296081,-0.1176255941390991,-0.1670666188001632,-0.2899511456489563,0.1696489751338958,0.0,0.0,-0.2905281782150268,-0.4156371355056762
-0.1447032988071441,0.1281231194734573,-0.1250065267086029,-0.1771662980318069,-0.2815214693546295,0.1685935109853744,0.0,0.0,0.160688042640686,0.2812619209289551
-0.145855039358139,0.1246569231152534,-0.123084582388401,-0.1525502204895019,-0.273408442735672,0.1622607707977295,0.0,0.0,0.2934408187866211,0.084473967552185
-0.1469942033290863,0.1215355470776557,-0.1217070445418357,-0.1372901052236557,-0.2654282450675964,0.1596037149429321,0.0,0.0,0.2137086391448974,0.1452012062072754
-0.1481738984584808,0.1188612058758735,-0.1253514140844345,-0.1175379753112793,-0.2578823268413543,0.1509183347225189,0.0,0.0,0.2806031703948974,0.3747848272323608
-0.1494363844394683,0.116594061255455,-0.1330866068601608,-0.0995762273669242,-0.2509089112281799,0.139469102025032,0.0,0.0,0.1785420179367065,-0.4987772107124328
-0.15057173371315,0.1148172914981842,-0.1207074075937271,-0.077761210501194,-0.2436140179634094,0.1458978950977325,0.0,0.0,-0.1652122735977172,0.1142089366912841
-0.1517804116010666,0.1128142178058624,-0.1280190199613571,-0.0878586545586586,-0.2363424152135849,0.1454320698976516,0.0,0.0,0.0187772512435913,0.3773407936096191
-0.152864933013916,0.1112394407391548,-0.1160082966089248,-0.0687955766916275,-0.2286756783723831,0.153334841132164,0.0,0.0,-0.389934241771698,0.8366316556930542
-0.1539592742919922,0.1094234064221382,-0.11539326608181,-0.0798000767827034,-0.2226396650075912,0.120720662176609,0.0,0.0,-0.0428794622421264,0.4929943084716797
-0.1551261842250824,0.1073807775974273,-0.1226481571793556,-0.089895874261856,-0.2166130691766739,0.1205317005515098,0.0,0.0,0.0721932649612426,0.3180471658706665
-0.1562361717224121,0.1056467145681381,-0.1171856075525283,-0.0761771127581596,-0.210362508893013,0.1250109672546386,0.0,0.0,-0.1846871376037597,0.1178213357925415
-0.1574180573225021,0.1036860570311546,-0.1243924275040626,-0.0862729772925376,-0.2041127383708953,0.1249956861138343,0.0,0.0,-0.0810610055923461,0.8829300403594971
-0.158595472574234,0.1014828532934188,-0.1220141053199768,-0.0973348394036293,-0.1998076736927032,0.0861012786626815,0.0,0.0,0.0017720460891723,0.9117528200149536
-0.1596617698669433,0.0994181260466575,-0.1090756505727768,-0.0914372205734252,-0.1973495483398437,0.0491627380251884,0.0,0.0,0.2704083919525146,0.715184211730957
-0.160753920674324,0.0978412702679634,-0.1100897416472435,-0.0699638873338699,-0.1964592486619949,0.0178059320896863,0.0,0.0,0.3048981428146362,0.8318817615509033
-0.1618862152099609,0.0966478660702705,-0.1123585328459739,-0.0531569272279739,-0.1973393261432647,-0.0176014527678489,0.0,0.0,0.2039991617202758,0.3868155479431152
-0.1630236655473709,0.095836192369461,-0.1128056496381759,-0.0361977703869342,-0.1982735693454742,-0.0186852253973484,0.0,0.0,0.3823227882385254,0.7756962776184082
-0.1640588790178299,0.0954271405935287,-0.1011131629347801,-0.0185076501220464,-0.200712189078331,-0.0487724915146827,0.0,0.0,0.3354153633117676,0.6139488220214844
-0.1649449318647384,0.0951635688543319,-0.0852032229304313,-0.0121798431500792,-0.2041428834199905,-0.0686141178011894,0.0,0.0,0.4557323455810547,0.869035005569458
-0.1656147986650467,0.0955114662647247,-0.0619880333542823,0.0147654665634036,-0.2091754525899887,-0.100651241838932,0.0,0.0,0.4886513948440552,0.4919354915618896
-0.1661794632673263,0.0966919958591461,-0.0516184791922569,0.0517712868750095,-0.2140730321407318,-0.0979519486427307,0.0,0.0,-0.3503299951553345,-0.7994943857192993
