x_pos,y_pos,x_vel,y_vel,angle,ang_vel,leg_1,leg_2,main_booster,lat_booster
-0.0015350341564044,1.403000831604004,-0.1560895144939422,-0.351967841386795,0.0023141528945416,0.0456897355616092,0.0,0.0,0.9567508289214864,0.7769090621760707
-0.0029548644088208,1.395297288894653,-0.1434224545955658,-0.3423823118209839,0.0037348656915128,0.0284177064895629,0.0,0.0,0.3247851274614686,-0.521880230426689
-0.0043117525056004,1.3874521255493164,-0.138996422290802,-0.3486868143081665,0.0070122238248586,0.0655532032251358,0.0,0.0,-0.7498385335287605,-0.791504695192914
-0.0057537080720067,1.3789801597595217,-0.1499587148427963,-0.3765679895877838,0.0127043947577476,0.1138540282845497,0.0,0.0,-0.6629881496758512,-0.7016729318758468
-0.0072496412321925,1.3698866367340088,-0.1570023745298385,-0.4042347073554992,0.0200312733650207,0.1465512216091156,0.0,0.0,0.620484795374115,0.767290529914657
-0.0085577964782714,1.3609745502471924,-0.137538805603981,-0.3962037861347198,0.0266832374036312,0.133051723241806,0.0,0.0,0.3278858885792026,0.6823699461509815
-0.0098546985536813,1.3521366119384766,-0.1355614811182022,-0.3929152488708496,0.0324961729347705,0.1162693127989769,0.0,0.0,0.1845819611821866,-0.8314684726926319
-0.0111182210966944,1.343376398086548,-0.1345622390508651,-0.3895355761051178,0.0406083688139915,0.1622588783502578,0.0,0.0,0.630275296248948,-0.8148714171056645
-0.0125022884458303,1.335235834121704,-0.1487537920475006,-0.3621173501014709,0.0508585982024669,0.2050234526395797,0.0,0.0,0.5118345190933502,-0.7701795835028422
-0.0139905931428074,1.3274694681167605,-0.1612753421068191,-0.3456427454948425,0.0631842911243438,0.246536448597908,0.0,0.0,0.3498786502492088,-0.9231190334850312
-0.015510082244873,1.3198107481002808,-0.1668704599142074,-0.3410790860652923,0.0779647231101989,0.295635461807251,0.0,0.0,0.1283167723135492,-0.8960838167387479
-0.0170800201594829,1.3120687007904053,-0.1742616593837738,-0.3450901210308075,0.0950959324836731,0.342655599117279,0.0,0.0,0.7452560182043637,-0.695105241427546
-0.0186342243105173,1.30482816696167,-0.1749555170536041,-0.3231525719165802,0.1145107150077819,0.388331651687622,0.0,0.0,0.8686643869512947,-0.6262646024062868
-0.020207691937685,1.2975692749023438,-0.1788578927516937,-0.3244173228740692,0.1359507292509079,0.4288389682769775,0.0,0.0,-0.8108854699237615,0.7622424611987941
-0.0217159278690814,1.2897162437438965,-0.1709554493427276,-0.3509908020496368,0.1560625582933426,0.402273565530777,0.0,0.0,-0.5480592179646544,-0.8318713281738882
-0.0232832916080951,1.281224250793457,-0.1787056624889373,-0.3798748850822449,0.1780905872583389,0.4406004548072815,0.0,0.0,-0.693563490108799,0.5824502411094946
-0.0248025897890329,1.2721376419067385,-0.1729513853788375,-0.4065089821815491,0.1992307603359222,0.422842413187027,0.0,0.0,-0.5329261811682322,-0.5092939354230269
-0.0263577457517385,1.2624218463897705,-0.1777516305446624,-0.4349730908870697,0.2217035740613937,0.4494972229003906,0.0,0.0,0.562209574013627,-0.8485426695864994
-0.0280521400272846,1.2532211542129517,-0.1939243525266647,-0.4127863049507141,0.2465776205062866,0.4975265562534332,0.0,0.0,-0.2579679461433355,-0.5826831917941202
-0.0298027992248535,1.2433876991271973,-0.2012290507555008,-0.4416594505310058,0.2733288407325744,0.5350725650787354,0.0,0.0,-0.7113290953503337,-0.5502330689873016
-0.031592845916748,1.2329320907592771,-0.2063393890857696,-0.4700542390346527,0.30149707198143,0.5634161233901978,0.0,0.0,0.9630656996331146,-0.7343417437269821
-0.0335844978690147,1.2225958108901978,-0.228249043226242,-0.4657202959060669,0.3317386507987976,0.604886531829834,0.0,0.0,0.2070010032416829,0.5202988030371783
-0.0355742461979389,1.21228289604187,-0.2274567633867263,-0.4651782810688019,0.3616668283939361,0.598617434501648,0.0,0.0,0.8791624343938047,0.6829725059095387
-0.0375621803104877,1.201924443244934,-0.2263538837432861,-0.4676061272621155,0.3909431993961334,0.5855802893638611,0.0,0.0,0.1000023109502206,0.6067238874149516
-0.039771843701601,1.1915172338485718,-0.2473975867033004,-0.4700664281845093,0.419354647397995,0.5682804584503174,0.0,0.0,-0.0079688703959639,0.9266300101455271
-0.0419299118220806,1.1805169582366943,-0.2410924434661865,-0.4966616630554199,0.44683438539505,0.5495949983596802,0.0,0.0,0.6893702690275063,0.6821433301696163
-0.0443603508174419,1.16995108127594,-0.2671948373317718,-0.4775495827198028,0.4734247326850891,0.531807005405426,0.0,0.0,-0.2728735463017122,0.8039624478906986
-0.0467509254813194,1.1588138341903689,-0.2621754705905914,-0.5031052231788635,0.4992100298404693,0.515705943107605,0.0,0.0,-0.6661600992035897,0.8740783530696934
-0.0490978248417377,1.1471084356307983,-0.2566502690315246,-0.5284359455108643,0.5240646004676819,0.4970909655094147,0.0,0.0,-0.5508075546468718,-0.7691694087659555
-0.0514976494014263,1.1347417831420898,-0.2635574638843536,-0.5589715838432312,0.5511321425437927,0.5413497686386108,0.0,0.0,0.8901245789542198,-0.5999664540953603
-0.054427720606327,1.1229887008666992,-0.3177625834941864,-0.5327999591827393,0.580043613910675,0.5782303810119629,0.0,0.0,-0.9292840361595154,0.9975160360336304
-0.0572990402579307,1.1106750965118408,-0.310301125049591,-0.5576573014259338,0.6076115965843201,0.5513613820075989,0.0,0.0,-0.9281620979309082,0.9990184307098388
-0.0601181983947753,1.0978147983551023,-0.3035210072994232,-0.5818418264389038,0.6338088512420654,0.5239439010620117,0.0,0.0,-0.9519681334495544,0.9956361055374146
-0.0628762245178222,1.0843958854675293,-0.2958633005619049,-0.6064557433128357,0.6585896611213684,0.4956157803535461,0.0,0.0,-0.9187573790550232,0.9984185695648192
-0.065569594502449,1.070438027381897,-0.2876443564891815,-0.630000114440918,0.6816232800483704,0.4606724381446838,0.0,0.0,-0.7679005265235901,0.979788064956665
-0.0682020187377929,1.0559450387954712,-0.2798512279987335,-0.6533012390136719,0.702918291091919,0.4259005188941955,0.0,0.0,-0.8833490014076233,0.9879543781280518
-0.0707716941833496,1.0409038066864014,-0.2720955312252044,-0.6771895885467529,0.7226226329803467,0.3940872550010681,0.0,0.0,-0.9611194133758544,0.9910452365875244
-0.0732786208391189,1.0253329277038574,-0.2641372978687286,-0.7000747919082642,0.740456759929657,0.3566821813583374,0.0,0.0,-0.7492738366127014,0.9972879886627196
-0.0757311806082725,1.0092264413833618,-0.2572987675666809,-0.7232969999313354,0.7566693425178528,0.3242517709732055,0.0,0.0,-0.4363532066345215,0.9979114532470704
-0.0781188011169433,0.9925864338874816,-0.2492496222257614,-0.7462517619132996,0.771012008190155,0.286853015422821,0.0,0.0,-0.8538621664047241,0.9971072673797609
-0.0804569274187088,0.975400686264038,-0.2431819885969162,-0.7699413895606995,0.7839609384536743,0.2589784264564514,0.0,0.0,-0.8564210534095764,0.9965876340866088
-0.0827199965715408,0.957693099975586,-0.2339541018009185,-0.7921335101127625,0.7946664094924927,0.2141097038984298,0.0,0.0,-0.9370965957641602,0.9967284202575684
-0.0849060043692588,0.9394544959068298,-0.2246512174606323,-0.8147400617599487,0.8032280802726746,0.1712337583303451,0.0,0.0,-0.858249843120575,0.9970650672912598
-0.0870189666748046,0.9206922054290771,-0.2157671898603439,-0.8369977474212646,0.8096081018447876,0.1276000291109085,0.0,0.0,-0.8081966638565063,0.9929041862487792
-0.0890663117170333,0.9013797640800476,-0.2080389559268951,-0.8606510758399963,0.8143457174301147,0.0947529822587966,0.0,0.0,-0.8932900428771973,0.9979404211044312
-0.0910408049821853,0.8815309405326843,-0.199357122182846,-0.8835159540176392,0.8170917630195618,0.0549200251698493,0.0,0.0,-0.8535711765289307,0.9963676929473876
-0.092943288385868,0.8611510396003723,-0.1907214671373367,-0.9061084985733032,0.8177748918533325,0.0136620597913861,0.0,0.0,-0.8453155755996704,0.9992069005966188
-0.0947963744401931,0.8402268290519714,-0.1847724020481109,-0.929582178592682,0.8170022964477539,-0.0154519546777009,0.0,0.0,-0.6744741797447205,0.9984689950942992
-0.0966005325317382,0.818754255771637,-0.1789180636405944,-0.9532822370529176,0.814846396446228,-0.0431183204054832,0.0,0.0,-0.617320716381073,0.9905753135681152
-0.0983402281999588,0.7967398166656494,-0.1712357699871063,-0.9764893054962158,0.8109179735183716,-0.0785685628652572,0.0,0.0,-0.4254432320594787,0.9969438314437866
-0.1000017151236534,0.7742085456848145,-0.1617016643285751,-0.9982925653457642,0.8045735359191895,-0.1268882304430008,0.0,0.0,-0.6241286396980286,0.9983761310577391
-0.1016053184866905,0.7511371374130249,-0.1546971946954727,-1.0215049982070925,0.79654461145401,-0.1605790704488754,0.0,0.0,-0.4761147499084472,0.9910833835601808
-0.1031301468610763,0.7275388240814209,-0.1451582610607147,-1.0438569784164429,0.7862417101860046,-0.2060579359531402,0.0,0.0,-0.203779935836792,0.9734365940093994
-0.1045930832624435,0.7034074068069458,-0.1375391334295272,-1.0667164325714111,0.7740678191184998,-0.2434773445129394,0.0,0.0,0.1116031408309936,0.9800944328308104
-0.1061317473649978,0.6792104244232178,-0.1435719430446624,-1.0688097476959229,0.7599573731422424,-0.2822091579437256,0.0,0.0,0.1795955896377563,0.8994510173797607
-0.1078944206237793,0.6547474265098572,-0.1645975410938263,-1.0799521207809448,0.7441727519035339,-0.3156926035881042,0.0,0.0,0.4667994976043701,0.6726009845733643
-0.1100207343697547,0.6305973529815674,-0.2000080794095993,-1.065704584121704,0.7273457050323486,-0.3365404009819031,0.0,0.0,0.4713808298110962,0.524113655090332
-0.1124053969979286,0.6066758632659912,-0.225224420428276,-1.0554360151290894,0.709958016872406,-0.347754031419754,0.0,0.0,0.5333893299102783,0.5260388851165771
-0.1151903122663497,0.5831223130226135,-0.2644930779933929,-1.0389363765716553,0.6918675303459167,-0.3618098199367523,0.0,0.0,-0.2218323349952697,0.692700982093811
-0.1179286986589431,0.5590003132820129,-0.2587945163249969,-1.0639179944992063,0.6727161407470703,-0.3830272555351257,0.0,0.0,-0.1755560636520385,0.5506775379180908
-0.1206157654523849,0.534300684928894,-0.2526077926158905,-1.0893672704696655,0.6525341868400574,-0.4036394953727722,0.0,0.0,0.5757321119308472,0.0687822103500366
-0.1237719506025314,0.5096940398216248,-0.2991136312484741,-1.0853759050369265,0.6321693062782288,-0.4072973728179931,0.0,0.0,0.345981240272522,-0.0368418097496032
-0.1270825415849685,0.485069066286087,-0.3148993253707886,-1.0866920948028564,0.6125172972679138,-0.3930397033691406,0.0,0.0,0.3994109630584717,-0.1443232893943786
-0.1306616812944412,0.4604810178279876,-0.3418059647083282,-1.0853956937789917,0.5931931734085083,-0.3864829242229461,0.0,0.0,0.1800459623336792,-0.4177230596542358
-0.1343825310468673,0.4356357455253601,-0.3559716641902923,-1.0971224308013916,0.5741183757781982,-0.3814955651760101,0.0,0.0,0.3544914722442627,-0.6336462497711182
-0.1384877264499664,0.4106518030166626,-0.3953942060470581,-1.1039897203445437,0.556422770023346,-0.3539123237133026,0.0,0.0,0.6678433418273926,-0.9458078145980836
-0.1430807113647461,0.3861193060874939,-0.4459417462348938,-1.084877848625183,0.540956437587738,-0.3093271255493164,0.0,0.0,0.687049150466919,-0.9616063833236694
-0.1477923393249511,0.3613558709621429,-0.4597380757331848,-1.096084713935852,0.5278509259223938,-0.262109637260437,0.0,0.0,0.2814164161682129,-0.9800013899803162
-0.1528712213039398,0.336800068616867,-0.4983539581298828,-1.0877047777175903,0.5169861316680908,-0.2172955274581909,0.0,0.0,0.0127968788146972,-0.9903530478477478
-0.1582045555114746,0.3118884265422821,-0.5258020162582397,-1.1043505668640137,0.5084493160247803,-0.1707368940114975,0.0,0.0,-0.4170128107070923,-0.9949334263801576
-0.1636019647121429,0.2862931489944458,-0.5344592928886414,-1.13561749458313,0.5024811625480652,-0.1193617209792137,0.0,0.0,-0.780428946018219,-0.9943557381629944
-0.1690490692853927,0.2600238621234894,-0.54129958152771,-1.1662813425064087,0.4986422061920166,-0.0767792239785194,0.0,0.0,-0.8479629755020142,-0.9958438277244568
-0.1745672225952148,0.233073741197586,-0.5507626533508301,-1.197400450706482,0.4974648356437683,-0.0235476270318031,0.0,0.0,-0.7987760901451111,-0.9962422251701356
-0.1801298111677169,0.2054519951343536,-0.5569535493850708,-1.2278882265090942,0.4982497096061706,0.0156972147524356,0.0,0.0,-0.8627430200576782,-0.9944106936454772
-0.185746282339096,0.1771418154239654,-0.5644227862358093,-1.2592390775680542,0.50136798620224,0.0623657815158367,0.0,0.0,-0.8649017214775085,-0.9913681149482728
-0.1914041489362716,0.1481502801179886,-0.5702953934669495,-1.2901711463928225,0.506454586982727,0.1017320305109024,0.0,0.0,-0.7414472103118896,-0.9867395162582396
-0.1971142739057541,0.1184686720371246,-0.5775436758995056,-1.32161545753479,0.5138363242149353,0.147634208202362,0.0,0.0,-0.5331904888153076,-0.9671300053596495
-0.2028790414333343,0.0881158709526062,-0.5848503112792969,-1.352195143699646,0.5233551263809204,0.1903757750988006,0.0,0.0,-0.3942689895629883,-0.927299439907074
-0.2086865007877349,0.0571021661162376,-0.5906085968017578,-1.382227659225464,0.5346301794052124,0.2255013883113861,0.0,1.0,0.9879302978515624,0.99963641166687
-0.2149117439985275,0.0273971650749444,-0.6402562260627747,-1.3358155488967896,0.5427287817001343,0.1318984180688858,0.0,1.0,0.9961626529693604,0.9994219541549684
-0.2169461697340011,0.0168230384588241,0.0578180961310863,-0.0148919075727462,0.5420295000076294,-0.1718574613332748,0.0,1.0,0.9961626529693604,0.9994219541549684
