x_pos,y_pos,x_vel,y_vel,angle,ang_vel,leg_1,leg_2,main_booster,lat_booster
-0.0015545844798907,1.4034652709960938,-0.1574582904577255,-0.3313251435756683,0.0017971135675907,0.0354522392153739,0.0,0.0,0.7490609445571121,0.3792264924248365
-0.0030860900878906,1.3966070413589478,-0.1551927924156189,-0.3048096895217895,0.0038176730740815,0.0404156297445297,0.0,0.0,0.9280449452514858,-0.6431140411172663
-0.0045338631607592,1.3902925252914429,-0.1485698819160461,-0.2806654870510101,0.0075807636603713,0.0752684846520423,0.0,0.0,-0.7928348939081247,-0.5976305767437761
-0.0060685155913233,1.383816123008728,-0.1587067544460296,-0.2878696322441101,0.0127622094005346,0.1036383882164955,0.0,0.0,-0.830492735756162,0.4467851388535613
-0.0076339719817042,1.3771811723709106,-0.1617773026227951,-0.2949429154396057,0.0179471541196107,0.1037084460258483,0.0,0.0,0.4979801104744659,-0.5814062306238242
-0.0091495513916015,1.3711274862289429,-0.1583069115877151,-0.2691439986228943,0.02462013438344,0.1334719210863113,0.0,0.0,-0.7384157556875652,-0.3643415692773668
-0.0106955524533987,1.3649152517318726,-0.1613507121801376,-0.2762277722358703,0.0312957912683486,0.1335253268480301,0.0,0.0,-0.7856023571063393,0.0321667620668554
-0.012271786108613,1.3585443496704102,-0.16437628865242,-0.2833033204078674,0.0379754677414894,0.1336055696010589,0.0,0.0,0.7785585193037292,-0.8506795440518325
-0.0139937400817871,1.353370189666748,-0.1806263625621795,-0.2302050292491912,0.0463146977126598,0.1668001115322113,0.0,0.0,0.5949662394840811,-0.7909778138294314
-0.0158413890749216,1.3490887880325315,-0.1947669386863708,-0.1906206905841827,0.0562220439314842,0.1981651484966278,0.0,0.0,0.0856187562971968,-0.5179227779632488
-0.0177189819514751,1.3452367782592771,-0.1989288628101349,-0.1716517060995102,0.0672811567783355,0.2212026417255401,0.0,0.0,0.6654949050997065,-0.5031615871109011
-0.0196256637573242,1.342027187347412,-0.2030598670244217,-0.1432540267705917,0.0795622393488884,0.2456440180540084,0.0,0.0,-0.164916993672509,-0.3828027316476267
-0.0215617176145315,1.3386602401733398,-0.2059824764728546,-0.1503451764583587,0.0918458700180053,0.2456950843334198,0.0,0.0,0.6712254455323601,-0.4748994420032438
-0.0234901420772075,1.3356826305389404,-0.2055440247058868,-0.1331735700368881,0.1044623255729675,0.2523521482944488,0.0,0.0,-0.5049065850875221,-0.4347913576264534
-0.0254473686218261,1.332547664642334,-0.2084024846553802,-0.1402666419744491,0.1170813962817192,0.2524042427539825,0.0,0.0,0.6557429402742341,-0.0123372841185507
-0.0273586269468069,1.329718828201294,-0.2043110579252243,-0.1268138438463211,0.1302201896905899,0.2627997994422912,0.0,0.0,-0.1600000424366954,0.2821775735870648
-0.0292978286743164,1.326732873916626,-0.2070938646793365,-0.1339081674814224,0.143361285328865,0.2628459334373474,0.0,0.0,-0.3698170022011238,0.9107089683302152
-0.0311759952455759,1.323601245880127,-0.1987199336290359,-0.1402758806943893,0.1542623043060302,0.2180401980876922,0.0,0.0,-0.9861464682462592,0.00744043773432
-0.0330811515450477,1.3203117847442627,-0.2014054059982299,-0.1473626941442489,0.1651673316955566,0.2181201875209808,0.0,0.0,0.31029530715568,0.8512005187990112
-0.035092256963253,1.3175266981124878,-0.210217073559761,-0.1248171105980873,0.1743014454841613,0.182698979973793,0.0,0.0,0.2580948424307314,0.984162583302189
-0.0370409004390239,1.315485954284668,-0.2020353823900222,-0.0915618985891342,0.1815006136894226,0.1439960896968841,0.0,0.0,0.4236134566178997,0.606713598840318
-0.0390251167118549,1.3138612508773804,-0.2044016867876052,-0.0729430168867111,0.1875129789113998,0.1202578172087669,0.0,0.0,-0.7787102568034252,-0.4157869830232261
-0.0410338416695594,1.312077879905701,-0.2068407833576202,-0.0800240486860275,0.1935289055109024,0.1203293427824974,0.0,0.0,0.5444828799495514,-0.2540391170261079
-0.0430582053959369,1.3105840682983398,-0.208713561296463,-0.0672120228409767,0.1998510062694549,0.12645323574543,0.0,0.0,0.5882085584372738,0.1278045549370049
-0.0453622825443744,1.309800624847412,-0.236041635274887,-0.0355931483209133,0.2055428177118301,0.1138461381196975,0.0,0.0,0.0238661148829824,-0.0267865736905321
-0.0478628166019916,1.309450387954712,-0.2552900016307831,-0.0163028296083211,0.2108205258846283,0.1055539473891258,0.0,0.0,0.8419626545693768,0.6222012911284774
-0.0505020134150981,1.310149908065796,-0.2679170966148376,0.0305146947503089,0.214858591556549,0.0807615593075752,0.0,0.0,-0.0684647855542368,0.1428958292213382
-0.053161334246397,1.3106906414031982,-0.2699285447597503,0.0234404765069484,0.2188993692398071,0.0808159112930297,0.0,0.0,-0.7330810961974272,0.9014374253098474
-0.0557865127921104,1.3110976219177246,-0.2650999128818512,0.0177048072218894,0.2215149700641632,0.0523118749260902,0.0,0.0,-0.7591185459010208,-0.4838599384447176
-0.0584297180175781,1.3113456964492798,-0.266903817653656,0.0106313843280076,0.2241322547197342,0.0523459315299987,0.0,0.0,-0.2289479039833006,0.460592792092276
-0.0610898025333881,1.3114347457885742,-0.2685942649841308,0.0035579693503677,0.2267507016658783,0.0523690655827522,0.0,0.0,-0.9150628447532654,0.9862432479858398
-0.0636985749006271,1.3113818168640137,-0.2617668509483337,-0.0024861360434442,0.2276435941457748,0.0178581662476062,0.0,0.0,-0.9960004687309264,0.9890351295471193
-0.0662576705217361,1.311201572418213,-0.2550921142101288,-0.0078811813145875,0.2268090844154358,-0.016690319404006,0.0,0.0,-0.9947469830513,0.983962893486023
-0.0687609687447547,1.3108770847320557,-0.2477571666240692,-0.0140311755239963,0.224208116531372,-0.05201967805624,0.0,0.0,-0.9802337288856506,0.7637621164321899
-0.0712158232927322,1.310415744781494,-0.2413604259490966,-0.0198806319385767,0.2200244218111038,-0.0836738869547844,0.0,0.0,-0.9998581409454346,0.8965387344360352
-0.0736110657453537,1.3098258972167969,-0.2335382252931594,-0.0253284070640802,0.2139738649129867,-0.1210115775465965,0.0,0.0,-0.998474657535553,0.9522867202758788
-0.0759443268179893,1.3090959787368774,-0.2255159616470337,-0.0313352979719638,0.2060916870832443,-0.157643511891365,0.0,0.0,-0.9999570846557616,0.674836277961731
-0.0782303810119628,1.30823016166687,-0.2193459719419479,-0.0372148230671882,0.1967600136995315,-0.1866336464881897,0.0,0.0,-0.999779999256134,0.4501767158508301
-0.0805225372314453,1.3072065114974976,-0.2199271023273468,-0.0442947410047054,0.1874245852231979,-0.1867085248231887,0.0,0.0,-0.999588131904602,0.7738780975341797
-0.0827563256025314,1.3060438632965088,-0.2124582976102829,-0.0503320060670375,0.1764581501483917,-0.2193286418914795,0.0,0.0,-0.9985251426696776,-0.0104349851608276
-0.0849931687116622,1.304723620414734,-0.2127249240875244,-0.057414673268795,0.1654866933822631,-0.2194290459156036,0.0,0.0,-0.9991980195045472,0.0683146715164184
-0.0872312560677528,1.3032457828521729,-0.2128331661224365,-0.0644973665475845,0.1545095741748809,-0.2195422351360321,0.0,0.0,-0.9983124136924744,-0.1426389217376709
-0.0894691497087478,1.3016103506088257,-0.2127831280231475,-0.0715800821781158,0.1435261815786361,-0.2196679562330246,0.0,0.0,-0.999376893043518,-0.0481994748115539
-0.0917051285505294,1.2998173236846924,-0.212575763463974,-0.0786628350615501,0.1325359046459198,-0.2198056876659393,0.0,0.0,-0.9945998191833496,0.1269840002059936
-0.0939377769827842,1.2978668212890625,-0.2122128456830978,-0.0857456028461456,0.1215381547808647,-0.2199549674987793,0.0,0.0,-0.9675118923187256,-0.0215625762939453
-0.0961654633283615,1.295758843421936,-0.211696982383728,-0.0928284078836441,0.1105324178934097,-0.220115065574646,0.0,0.0,-0.771523118019104,-0.4179101586341858
-0.0983867645263671,1.2934932708740234,-0.21103136241436,-0.0999112427234649,0.0995181500911712,-0.2202852070331573,0.0,0.0,-0.9888792634010316,-0.1652389764785766
-0.1006001457571983,1.2910701036453247,-0.2102199494838714,-0.1069941148161888,0.0884949341416359,-0.2204645127058029,0.0,0.0,-0.9851607084274292,-0.1562644839286804
-0.1028041839599609,1.2884894609451294,-0.209267258644104,-0.1140770092606544,0.0774623230099678,-0.2206520736217498,0.0,0.0,-0.9645219445228576,-0.1435924768447876
-0.1049975380301475,1.2857513427734375,-0.2081782817840576,-0.121159940958023,0.0664199888706207,-0.2208468914031982,0.0,0.0,-0.9816322326660156,-0.7130550146102905
-0.1072217002511024,1.282850980758667,-0.2123393714427948,-0.1284901201725006,0.0564490333199501,-0.1994190514087677,0.0,0.0,-0.97426438331604,-0.524492084980011
-0.1094780936837196,1.2797921895980835,-0.2167042195796966,-0.1356306076049804,0.0476106368005275,-0.1767677366733551,0.0,0.0,-0.9746373891830444,0.0005813837051391
-0.1117200851440429,1.2765754461288452,-0.2152400761842727,-0.1427099257707595,0.0387617051601409,-0.1769788265228271,0.0,0.0,-0.9691243171691896,-0.704836368560791
-0.1140020340681076,1.273203730583191,-0.2206352949142456,-0.1496803015470504,0.0312957838177681,-0.1493183076381683,0.0,0.0,-0.985398530960083,-0.4908708333969116
-0.1162673011422157,1.269673466682434,-0.218950554728508,-0.1567577719688415,0.0238190591335296,-0.1495346426963806,0.0,0.0,-0.9930754899978638,-0.5265841484069824
-0.1185629814863205,1.26598060131073,-0.2232174575328827,-0.1640356928110122,0.017545111477375,-0.1254790127277374,0.0,0.0,-0.9871410727500916,-0.9157819747924804
-0.1209013015031814,1.2621358633041382,-0.2290181815624237,-0.170827254652977,0.0127965603023767,-0.0949709191918373,0.0,0.0,-0.9975171089172364,0.2227909564971923
-0.1232199668884277,1.2581322193145752,-0.2270477563142776,-0.177901953458786,0.0080372113734483,-0.0951872169971466,0.0,0.0,-0.9966974258422852,-0.1999542117118835
-0.1255182325839996,1.25396990776062,-0.2249936610460281,-0.1849766671657562,0.003267127322033,-0.0954015776515007,0.0,0.0,-0.9995263814926147,-0.5774024128913879
-0.1278467178344726,1.249653458595276,-0.2293207198381424,-0.1918415278196334,-0.0002202321920776,-0.0697472542524337,0.0,0.0,-0.9787463545799256,0.7088377475738525
-0.1300924271345138,1.2451717853546145,-0.2194789201021194,-0.1991899460554123,-0.0052474089898169,-0.1005435213446617,0.0,0.0,-0.9922516942024232,-0.3593736886978149
-0.1323156356811523,1.2405314445495603,-0.2172062397003173,-0.2062649130821228,-0.0102847646921873,-0.1007472053170204,0.0,0.0,-0.958907663822174,-0.1296100616455078
-0.1345154792070388,1.2357323169708252,-0.2148706465959549,-0.2133398652076721,-0.0153320683166384,-0.1009460315108299,0.0,0.0,-0.992256760597229,0.5493026971817017
-0.1366461813449859,1.230774164199829,-0.2068085670471191,-0.2204365134239196,-0.0215241592377424,-0.1238418594002723,0.0,0.0,-0.996644914150238,-0.8456420302391052
-0.1388188302516937,1.2256531715393066,-0.2126552611589431,-0.2276718020439148,-0.0260661914944648,-0.0908407568931579,0.0,0.0,-0.9746272563934326,0.767216682434082
-0.1409182548522949,1.2203720808029177,-0.2041061818599701,-0.234832152724266,-0.031829547137022,-0.1152671426534652,0.0,0.0,-0.9330520629882812,0.3635700941085815
-0.1429922133684158,1.2149320840835571,-0.2015620172023773,-0.2419078052043914,-0.0376016423106193,-0.1154418587684631,0.0,0.0,-0.9925379753112792,0.776299238204956
-0.1449709832668304,1.2093205451965332,-0.1902452111244201,-0.2496147453784942,-0.0451381802558898,-0.1507310271263122,0.0,0.0,-0.9641759991645812,0.105118989944458
-0.146923542022705,1.2035505771636963,-0.1876191198825836,-0.2566923499107361,-0.0526827611029148,-0.1508914828300476,0.0,0.0,-0.9843354225158693,0.0047844648361206
-0.1488494873046875,1.1976221799850464,-0.1849567741155624,-0.2637700140476227,-0.0602350085973739,-0.1510447114706039,0.0,0.0,-0.997369647026062,0.7926400899887085
-0.1506953239440918,1.1915340423583984,-0.1755890548229217,-0.270968496799469,-0.069131001830101,-0.1779200136661529,0.0,0.0,-0.8713963627815247,0.5405006408691406
-0.1524689644575119,1.1852844953536987,-0.1672300994396209,-0.2782627046108246,-0.0791648477315902,-0.2006765902042389,0.0,0.0,-0.9661923050880432,-0.2439996004104614
-0.1542151421308517,1.1788771152496338,-0.1644757688045501,-0.2853440344333648,-0.0892051756381988,-0.2008068859577179,0.0,0.0,-0.9471856951713562,-0.4449125528335571
-0.1559333801269531,1.172311782836914,-0.1616954952478408,-0.2924253046512604,-0.099251665174961,-0.2009296864271164,0.0,0.0,-0.9885608553886414,-0.0585372447967529
-0.1576235741376876,1.1655888557434082,-0.1588914394378662,-0.2995066046714782,-0.1093039214611053,-0.2010451555252075,0.0,0.0,-0.9421054124832152,-0.4134399890899658
-0.1592854559421539,1.158708095550537,-0.1560655385255813,-0.3065878748893738,-0.1193615794181823,-0.20115327835083,0.0,0.0,-0.8073684573173523,-0.2574187517166137
-0.1609188020229339,1.1516695022583008,-0.1532196551561355,-0.313669204711914,-0.1294242888689041,-0.201254203915596,0.0,0.0,-0.6876258254051208,-0.2582131624221802
-0.1625234633684158,1.1444730758666992,-0.1503554582595825,-0.3207505047321319,-0.1394916921854019,-0.201348066329956,0.0,0.0,-0.8970551490783691,0.1441715955734253
-0.1640992164611816,1.1371190547943115,-0.1474745273590088,-0.3278317749500274,-0.1495634466409683,-0.2014350146055221,0.0,0.0,-0.6619490385055542,0.2003706693649292
-0.1656457930803299,1.1296069622039795,-0.1445783078670501,-0.3349131047725677,-0.1596392095088958,-0.2015152275562286,0.0,0.0,-0.8199999332427979,-0.5644112825393677
-0.1672174483537674,1.1219441890716553,-0.148452490568161,-0.3415283858776092,-0.1683493703603744,-0.1742031574249267,0.0,0.0,-0.8073975443840027,0.2459900379180908
-0.1687598228454589,1.1141233444213867,-0.1455292105674743,-0.3486075401306152,-0.1770628988742828,-0.1742709428071975,0.0,0.0,0.2414355278015136,-0.2802474498748779
-0.1702713072299957,1.106803059577942,-0.1421196311712265,-0.3264557421207428,-0.1861317157745361,-0.1813766211271286,0.0,0.0,-0.8222832083702087,0.2771905660629272
-0.1717534065246582,1.0993244647979736,-0.1391745954751968,-0.3335354030132293,-0.1952032893896103,-0.1814321875572204,0.0,0.0,-0.2841497659683227,0.5140197277069092
-0.1731661856174469,1.0916790962219238,-0.1312774419784546,-0.3411477208137512,-0.2052874416112899,-0.2016830444335937,0.0,0.0,-0.676905632019043,0.0371744632720947
-0.1745492964982986,1.0838758945465088,-0.1283151805400848,-0.3482289314270019,-0.2153737843036651,-0.2017267495393753,0.0,0.0,-0.3404262065887451,-0.1961733102798462
-0.1759024560451507,1.075914978981018,-0.1253454983234405,-0.3553101122379303,-0.2254620343446731,-0.2017649710178375,0.0,0.0,0.2876152992248535,0.0226099491119384
-0.1770850121974945,1.0682307481765747,-0.108636163175106,-0.3430275321006775,-0.2352175414562225,-0.195109948515892,0.0,0.0,-0.1137176752090454,-0.4843939542770386
-0.1782376319169998,1.0603885650634766,-0.1056540459394455,-0.3501081764698028,-0.2449744194746017,-0.1951378136873245,0.0,0.0,0.3141379356384277,-0.0309798121452331
-0.1791764199733734,1.052804470062256,-0.0848044231534004,-0.33860844373703,-0.2542196214199066,-0.1849031746387481,0.0,0.0,0.1676197052001953,-0.7035301923751831
-0.1800087988376617,1.0458606481552124,-0.0755701586604118,-0.3099627494812011,-0.2620439827442169,-0.1564874947071075,0.0,0.0,0.2914071083068847,-0.0078868269920349
-0.1806341111660003,1.0396080017089844,-0.0549857504665851,-0.2792598605155945,-0.2697572410106659,-0.1542652547359466,0.0,0.0,0.2361862659454345,-0.7151908874511719
-0.181048959493637,1.033901929855347,-0.0355073660612106,-0.2547279894351959,-0.2758882939815521,-0.1226212754845619,0.0,0.0,0.5179598331451416,-0.6587241291999817
-0.1813056915998459,1.0284427404403689,-0.021203676238656,-0.2434762269258499,-0.2804857492446899,-0.0919491276144981,0.0,0.0,0.7201251983642578,-0.5299434661865234
-0.181482121348381,1.023629069328308,-0.0140602495521307,-0.2146321833133697,-0.2841688990592956,-0.0736631974577903,0.0,0.0,0.5672343969345093,-0.3062021732330322
-0.1813220083713531,1.0198010206222534,0.0192387662827968,-0.1707620918750763,-0.2874806821346283,-0.0662362053990364,0.0,0.0,0.3986014127731323,-0.4040699005126953
-0.1810139715671539,1.0165154933929443,0.0341020449995994,-0.1466788649559021,-0.2908836603164673,-0.0680587962269783,0.0,0.0,-0.6412250399589539,-0.239082396030426
-0.1806758940219879,1.013071060180664,0.0371067933738231,-0.1537526100873947,-0.2942862510681152,-0.0680516585707664,0.0,0.0,0.4005744457244873,-0.5079470276832581
-0.1800977736711502,1.0103018283843994,0.0599204413592815,-0.1234991177916526,-0.2964612245559692,-0.0434988364577293,0.0,0.0,-0.8181504011154175,-0.4690965414047241
-0.1794896125793457,1.0073738098144531,0.0629227980971336,-0.1305723041296005,-0.2986355125904083,-0.0434857979416847,0.0,0.0,-0.7285626530647278,-0.7554101347923279
-0.1789150238037109,1.0043214559555054,0.0578703805804252,-0.1357407718896865,-0.2990559041500091,-0.0084075909107923,0.0,0.0,-0.4798215627670288,-0.8360503315925598
-0.1783764809370041,1.0011377334594729,0.0525479204952716,-0.1412331759929657,-0.2977072894573211,0.0269720051437616,0.0,0.0,-0.748561441898346,-0.5418112277984619
-0.1778565347194671,0.9978178143501282,0.0494091287255287,-0.1470264941453933,-0.2950417399406433,0.0533111914992332,0.0,0.0,-0.6444401741027832,-0.1698238849639892
-0.1773067414760589,0.9943388104438782,0.0523984655737876,-0.1540998667478561,-0.2923750579357147,0.053333580493927,0.0,0.0,-0.8054118752479553,-0.8146291971206665
-0.1767766922712326,0.990728199481964,0.0490884408354759,-0.1596865653991699,-0.2883380651473999,0.0807396322488784,0.0,0.0,-0.8106834888458252,-0.7179470658302307
-0.1762667596340179,0.9869745373725892,0.0458072498440742,-0.1658137291669845,-0.2829963564872741,0.1068344339728355,0.0,0.0,-0.8300974369049072,-0.757207989692688
-0.1757692396640777,0.9830868244171144,0.0434046648442745,-0.171574592590332,-0.2764809429645538,0.1303076148033142,0.0,0.0,-0.7344947457313538,-0.4627611637115478
-0.1752420365810394,0.979040503501892,0.0463689789175987,-0.1786508113145828,-0.2699641287326813,0.1303363442420959,0.0,0.0,-0.7645279169082642,-0.1486343145370483
-0.1746850907802581,0.9748356342315674,0.0493255034089088,-0.1857270300388336,-0.2634457945823669,0.1303664892911911,0.0,0.0,-0.8702334761619568,-0.0314443111419677
-0.1740985810756683,0.9704721570014954,0.052273441106081,-0.1928032338619232,-0.256925880908966,0.1303980946540832,0.0,0.0,-0.981579840183258,0.2931582927703857
-0.1734825074672699,0.9659500122070312,0.0552119426429271,-0.1998794823884964,-0.2504043281078338,0.1304311901330948,0.0,0.0,-0.9735028743743896,-0.1207863092422485
-0.1728370636701584,0.9612692594528198,0.0581401474773883,-0.2069557309150695,-0.2438810318708419,0.1304658204317093,0.0,0.0,-0.9326339960098268,0.7490699291229248
-0.1720978766679763,0.9564019441604614,0.0691843852400779,-0.2155512422323227,-0.2390740811824798,0.0961393564939498,0.0,0.0,-0.9686390161514282,-0.3310693502426147
-0.1713296920061111,0.9513756632804872,0.0720897391438484,-0.2226259261369705,-0.2342652082443237,0.0961775928735733,0.0,0.0,-0.9678096771240234,-0.0859721899032592
-0.1705324202775955,0.9461906552314758,0.0749818533658981,-0.2297005951404571,-0.2294543087482452,0.0962177217006683,0.0,0.0,-0.9761292934417723,-0.1875706315040588
-0.1697063446044922,0.9408466815948486,0.0778596848249435,-0.2367752641439438,-0.2246413230895996,0.0962597653269767,0.0,0.0,-0.9965014457702636,0.2502994537353515
-0.1688515692949295,0.9353439211845398,0.0807220861315727,-0.2438499480485916,-0.2198261171579361,0.0963038355112075,0.0,0.0,-0.9575737118721008,-0.024446964263916
-0.1679681837558746,0.929682433605194,0.0835678875446319,-0.2509246468544006,-0.2150086164474487,0.0963500365614891,0.0,0.0,-0.9879162311553956,-0.5858764052391052
-0.1670940369367599,0.923876941204071,0.0816677957773208,-0.2571922838687897,-0.2091985344886779,0.1162017732858657,0.0,0.0,-0.9771022200584412,0.427440881729126
-0.1661916673183441,0.9179127216339112,0.0844763219356536,-0.2642678618431091,-0.2033859193325042,0.1162522286176681,0.0,0.0,-0.981243908405304,0.4570533037185669
