x_pos,y_pos,x_vel,y_vel,angle,ang_vel,leg_1,leg_2,main_booster,lat_booster
-0.0015216827159747,1.4033554792404177,-0.1544903367757797,-0.3362052142620086,0.0020681777969002,0.040819726884365,0.0,0.0,-0.6167265543269189,-0.6741207579684845
-0.0030902861617505,1.395541787147522,-0.160428911447525,-0.3472867906093597,0.0055991564877331,0.0706270188093185,0.0,0.0,0.3784558730134837,0.9126160877343932
-0.0044599534012377,1.387959361076355,-0.1391490846872329,-0.3370088934898376,0.0077561070211231,0.0431426391005516,0.0,0.0,-0.3783664094629153,-0.92920517592402
-0.0059153558686375,1.3801038265228271,-0.1502450108528137,-0.3491630554199219,0.0124106770381331,0.0931000337004661,0.0,0.0,-0.7423250743541192,-0.6539897353140522
-0.0074095726013183,1.3719812631607056,-0.1554581224918365,-0.3610685169696808,0.0183772984892129,0.1193435341119766,0.0,0.0,0.0008168179600127,0.6342906271333557
-0.0087638851255178,1.3640865087509155,-0.1406122297048568,-0.3509461283683777,0.0234962906688451,0.102389171719551,0.0,0.0,-0.9348169753904664,0.7399163544620491
-0.0100606922060251,1.35592520236969,-0.1337282210588455,-0.362797349691391,0.027501568198204,0.0801130905747413,0.0,0.0,-0.1643328850744274,0.5121119633960443
-0.011305809020996,1.347498655319214,-0.1275710463523864,-0.3745701611042022,0.0305379591882228,0.060733288526535,0.0,0.0,0.5749884862857886,-0.8499299014050754
-0.0126535417512059,1.3400051593780518,-0.139829009771347,-0.333154559135437,0.0355323068797588,0.099896028637886,0.0,0.0,0.3119146933470256,0.9395754789856784
-0.0139474868774414,1.3331172466278076,-0.132842481136322,-0.3062149882316589,0.0389582738280296,0.068525418639183,0.0,0.0,-0.3785088479673353,-0.8666901056509975
-0.0152983665466308,1.325958013534546,-0.1403398066759109,-0.318337470293045,0.0441539511084556,0.1039227992296218,0.0,0.0,-0.7838463119446326,-0.954076893051669
-0.0167141910642385,1.3185241222381592,-0.1488224267959594,-0.3306247591972351,0.0513147488236427,0.143229067325592,0.0,0.0,-0.0637666104395466,-0.5796074610154266
-0.018164824694395,1.3108224868774414,-0.1534990221261978,-0.3426073491573334,0.0596713051199913,0.167146235704422,0.0,0.0,0.6995976687878436,0.965524466282677
-0.019480038434267,1.3034048080444336,-0.1384445130825042,-0.3299628794193268,0.066523976624012,0.1370658874511718,0.0,0.0,-0.0216843022534507,-0.6789637102419048
-0.0208354946225881,1.2957217693328855,-0.1437950581312179,-0.3418447077274322,0.0747035220265388,0.1636057496070861,0.0,0.0,0.4993583316986378,0.644842176365132
-0.0220503807067871,1.2881850004196167,-0.1289884597063064,-0.3353594243526459,0.0821325182914733,0.1485937237739563,0.0,0.0,-0.0613534346569684,0.9809925152961588
-0.0231701843440532,1.2804031372070312,-0.1173468828201294,-0.3461655974388122,0.0874568447470665,0.1064962595701217,0.0,0.0,0.2458525519394483,-0.65938714107492
-0.0242459289729595,1.2727785110473633,-0.1147469878196716,-0.3393017947673797,0.0945832058787345,0.1425401270389557,0.0,0.0,-0.5915687477129639,-0.9079036942097084
-0.0253809932619333,1.2648860216140747,-0.1225118264555931,-0.3513636887073517,0.1035144478082656,0.1786409616470337,0.0,0.0,0.0230435009379865,-0.5268128438784949
-0.0266482345759868,1.2572338581085205,-0.1369591653347015,-0.3408347070217132,0.1136945113539695,0.2036199271678924,0.0,0.0,0.1646809486267146,0.8320504759176802
-0.0278068538755178,1.2501389980316162,-0.1247807145118713,-0.3160257637500763,0.1225742325186729,0.1776106804609298,0.0,0.0,-0.3773901688644068,-0.9371139321803884
-0.0290363319218158,1.2427582740783691,-0.1339932680130005,-0.3289733529090881,0.1335815787315368,0.2201669663190841,0.0,0.0,-0.3833428634572968,-0.8260913033079376
-0.0303159710019826,1.2350997924804688,-0.140575885772705,-0.3415625393390655,0.1461732685565948,0.2518560588359833,0.0,0.0,0.8153208373622263,0.9566018527912306
-0.0314846038818359,1.227708101272583,-0.1279726922512054,-0.3296431601047516,0.1572824865579605,0.2222043722867965,0.0,0.0,0.440683880377265,-0.7290700892694426
-0.0329336151480674,1.2208373546600342,-0.157499149441719,-0.306744635105133,0.1699096411466598,0.2525656819343567,0.0,0.0,-0.0532492011926355,0.7417907369819046
-0.0343362800776958,1.2136943340301514,-0.1520252823829651,-0.3188604116439819,0.1816969513893127,0.2357460558414459,0.0,0.0,-0.1528724809520716,0.6344727702874422
-0.0356890670955181,1.206302285194397,-0.1460308283567428,-0.3298922777175903,0.1924902349710464,0.2158660888671875,0.0,0.0,-0.9307805280295433,-0.7366043237048815
-0.0371118560433387,1.1986308097839355,-0.1550634652376175,-0.3426614105701446,0.2053664177656173,0.2575238049030304,0.0,0.0,0.6793131888703641,-0.6992857440906248
-0.0388911254703998,1.1917943954467771,-0.1920414865016937,-0.3058628439903259,0.2196223586797714,0.2851184010505676,0.0,0.0,0.2903274566439493,0.6739378246387376
-0.0407183654606342,1.185258865356445,-0.1957168877124786,-0.2924595177173614,0.2327804863452911,0.2631625533103943,0.0,0.0,0.4398441496678447,-0.800322991650595
-0.0427604690194129,1.179527997970581,-0.2190535515546798,-0.2571240067481994,0.2478548288345337,0.3014872670173645,0.0,0.0,-0.5605031251907349,0.9478194713592528
-0.0447382926940918,1.1735501289367676,-0.2112118005752563,-0.2679988443851471,0.2615495324134826,0.2738940715789795,0.0,0.0,-0.7086606621742249,0.969641923904419
-0.0466536507010459,1.1673409938812256,-0.2035363465547561,-0.2781492471694946,0.2738241851329803,0.245493084192276,0.0,0.0,-0.9174256920814514,0.9715956449508668
-0.0485011115670204,1.160884976387024,-0.1952682882547378,-0.2889428734779358,0.2846259772777557,0.2160359174013137,0.0,0.0,-0.9552358388900756,0.9656622409820556
-0.0502735152840614,1.1541969776153564,-0.1860493123531341,-0.2989815473556518,0.293690413236618,0.1812885701656341,0.0,0.0,-0.9345623850822448,0.9690117835998536
-0.0519718155264854,1.1472831964492798,-0.176896184682846,-0.3087247014045715,0.3009942173957824,0.1460760533809662,0.0,0.0,-0.8924546241760254,0.9890490770339966
-0.0535972602665424,1.1401304006576538,-0.1680226027965545,-0.3190463781356811,0.3066519498825073,0.113154612481594,0.0,0.0,-0.9542816877365112,0.98048996925354
-0.0551456436514854,1.1327543258666992,-0.1585010886192321,-0.3286043703556061,0.3104498386383056,0.0759575963020324,0.0,0.0,-0.987457036972046,0.995964765548706
-0.0566259399056434,1.1251546144485474,-0.1501199305057525,-0.3382132649421692,0.3126074373722076,0.0431525185704231,0.0,0.0,-0.9729052782058716,0.984684944152832
-0.0580288879573345,1.117325782775879,-0.1406005620956421,-0.3480204045772552,0.3129276633262634,0.0064047835767269,0.0,0.0,-0.9860605597496032,0.956781268119812
-0.0593740455806255,1.1092650890350342,-0.1335244327783584,-0.3580339550971985,0.3118967413902282,-0.0206186957657337,0.0,0.0,-0.9877967238426208,0.8380048274993896
-0.0606427192687988,1.1009714603424072,-0.1241365298628807,-0.3680215775966644,0.3090681433677673,-0.0565716736018657,0.0,0.0,-0.9782781600952148,0.928504228591919
-0.0618279464542865,1.0924389362335205,-0.1139211803674697,-0.3782441914081573,0.3043079972267151,-0.0952034443616867,0.0,0.0,-0.9973360300064088,0.7937204837799072
-0.0629430785775184,1.0836703777313232,-0.1053200140595436,-0.3884392976760864,0.2979173064231872,-0.1278138309717178,0.0,0.0,-0.9982577562332152,0.9868447780609132
-0.0639861077070236,1.0746551752090454,-0.0965450182557106,-0.3991100490093231,0.2899121940135956,-0.1601016670465469,0.0,0.0,-0.9972206950187684,0.9464545249938964
-0.0649500861763954,1.0653979778289795,-0.086853839457035,-0.4095565378665924,0.2800874710083008,-0.1964941620826721,0.0,0.0,-0.9977455735206604,0.98638653755188
-0.0658308044075965,1.055904746055603,-0.0765694230794906,-0.4197645783424377,0.2682987451553345,-0.2357737123966217,0.0,0.0,-0.998151421546936,0.966339111328125
-0.0666536316275596,1.0461797714233398,-0.0694045349955558,-0.4299090504646301,0.2551370561122894,-0.2632343471050262,0.0,0.0,-0.9975173473358154,0.948767900466919
-0.0674216300249099,1.0362194776535034,-0.0626116916537284,-0.4402841031551361,0.2406942099332809,-0.288857102394104,0.0,0.0,-0.9762731790542604,0.8813918828964233
-0.0681240111589431,1.026015281677246,-0.054541278630495,-0.4510257542133331,0.2247519940137863,-0.3188442289829254,0.0,0.0,-0.974457323551178,0.4183809757232666
-0.0688267722725868,1.0155463218688965,-0.0547105744481086,-0.4630035161972046,0.2090172320604324,-0.3146952986717224,0.0,0.0,-0.822658121585846,0.5723663568496704
-0.06949033588171,1.0048285722732544,-0.0498992912471294,-0.474103033542633,0.1924376487731933,-0.3315913081169128,0.0,0.0,-0.7952568531036377,-0.3993200063705444
-0.0701540932059288,0.9938459992408752,-0.0500607416033744,-0.4860818088054657,0.1760483533143997,-0.3277861773967743,0.0,0.0,-0.9346265196800232,-0.3574707508087158
-0.070818230509758,0.9825983047485352,-0.0502182133495807,-0.4980597794055938,0.1598397344350814,-0.3241725862026214,0.0,0.0,-0.9573947787284852,-0.5625476837158203
-0.0715152770280838,0.9710751175880432,-0.0544996857643127,-0.510576069355011,0.1446502357721328,-0.3037900030612945,0.0,0.0,-0.9848324060440063,-0.9580460786819458
-0.0722989067435264,0.9592627882957458,-0.0655163377523422,-0.5237973928451538,0.1318419426679611,-0.2561659216880798,0.0,0.0,-0.9247125387191772,-0.1640660762786865
-0.0730828270316124,0.9471837282180786,-0.0656609758734703,-0.5357658267021179,0.1191815137863159,-0.2532084584236145,0.0,0.0,-0.9945808053016664,-0.7455805540084839
-0.0739121437072753,0.9348329901695251,-0.0714901089668273,-0.5480523705482483,0.107802540063858,-0.2275795638561248,0.0,0.0,-0.9926688075065612,-0.2290208339691162
-0.0747418403625488,0.9222151637077332,-0.0716231167316436,-0.560017466545105,0.0965463668107986,-0.2251232862472534,0.0,0.0,-0.9740621447563172,-0.59270179271698
-0.0756247490644455,0.909327507019043,-0.0783813744783401,-0.5721792578697205,0.0867287367582321,-0.1963529735803604,0.0,0.0,-0.9924808740615844,-0.8935128450393677
-0.0765718445181846,0.8961559534072876,-0.0865442305803299,-0.5849534273147583,0.078637808561325,-0.1618183851242065,0.0,0.0,-0.9109007716178894,0.8323279619216919
-0.0774648636579513,0.882727324962616,-0.0798114165663719,-0.5963602662086487,0.0692446827888488,-0.1878629028797149,0.0,0.0,-0.9844942092895508,0.0389158725738525
-0.0783583670854568,0.8690308928489685,-0.0799158662557601,-0.6083211898803711,0.059917464852333,-0.1865443885326385,0.0,0.0,-0.9596461057662964,0.726884126663208
-0.0791926383972168,0.8550735116004944,-0.0725293606519699,-0.6199344396591187,0.0491371415555477,-0.2156065255403518,0.0,0.0,-0.9609146118164062,-0.8461219668388367
-0.0800933837890625,0.8408373594284058,-0.0808790698647499,-0.6324471235275269,0.040054690092802,-0.1816491037607193,0.0,0.0,-0.9186317324638368,-0.9138831496238708
-0.0810818672180175,0.8263282179832458,-0.0918904095888137,-0.6446763277053833,0.0331830829381942,-0.1374318897724151,0.0,0.0,-0.4365887641906738,0.2231451272964477
-0.0820710211992263,0.8115507960319519,-0.0919604822993278,-0.6566334366798401,0.026314727962017,-0.1373671442270279,0.0,0.0,-0.4142001867294311,-0.4992285966873169
-0.083060935139656,0.7965052127838135,-0.0920210927724838,-0.6685905456542969,0.0194336678832769,-0.1376212388277053,0.0,0.0,-0.9798206686973572,-0.7637594938278198
-0.0841095000505447,0.7811982035636902,-0.0993250459432601,-0.6802486777305603,0.0139740817248821,-0.1091916933655738,0.0,0.0,-0.5311126708984375,-0.9031633734703064
-0.0852415114641189,0.7656168937683105,-0.1097306460142135,-0.6924760937690735,0.0105471331626176,-0.0685389563441276,0.0,0.0,-0.9822437763214112,-0.5145767331123352
-0.0864213928580284,0.7497679591178894,-0.1156510338187217,-0.704376220703125,0.0082396836951375,-0.0461489856243133,0.0,0.0,-0.7098335027694702,0.0245873928070068
-0.0876022353768348,0.7336503863334656,-0.1156713515520095,-0.7163297533988953,0.0058574373833835,-0.0476448684930801,0.0,0.0,-0.4241026639938354,0.1566584110260009
-0.0887840241193771,0.7172637581825256,-0.1156810745596885,-0.7282833456993103,0.0033857317175716,-0.0494340620934963,0.0,0.0,-0.2042229175567627,0.7419357299804688
-0.0899010673165321,0.7006089091300964,-0.1074137911200523,-0.7402183413505554,-0.0008450545137748,-0.0846158117055893,0.0,0.0,0.5399134159088135,0.7667195796966553
-0.0909929275512695,0.6842260956764221,-0.1031783819198608,-0.7281398177146912,-0.0067778648808598,-0.1186562180519104,0.0,0.0,0.3955421447753906,-0.870421826839447
-0.0920877456665039,0.6679773330688477,-0.1051643937826156,-0.7221905589103699,-0.0110401539131999,-0.0852456465363502,0.0,0.0,0.3906278610229492,0.192693829536438
-0.0932070761919021,0.6518889665603638,-0.1073489785194397,-0.7150810360908508,-0.0155682675540447,-0.0905622094869613,0.0,0.0,-0.4966342449188232,0.6281636953353882
-0.0942784324288368,0.6355364918708801,-0.1011476069688797,-0.7268475890159607,-0.0214825384318828,-0.1182853206992149,0.0,0.0,4.0531158447265625e-05,0.3991265296936035
-0.0952918976545333,0.6196545362472534,-0.0954121425747871,-0.7059584856033325,-0.0273384414613246,-0.1171183213591575,0.0,0.0,-0.2278653383255005,-0.1876206398010254
-0.0963064208626747,0.6035043597221375,-0.095344603061676,-0.7179149389266968,-0.0333705320954322,-0.1206418499350547,0.0,0.0,-0.3337326645851135,-0.2721854448318481
-0.0973219871520996,0.5870856642723083,-0.0952659100294113,-0.7298716306686401,-0.039588626474142,-0.1243618875741958,0.0,0.0,0.450128436088562,0.535653829574585
-0.0982304587960243,0.571438729763031,-0.0833718627691268,-0.6956351399421692,-0.0469745397567749,-0.1477181762456894,0.0,0.0,0.122185468673706,-0.6723869442939758
-0.0992524176836013,0.5561184287071228,-0.0957784354686737,-0.6811151504516602,-0.0533196590840816,-0.1269023567438125,0.0,0.0,-0.7241712808609009,-0.2916580438613891
-0.100275419652462,0.5405299067497253,-0.095666691660881,-0.6930726766586304,-0.0598764717578887,-0.1311361044645309,0.0,0.0,-0.6530358791351318,0.1687080860137939
-0.1012993827462196,0.5246732831001282,-0.0955441445112228,-0.7050305008888245,-0.066652312874794,-0.1355172097682953,0.0,0.0,0.719732403755188,-0.4697999954223633
-0.1021933555603027,0.5094457864761353,-0.0827432945370674,-0.6770887970924377,-0.0732342675328254,-0.1316387206315994,0.0,0.0,0.0288549661636352,-0.559790849685669
-0.1031005829572677,0.4942664802074432,-0.0849882811307907,-0.6749267578125,-0.0789107084274292,-0.1135290637612342,0.0,0.0,0.7847003936767578,0.6336634159088135
-0.1038169860839843,0.4794460237026214,-0.0646673887968063,-0.659066915512085,-0.0858196020126342,-0.1381778120994568,0.0,0.0,0.6004946231842041,-0.7303785085678101
-0.1043883338570594,0.4651713669300079,-0.0516862757503986,-0.6347536444664001,-0.0912130251526832,-0.1078682690858841,0.0,0.0,0.6158256530761719,-0.953465461730957
-0.1048476248979568,0.4511864781379699,-0.0423464328050613,-0.621774435043335,-0.0947662219405174,-0.071063682436943,0.0,0.0,0.5119163990020752,-0.7607377767562866
-0.10530786216259,0.4379744827747345,-0.0437030680477619,-0.587345540523529,-0.0970637425780296,-0.0459504090249538,0.0,0.0,-0.3381562232971191,-0.7079579830169678
-0.1058212295174598,0.4245070815086365,-0.0501124039292335,-0.5986328721046448,-0.0982775166630745,-0.0242754258215427,0.0,0.0,0.0733776092529296,0.1895296573638916
-0.1062121391296386,0.4114060997962951,-0.0379809997975826,-0.5823396444320679,-0.0993777215480804,-0.0220042876899242,0.0,0.0,0.6273219585418701,-0.3064103126525879
-0.106472872197628,0.3985016644001007,-0.0251565724611282,-0.5735915303230286,-0.1002825796604156,-0.0180973540991544,0.0,0.0,0.7573831081390381,0.3306683301925659
-0.106735423207283,0.3861454129219055,-0.024812389165163,-0.5492610931396484,-0.1017133221030235,-0.0286148525774478,0.0,0.0,-0.4953368902206421,-0.7915202975273132
-0.1070512756705284,0.3735383152961731,-0.0312405042350292,-0.5603411197662354,-0.1020544171333313,-0.00682188058272,0.0,0.0,0.0748540163040161,-0.2726808786392212
-0.1073449105024337,0.3612174689769745,-0.0286691077053546,-0.5476422905921936,-0.1027385592460632,-0.0136826988309621,0.0,0.0,0.2465487718582153,-0.715993344783783
-0.1077382117509841,0.3495550155639648,-0.0396586507558822,-0.5183069705963135,-0.102407157421112,0.0066277617588639,0.0,0.0,0.1078983545303344,0.6043779850006104
-0.1079710945487022,0.3383079767227173,-0.0222337376326322,-0.499940812587738,-0.1034616157412529,-0.0210891999304294,0.0,0.0,-0.6138914823532104,0.6872892379760742
-0.1081546768546104,0.3267897665500641,-0.0157562121748924,-0.5121045708656311,-0.1060425341129303,-0.0516181513667106,0.0,0.0,0.0721381902694702,-0.8437586426734924
-0.1084154099225997,0.3157543838024139,-0.0248685963451862,-0.4905468225479126,-0.1072369441390037,-0.0238882713019847,0.0,0.0,-0.0926308035850524,-0.0089751482009887
-0.1086762398481369,0.3044504821300506,-0.0245974119752645,-0.5025026798248291,-0.1087144240736961,-0.0295494981110095,0.0,0.0,-0.1358095407485962,-0.6728020310401917
-0.1090003028512001,0.2928889989852905,-0.0322435870766639,-0.5138519406318665,-0.1088742017745971,-0.0031959186308085,0.0,0.0,-0.3696752190589905,0.0001461505889892
-0.1093243584036827,0.2810591161251068,-0.0319605991244316,-0.5258076786994934,-0.1093200221657753,-0.0089161759242415,0.0,0.0,0.8933789730072021,0.0348000526428222
-0.1094379425048828,0.2701686918735504,-0.0111829582601785,-0.4840298891067505,-0.1094917058944702,-0.0034338042605668,0.0,0.0,-0.1510971784591674,-0.8919429183006287
-0.1096150428056716,0.2590123414993286,-0.0188530050218105,-0.4957505464553833,-0.1083569452166557,0.0226951595395803,0.0,0.0,0.9235382080078124,-0.2031717300415039
-0.1095280647277832,0.2488847523927688,0.007056756876409,-0.4499978125095367,-0.1067306324839592,0.0325261764228343,0.0,0.0,-0.041742205619812,-0.1492429375648498
-0.1094409972429275,0.2384886592626571,0.0073597854934632,-0.4619538486003876,-0.1053948327898979,0.0267160292714834,0.0,0.0,0.1933356523513794,0.2012315988540649
-0.109186366200447,0.2287284880876541,0.0239311177283525,-0.4336800575256347,-0.1038737446069717,0.0304215960204601,0.0,0.0,0.1146239042282104,-0.2317878603935241
-0.1088397949934005,0.21927510201931,0.0331779904663562,-0.4200464189052582,-0.102406807243824,0.0293385833501815,0.0,0.0,-0.1274176836013794,-0.5780827403068542
-0.1085387244820594,0.2095661461353302,0.0277539100497961,-0.4313504993915558,-0.100064180791378,0.0468523912131786,0.0,0.0,-0.1938812732696533,-0.0243259072303771
-0.1082372665405273,0.1995886862277984,0.0280728004872798,-0.4433065354824066,-0.0980151444673538,0.0409809909760952,0.0,0.0,0.279731273651123,0.3308740854263305
-0.1078387275338172,0.1898637115955352,0.037791833281517,-0.4320884943008423,-0.0959716141223907,0.0408707819879055,0.0,0.0,0.7205944061279297,-0.5095401406288147
-0.1075531989336013,0.1808577924966812,0.0261503849178552,-0.4001104235649109,-0.0935897454619407,0.0476370975375175,0.0,0.0,-0.0942470431327819,-0.7525365948677063
-0.1073393821716308,0.171591579914093,0.0174407213926315,-0.4115891456604004,-0.0896841362118721,0.0781124085187912,0.0,0.0,-0.0364332199096679,0.6239268779754639
-0.10707788169384,0.1620502024888992,0.0237200241535902,-0.4239183664321899,-0.0872731283307075,0.0482200607657432,0.0,0.0,0.5002198219299316,-0.0192095041275024
-0.1067502945661544,0.1529610306024551,0.0305164512246847,-0.4038346707820892,-0.085049070417881,0.0444812998175621,0.0,0.0,0.482684850692749,-0.4979405403137207
-0.1062780395150184,0.1440706849098205,0.0447257496416568,-0.3949865400791168,-0.0825792029500007,0.0493974462151527,0.0,0.0,0.77524733543396,0.0808355808258056
-0.1056405082345008,0.1359972357749939,0.0610754378139972,-0.3586763739585876,-0.0799215212464332,0.0531534440815448,0.0,0.0,0.1392610073089599,-0.725174605846405
-0.104995347559452,0.1284983456134796,0.0606582984328269,-0.333080381155014,-0.0760944336652755,0.0765414461493492,0.0,0.0,-0.4480502009391784,-0.7527012825012207
