x_pos,y_pos,x_vel,y_vel,angle,ang_vel,leg_1,leg_2,main_booster,lat_booster
-0.0014694214332848,1.403183102607727,-0.1489664614200592,-0.3438606858253479,0.0018188185058534,0.0358819626271724,0.0,0.0,-0.923055610663854,0.7882890472407496
-0.0028159141074866,1.3950245380401611,-0.1348097771406173,-0.3626038730144501,0.0019748902413994,0.0031223769765347,0.0,0.0,0.846668767638602,-0.7023074784116965
-0.004000186920166,1.3870967626571655,-0.1204759031534195,-0.352348268032074,0.0039989100769162,0.0404841378331184,0.0,0.0,-0.0896418059320323,0.7816455262662554
-0.0050773620605468,1.378725290298462,-0.1085702404379844,-0.3720646500587463,0.0048425029963254,0.0168735217303037,0.0,0.0,0.5727879817126833,-0.78338187563386
-0.0060243606567382,1.37084698677063,-0.0974413976073265,-0.350160002708435,0.00754956016317,0.0541461110115051,0.0,0.0,0.3036678895532203,-0.8610331154223869
-0.0068591115996241,1.3631696701049805,-0.0881071016192436,-0.3412451446056366,0.0121385874226689,0.0917890891432762,0.0,0.0,-0.9780282546969734,0.92350491844037
-0.0075634000822901,1.3550525903701782,-0.0733240246772766,-0.3607874810695648,0.0150092849507927,0.0574187561869621,0.0,0.0,-0.068509893216375,-0.9925589182087404
-0.0082650184631347,1.3464959859848022,-0.0745984241366386,-0.3803413510322571,0.0193957649171352,0.0877377241849899,0.0,0.0,-0.6521670484774675,-0.7164651998442865
-0.0089621543884277,1.337504744529724,-0.0756409615278244,-0.3996998965740204,0.0252573546022176,0.117242656648159,0.0,0.0,-0.5661186565719718,-0.9254538115952178
-0.0096695898100733,1.328075885772705,-0.0785399824380874,-0.4192107319831848,0.0329768322408199,0.1544035673141479,0.0,0.0,0.1219941184418496,0.7291568602443169
-0.0102025028318166,1.31881844997406,-0.0597278289496898,-0.4115994274616241,0.039337795227766,0.1272309422492981,0.0,0.0,-0.0838991185249204,0.6042654712552497
-0.0106180189177393,1.30912184715271,-0.0466349050402641,-0.4310982525348663,0.0443715751171112,0.1006848961114883,0.0,0.0,-0.7591187600484834,-0.9414468205438118
-0.0110267642885446,1.298985481262207,-0.0474480465054512,-0.4507109224796295,0.0508735328912735,0.1300510913133621,0.0,0.0,-0.9474553913804984,0.6110842440339256
-0.0113162044435739,1.2884067296981812,-0.0341416075825691,-0.4703490436077118,0.0560228079557418,0.1029951348900795,0.0,0.0,-0.7471392397987613,-0.72439541612714
-0.0115834232419729,1.2773911952972412,-0.0330264382064342,-0.4898344576358795,0.0622662231326103,0.124879315495491,0.0,0.0,0.0515246917331067,0.7805136821816817
-0.0116530414670705,1.26622211933136,-0.0117347128689289,-0.4966119527816772,0.0669947043061256,0.0945784375071525,0.0,0.0,-0.6544462194985368,-0.8300969693732777
-0.0117062572389841,1.2546164989471436,-0.011359111405909,-0.5160815715789795,0.0729762241244316,0.119641363620758,0.0,0.0,0.0638149893466304,0.914789942723792
-0.0115284919738769,1.2429430484771729,0.0136028425768017,-0.5190285444259644,0.0771181210875511,0.082845039665699,0.0,0.0,-0.0556706754790581,-0.9358758067613612
-0.0113447187468409,1.230830430984497,0.0126532958820462,-0.5386525392532349,0.0827918574213981,0.1134849414229393,0.0,0.0,-0.1368759910330748,0.6810937561420581
-0.0110459327697753,1.2182821035385132,0.0253754761070013,-0.5579572319984436,0.0872585400938987,0.0893414989113807,0.0,0.0,-0.1706753820934778,0.875027160486211
-0.010595035739243,1.2053101062774658,0.0427526645362377,-0.576676070690155,0.0895766615867614,0.046366773545742,0.0,0.0,0.9388674172762944,0.9842804952180568
-0.0100281713530421,1.1926794052124023,0.0563465356826782,-0.5613839030265808,0.0899223983287811,0.0069154081866145,0.0,0.0,0.1334171072766163,0.6375311798013457
-0.0092750545591115,1.1801847219467163,0.0761388391256332,-0.5552701354026794,0.0890947952866554,-0.0165537018328905,0.0,0.0,0.8207134935568112,0.8821075430115797
-0.0083275791257619,1.1677736043930054,0.0972438007593154,-0.5514584183692932,0.0866181999444961,-0.049536295235157,0.0,0.0,0.4362945631220685,0.926534431926034
-0.0074254036881029,1.1557512283325195,0.0947711020708084,-0.5340691208839417,0.0821062475442886,-0.090247556567192,0.0,0.0,-0.8246201409550042,-0.981089612328269
-0.0065476419404149,1.1432596445083618,0.0899400413036346,-0.5550634264945984,0.0799649581313133,-0.0428255572915077,0.0,0.0,-0.9371656729280196,-0.7612926570427543
-0.0056588174775242,1.130324363708496,0.0895776078104972,-0.5748615264892578,0.0792706608772277,-0.0138858305290341,0.0,0.0,-0.4899198277019601,0.785203950461603
-0.0046508787199854,1.11696195602417,0.1027934923768043,-0.5937861204147339,0.0772886052727699,-0.0396410785615444,0.0,0.0,0.5014338295200258,-0.702189864471366
-0.0038120269309729,1.104195237159729,0.0847950726747512,-0.5673668384552002,0.0763949677348136,-0.0178732462227344,0.0,0.0,-0.7963859527592858,0.8429562338389548
-0.0028372765518724,1.0909912586212158,0.1000751629471778,-0.5867049098014832,0.0738171115517616,-0.0515569075942039,0.0,0.0,0.0151886710408422,-0.846918842445031
-0.0018830299377441,1.0781280994415283,0.0963833257555961,-0.5716493129730225,0.0728575587272644,-0.0191906057298183,0.0,0.0,0.3745965545087104,-0.6141432987523059
-0.0010028838878497,1.0653525590896606,0.0879608541727066,-0.567806601524353,0.07291279733181,0.0011044942075386,0.0,0.0,-0.0893851700810202,-0.8357415861155242
-0.0001264572201762,1.052135348320007,0.0857543796300888,-0.5875252485275269,0.0747895911335945,0.0375359915196895,0.0,0.0,0.2461335868452188,0.8652107853669522
0.0008150100475177,1.0388773679733276,0.0941003710031509,-0.5892423391342163,0.0748359560966491,0.0009273608447983,0.0,0.0,0.0990310725717478,-0.6533364418280332
0.0017577171092852,1.0257991552352903,0.0929605290293693,-0.5813151597976685,0.0761279612779617,0.0258402582257986,0.0,0.0,-0.4352772575100365,-0.8159803866326363
0.0027093887329101,1.0122787952423096,0.0923460274934768,-0.6010509729385376,0.0789241269230842,0.0559233129024505,0.0,0.0,0.480694182730556,0.6563294445251445
0.0037269592285156,0.9989272952079772,0.1003753095865249,-0.5934795141220093,0.0802920833230018,0.0273591764271259,0.0,0.0,-0.9535296496439536,0.6786324570632025
0.0048728943802416,0.985146462917328,0.114732027053833,-0.6124733090400696,0.0801516249775886,-0.0028089848347008,0.0,0.0,-0.0034715675705352,-0.8945414687654794
0.0060147284530103,0.9709252119064332,0.1124808564782142,-0.6321462392807007,0.0818375498056411,0.0337186120450496,0.0,0.0,0.8363710382371772,-0.6654896639023963
0.0071540833450853,0.9572715163230896,0.1108844727277755,-0.6070040464401245,0.0848639607429504,0.060528140515089,0.0,0.0,0.8131027942640381,0.9802518280101036
0.0082388874143362,0.9444550275802612,0.1076564639806747,-0.5696647763252258,0.0856722816824913,0.0161663405597209,0.0,0.0,-0.9404687881469728,-0.2708966732025146
0.0093947406858205,0.9311973452568054,0.1148457303643226,-0.5892729163169861,0.0864154919981956,0.0148640945553779,0.0,0.0,-0.9434017539024352,-0.6316601634025574
0.0105804447084665,0.917486011981964,0.1168129220604896,-0.6094930768013,0.0881530866026878,0.0347522348165512,0.0,0.0,-0.8477204442024231,-0.4208583831787109
0.0118370056152343,0.90333354473114,0.1239561587572097,-0.6291015148162842,0.0898295938968658,0.0335304737091064,0.0,0.0,-0.8261109590530396,0.3880262374877929
0.0131640434265136,0.8887398838996887,0.1310711205005645,-0.6487099528312683,0.0914474949240684,0.0323579870164394,0.0,0.0,-0.7332748174667358,0.0792486667633056
0.0145613672211766,0.8737049102783203,0.1381541192531585,-0.6683183312416077,0.0930095165967941,0.0312406476587057,0.0,0.0,-0.8184738755226135,-0.8194451928138733
0.0159708969295024,0.8582162261009216,0.1379478722810745,-0.6885779500007629,0.0959879755973815,0.0595689713954925,0.0,0.0,-0.911612629890442,-0.5503401756286621
0.0173981674015522,0.8422848582267761,0.1384629905223846,-0.7083397507667542,0.1002166494727134,0.0845735371112823,0.0,0.0,-0.828502893447876,0.4872074127197265
0.0188945773988962,0.8259124159812927,0.1454264223575592,-0.7279494404792786,0.1043995395302772,0.0836577415466308,0.0,0.0,-0.9079550504684448,0.7279843091964722
0.0205151550471782,0.8091055750846863,0.1592930555343628,-0.7471674084663391,0.1071405783295631,0.0548209659755229,0.0,0.0,-0.8107028007507324,-0.5130869150161743
0.0221731178462505,0.7918524742126465,0.1622966676950454,-0.7670592069625854,0.1106236800551414,0.0696618556976318,0.0,0.0,-0.9361401796340942,0.0432361364364624
0.0238988883793354,0.7741583585739136,0.1691002547740936,-0.7866685390472412,0.1140737310051918,0.0690009519457817,0.0,0.0,-0.8872494101524353,-0.4669314622879028
0.0256916992366313,0.7560230493545532,0.1758405715227127,-0.8062779307365417,0.1174955740571022,0.0684365779161453,0.0,0.0,-0.5366729497909546,-0.9638509750366212
0.0274748802185058,0.7374424338340759,0.1729885637760162,-0.8262386918067932,0.1228038519620895,0.106165625154972,0.0,0.0,-0.4149808287620544,-0.1986702680587768
0.0293239597231149,0.7184207439422607,0.1795858591794967,-0.8458495736122131,0.1280944049358368,0.1058113351464271,0.0,0.0,-0.3738641738891601,-0.7045701742172241
0.0311742778867483,0.6989428997039795,0.178088754415512,-0.8662891387939453,0.1350047290325164,0.1382061094045639,0.0,0.0,0.4501707553863525,-0.1493743062019348
0.0330762863159179,0.6800810694694519,0.1828994303941726,-0.8389824628829956,0.1422906517982483,0.1457184553146362,0.0,0.0,0.2243344783782959,-0.427086591720581
0.035072136670351,0.6615425944328308,0.1917988955974578,-0.8246902227401733,0.1500497609376907,0.155182272195816,0.0,0.0,0.4185731410980224,0.3409454822540283
0.0370880141854286,0.643626868724823,0.1935150325298309,-0.7970946431159973,0.1581122130155563,0.1612492501735687,0.0,0.0,-0.3278272151947021,0.0862038135528564
0.0391652099788188,0.6252707242965698,0.1996418237686157,-0.8167088031768799,0.166188046336174,0.1615164577960968,0.0,0.0,-0.07340008020401,0.6460344791412354
0.041357897222042,0.6064824461936951,0.2125790566205978,-0.8358012437820435,0.172883540391922,0.1339101195335388,0.0,0.0,0.399793267250061,0.6007623672485352
0.0434622764587402,0.5881229043006897,0.2051287591457367,-0.8166064620018005,0.1782081425189972,0.1064918264746666,0.0,0.0,0.5041561126708984,0.4179253578186035
0.045651625841856,0.5700476765632629,0.2130823880434036,-0.8040582537651062,0.1840879023075103,0.1175951957702636,0.0,0.0,0.6459450721740723,0.5953261852264404
0.0478567108511924,0.5524530410766602,0.2157433927059173,-0.7825865149497986,0.1888772547245025,0.0957867950201034,0.0,0.0,0.2640118598937988,-0.1240501403808593
0.0500651374459266,0.5348710417747498,0.2160006016492843,-0.7820443511009216,0.19374480843544,0.0973510816693306,0.0,0.0,0.6979560852050781,-0.2543027400970459
0.0520852096378803,0.5177056789398193,0.1976992189884185,-0.7634754180908203,0.1980824321508407,0.0867523401975631,0.0,0.0,0.7230713367462158,0.5967222452163696
0.0540502555668354,0.5014399290084839,0.1932747364044189,-0.7233578562736511,0.2013440579175949,0.0652320683002471,0.0,0.0,0.3063156604766845,0.4657177925109863
0.0560828223824501,0.4850926697254181,0.1996447741985321,-0.7270396947860718,0.2049811482429504,0.072741650044918,0.0,0.0,0.6639931201934814,0.3001817464828491
0.0580151565372943,0.4695757031440735,0.1894231736660003,-0.6901777982711792,0.2088280022144317,0.0769364312291145,0.0,0.0,0.4776821136474609,0.4978197813034057
0.0598235130310058,0.4542130827903747,0.1773276627063751,-0.6832862496376038,0.2123779952526092,0.070999763906002,0.0,0.0,0.6547404527664185,0.8303722143173218
0.0614970214664936,0.4393959045410156,0.1655591130256652,-0.6587994694709778,0.214185357093811,0.036147154867649,0.0,0.0,0.3951330184936523,0.9342918395996094
0.0632015243172645,0.4249428808689117,0.1703932136297226,-0.6423653364181519,0.2142457067966461,0.0012070282828062,0.0,0.0,0.6373281478881836,0.7539825439453125
0.0646873489022255,0.411258190870285,0.15017731487751,-0.6079775094985962,0.2126357406377792,-0.0321989767253398,0.0,0.0,0.7665455341339111,0.9526402950286864
0.0662392601370811,0.3980897665023803,0.1584221124649047,-0.5848038792610168,0.2093671411275863,-0.0653720423579216,0.0,0.0,0.8943781852722168,0.5145024061203003
0.0677325278520584,0.385134607553482,0.1535801738500595,-0.5751896500587463,0.2050835192203521,-0.0856721624732017,0.0,0.0,0.9476995468139648,-0.861080527305603
0.0692003220319747,0.3722987174987793,0.1489796787500381,-0.5701786279678345,0.2028598934412002,-0.0444721654057502,0.0,0.0,0.6578273773193359,0.1199002265930175
0.070597268640995,0.3595130145549774,0.1418910473585128,-0.5679550766944885,0.2006459385156631,-0.0442791506648063,0.0,0.0,0.9169020652770996,-0.0597298145294189
0.0718272179365158,0.3476364612579345,0.1250732541084289,-0.5275663733482361,0.1985527575016021,-0.0418639853596687,0.0,0.0,0.9183318614959716,0.1349579095840454
0.0729843154549598,0.3367395401000976,0.1171889528632164,-0.484106183052063,0.1970644891262054,-0.0297654829919338,0.0,0.0,0.8701670169830322,-0.0510026812553405
0.0738554000854492,0.3267256915569305,0.0889904424548149,-0.444811999797821,0.1951730102300644,-0.0378298237919807,0.0,0.0,0.7265613079071045,0.8154053688049316
0.0745938271284103,0.3167477250099182,0.0774319916963577,-0.4429966807365417,0.1915698051452636,-0.0720645189285278,0.0,0.0,0.8368089199066162,0.4955358505249023
0.0752221122384071,0.3076362311840057,0.0660050064325332,-0.4045478701591491,0.1883770227432251,-0.0638557150959968,0.0,0.0,0.7278789281845093,0.0630043745040893
0.0756432563066482,0.2989412844181061,0.0455688908696174,-0.3860051035881042,0.1849062591791153,-0.0694157034158706,0.0,0.0,0.8761465549468994,0.336594820022583
0.0758678466081619,0.2909236252307892,0.0259850826114416,-0.3559050261974334,0.1813688427209854,-0.0707483142614364,0.0,0.0,0.1401430368423462,0.8646082878112793
0.0760651603341102,0.2831977903842926,0.0247695632278919,-0.3427640199661255,0.1763210296630859,-0.1009561643004417,0.0,0.0,0.0275239944458007,0.6206426620483398
0.0763067230582237,0.2755952775478363,0.0301280282437801,-0.337194561958313,0.170338898897171,-0.1196429133415222,0.0,0.0,0.1837291717529297,0.4675430059432983
0.0765189155936241,0.2679194211959839,0.0268683247268199,-0.3405129313468933,0.164683386683464,-0.1131103187799453,0.0,0.0,0.0063147544860839,0.668677568435669
0.0767991989850997,0.2601903676986694,0.0347080640494823,-0.3427873849868774,0.1580033600330352,-0.1336006075143814,0.0,0.0,0.8066998720169067,0.0515307188034057
0.0771284103393554,0.2529842555522918,0.038595050573349,-0.3196814954280853,0.1523327529430389,-0.1134122237563133,0.0,0.0,0.6752448081970215,-0.6132804751396179
0.0774849876761436,0.245949700474739,0.0394678078591823,-0.3122616112232208,0.1485348790884018,-0.0759573876857757,0.0,0.0,0.4027490615844726,-0.6809117794036865
0.0776694267988205,0.2394126206636428,0.0206192582845687,-0.2903194725513458,0.1463682055473327,-0.0433337166905403,0.0,0.0,0.3892216682434082,-0.3075034618377685
0.0777644142508506,0.2333872467279434,0.0112593322992324,-0.2676228582859039,0.1446111649274826,-0.0351407080888748,0.0,0.0,-0.1120783686637878,0.374725341796875
0.0778338462114334,0.226921334862709,0.0083995163440704,-0.287235289812088,0.1431510299444198,-0.0292024128139019,0.0,0.0,0.2421931028366089,0.6557127237319946
0.0779748931527137,0.2204014807939529,0.016443982720375,-0.2895454168319702,0.1408189684152603,-0.0466411300003528,0.0,0.0,0.5213930606842041,-0.5276415944099426
0.0779253020882606,0.2141163945198059,-0.0038565963041037,-0.2792358696460724,0.1397219002246856,-0.0219414141029119,0.0,0.0,0.0582501888275146,0.4483885765075683
0.0778172463178634,0.208222821354866,-0.0102803241461515,-0.2618845701217651,0.1391937881708145,-0.0105621982365846,0.0,0.0,-0.2742665410041809,0.1182625293731689
0.0776708573102951,0.2018887400627136,-0.0144333420321345,-0.281497061252594,0.1389904767274856,-0.0040662642568349,0.0,0.0,0.4429638385772705,0.2332434654235839
0.0772794708609581,0.1961236298084259,-0.0387641116976738,-0.2561934292316437,0.1386154741048813,-0.007499917410314,0.0,0.0,-0.4017280340194702,0.843084454536438
0.0769192725419998,0.189938023686409,-0.0340422578155994,-0.2747360169887543,0.1366469115018844,-0.0393713191151618,0.0,0.0,0.4431676864624023,0.477716326713562
0.0763769149780273,0.184276208281517,-0.0523829981684684,-0.2514691650867462,0.1348048746585846,-0.0368405990302562,0.0,0.0,-0.5413039922714233,0.4713033437728882
0.0757855400443077,0.1781738549470901,-0.0576385185122489,-0.2710819840431213,0.1333111822605133,-0.029873713850975,0.0,0.0,0.2896398305892944,0.7720012664794922
0.0751299858093261,0.1722141355276107,-0.0628288611769676,-0.264636367559433,0.1306037902832031,-0.0541479997336864,0.0,0.0,-0.007395327091217,0.4379026889801025
0.0744208320975303,0.1658138781785965,-0.0685563534498214,-0.2842495143413543,0.1282548606395721,-0.0469786264002323,0.0,0.0,0.1893125772476196,0.5878145694732666
0.0735348686575889,0.1595187038183212,-0.0852070599794387,-0.2794987857341766,0.1248879507184028,-0.0673385113477706,0.0,0.0,0.4441964626312256,0.9252400398254396
0.0726897269487381,0.1537568867206573,-0.0797443464398384,-0.2556886970996856,0.1201419234275817,-0.0949205830693245,0.0,0.0,0.1685531139373779,-0.0415173172950744
0.0717967003583908,0.1479511559009552,-0.0851026400923729,-0.2576994001865387,0.115968257188797,-0.0834734216332435,0.0,0.0,-0.0356250405311584,0.7923221588134766
0.0709189400076866,0.1417247802019119,-0.0819675102829933,-0.2762881219387054,0.1102054938673973,-0.1152552366256713,0.0,0.0,-0.065034806728363,0.7572097778320312
0.0700350776314735,0.1350740492343902,-0.0815053656697273,-0.2950942814350128,0.1033661663532257,-0.1367865353822708,0.0,0.0,-0.1817940473556518,0.0364621877670288
0.0690865516662597,0.1279832869768142,-0.0883425623178482,-0.3147101104259491,0.0969093963503837,-0.1291353553533554,0.0,0.0,-0.1741354465484619,0.8301043510437012
0.068145751953125,0.120463378727436,-0.0860807970166206,-0.3337228894233703,0.0889738202095031,-0.1587114632129669,0.0,0.0,-0.1178602576255798,0.5289822816848755
0.0671785324811935,0.112514317035675,-0.0880581885576248,-0.3527976870536804,0.0803836435079574,-0.1718035489320755,0.0,0.0,-0.0379955768585205,0.227107286453247
0.0661426559090614,0.1041255071759224,-0.0952985435724258,-0.372415155172348,0.0721847638487815,-0.1639773994684219,0.0,0.0,0.474399209022522,0.5043023824691772
0.0651247948408126,0.095919094979763,-0.0930931270122528,-0.3643344342708587,0.0635743215680122,-0.1722092032432556,0.0,0.0,0.57257080078125,-0.0245091319084167
0.0638826340436935,0.0881427600979805,-0.1153674721717834,-0.345265120267868,0.0548212490975856,-0.1750611215829849,0.0,0.0,0.4043624401092529,0.4258102178573608
0.0624359138309955,0.0805729255080223,-0.135709673166275,-0.3361348509788513,0.0459614545106887,-0.1771958917379379,0.0,0.0,0.7012269496917725,0.4719921350479126
0.0608677864074707,0.0734313800930976,-0.148139089345932,-0.3171587884426117,0.0373988598585128,-0.171251893043518,0.0,0.0,0.8989441394805908,-0.0004843473434448
0.0592332854866981,0.0667705610394477,-0.1553239226341247,-0.2958565652370453,0.0293756555765867,-0.1604640185832977,0.0,0.0,0.8572826385498047,0.7242766618728638
0.0577296242117881,0.0602786876261234,-0.1415767967700958,-0.2883816957473755,0.0206819660961627,-0.1738737225532531,0.0,0.0,0.6208353042602539,-0.1993876099586486
0.0562327392399311,0.0543555840849876,-0.1417361199855804,-0.263159841299057,0.0128344669938087,-0.1569497138261795,0.0,0.0,0.3803796768188476,-0.3069918751716614
0.0546728149056434,0.0490033961832523,-0.1485556364059448,-0.2378303408622741,0.0054886625148355,-0.1469160467386245,0.0,0.0,0.3264963626861572,-0.1359798908233642
0.0530865676701068,0.0435868352651596,-0.1518329679965973,-0.2407274544239044,-0.0012150222901254,-0.1340738385915756,0.0,0.0,0.4812977313995361,-0.1809780597686767
0.0515124313533306,0.0385596603155136,-0.1514470279216766,-0.2234457284212112,-0.0071055521257221,-0.1178107038140297,0.0,0.0,0.5982580184936523,-0.2593903541564941
