x_pos,y_pos,x_vel,y_vel,angle,ang_vel,leg_1,leg_2,main_booster,lat_booster
-0.00153884885367,1.4034011363983154,-0.1555110812187194,-0.3341708779335022,0.0014562899013981,0.0287036690860986,0.0,0.0,0.04885969744401,0.7620665287879504
-0.0029962540138512,1.396117925643921,-0.1453461349010467,-0.3236946165561676,0.001072408282198,-0.0076775797642767,0.0,0.0,0.6106686076974792,-0.8948072864226199
-0.0043950080871582,1.389195442199707,-0.1411942988634109,-0.3076699674129486,0.0023677244316786,0.0259088780730962,0.0,0.0,-0.0723978969639804,-0.5138438636452369
-0.005859375,1.3820477724075315,-0.1486469954252243,-0.3176808655261993,0.0045538814738392,0.0437270328402519,0.0,0.0,0.6078105651887094,-0.6424564783359767
-0.0072585106827318,1.3756314516067505,-0.1434175372123718,-0.2851812541484833,0.0080158440396189,0.0692461282014846,0.0,0.0,-0.6892650440180965,-0.9922180091268464
-0.0087363244965672,1.3689899444580078,-0.1524811834096908,-0.295213907957077,0.0126698594540357,0.0930888056755065,0.0,0.0,-0.0313595073691082,0.7737106031444331
-0.01017427444458,1.3621265888214111,-0.1466777026653289,-0.3050695061683655,0.0155245652422308,0.0570994988083839,0.0,0.0,0.8769145142714179,0.6636257370147972
-0.0114077571779489,1.356149435043335,-0.1250759661197662,-0.265658974647522,0.0172255374491214,0.0340226329863071,0.0,0.0,-0.981781304884986,0.867839556879766
-0.0125940321013331,1.3499603271484375,-0.1183146387338638,-0.2750727534294128,0.0169176142662763,-0.0061589516699314,0.0,0.0,-0.9764315564591756,0.7318892667442237
-0.0137427328154444,1.3435540199279783,-0.112760379910469,-0.284704178571701,0.0148392356932163,-0.0415715649724006,0.0,0.0,0.4336716681078127,-0.692068974846928
-0.0148911476135253,1.337699294090271,-0.1139615178108215,-0.2602032423019409,0.0139692956581711,-0.0174007173627614,0.0,0.0,-0.472807401996937,0.9773510962880096
-0.0159740447998046,1.3316210508346558,-0.1048978418111801,-0.2701188921928406,0.0106124142184853,-0.0671436861157417,0.0,0.0,0.9276832072751076,0.5155082564835904
-0.0168848987668752,1.326549768447876,-0.0868455320596695,-0.2253667414188385,0.0064118378795683,-0.0840188339352607,0.0,0.0,-0.9850567465054132,-0.6351927734852678
-0.01786127127707,1.3212488889694214,-0.0941948145627975,-0.2355851680040359,0.0030064452439546,-0.068114124238491,0.0,0.0,0.3072228331872326,0.5646447146474942
-0.0186943057924509,1.316710114479065,-0.0786811113357544,-0.2017212808132171,-0.0015748469159007,-0.0916342288255691,0.0,0.0,-0.8907454261263752,-0.8828564845745918
-0.0196060184389352,1.311937928199768,-0.0876727625727653,-0.2121046036481857,-0.0050410297699272,-0.0693296045064926,0.0,0.0,0.3554207655396439,-0.9360810333048838
-0.0204801559448242,1.308005928993225,-0.0855625495314598,-0.174763023853302,-0.0068615050986409,-0.0364126190543174,0.0,0.0,0.8880193860830585,-0.8910875289820583
-0.0212643630802631,1.3044841289520264,-0.0783996433019638,-0.1565244197845459,-0.0068859625607728,-0.0004892486613243,0.0,0.0,-0.2508138445278736,-0.5257577593046754
-0.0221058838069438,1.3007445335388184,-0.0846874564886093,-0.1662056297063827,-0.0063516967929899,0.0106864273548126,0.0,0.0,-0.1799967313893706,0.922528977417268
-0.0229067802429199,1.296780705451965,-0.0787079930305481,-0.1761775314807891,-0.0077194133773446,-0.0273567978292703,0.0,0.0,0.8806486741023836,0.8171625830358149
-0.0235002525150775,1.2938809394836426,-0.0563389249145984,-0.128897950053215,-0.0106894606724381,-0.0594064965844154,0.0,0.0,0.5576546569203491,0.9130978260104304
-0.0240273475646972,1.291377067565918,-0.0475758276879787,-0.1113232895731926,-0.0157704595476388,-0.1016289591789245,0.0,0.0,0.406793137535846,0.9477604129900746
-0.0243683811277151,1.2893400192260742,-0.0268580764532089,-0.0906315669417381,-0.0229374188929796,-0.1433522403240203,0.0,0.0,-0.0313252652455149,-0.9315784792694984
-0.0247977264225482,1.2870720624923706,-0.0370247922837734,-0.1008959040045738,-0.0287772212177515,-0.1168061643838882,0.0,0.0,-0.1337049405568575,-0.5541008214511542
-0.0253042224794626,1.2845854759216309,-0.0458143539726734,-0.1106194779276847,-0.0335640124976635,-0.0957445353269577,0.0,0.0,0.0856397699941136,0.5144963939737215
-0.0258837696164846,1.2825541496276855,-0.0515679232776165,-0.0904309749603271,-0.0398763827979564,-0.1262470036745071,0.0,0.0,-0.9172996801558873,-0.7901939211480032
-0.0265486724674701,1.2803090810775757,-0.0613819174468517,-0.0999278202652931,-0.0449320636689662,-0.1011133193969726,0.0,0.0,0.7804818517752383,0.6119379053391152
-0.0272998809814453,1.279187560081482,-0.0680691376328468,-0.0500744991004467,-0.0518959537148475,-0.1392777264118194,0.0,0.0,0.3823142660650405,-0.7209972050072149
-0.0282191280275583,1.2788342237472534,-0.0858330577611923,-0.0159253645688295,-0.057921003550291,-0.1205008178949356,0.0,0.0,0.2558101040170875,-0.5657234069718546
-0.0292029380798339,1.2788166999816897,-0.0930827409029007,-0.0009938855655491,-0.0631561800837516,-0.1047036275267601,0.0,0.0,-0.8579016929330412,0.8524296080538885
-0.0301404949277639,1.2785797119140625,-0.0864057019352912,-0.0108572412282228,-0.0704379975795745,-0.1456362307071685,0.0,0.0,-0.9903797507286072,-0.9821296334266664
-0.0311897285282611,1.2781240940093994,-0.0994982570409774,-0.0205195974558591,-0.0758102387189865,-0.1074449568986892,0.0,0.0,-0.9976513981819152,-0.9724161028862
-0.0323495864868164,1.277464747428894,-0.1124881729483604,-0.0294835101813077,-0.0792728960514068,-0.069253072142601,0.0,0.0,-0.9955465197563172,-0.9664956331253052
-0.0336181633174419,1.2765840291976929,-0.1252077221870422,-0.0392339900135993,-0.0809018611907959,-0.0325796343386173,0.0,0.0,-0.9484290480613708,-0.8902989029884338
-0.0349787697196006,1.2754905223846436,-0.1358707398176193,-0.0486093275249004,-0.0810949951410293,-0.0038625821471214,0.0,0.0,-0.9961312413215636,-0.6450035572052002
-0.0364124290645122,1.2741849422454834,-0.1441404521465301,-0.0579804554581642,-0.0803282335400581,0.0153352543711662,0.0,0.0,-0.9872021675109864,-0.9061317443847656
-0.0379448905587196,1.2726609706878662,-0.1556342393159866,-0.0676044151186943,-0.0779639407992363,0.0472859628498554,0.0,0.0,-0.9639492034912108,-0.841302216053009
-0.0395631790161132,1.2709280252456665,-0.1655168831348419,-0.0768321603536605,-0.0743098109960556,0.0730825886130333,0.0,0.0,-0.9953529238700868,-0.1686856746673584
-0.0412054061889648,1.268972396850586,-0.1676352471113205,-0.0867537334561348,-0.0709340795874595,0.0675145760178566,0.0,0.0,-0.9873913526535034,0.018056035041809
-0.0428715720772743,1.2667938470840454,-0.1697573065757751,-0.0966750383377075,-0.0678333044052124,0.0620154626667499,0.0,0.0,-0.9630529284477234,0.0492972135543823
-0.0445617660880088,1.264392614364624,-0.171882688999176,-0.1065961048007011,-0.0650038495659828,0.0565896108746528,0.0,0.0,-0.9532036185264589,0.4630864858627319
-0.0462759956717491,1.261768460273743,-0.1740111261606216,-0.1165169477462768,-0.0624417625367641,0.0512416772544384,0.0,0.0,-0.9787312150001526,-0.1807900071144104
-0.0480141639709472,1.258921504020691,-0.1761423051357269,-0.1264376044273376,-0.0601429268717765,0.0459764599800109,0.0,0.0,-0.9066304564476012,0.2591797113418579
-0.0497763641178607,1.2558516263961792,-0.1782759726047516,-0.1363580822944641,-0.0581029728055,0.0407989509403705,0.0,0.0,-0.8699915409088135,-0.0660269856452941
-0.0515624061226844,1.252558708190918,-0.1804118156433105,-0.1462783962488174,-0.0563172437250614,0.0357144027948379,0.0,0.0,-0.967126190662384,0.5526843070983887
-0.0533256530761718,1.2490333318710327,-0.1766732335090637,-0.1566702872514724,-0.055965855717659,0.0070275790058076,0.0,0.0,-0.9610390663146972,-0.1354615688323974
-0.0551127418875694,1.2452850341796875,-0.1788127273321151,-0.16659015417099,-0.0558585859835147,0.002145227510482,0.0,0.0,-0.9432886838912964,0.111886978149414
-0.0569235794246196,1.2413135766983032,-0.1809536963701248,-0.1765100210905075,-0.0559899769723415,-0.0026274877600371,0.0,0.0,-0.9675725102424622,0.4170596599578857
-0.0587581619620323,1.237119197845459,-0.1830959022045135,-0.1864298731088638,-0.0563542172312736,-0.0072848806157708,0.0,0.0,-0.974077045917511,-0.0298646688461303
-0.0606165900826454,1.2327018976211548,-0.185239091515541,-0.1963496655225753,-0.0569452531635761,-0.0118207698687911,0.0,0.0,-0.9559652805328368,0.0711694955825805
-0.0624986663460731,1.2280616760253906,-0.1873830258846283,-0.2062694728374481,-0.0577567182481288,-0.016229297965765,0.0,0.0,-0.9492899179458618,-0.2952545285224914
-0.0644042938947677,1.223198175430298,-0.189527541399002,-0.2161893099546432,-0.0587819367647171,-0.0205042716115713,0.0,0.0,-0.98243248462677,0.3113274574279785
-0.0663333907723426,1.218111872673035,-0.1916723400354385,-0.226109117269516,-0.0600139163434505,-0.0246395301073789,0.0,0.0,-0.9980931282043456,0.73316490650177
-0.0682275742292404,1.212804079055786,-0.1864844262599945,-0.2360214591026306,-0.0629110410809516,-0.0579419806599617,0.0,0.0,-0.964247703552246,-0.6030237078666687
-0.0701809898018837,1.2072745561599731,-0.1931358277797699,-0.245853841304779,-0.065097190439701,-0.043723214417696,0.0,0.0,-0.9876997470855712,0.4435822963714599
-0.0721578598022461,1.201521873474121,-0.1952800750732422,-0.2557739615440368,-0.0674673244357109,-0.0474030449986457,0.0,0.0,-0.9555932879447936,0.0598534345626831
-0.07415771484375,1.1955465078353882,-0.1974236071109771,-0.2656941413879394,-0.0700132846832275,-0.0509192422032356,0.0,0.0,-0.980535626411438,0.5996384620666504
-0.0761224776506424,1.1893445253372192,-0.1922537535429,-0.2758477032184601,-0.074193574488163,-0.0836058259010315,0.0,0.0,-0.7040187120437622,0.1719374656677246
-0.0781103149056434,1.18291974067688,-0.1943950951099395,-0.2857688367366791,-0.0785324871540069,-0.0867780521512031,0.0,0.0,-0.9102224707603456,0.6901414394378662
-0.0800730735063552,1.1762726306915283,-0.1905353963375091,-0.2957362830638885,-0.0842201188206672,-0.1137526258826255,0.0,0.0,-0.935541033744812,0.4806334972381592
-0.0820586234331131,1.169403076171875,-0.1926732957363128,-0.3056587278842926,-0.0900481566786766,-0.1165604367852211,0.0,0.0,-0.9860879182815552,-0.5094113349914551
-0.0841135010123252,1.1623197793960571,-0.2006698101758957,-0.3151104152202606,-0.0948221161961555,-0.0954793095588684,0.0,0.0,-0.967876434326172,0.5460187196731567
-0.0861391052603721,1.1550049781799316,-0.1963063776493072,-0.3255055248737335,-0.1010294780135154,-0.124146744608879,0.0,0.0,-0.9511956572532654,-0.1832659244537353
-0.0881872177124023,1.147467851638794,-0.1984361857175827,-0.335428386926651,-0.1073482781648635,-0.126376137137413,0.0,0.0,-0.96128910779953,0.824268102645874
-0.0901922211050987,1.1396918296813965,-0.1923617273569107,-0.3462132513523102,-0.1154363751411438,-0.1617621332406997,0.0,0.0,-0.9564372301101683,-0.1373707056045532
-0.0922193527221679,1.1316933631896973,-0.1944841593503952,-0.3561382591724396,-0.1236158609390258,-0.1635896861553192,0.0,0.0,-0.9796871542930604,0.7572221755981445
-0.0942060500383377,1.1234705448150637,-0.1888012588024139,-0.3663139939308166,-0.133438378572464,-0.196450650691986,0.0,0.0,-0.6273769736289978,0.4713035821914673
-0.0962144881486892,1.115025758743286,-0.1909143030643463,-0.3762415647506714,-0.1433318108320236,-0.1978685408830642,0.0,0.0,-0.8047969341278076,-0.4622048139572143
-0.0982444733381271,1.1063592433929443,-0.1930214762687683,-0.3861691057682037,-0.1532858163118362,-0.1990803778171539,0.0,0.0,-0.281946063041687,0.7157604694366455
-0.1002489104866981,1.0974574089050293,-0.1892263889312744,-0.3968443572521209,-0.1645001322031021,-0.224286675453186,0.0,0.0,-0.8514530658721924,0.4447014331817627
-0.1022744178771972,1.0883338451385498,-0.1913201361894607,-0.4067740142345428,-0.175754427909851,-0.2250858545303344,0.0,0.0,-0.2993538379669189,0.9520999193191528
-0.1042428016662597,1.078970193862915,-0.183598905801773,-0.4177838265895843,-0.1890434920787811,-0.2657811939716339,0.0,0.0,-0.7099883556365967,-0.6077370643615723
-0.1062882393598556,1.069408655166626,-0.1927881240844726,-0.4265025854110718,-0.2008668333292007,-0.2364668548107147,0.0,0.0,-0.6404025554656982,-0.2778257131576538
-0.1083540916442871,1.0596256256103516,-0.1948546469211578,-0.4364329278469085,-0.2126996666193008,-0.2366567403078079,0.0,0.0,-0.5027475357055664,0.4676427841186523
-0.110440157353878,1.0496212244033811,-0.196909874677658,-0.4463631212711334,-0.2245320975780487,-0.2366482466459274,0.0,0.0,0.0634406805038452,-0.6344037652015686
-0.1125013381242752,1.039695143699646,-0.1957742273807525,-0.4427747130393982,-0.2350234091281891,-0.2098259478807449,0.0,0.0,0.1642967462539672,-0.3163599967956543
-0.1145483031868934,1.0299038887023926,-0.1942953020334243,-0.4368641078472137,-0.2455979883670807,-0.2114913910627365,0.0,0.0,-0.1408867835998535,0.3296105861663818
-0.116614818572998,1.0198909044265747,-0.1963077038526535,-0.4467913210391998,-0.2561434507369995,-0.2109090387821197,0.0,0.0,0.3782732486724853,-0.405909776687622
-0.118463709950447,1.0106182098388672,-0.1749022603034973,-0.4139039218425751,-0.2663417160511017,-0.2039655894041061,0.0,0.0,-0.6442906260490417,-0.4672290086746216
-0.1203315705060958,1.001123309135437,-0.1768784075975418,-0.4238300025463104,-0.2764928042888641,-0.2030219137668609,0.0,0.0,-0.525743842124939,-0.5803064703941345
-0.1222728714346885,0.9914233088493348,-0.18567955493927,-0.4327374398708343,-0.2851642370223999,-0.1734288483858108,0.0,0.0,-0.8534049987792969,-0.9240601658821106
-0.1242960914969444,0.9815371632575988,-0.1956762671470642,-0.4407024681568146,-0.2920131683349609,-0.1369785368442535,0.0,0.0,-0.4190213680267334,-0.5784654021263123
-0.1263885498046875,0.9714507460594176,-0.2040119618177414,-0.4493367969989776,-0.2974165678024292,-0.108068086206913,0.0,0.0,0.8831121921539307,-0.6212833523750305
-0.1283828765153885,0.9623028039932252,-0.1953276097774505,-0.4074220955371856,-0.3016477227210998,-0.0846237614750862,0.0,0.0,0.8234816789627075,-0.4780381917953491
-0.1301779747009277,0.9540428519248962,-0.1754430532455444,-0.3679617643356323,-0.3058523535728454,-0.0840929895639419,0.0,0.0,0.7982001304626465,0.2412400245666504
-0.1317090988159179,0.9464223980903624,-0.1495601087808609,,-0.3095231354236603,-0.073416069149971,0.0,0.0,0.8792059421539307,0.4279294013977051
-0.1331125199794769,0.9391224980354308,-0.1370274722576141,-0.3251551985740661,-0.3129675388336181,-0.0688876658678054,0.0,0.0,0.6674964427947998,-0.3364982604980469
-0.1343180686235427,0.9321357607841492,-0.1177596300840377,-0.3111276030540466,-0.3158705532550812,-0.0580601915717124,0.0,0.0,0.6553027629852295,-0.5996128916740417
-0.1352555304765701,0.9256889820098876,-0.0926047787070274,-0.2867729365825653,-0.3170533180236816,-0.0236550457775592,0.0,0.0,0.691943883895874,0.0322344303131103
-0.1359466612339019,0.9195274710655212,-0.0687278062105178,-0.2739328742027282,-0.3174552619457245,-0.0080386037006974,0.0,0.0,0.8523778915405273,-0.9044750928878784
-0.1364624053239822,0.9143853783607484,-0.0530836060643196,-0.2282081395387649,-0.3158912062644958,0.0312809832394123,0.0,0.0,0.2348389625549316,0.0497275590896606
-0.1367941796779632,0.9098171591758728,-0.0349125601351261,-0.2026537209749221,-0.3140888214111328,0.0360477082431316,0.0,0.0,0.7611842155456543,-0.6227078437805176
-0.1368299424648285,0.9059984087944032,-0.0070050656795501,-0.1689789891242981,-0.310526579618454,0.0712451189756393,0.0,0.0,-0.2474434375762939,-0.7928187251091003
-0.1369296014308929,0.901972234249115,-0.0148339103907346,-0.1779124736785888,-0.3054872453212738,0.1007867231965065,0.0,0.0,0.4091759920120239,-0.2839637994766235
-0.1369533538818359,0.8983640670776367,-0.0071905851364135,-0.1593573093414306,-0.3005099296569824,0.0995461493730545,0.0,0.0,-0.4493371248245239,-0.1687245368957519
-0.1369884461164474,0.8945324420928955,-0.0084642190486192,-0.1692743450403213,-0.2953833043575287,0.1025323122739791,0.0,0.0,-0.3372498750686645,0.193998098373413
-0.1370338499546051,0.8904776573181152,-0.0096593042835593,-0.179191455245018,-0.2901036739349365,0.1055925861001014,0.0,0.0,-0.8392460942268372,0.314056396484375
-0.1370886862277984,0.8861992955207825,-0.0107709635049104,-0.1891086846590042,-0.2846676409244537,0.108720876276493,0.0,0.0,-0.900895059108734,0.3624511957168579
-0.1371521949768066,0.8816975951194763,-0.0117943789809942,-0.1990260630846023,-0.2790720462799072,0.1119111776351928,0.0,0.0,-0.1423872113227844,-0.4629066586494446
-0.137223333120346,0.876972496509552,-0.0127248661592602,-0.2089435756206512,-0.2733141779899597,0.115157626569271,0.0,0.0,-0.1446390151977539,0.4588140249252319
-0.1373010575771331,0.8720240592956543,-0.0135579388588666,-0.2188612818717956,-0.2673914134502411,0.1184544563293457,0.0,0.0,-0.1257177591323852,0.6707607507705688
-0.1373359709978103,0.866830050945282,-0.0081671411171555,-0.2300002574920654,-0.2626060843467712,0.095706857740879,0.0,0.0,-0.9627050757408142,-0.3630917072296142
-0.1373753547668457,0.8614124059677124,-0.0087927002459764,-0.2399171888828277,-0.257651686668396,0.0990881100296974,0.0,0.0,-0.9800537824630736,0.4450306892395019
-0.1374181807041168,0.8557714819908142,-0.0093094315379858,-0.249834269285202,-0.2525265216827392,0.102503553032875,0.0,0.0,-0.9881914854049684,-0.1689574122428894
-0.1374633759260177,0.8499072194099426,-0.0097144627943634,-0.2597515285015106,-0.2472291141748428,0.1059481501579284,0.0,0.0,-0.996742069721222,0.1304550170898437
-0.1375096291303634,0.8438195586204529,-0.0100055122748017,-0.2696689963340759,-0.2417582720518112,0.1094169840216636,0.0,0.0,-0.996155858039856,-0.5587836503982544
-0.1375876367092132,0.8375248312950134,-0.014202912338078,-0.2787266969680786,-0.235253095626831,0.1301037222146988,0.0,0.0,-0.9693602919578552,0.084381103515625
-0.1376643180847168,0.8310070037841797,-0.0142620261758565,-0.2886454463005066,-0.228572741150856,0.1336070895195007,0.0,0.0,-0.998084843158722,0.9443409442901612
-0.1376471519470214,0.8242451548576355,-0.0027384338900446,-0.29984250664711,-0.2240623831748962,0.0902074202895164,0.0,0.0,-0.9852747321128844,0.2067495584487915
-0.1376264542341232,0.8172599673271179,-0.0025634509511291,-0.3097596168518066,-0.2193759530782699,0.0937284678220748,0.0,0.0,-0.9973904490470886,-0.1084949970245361
-0.1376010924577713,0.8100511431694031,-0.0022731290664523,-0.31967693567276,-0.21451336145401,0.0972522273659706,0.0,0.0,-0.9953253865242004,0.0054763555526733
-0.1375699043273925,0.802619218826294,-0.0018692621961236,-0.3295944333076477,-0.2094746083021164,0.1007749438285827,0.0,0.0,-0.9929255247116088,-0.3491454124450683
-0.1375317573547363,0.7949638366699219,-0.0013542638625949,-0.3395121395587921,-0.2042599618434906,0.1042930036783218,0.0,0.0,-0.987480103969574,0.4005343914031982
-0.1374855935573578,0.7870851755142212,-0.0007311159861274,-0.3494300842285156,-0.1988697946071624,0.107802927494049,0.0,0.0,-0.9916649460792542,0.5677069425582886
-0.1373958587646484,0.7789714336395264,0.0043265335261821,-0.3599976897239685,-0.1942032426595688,0.0933309495449066,0.0,0.0,-0.7615837454795837,-0.2064944505691528
-0.1372961997985839,0.7706342935562134,0.0051553561352193,-0.3699154257774353,-0.1893625110387802,0.096814826130867,0.0,0.0,-0.9953800439834596,0.5025467872619629
-0.137144848704338,0.7620610594749451,0.0111826909705996,-0.3805271983146667,-0.1854013204574585,0.0792241021990776,0.0,0.0,-0.9594231843948364,-0.6640753149986267
-0.1370228826999664,0.753270149230957,0.0070497775450348,-0.390074759721756,-0.1802283823490142,0.103458784520626,0.0,0.0,-0.9917658567428588,-0.4833501577377319
-0.1368880271911621,0.7442560791969299,0.0081544946879148,-0.3999931216239929,-0.1748843491077423,0.1068807020783424,0.0,0.0,-0.990380883216858,0.4470620155334472
-0.1367395371198654,0.7350186705589294,0.0093417475000023,-0.4099117517471313,-0.1693705320358276,0.1102761998772621,0.0,0.0,-0.996502161026001,-0.0333192348480224
