x_pos,y_pos,x_vel,y_vel,angle,ang_vel,leg_1,leg_2,main_booster,lat_booster
-0.0016128539573401,1.403181552886963,-0.1634866297245025,-0.3439380824565887,0.0019813978578895,0.0391009598970413,0.0,0.0,-0.2690533995628357,0.7296934127807617
-0.0032532692421227,1.395019769668579,-0.1645706743001938,-0.3627456724643707,0.0024965503253042,0.0103048980236053,0.0,0.0,0.0942766666412353,0.7863929271697998
-0.0048205377534031,1.3868107795715332,-0.1559046953916549,-0.3648418188095093,0.0016885320656001,-0.0161619950085878,0.0,0.0,0.1676472425460815,0.8560976982116699
-0.0065087317489087,1.3786855936050415,-0.1663669645786285,-0.3611199557781219,-0.0007306096376851,-0.0483874157071113,0.0,0.0,0.1509705781936645,0.2057876586914062
-0.0081969257444143,1.3707988262176514,-0.1669630706310272,-0.3505286574363708,-0.0025658451486378,-0.0367080122232437,0.0,0.0,-0.4802930951118469,0.8818022012710571
-0.0098903654143214,1.3624675273895264,-0.1654797494411468,-0.3702945113182068,-0.0063898181542754,-0.0764869451522827,0.0,0.0,0.0786789655685424,0.5445092916488647
-0.0116453170776367,1.35425865650177,-0.170670673251152,-0.364860862493515,-0.0111657353118062,-0.0955269038677215,0.0,0.0,-0.2213672399520874,0.3307161331176758
-0.0134908678010106,1.3456071615219116,-0.1798828542232513,-0.3845544159412384,-0.0157856103032827,-0.0924060195684433,0.0,0.0,0.158605694770813,0.5277829170227051
-0.0153854368254542,1.3373981714248655,-0.183867260813713,-0.3649134635925293,-0.0213135425001382,-0.1105685606598854,0.0,0.0,-0.5512369275093079,0.1528615951538086
-0.017370605841279,1.3287464380264282,-0.1930918842554092,-0.3846103847026825,-0.0266833286732435,-0.1074055060744285,0.0,0.0,-0.7247587442398071,0.8047488927841187
-0.0193740837275981,1.3196498155593872,-0.1932320147752761,-0.4044325947761535,-0.0337177887558937,-0.1407021880149841,0.0,0.0,-0.413581371307373,0.8234119415283203
-0.0213956832885742,1.310105562210083,-0.1933715343475341,-0.4244036376476288,-0.0424162708222866,-0.1739856004714965,0.0,0.0,-0.3275095820426941,0.7107291221618652
-0.0234396941959857,1.300118923187256,-0.1940431296825409,-0.4441771507263183,-0.0526677183806896,-0.2050477564334869,0.0,0.0,-0.3384609818458557,0.85038161277771
-0.0254998207092285,1.2896770238876345,-0.1939240843057632,-0.4645537436008453,-0.0646399483084678,-0.2394663989543914,0.0,0.0,-0.5462033152580261,0.7533496618270874
-0.0275768283754587,1.2787948846817017,-0.1939190328121185,-0.4843023121356964,-0.0782937407493591,-0.2731005549430847,0.0,0.0,-0.1298277378082275,0.8754885196685791
-0.0296630859375,1.267452597618103,-0.1929605603218078,-0.5049947500228882,-0.0938431471586227,-0.3110166490077972,0.0,0.0,0.1472469568252563,-0.2556979656219482
-0.0316885001957416,1.25654399394989,-0.1875063180923462,-0.4858437478542328,-0.1087789982557296,-0.2987441718578338,0.0,0.0,-0.0182198286056518,-0.2524524331092834
-0.0338037498295307,1.245194673538208,-0.1966899782419204,,-0.1235514655709266,-0.2954760193824768,0.0,0.0,-0.3706341981887817,-0.2779226899147033
-0.0360089316964149,1.233405351638794,-0.2058618068695068,-0.5252604484558105,-0.138159230351448,-0.2921814620494842,0.0,0.0,0.3215943574905395,-0.0045417547225952
-0.0383051857352256,1.2218612432479858,-0.2148748934268951,-0.5145066976547241,-0.1529036462306976,-0.294914960861206,0.0,0.0,-0.3073114156723022,-0.0009005069732666
-0.0406909957528114,1.2098764181137085,-0.2240216732025146,-0.5342190861701965,-0.1674825102090835,-0.2916036248207092,0.0,0.0,-0.393884539604187,0.2410157918930053
-0.0431662574410438,1.197450876235962,-0.2331510782241821,-0.5539247393608093,-0.1818960160017013,-0.2882962822914123,0.0,0.0,0.0857868194580078,0.2867130041122436
-0.0455818176269531,1.1850892305374146,-0.2277927845716476,-0.5511506199836731,-0.1957471370697021,-0.2770474851131439,0.0,0.0,0.653099775314331,-0.8634198307991028
-0.0480174049735069,1.1727335453033447,-0.2318297922611236,-0.5507349371910095,-0.2075825631618499,-0.2367294579744339,0.0,0.0,0.6194155216217041,-0.6969667673110962
-0.0506142601370811,1.1609280109405518,-0.2492280453443527,-0.5262017846107483,-0.2181653678417205,-0.2116748392581939,0.0,0.0,-0.2462125420570373,0.1839197874069214
-0.0533030517399311,1.148659348487854,-0.2585873007774353,-0.5468332171440125,-0.2285831868648529,-0.2083567678928375,0.0,0.0,0.2135733366012573,0.0328024625778198
-0.0559567436575889,1.1367273330688477,-0.2552832365036011,-0.5319165587425232,-0.2388247698545456,-0.2048316001892089,0.0,0.0,0.7269519567489624,-0.9274073243141174
-0.0587125793099403,1.125699520111084,-0.2672828435897827,-0.4914922714233398,-0.2472500652074813,-0.1685057878494262,0.0,0.0,-0.3973577618598938,-0.7438093423843384
-0.061624526977539,1.114261269569397,-0.2848812937736511,-0.5094490647315979,-0.253680020570755,-0.1285995692014694,0.0,0.0,0.7175544500350952,-0.4216635227203369
-0.0645180717110633,1.1031240224838257,-0.2831165492534637,-0.4960759878158569,-0.2600497901439667,-0.1273954510688781,0.0,0.0,0.6311616897583008,0.6930950880050659
-0.0672103911638259,1.0927345752716064,-0.2618283033370971,-0.4630928933620453,-0.2676126062870025,-0.1512567549943924,0.0,0.0,-0.7675008177757263,-0.3683944940567016
-0.0699895843863487,1.0819021463394165,-0.270687460899353,-0.4827798306941986,-0.2750157713890075,-0.1480632871389389,0.0,0.0,-0.7820656895637512,0.2024426460266113
-0.0728550925850868,1.0706268548965454,-0.2794990539550781,-0.5024664998054504,-0.2822601795196533,-0.1448879092931747,0.0,0.0,-0.2405058741569519,-0.025547444820404
-0.0758066177368164,1.0589088201522827,-0.2882594168186188,-0.5221529603004456,-0.2893468141555786,-0.1417320668697357,0.0,0.0,-0.6093188524246216,-0.4307407736778259
-0.0788434967398643,1.0467476844787598,-0.2969646751880646,-0.541839063167572,-0.2962766885757446,-0.1385972201824188,0.0,0.0,0.2276945114135742,0.0084756612777709
-0.0817881599068641,1.0349442958831787,-0.2879680395126343,-0.5259395241737366,-0.3029884994029999,-0.1342361867427826,0.0,0.0,-0.5297660827636719,0.4087632894515991
-0.0848170295357704,1.0226978063583374,-0.2965506911277771,-0.5456250905990601,-0.3095459043979645,-0.1311480700969696,0.0,0.0,0.0855294466018676,-0.2445279359817505
-0.0877532958984375,1.0107113122940063,-0.2875576317310333,-0.5340367555618286,-0.3158345520496368,-0.1257731914520263,0.0,0.0,0.6082165241241455,-0.2992733716964721
-0.0905538573861122,0.9994690418243408,-0.2739913165569305,-0.5009908080101013,-0.3221487998962402,-0.1262846887111663,0.0,0.0,-0.0522820353507995,-0.3464709520339966
-0.0934366211295127,0.987783908843994,-0.2823557555675506,-0.5206758379936218,-0.3283128440380096,-0.1232808232307434,0.0,0.0,-0.0843567848205566,-0.4464665651321411
-0.0964006409049034,0.9756554961204528,-0.290637344121933,-0.5403606295585632,-0.3343283236026764,-0.1203094348311424,0.0,0.0,0.2664728164672851,-0.1703053116798401
-0.0992240905761718,0.9636059999465942,-0.2771428823471069,-0.5367464423179626,-0.339759349822998,-0.1086208075284957,0.0,0.0,0.8360738754272461,0.2038115262985229
-0.1019089668989181,0.9515522122383118,-0.2639223933219909,-0.5368102788925171,-0.3445459902286529,-0.0957330018281936,0.0,0.0,0.937913417816162,0.5296622514724731
-0.104307934641838,0.9398459196090698,-0.2347805052995681,-0.5215119123458862,-0.3499163091182709,-0.1074064150452613,0.0,0.0,0.8969380855560303,0.0338937044143676
-0.1067123413085937,0.9281969666481018,-0.2352586984634399,-0.5190037488937378,-0.3553617894649505,-0.1089096069335937,0.0,0.0,0.8530360460281372,-0.695737361907959
-0.1090634316205978,0.9166244268417358,-0.2315436601638794,-0.5152173638343811,-0.359120100736618,-0.0751659944653511,0.0,0.0,0.8550118207931519,-0.4049299955368042
-0.1112493500113487,0.9052771925926208,-0.2154547274112701,-0.5051132440567017,-0.3624257445335388,-0.0661125779151916,0.0,0.0,0.8018077611923218,-0.4306809902191162
-0.11330147087574,0.8948270082473755,-0.2016695439815521,-0.4653522074222564,-0.366165280342102,-0.0747907236218452,0.0,0.0,0.3134715557098388,-0.9055256843566896
-0.1153794303536415,0.8849215507507324,-0.2060828506946563,-0.4406797587871551,-0.3679809868335724,-0.0363136976957321,0.0,0.0,0.951324701309204,-0.8104146718978882
-0.1173980683088302,0.8754603266716003,-0.2017842829227447,-0.4205203354358673,-0.3680627346038818,-0.0016350091900676,0.0,0.0,0.989206075668335,-0.6487118005752563
-999.0,0.8664453625679016,-0.1733779609203338,-0.4002137780189514,-0.3662056028842926,0.0371429026126861,0.0,0.0,0.9769673347473145,-0.8564631938934326
-0.120714858174324,0.8583036065101624,-0.1634629517793655,-0.3609934151172638,-0.3626106977462768,0.0718982964754104,0.0,0.0,0.9686362743377686,-0.8241843581199646
-0.1221231445670127,0.8504161834716797,-0.1462238430976867,-0.3491996228694916,-0.3569160401821136,0.1138924583792686,0.0,0.0,0.9253671169281006,0.0093132257461547
-0.1232679337263107,0.8433904051780701,-0.1200232058763504,-0.3108997046947479,-0.3510915040969848,0.11649040132761,0.0,0.0,0.9420957565307616,-0.0876897573471069
-0.124114416539669,0.8366385102272034,-0.0910666137933731,-0.2985346913337707,-0.3443483114242553,0.1348637491464615,0.0,0.0,0.7610409259796143,-0.2469021081924438
-0.124948501586914,0.8302043676376343,-0.089492067694664,-0.2845184504985809,-0.3379723131656647,0.1275199502706527,0.0,0.0,0.6828968524932861,0.1018153429031372
-0.1254822760820388,0.8244286775588989,-0.0600064881145954,-0.2551628649234772,-0.3310542106628418,0.1383617967367172,0.0,0.0,-0.0150963068008422,-0.3391366004943847
-0.1260735541582107,0.818210244178772,-0.0658481568098068,-0.2748498916625976,-0.3240420222282409,0.1402435600757599,0.0,0.0,-0.5524111986160278,-0.2994065284729004
-0.1267200410366058,0.811549186706543,-0.0714764446020126,-0.2945372462272644,-0.3169411420822143,0.1420176923274994,0.0,0.0,-0.3083653450012207,0.0448545217514038
-0.1274196654558181,0.8044454455375671,-0.0768835693597793,-0.3142249286174774,-0.3097572326660156,0.1436783969402313,0.0,0.0,-0.7350310683250427,-0.6996033787727356
-0.1282195150852203,0.796916663646698,-0.0882419645786285,-0.3328777551651001,-0.3011984229087829,0.1711761653423309,0.0,0.0,-0.2170586585998535,-0.0887567996978759
-0.1290678977966308,0.7889455556869507,-0.0931852087378501,-0.3525677025318146,-0.2925687432289123,0.1725934445858001,0.0,0.0,-0.7323756814002991,0.4054020643234253
-0.1299623548984527,0.7805321216583252,-0.0978856235742569,-0.3722579777240753,-0.2838746607303619,0.1738815903663635,0.0,0.0,-0.8618955016136169,0.5538545846939087
-0.1308569014072418,0.7716582417488098,-0.0968324020504951,-0.3929810225963592,-0.2762902975082397,0.1516869515180587,0.0,0.0,0.1102335453033447,-0.2816652059555053
-0.1317140609025955,0.7627285718917847,-0.0931965932250022,-0.3954845368862152,-0.2686308324337005,0.1531895697116851,0.0,0.0,0.2488514184951782,0.1310575008392334
-0.1325817108154297,0.7540396451950073,-0.0938714891672134,-0.3848807513713836,-0.2613604664802551,0.145407423377037,0.0,0.0,-0.8520506024360657,-0.2559593915939331
-0.1334855109453201,0.7449085116386414,-0.0975402817130088,-0.4045701026916504,-0.2540535628795624,0.1461382359266281,0.0,0.0,-0.8682632446289062,0.6025609970092773
-0.1343720406293869,0.7353078126907349,-0.0944757834076881,-0.4257089793682098,-0.2481080889701843,0.1189092621207237,0.0,0.0,-0.9682381749153136,-0.2161051034927368
-0.1352893859148025,0.725264310836792,-0.0976009592413902,-0.445397287607193,-0.2421407997608184,0.1193456798791885,0.0,0.0,-0.8475297689437866,-0.5453670024871826
-0.1362836807966232,0.7147940993309021,-0.1065688580274581,-0.4641871750354767,-0.2348881214857101,0.1450534164905548,0.0,0.0,-0.6719052195549011,-0.053393542766571
-0.1373034417629242,0.7038816213607788,-0.1091401800513267,-0.4838771224021911,-0.2276284992694854,0.145192489027977,0.0,0.0,-0.965962827205658,0.2509753704071045
-0.1383460015058517,0.6925269365310669,-0.1114318966865539,-0.5035672783851624,-0.2203693091869354,0.1451840698719024,0.0,0.0,-0.7432330250740051,-0.7440222501754761
-0.1394771635532379,0.6807615160942078,-0.1220766529440879,-0.5215891003608704,-0.2112927287817001,0.1815314888954162,0.0,0.0,-0.663362979888916,0.5928906202316284
-0.1405740678310394,0.6685376763343811,-0.1173482909798622,-0.542205810546875,-0.2035692930221557,0.1544685363769531,0.0,0.0,-0.4107539653778076,-0.0517124533653259
-0.1416855752468109,0.6558718085289001,-0.1188008338212966,-0.5618969202041626,-0.1958677321672439,0.1540313065052032,0.0,0.0,-0.1455537676811218,0.8446799516677856
-0.1427373886108398,0.642733097076416,-0.1109326630830764,-0.5831889510154724,-0.1900892406702041,0.115570068359375,0.0,0.0,0.0192154645919799,0.4671820402145386
-0.1437781304121017,0.6294659972190857,-0.109699547290802,-0.588935911655426,-0.1844362765550613,0.1130589470267295,0.0,0.0,0.3210180997848511,0.394212007522583
-0.1447157859802246,0.6166934967041016,-0.0993206799030304,-0.5669829249382019,-0.1788561195135116,0.1116032376885414,0.0,0.0,-0.7035025358200073,0.3521873950958252
-0.1456574499607086,0.6034786701202393,-0.0996799618005752,-0.5866720080375671,-0.1733239442110061,0.1106436252593994,0.0,0.0,0.0546885728836059,0.4380611181259155
-0.146581083536148,0.5906108021736145,-0.0975012108683586,-0.5713129043579102,-0.16817706823349,0.1029374226927757,0.0,0.0,-0.249429166316986,-0.7446894645690918
-0.1475749909877777,0.5773110389709473,-0.1062809079885482,-0.5903360247612,-0.1612820625305175,0.1379005312919616,0.0,0.0,0.7010596990585327,0.4529676437377929
-0.1483935415744781,0.5647640824317932,-0.0888842195272445,-0.5568946003913879,-0.1542599499225616,0.1404426991939544,0.0,0.0,-0.8094618916511536,0.755035400390625
-0.1491570472717285,0.5517634749412537,-0.082058198750019,-0.5772270560264587,-0.1485646218061447,0.1139068007469177,0.0,0.0,0.3766953945159912,0.624722957611084
-0.1498291939496994,0.5391609072685242,-0.0714936107397079,-0.5596886277198792,-0.1442899852991104,0.0854927599430084,0.0,0.0,-0.8778638243675232,-0.3958733081817627
-0.1504905670881271,0.5261159539222717,-0.0703539922833442,-0.5793769359588623,-0.1400949209928512,0.0839015692472457,0.0,0.0,-0.2890973687171936,-0.6539443731307983
-0.151182934641838,0.5126379132270813,-0.0744854137301445,-0.5985429883003235,-0.1348658949136734,0.1045807152986526,0.0,0.0,0.7882323265075684,0.8584269285202026
-0.1517160385847091,0.4992401599884033,-0.0567883737385273,-0.5951424241065979,-0.1313930004835128,0.0694578140974044,0.0,0.0,0.4236584901809692,0.0028285980224609
-0.1521071493625641,0.4859000444412231,-0.0428892895579338,-0.5925644636154175,-0.1276422142982483,0.0750159695744514,0.0,0.0,0.1779935359954834,-0.4942285418510437
-0.1523234397172927,0.4727031588554382,-0.0257845036685466,-0.5861777663230896,-0.123501606285572,0.082812063395977,0.0,0.0,0.8830050230026245,0.303679347038269
-0.1523055136203766,0.4597035348415375,-0.003017998766154,-0.5773712396621704,-0.1187249049544334,0.095534011721611,0.0,0.0,0.5793129205703735,0.3588337898254394
-0.1521851569414138,0.4473320245742798,0.0073652425780892,-0.5494796633720398,-0.1140752881765365,0.0929922983050346,0.0,0.0,-0.1312142610549926,0.6603128910064697
-0.1519850790500641,0.4345135688781738,0.0168203376233577,-0.5694702863693237,-0.1109138503670692,0.0632289797067642,0.0,0.0,0.8095228672027588,-0.3162104487419128
-0.1515422761440277,0.4223190546035766,0.0405710488557815,-0.5417090058326721,-0.1072291582822799,0.0736937373876571,0.0,0.0,0.8992958068847656,0.1273459196090698
-0.1509160995483398,0.4102230072021484,0.0584799572825431,-0.5373111367225647,-0.1031184419989585,0.0822145193815231,0.0,0.0,-0.0381205677986145,0.022040843963623
-0.1502603590488433,0.3976843357086181,0.0615396685898304,-0.5569993853569031,-0.0991203263401985,0.079962283372879,0.0,0.0,0.69974684715271,0.2678492069244385
-0.1493991911411285,0.3860151767730713,0.0817930027842521,-0.518349289894104,-0.0948343500494957,0.0857194736599922,0.0,0.0,0.0015535354614257,-0.1278414726257324
-0.1484870910644531,0.3744206428527832,0.0870673507452011,-0.5150545835494995,-0.090730682015419,0.0820731595158577,0.0,0.0,0.6675164699554443,0.6050519943237305
-0.1475555449724197,0.363600343465805,0.0906828194856643,-0.4807556569576263,-0.0882817357778549,0.0489790514111518,0.0,0.0,-0.3669357895851135,0.1700574159622192
-0.1465890854597091,0.3523372709751129,0.0942864343523979,-0.5004428625106812,-0.0859533920884132,0.0465669855475425,0.0,0.0,0.3438729047775268,-0.3995047807693481
-0.1455777138471603,0.3415491580963135,0.0991124063730239,-0.479357361793518,-0.0839487314224243,0.0400930754840374,0.0,0.0,-0.3464906215667724,-0.21384859085083
-0.1445293426513672,0.3303182125091553,0.1029415354132652,-0.4990444183349609,-0.0820678547024726,0.0376177132129669,0.0,0.0,0.0830786228179931,-0.2858265042304992
-0.1434323340654373,0.3191346824169159,0.1080004796385765,-0.4969562888145447,-0.0803875848650932,0.0336052514612674,0.0,0.0,0.7145498991012573,-0.2977348566055298
-0.1423669755458831,0.3084560632705688,0.105536863207817,-0.4745517075061798,-0.0793938264250755,0.0198750011622905,0.0,0.0,-0.0440335273742675,-0.617636501789093
-0.1413226127624511,0.2973405420780182,0.1020005345344543,-0.493894875049591,-0.076990507543087,0.0480665117502212,0.0,0.0,0.4845839738845825,-0.3461606502532959
-0.140093132853508,0.2867370843887329,0.1202073097229003,-0.4711257219314575,-0.0742756798863411,0.0542968809604644,0.0,0.0,-0.0860718488693237,-0.0200862288475036
-0.1388222724199295,0.2756909728050232,0.1244732737541198,-0.4908130466938019,-0.0716905668377876,0.0517022311687469,0.0,0.0,0.3377496004104614,-0.3277920484542846
-0.1373479813337326,0.2651137113571167,0.1443988978862762,-0.4699577093124389,-0.0686928629875183,0.0599540397524833,0.0,0.0,0.0320806503295898,-0.1539530754089355
-0.1358120888471603,0.2548206746578216,0.1507618427276611,-0.4573404490947723,-0.06589275598526,0.0560020804405212,0.0,0.0,0.5600776672363281,-0.2444484829902649
-0.1340454071760177,0.2452794462442398,0.173338770866394,-0.4239155948162079,-0.062601700425148,0.0658211037516594,0.0,0.0,-0.8358789086341858,-0.4857620000839233
-0.1322351396083831,0.2352954745292663,0.1778330504894256,-0.4436030685901642,-0.0594435110688209,0.0631637722253799,0.0,0.0,-0.2041390538215637,-0.4885922074317932
-0.1303808242082595,0.2248686850070953,0.1823687255382537,-0.4632903635501861,-0.0564187876880168,0.0604945346713066,0.0,0.0,0.7557485103607178,-0.4290223121643066
-0.1283705681562423,0.2152472883462906,0.1977972984313964,-0.427499920129776,-0.0532298907637596,0.0637779086828231,0.0,0.0,-0.009272277355194,-0.8195692300796509
-0.1263719499111175,0.2051836997270584,0.1953444182872772,-0.4471186697483063,-0.0487635135650634,0.0893274843692779,0.0,0.0,0.5408861637115479,-0.7891364693641663
-0.1244892105460167,0.1955567151308059,0.1825094372034073,-0.4276880323886871,-0.0430703572928905,0.1138632297515869,0.0,0.0,0.0266579389572143,-0.6616582274436951
-0.1226908713579177,0.1859743744134903,0.1729661673307418,-0.4257017374038696,-0.0362846888601779,0.1357132643461227,0.0,0.0,0.0175718069076538,-0.4422073364257812
-0.1208478957414627,0.1764709055423736,0.1776181012392044,-0.4222294688224792,-0.0296958833932876,0.1317763030529022,0.0,0.0,0.206165075302124,-0.7062548995018005
-0.118982695043087,0.1671094298362732,0.1785337477922439,-0.4159282445907593,-0.0218110959976911,0.1576958447694778,0.0,0.0,0.523726224899292,-0.6811815500259399
-0.1169868484139442,0.1577946543693542,0.190094381570816,-0.413881242275238,-0.012444625608623,0.1873292773962021,0.0,0.0,0.3161478042602539,0.1116758584976196
-0.1148612946271896,0.148853600025177,0.2028340399265289,-0.3973241448402405,-0.0028550243005156,0.1917921900749206,0.0,0.0,0.0579564571380615,-0.748107373714447
-0.1127299293875694,0.1402532160282135,0.2020462453365326,-0.3822523057460785,0.0080985063686966,0.219070553779602,0.0,0.0,0.0136147737503051,-0.8766277432441711
