x_pos,y_pos,x_vel,y_vel,angle,ang_vel,leg_1,leg_2,main_booster,lat_booster
-0.0015228271950036,1.403393030166626,-0.1546128690242767,-0.3345444798469543,0.0020842095836997,0.0411371141672134,0.0,0.0,-0.3274945020675659,0.5545306205749512
-0.0029980659019201,1.395654797554016,-0.148683950304985,-0.3439230620861053,0.0032295102719217,0.0229088775813579,0.0,0.0,-0.5318507552146912,0.7276440858840942
-0.004403400234878,1.3876795768737793,-0.1402074098587036,-0.3544566929340362,0.0029126845765858,-0.0063370740972459,0.0,0.0,-0.110933780670166,0.3100672960281372
-0.0058088302612304,1.3794724941253662,-0.1405178159475326,-0.3647542297840118,0.0028828780632466,-0.0005960537819191,0.0,0.0,0.1749234199523925,0.6593203544616699
-0.0070615769363939,1.3717323541641235,-0.1243677139282226,-0.3440083563327789,0.0019855310674756,-0.0179486665874719,0.0,0.0,0.2575562000274658,0.5860198736190796
-0.0081550600007176,1.364380121231079,-0.1077736988663673,-0.3267638087272644,0.0004312450473662,-0.0310885310173034,0.0,0.0,-0.6844421029090881,0.3863875865936279
-0.009249878115952,1.3567962646484375,-0.1081660166382789,-0.3370604515075683,-0.0008671364048495,-0.025970047339797,0.0,0.0,-0.2366653680801391,0.1942077875137329
-0.0103464126586914,1.3489807844161987,-0.1085865497589111,-0.3473528027534485,-0.0019216310465708,-0.0210917126387357,0.0,0.0,-0.2589715719223022,0.813082218170166
-0.011382388882339,1.3409423828125,-0.1011616215109825,-0.3572643101215362,-0.0043227989226579,-0.0480281971395015,0.0,0.0,-0.4469391107559204,0.0601189136505126
-0.0124208452180027,1.3326724767684937,-0.1016318053007125,-0.3675588071346283,-0.0065050614066421,-0.0436491258442401,0.0,0.0,-0.3336747884750366,-0.2287154197692871
-0.0134621616452932,1.3241710662841797,-0.1021290645003318,-0.3778532743453979,-0.0084835859015584,-0.0395741499960422,0.0,0.0,-0.4727537631988525,0.6725068092346191
-0.0144474981352686,1.3154358863830566,-0.0952230393886566,-0.38825124502182,-0.0117622585967183,-0.0655794888734817,0.0,0.0,-0.6722029447555542,0.4389255046844482
-0.0154365543276071,1.3064690828323364,-0.0957654565572738,-0.3985461294651031,-0.0148666743189096,-0.0620941594243049,0.0,0.0,-0.4768800735473633,0.221122145652771
-0.0164296142756938,1.2972710132598877,-0.0963322669267654,-0.4088410437107086,-0.0178142488002777,-0.0589564852416515,0.0,0.0,-0.8937116265296936,0.3730244636535644
-0.0174272544682025,1.2878413200378418,-0.0969218239188194,-0.4191359281539917,-0.020621720701456,-0.0561543032526969,0.0,0.0,-0.9373432993888856,0.4735608100891113
-0.0184298511594533,1.2781800031661987,-0.0975333154201507,-0.4294308125972748,-0.0233067870140075,-0.0537062883377075,0.0,0.0,-0.6642057299613953,0.4016129970550537
-0.0194375999271869,1.2682870626449585,-0.0981657654047012,-0.4397257268428802,-0.0258877016603946,-0.0516231283545494,0.0,0.0,-0.8447993397712708,0.1464395523071289
-0.0204510688781738,1.2581627368927002,-0.0988181978464126,-0.4500206410884857,-0.0283831525593996,-0.0499136783182621,0.0,0.0,-0.0341260433197021,0.409808874130249
-0.0214705467224121,1.2478066682815552,-0.0994896367192268,-0.4603155851364136,-0.0308121889829635,-0.0485852807760238,0.0,0.0,-0.6384469270706177,0.1082673072814941
-0.02249651029706,1.2372190952301023,-0.1001791805028915,-0.4706106185913086,-0.0331941246986389,-0.0476430431008338,0.0,0.0,0.6974920034408569,0.1116713285446167
-0.0233725551515817,1.2275516986846924,-0.0858359187841415,-0.4297083914279938,-0.0349369160830974,-0.034859549254179,0.0,0.0,-0.988886058330536,-0.2433749437332153
-0.0242557525634765,1.2176522016525269,-0.086560770869255,-0.4400124251842499,-0.0366722010076046,-0.0347088575363159,0.0,0.0,-0.974312424659729,0.5280208587646484
-0.0250956527888774,1.2075178623199463,-0.0809385627508163,-0.4504911601543426,-0.0396946631371974,-0.0604548640549182,0.0,0.0,-0.9881002306938172,-0.6175298094749451
-0.0259866714477539,1.1971478462219238,-0.0871190428733825,-0.4609483778476715,-0.0416625179350376,-0.0393605791032314,0.0,0.0,-0.452959656715393,0.9254674911499025
-0.0268299095332622,1.1865453720092771,-0.0808644741773605,-0.4713248312473297,-0.04508713260293,-0.0684984624385833,0.0,0.0,-0.9827035069465636,-0.7645608186721802
-0.0277572628110647,1.1756988763809204,-0.0911100357770919,-0.4821104109287262,-0.0466896407306194,-0.0320501290261745,0.0,0.0,-0.9226733446121216,0.3335970640182495
-0.02869338914752,1.164621114730835,-0.091906189918518,-0.4924034178256988,-0.0483790002763271,-0.0337871387600898,0.0,0.0,-0.7116574645042419,-0.4219950437545776
-0.0296387672424316,1.153311848640442,-0.0927135422825813,-0.5026965141296387,-0.050172921270132,-0.0358788259327411,0.0,0.0,-0.7732332348823547,-0.743826687335968
-0.0306647308170795,1.1417826414108276,-0.1024858355522155,-0.5124166011810303,-0.0502867177128791,-0.002275685314089,0.0,0.0,-0.7249187231063843,0.7371218204498291
-0.0316442474722862,1.1300147771835327,-0.0962675362825393,-0.5230695605278015,-0.051954872906208,-0.0333631038665771,0.0,0.0,-0.427041232585907,-0.8590728044509888
-0.0326991081237793,1.1180304288864136,-0.1053250432014465,-0.5326467752456665,-0.0521189235150814,-0.0032808328978717,0.0,0.0,-0.9312220811843872,0.6476563215255737
-0.0337197296321392,1.1058073043823242,-0.1005911976099014,-0.5433019995689392,-0.0535750947892665,-0.0291235502809286,0.0,0.0,-0.9180627465248108,-0.8318237662315369
-0.034825325012207,1.0933665037155151,-0.1107959374785423,-0.5529135465621948,-0.0533309206366539,0.004883543588221,0.0,0.0,-0.9636878371238708,-0.7020846605300903
-0.0360030159354209,1.0806928873062134,-0.1193785220384597,-0.5632160902023315,-0.0517399050295352,0.0318202562630176,0.0,0.0,-0.9921808242797852,0.1090273857116699
-0.0371914878487587,1.0677878856658936,-0.1202475056052208,-0.5735097527503967,-0.0503586530685424,0.0276250187307596,0.0,0.0,-0.977256715297699,0.2017532587051391
-0.0383910164237022,1.0546514987945557,-0.121123269200325,-0.5838032960891724,-0.0491992011666297,0.0231890603899955,0.0,0.0,-0.9921977519989014,-0.2365092039108276
-0.0396017059683799,1.0412836074829102,-0.1220053434371948,-0.594096839427948,-0.0482728295028209,0.0185273326933383,0.0,0.0,-0.9684848785400392,-0.0490779876708984
-0.0408237464725971,1.027684450149536,-0.1228933185338974,-0.6043902635574341,-0.0475901253521442,0.0136542515829205,0.0,0.0,-0.3696657419204712,-0.3732008934020996
-0.0420572273433208,1.0138537883758545,-0.1237868294119834,-0.6146837472915649,-0.0471609197556972,0.0085839573293924,0.0,0.0,-0.964006245136261,0.7068274021148682
-0.0432438850402832,0.999788463115692,-0.1173427104949951,-0.6251681447029114,-0.0484667010605335,-0.026115346699953,0.0,0.0,-0.7915412783622742,-0.9661004543304444
-0.0445319190621376,0.985506534576416,-0.1295002847909927,-0.634735643863678,-0.0477792210876941,0.0137495594099164,0.0,0.0,-0.9569910168647766,0.4318376779556274
-0.0458317771553993,0.970993161201477,-0.1304081976413726,-0.6450291872024536,-0.0473709218204021,0.0081661809235811,0.0,0.0,-0.995685338973999,0.1046159267425537
-0.0471437461674213,0.9562482833862304,-0.1313202828168869,-0.6553227305412292,-0.0472491234540939,0.0024359002709388,0.0,0.0,-0.9014517068862916,-0.3829187154769897
-0.0484679229557514,0.9412721395492554,-0.1322362124919891,-0.6656162738800049,-0.0474206432700157,-0.00343037256971,0.0,0.0,-0.8423934578895569,-0.6543971300125122
-0.0498596206307411,0.9260607957839966,-0.1401086449623108,-0.6760352253913879,-0.0465031787753105,0.0183493625372648,0.0,0.0,-0.972016215324402,-0.4527360200881958
-0.0512637123465538,0.910618007183075,-0.1410314440727234,-0.6863289475440979,-0.0458911135792732,0.0122413709759712,0.0,0.0,-0.7702975273132324,-0.4699752926826477
-0.05268020555377,0.8949437141418457,-0.1419572681188583,-0.6966226696968079,-0.0455897971987724,0.006026366725564,0.0,0.0,-0.650976300239563,0.5731184482574463
-0.0540721900761127,0.879041850566864,-0.1382431238889694,-0.706783652305603,-0.0465306714177131,-0.0188174750655889,0.0,0.0,-0.6136600375175476,-0.4942015409469604
-0.0554766654968261,0.8629084229469299,-0.1391742974519729,-0.7170774340629578,-0.0477917902171611,-0.0252220965921878,0.0,0.0,-0.3808593153953552,-0.6796004176139832
-0.0569495186209678,0.8465458154678345,-0.1470911204814911,-0.7272358536720276,-0.0479779466986656,-0.0037232891190797,0.0,0.0,-0.8867176175117493,0.0808801651000976
-0.0584349632263183,0.8299518823623657,-0.1480266898870468,-0.7375296950340271,-0.0484923832118511,-0.0102885011583566,0.0,0.0,0.2108290195465088,-0.6730493307113647
-0.0600072853267192,0.8139470219612122,-0.1576614379882812,-0.7113054990768433,-0.0480658449232578,0.0085304314270615,0.0,0.0,-0.6336111426353455,-0.1895744204521179
-0.0615922920405864,0.7977110147476196,-0.1586005240678787,-0.7215994000434875,-0.0479743853211402,0.0018295228946954,0.0,0.0,-0.9263443350791932,0.0492353439331054
-0.0631901770830154,0.7812435030937195,-0.1595410853624344,-0.7318931818008423,-0.0482209436595439,-0.0049311369657516,0.0,0.0,0.3295598030090332,0.2392691373825073
-0.0646622627973556,0.7651239633560181,-0.1471742838621139,-0.7164264917373657,-0.0482535921037197,-0.0006531513063237,0.0,0.0,-0.6179453730583191,-0.4884033203125
-0.0661472305655479,0.7487730383872986,-0.1481171399354934,-0.7267202138900757,-0.0486295372247695,-0.0075187012553215,0.0,0.0,-0.5653183460235596,0.5605491399765015
-0.0675936713814735,0.7321922779083252,-0.1426166296005249,-0.7369937300682068,-0.0506396926939487,-0.0402029603719711,0.0,0.0,-0.2290812730789184,0.3026635646820068
-0.0690530762076377,0.7153801918029785,-0.1435611099004745,-0.747287929058075,-0.0529975146055221,-0.0471565425395965,0.0,0.0,-0.4582685232162475,-0.1881254315376281
-0.070525549352169,0.6983367800712585,-0.1445061117410659,-0.757582426071167,-0.055704940110445,-0.0541486740112304,0.0,0.0,-0.1945583224296569,0.2046854496002197
-0.0720110908150672,0.6810622215270996,-0.1454514265060424,-0.7678770422935486,-0.0587637424468994,-0.0611758753657341,0.0,0.0,0.6044535636901855,-0.3946585059165954
-0.0734387412667274,0.6640905141830444,-0.1395531892776489,-0.7544240355491638,-0.0619455575942993,-0.0636362880468368,0.0,0.0,0.6904811859130859,-0.075884997844696
-0.0749374404549598,0.6479719281196594,-0.1458139717578888,-0.7165602445602417,-0.0659564957022667,-0.0802187100052833,0.0,0.0,-0.9140655398368835,-0.6062707901000977
-0.0764873474836349,0.6316243410110474,-0.1515406966209411,-0.7267135977745056,-0.0693641528487205,-0.0681530833244323,0.0,0.0,-0.7191625833511353,0.5065984725952148
-0.0780085548758506,0.6150422692298889,-0.1472671329975128,-0.7372171878814697,-0.0741767436265945,-0.0962516218423843,0.0,0.0,0.5814502239227295,-0.354731798171997
-0.0795069709420204,0.5988023281097412,-0.1446548849344253,-0.7220393419265747,-0.0793127343058586,-0.1027198061347007,0.0,0.0,0.4232828617095947,-0.4450898170471191
-0.0810843482613563,0.5831056833267212,-0.151695504784584,-0.6979625821113586,-0.0853010937571525,-0.1197670251131057,0.0,0.0,-0.8243687748908997,-0.1397285461425781
-0.0826747864484787,0.5671783089637756,-0.1526380330324173,-0.7082605361938477,-0.0916492938995361,-0.1269640773534774,0.0,0.0,0.4411400556564331,0.2548325061798095
-0.0841835960745811,0.5513915419578552,-0.1444477885961532,-0.702040433883667,-0.0980269163846969,-0.1275524646043777,0.0,0.0,0.8019531965255737,-0.5270619988441467
-0.085624024271965,0.5367717146873474,-0.1384105086326599,-0.6501518487930298,-0.1036239117383956,-0.1119399517774581,0.0,0.0,-0.8776524662971497,-0.3117528557777405
-0.0870776176452636,0.5219212174415588,-0.1393485814332962,-0.6604500412940979,-0.10958281904459,-0.1191779524087905,0.0,0.0,-0.7645819187164307,0.0841493606567382
-0.0885440856218338,0.506840169429779,-0.1402847617864608,-0.670748770236969,-0.1159041225910186,-0.1264261156320572,0.0,0.0,-0.0844365954399108,0.1997737884521484
-0.0900235176086425,0.4915286898612976,-0.1412188112735748,-0.6810480952262878,-0.1225882396101951,-0.133682832121849,0.0,0.0,0.5491693019866943,0.0021941661834716
-0.0915388092398643,0.4771880209445953,-0.1438912749290466,-0.6380125284194946,-0.1301943808794021,-0.1521231234073639,0.0,0.0,-0.8759308457374573,0.007761001586914
-0.0930670723319053,0.4626171290874481,-0.1448203772306442,-0.6483136415481567,-0.1381639838218689,-0.1593921929597854,0.0,0.0,-0.0486139059066772,0.0690847635269165
-0.0946082100272178,0.4478161334991455,-0.1457465291023254,-0.6586156487464905,-0.1464972347021103,-0.1666653305292129,0.0,0.0,-0.6289607286453247,-0.785111665725708
-0.0962172523140907,0.4327889680862427,-0.1535919159650802,-0.6686104536056519,-0.1538059413433075,-0.1461740583181381,0.0,0.0,0.3866176605224609,-0.1996300220489502
-0.0978217124938964,0.4179601967334747,-0.152643546462059,-0.6598861217498779,-0.1616012156009674,-0.1559055149555206,0.0,0.0,-0.4110805988311767,-0.7975842952728271
-0.0995011329650878,0.4029236733913421,-0.1614076942205429,-0.6690108776092529,-0.1681372225284576,-0.1307198703289032,0.0,0.0,-0.0753281712532043,-0.2398970127105713
-0.1011931449174881,0.387657105922699,-0.1623177230358123,-0.6793119311332703,-0.1750370264053344,-0.1379960775375366,0.0,0.0,0.3262736797332763,-0.3489060997962951
-0.1028721779584884,0.3731531500816345,-0.1602497994899749,-0.6455436944961548,-0.182717278599739,-0.1536051034927368,0.0,0.0,0.4032672643661499,-0.2910113334655761
-0.104620836675167,0.3588641881942749,-0.1663373559713363,-0.6361345052719116,-0.1912693828344345,-0.1710419654846191,0.0,0.0,-0.2608281970024109,-0.1974069476127624
-0.1063818931579589,0.3443455696105957,-0.1672317236661911,-0.6464387774467468,-0.200184628367424,-0.1783054620027542,0.0,0.0,0.2606689929962158,-0.918298065662384
-0.1082265824079513,0.3302910923957824,-0.1770515888929367,-0.6256662607192993,-0.2076649069786071,-0.1496060192584991,0.0,0.0,0.486339807510376,-0.118158221244812
-0.1100060492753982,0.3169170320034027,-0.1699572205543518,-0.5955439805984497,-0.215735837817192,-0.1614186316728592,0.0,0.0,-0.1873129606246948,-0.3304705619812011
-0.11179780960083,0.3033133745193481,-0.1708301901817321,-0.6058482527732849,-0.2241687178611755,-0.168657511472702,0.0,0.0,0.5577170848846436,-0.9309834837913512
-0.1134607344865799,0.2902759611606598,-0.1595664173364639,-0.5804803967475891,-0.230978712439537,-0.1362000256776809,0.0,0.0,0.5083091259002686,-0.2804336547851562
-0.115042969584465,0.2774575054645538,-0.1512584090232849,-0.5708180665969849,-0.2380493879318237,-0.1414138972759246,0.0,0.0,0.865107536315918,-0.8231451511383057
-0.116482637822628,0.2650482654571533,-0.1384989917278289,-0.5524156093597412,-0.243595689535141,-0.1109264120459556,0.0,0.0,0.9496116638183594,-0.4048995971679687
-0.1176029220223426,0.2533270716667175,-0.1070174127817154,-0.5217808485031128,-0.2486982196569442,-0.1020506173372268,0.0,0.0,0.4544630050659179,-0.7376493215560913
-0.1185748130083084,0.241846278309822,-0.0935045331716537,-0.510887622833252,-0.2524510324001312,-0.0750561356544494,0.0,0.0,0.9973536729812622,-0.9783269166946412
-0.1194122284650802,0.2314929515123367,-0.0816373229026794,-0.4605099558830261,-0.2545906901359558,-0.0427932888269424,0.0,0.0,0.8471823930740356,-0.8853726387023926
-0.1200767531991005,0.2221588641405105,-0.0658401921391487,-0.4149568676948547,-0.255222737789154,-0.0126409502699971,0.0,0.0,0.0582814216613769,-0.9713215231895448
-0.1206257790327072,0.2132108062505722,-0.0558172166347503,-0.3975284993648529,-0.2542798817157745,0.0188570395112037,0.0,0.0,0.1975029706954956,-0.8751936554908752
-0.1211127266287803,0.204361155629158,-0.0510422475636005,-0.3929128348827362,-0.2518877685070038,0.0478422679007053,0.0,0.0,-0.6611830592155457,-0.5799113512039185
-0.1216589957475662,0.1952981501817703,-0.0578803718090057,-0.402243822813034,-0.2485751956701278,0.0662514120340347,0.0,0.0,0.5658543109893799,-0.9247475862503052
-0.1219958290457725,0.1871981024742126,-0.0385469906032085,-0.3591882288455963,-0.2436273843050003,0.098956249654293,0.0,0.0,-0.3956483006477356,-0.6505958437919617
-0.1223948448896408,0.1788870394229889,-0.045771200209856,-0.3684201240539551,-0.2376646250486374,0.1192556023597717,0.0,0.0,-0.7023789882659912,-0.7607365846633911
-0.1228732094168663,0.1703784316778183,-0.0552085228264331,-0.3769909143447876,-0.2301915884017944,0.1494607180356979,0.0,0.0,-0.6336198449134827,-0.5607790350914001
-0.1233979240059852,0.1616557389497757,-0.0604660287499427,-0.3864473104476928,-0.2220948934555053,0.1619341373443603,0.0,0.0,0.4075523614883423,0.5631904602050781
-0.1237957924604415,0.1536440253257751,-0.0462290756404399,-0.3551182746887207,-0.2155831754207611,0.130234494805336,0.0,0.0,-0.4887657761573791,-0.3912818431854248
-0.124203011393547,0.1454023420810699,-0.0468367710709571,-0.365420252084732,-0.2094128429889679,0.123406745493412,0.0,0.0,-0.0870792865753173,-0.4613091945648193
-0.1246193870902061,0.1369304209947586,-0.0474151149392128,-0.375721663236618,-0.2035815268754959,0.1166263446211814,0.0,0.0,0.7445621490478516,0.4241418838500976
-0.1250366270542144,0.1291984468698501,-0.0466202013194561,-0.3429780602455139,-0.1986566036939621,0.0984986275434494,0.0,0.0,0.6460287570953369,0.0703334808349609
-0.1255063116550445,0.1220477446913719,-0.0508428290486335,-0.3172945976257324,-0.1947589814662933,0.0779524594545364,0.0,0.0,0.136705994606018,-0.6746234893798828
-0.1258594542741775,0.1153897121548652,-0.0403020121157169,-0.2952653467655182,-0.1897359490394592,0.1004605889320373,0.0,0.0,-0.2665176391601562,-0.6228874325752258
-0.126264289021492,0.1085085272789001,-0.046268094331026,-0.3051041066646576,-0.1839214414358139,0.1162902489304542,0.0,0.0,0.6204686164855957,0.5723443031311035
-0.1263438165187835,0.1024502366781234,-0.0126625690609216,-0.2686783075332641,-0.1791952550411224,0.0945238322019577,0.0,0.0,0.3039344549179077,-0.4601938128471374
-0.1263386756181717,0.0970702990889549,-0.0037993029691278,-0.2385955601930618,-0.1748735457658767,0.0864343792200088,0.0,0.0,0.0256569385528564,-0.0310278534889221
-0.1261603385210037,0.0922202169895172,0.0134273367002606,-0.2150476574897766,-0.1704592555761337,0.0882860273122787,0.0,0.0,-0.184431791305542,-0.0501728653907775
-0.1259879171848297,0.0871394723653793,0.0131528256461024,-0.2253461331129074,-0.1663580238819122,0.0820243507623672,0.0,0.0,-0.3027218580245971,-0.3164237141609192
-0.1258207261562347,0.0818280577659607,0.0129244429990649,-0.2356442362070083,-0.162565603852272,0.0758484452962875,0.0,0.0,-0.0541297793388366,0.1756142377853393
-0.1256584227085113,0.0762858241796493,0.0127436220645904,-0.2459419667720794,-0.1590774059295654,0.0697637572884559,0.0,0.0,0.4711146354675293,0.3054624795913696
-0.1253648698329925,0.0711004361510276,0.0258320160210132,-0.230088859796524,-0.1555567532777786,0.0704130083322525,0.0,0.0,0.4751002788543701,-0.4370400309562683
-0.1250973641872406,0.0665276646614074,0.0240211077034473,-0.2029519975185394,-0.1528355628252029,0.0544238202273845,0.0,0.0,0.0394520759582519,0.0739130973815918
-0.1248636245727539,0.0622225366532802,0.0213131941854953,-0.1911281794309616,-0.1507767885923385,0.0411755070090293,0.0,0.0,0.0131199359893798,0.1877123117446899
-0.1245936378836631,0.0582020133733749,0.0252819452434778,-0.1785142570734024,-0.1490621566772461,0.034292496740818,0.0,0.0,-0.0891636610031127,-0.0292560458183288
-0.1243257522583007,0.0539505332708358,0.0253530498594045,-0.1888103783130645,-0.1476244926452636,0.0287536643445491,0.0,0.0,0.6111136674880981,0.2188230752944946
-0.1238817200064659,0.0499602667987346,0.0426412634551525,-0.1771731376647949,-0.1458682268857956,0.0351249650120735,0.0,0.0,0.5711773633956909,0.0197100639343261
-0.1232523918151855,0.0466837510466575,0.0610097534954547,-0.1454344689846038,-0.1439469903707504,0.0384247750043869,0.0,0.0,-0.2568240165710449,0.0709691047668457
-0.1226233467459678,0.0431761369109153,0.0612338557839393,-0.1557302623987198,-0.1422823816537857,0.0332921408116817,0.0,0.0,0.3296483755111694,0.6213825941085815
