x_pos,y_pos,x_vel,y_vel,angle,ang_vel,leg_1,leg_2,main_booster,lat_booster
-0.0015765189891681,1.4033383131027222,-0.1605511605739593,-0.3369682431221008,0.0025961806531995,0.0512740239500999,0.0,0.0,-0.4718937873840332,0.8651047945022583
-0.0031325339805334,1.3954898118972778,-0.1570786237716674,-0.3488299250602722,0.0040561291389167,0.0292025860399007,0.0,0.0,0.3475390672683716,0.739199161529541
-0.0045630456879734,1.3878445625305176,-0.1440428644418716,-0.3397906124591827,0.0050374981947243,0.0196291729807853,0.0,0.0,-0.35411536693573,0.1637289524078369
-0.006046581082046,1.379913091659546,-0.1501342505216598,-0.3525161147117615,0.0068010673858225,0.0352746546268463,0.0,0.0,0.1699957847595214,0.9005680084228516
-0.0074089048430323,1.3723931312561035,-0.1370621621608734,-0.3342324495315552,0.0076200519688427,0.0163810867816209,0.0,0.0,-0.1656281948089599,0.6419672966003418
-0.0087620737031102,1.3645864725112915,-0.1353655159473419,-0.3469575047492981,0.0076600643806159,0.0008003843249753,0.0,0.0,-0.260657787322998,0.8788928985595703
-0.0101016042754054,1.356494665145874,-0.1330842822790146,-0.3596300780773163,0.0068039800971746,-0.0171231739223003,0.0,0.0,-0.5178657174110413,0.522294282913208
-0.0114426612854003,1.3481189012527466,-0.132710725069046,-0.3722515404224396,0.0054348860867321,-0.0273846630007028,0.0,0.0,-0.0969002246856689,0.6495707035064697
-0.012786197476089,1.339464545249939,-0.1324751675128936,-0.384632408618927,0.0035800540354102,-0.0371000543236732,0.0,0.0,0.0117617845535278,0.9250186681747437
-0.0141115188598632,1.3311976194381714,-0.1295913606882095,-0.3674165904521942,0.0006659393548034,-0.0582878291606903,0.0,0.0,0.0585132837295532,0.6229739189147949
-0.0153782842680811,1.323216438293457,-0.1233440265059471,-0.3547243177890777,-0.0026257466524839,-0.065839447081089,0.0,0.0,-0.3881024122238159,0.3560479879379272
-0.0166974067687988,1.3149490356445312,-0.1293561905622482,-0.3674446642398834,-0.0051490245386958,-0.0504700355231761,0.0,0.0,-0.0223481655120849,0.6700035333633423
-0.0180044174194335,1.3063987493515017,-0.1272974163293838,-0.3800359070301056,-0.0085221929475665,-0.0674695968627929,0.0,0.0,-0.0054135918617248,0.8676588535308838
-0.0192873962223529,1.2975531816482544,-0.12371776252985,-0.3931678533554077,-0.0130500309169292,-0.0905651524662971,0.0,0.0,0.1978724002838134,0.5959923267364502
-0.0204541198909282,1.2893211841583252,-0.1118748784065246,-0.3659155964851379,-0.0177948493510484,-0.0949051901698112,0.0,0.0,-0.7383268475532532,0.1278374195098877
-0.0216726306825876,1.280802845954895,-0.1178193539381027,-0.3786415755748749,-0.021784333512187,-0.0797965005040168,0.0,0.0,-0.3234840035438537,0.7148621082305908
-0.0228734016418457,1.2720046043395996,-0.1150381788611412,-0.3911124467849731,-0.026765065267682,-0.0996236577630043,0.0,0.0,-0.4447978138923645,0.7370524406433105
-0.024053668603301,1.262911319732666,-0.1119269505143165,-0.4042710065841675,-0.0328077897429466,-0.1208650693297386,0.0,0.0,-0.8685967922210693,0.0383486747741699
-0.0252852439880371,1.2535319328308103,-0.1178007572889328,-0.4169902503490448,-0.0381079241633415,-0.1060121804475784,0.0,0.0,-0.7131836414337158,0.7227107286453247
-0.0265185348689556,1.2438631057739258,-0.1174513921141624,-0.429881751537323,-0.043915431946516,-0.1161606684327125,0.0,0.0,0.1918457746505737,0.3794978857040405
-0.0276866909116506,1.2347149848937988,-0.1121261715888977,-0.4067313075065613,-0.048562254756689,-0.0929448753595352,0.0,0.0,-0.9636752605438232,0.6747357845306396
-0.0288512222468853,1.225272536277771,-0.1111161857843399,-0.4198453724384308,-0.0538536012172699,-0.1058363690972328,0.0,0.0,-0.6590390801429749,-0.5491910576820374
-0.030100155621767,1.2155457735061646,-0.1211409568786621,-0.4324402809143066,-0.0575700551271438,-0.0743359550833702,0.0,0.0,-0.6310411095619202,0.670234203338623
-0.0313403122127056,1.2055199146270752,-0.1194806694984436,-0.4457720518112182,-0.0620672479271888,-0.0899516120553016,0.0,0.0,-0.2868993282318115,0.9423553943634032
-0.0325732231140136,1.1952050924301147,-0.1180130019783973,-0.4586679339408874,-0.0672948434948921,-0.1045614331960678,0.0,0.0,-0.2659894227981567,-0.3280643820762634
-0.033856488764286,1.1845823526382446,-0.1237398236989975,-0.4723367989063263,-0.0718301758170127,-0.0907062739133834,0.0,0.0,-0.4645459651947021,-0.3950649499893188
-0.0351887717843055,1.1736730337142944,-0.129336267709732,-0.4850504100322723,-0.0756835490465164,-0.077067419886589,0.0,0.0,-0.0544298887252807,-0.8802068829536438
-0.036653708666563,1.162495732307434,-0.1454392671585083,-0.4968222677707672,-0.0767300054430961,-0.0209290795028209,0.0,0.0,-0.8369366526603699,0.7618358135223389
-0.0381195060908794,1.1510324478149414,-0.1449829936027526,-0.5095580220222473,-0.0783037692308425,-0.0314754024147987,0.0,0.0,-0.630411684513092,-0.6135760545730591
-0.0396830551326274,1.1392860412597656,-0.156701773405075,-0.5220436453819275,-0.0779665410518646,0.0067447125911712,0.0,0.0,-0.8053442239761353,0.8470752239227295
-0.0412243828177452,1.1272544860839844,-0.1533586084842682,-0.5347824692726135,-0.078732706606388,-0.015323482453823,0.0,0.0,-0.9470605850219728,0.2299683094024658
-0.0428122505545616,1.114936113357544,-0.1586376130580902,-0.5474943518638611,-0.0788797810673713,-0.0029413667507469,0.0,0.0,-0.8795132637023926,0.6916499137878418
-0.0443984977900981,1.1023316383361816,-0.1578948944807052,-0.5602298974990845,-0.0796101465821266,-0.0146071957424283,0.0,0.0,-0.7711737155914307,0.0770254135131836
-0.046030044555664,1.0894405841827393,-0.1630083471536636,-0.5729419589042664,-0.0797533690929412,-0.0028645587153732,0.0,0.0,-0.7300469279289246,0.7474993467330933
-0.047645378857851,1.076257348060608,-0.1604219228029251,-0.5859900712966919,-0.0808558240532875,-0.0220491010695695,0.0,0.0,-0.802360475063324,0.4387311935424804
-0.0493042953312397,1.0627871751785278,-0.1653432548046112,-0.5987023711204529,-0.0814075469970703,-0.0110342688858509,0.0,0.0,-0.9347459077835084,-0.4941951632499695
-0.0510060302913188,1.0490304231643677,-0.1701577007770538,-0.6114147901535034,-0.081428438425064,-0.0004179315292276,0.0,0.0,-0.9034583568572998,0.1839040517807006
-0.0527497306466102,1.0349867343902588,-0.1748574823141098,-0.6241273283958435,-0.0809396356344223,0.0097762364894151,0.0,0.0,-0.2339532375335693,0.2727303504943847
-0.0545341484248638,1.0206568241119385,-0.1794345080852508,-0.6368400454521179,-0.0799634233117103,0.0195245016366243,0.0,0.0,-0.9677015542984008,-0.031997799873352
-0.0563584342598915,1.006040096282959,-0.1838804632425308,-0.6495530009269714,-0.0785232707858085,0.0288029313087463,0.0,0.0,-0.9680781960487366,0.3500065803527832
-0.0582213401794433,0.9911370277404784,-0.1881866306066513,-0.6622663140296936,-0.0766438692808151,0.0375879481434822,0.0,0.0,-0.9321241974830629,-0.2198404669761657
-0.0601216331124305,0.9759473204612732,-0.1923441290855407,-0.6749799251556396,-0.0743510499596595,0.0458563305437564,0.0,0.0,-0.8858671188354492,0.536344051361084
-0.0620091445744037,0.9604598879814148,-0.1902049928903579,-0.6882630586624146,-0.0729137957096099,0.0287452843040227,0.0,0.0,-0.8166226744651794,0.3775112628936767
-0.0639312714338302,0.9446858763694764,-0.1940377354621887,-0.7009770274162292,-0.0711181014776229,0.0359141007065773,0.0,0.0,-0.7499851584434509,0.0662153959274292
-0.0658867806196212,0.9286255240440368,-0.1976942420005798,-0.7136913537979126,-0.068992979824543,0.0425021834671497,0.0,0.0,-0.7862551808357239,-0.3761500120162964
-0.0678739547729492,0.912278950214386,-0.2011653482913971,-0.7264060378074646,-0.0665684342384338,0.0484907254576683,0.0,0.0,-0.5379543304443359,0.2459039688110351
-0.0698911696672439,0.8956459760665894,-0.2044418752193451,-0.7391210198402405,-0.0638753101229667,0.0538628101348876,0.0,0.0,-0.9145447015762328,0.8198540210723877
-0.0718836784362793,0.8787305951118469,-0.2008693963289261,-0.7517276406288147,-0.0622706227004528,0.0320935621857643,0.0,0.0,-0.8915868401527405,0.7512291669845581
-0.0738560706377029,0.861531138420105,-0.1978980153799057,-0.7643898725509644,-0.0616256222128868,0.0129001457244157,0.0,0.0,-0.0635774135589599,0.0640451908111572
-0.0758532509207725,0.8440455794334412,-0.2005389630794525,-0.7771050930023193,-0.0608085133135318,0.0163421668112278,0.0,0.0,-0.7936246395111084,0.4856882095336914
-0.0778730362653732,0.8262737393379211,-0.2029522210359573,-0.7898204326629639,-0.0598524175584316,0.0191219542175531,0.0,0.0,0.6896959543228149,0.7841991186141968
-0.079871080815792,0.8093493580818176,-0.1991734802722931,-0.7522211670875549,-0.0604738146066665,-0.0124277677386999,0.0,0.0,-0.2437222003936767,0.5901697874069214
-0.0818328857421875,0.7921305894851685,-0.1942127346992492,-0.7653616070747375,-0.0624117441475391,-0.038758996874094,0.0,0.0,0.2396421432495117,0.2947314977645874
-0.0837713256478309,0.7755213379859924,-0.1919408738613128,-0.7382630705833435,-0.064300037920475,-0.037765797227621,0.0,0.0,-0.8322457075119019,-0.6283324956893921
-0.0857616439461708,0.7586274147033691,-0.1980770379304886,-0.750883162021637,-0.0652422159910202,-0.018843600526452,0.0,0.0,-0.2812894582748413,0.8226867914199829
-0.0877096205949783,0.7414383888244629,-0.1924205273389816,-0.7640605568885803,-0.0675908699631691,-0.0469730421900749,0.0,0.0,-0.2929617166519165,-0.7905775904655457
-0.0897197723388671,0.7239760160446167,-0.1999265253543853,-0.7761566638946533,-0.068669818341732,-0.0215792674571275,0.0,0.0,0.2987747192382812,0.7130048274993896
-0.0915236473083496,0.7070056796073914,-0.1779461354017257,-0.7543531060218811,-0.0710836127400398,-0.0482760444283485,0.0,0.0,-0.6964559555053711,0.3235095739364624
-0.09333286434412,0.6897493004798889,-0.1783584654331207,-0.7670703530311584,-0.0736211910843849,-0.0507514178752899,0.0,0.0,0.1151471138000488,0.6565375328063965
-0.0951118469238281,0.6730070114135742,-0.173788771033287,-0.7443094849586487,-0.0776917040348053,-0.0814104750752449,0.0,0.0,-0.475100576877594,0.4779573678970337
-0.0968915969133377,0.6559790968894958,-0.1736869215965271,-0.7570279836654663,-0.0819465667009353,-0.0850969776511192,0.0,0.0,-0.0449661016464233,0.1659119129180908
-0.0986700057983398,0.6386654376983643,-0.1733316332101822,-0.7697468996047974,-0.0864147022366523,-0.0893627405166626,0.0,0.0,0.831087589263916,-0.1961562633514404
-0.1002590209245681,0.6219051480293274,-0.1547787636518478,-0.7451468110084534,-0.0904909670352935,-0.0815253555774688,0.0,0.0,0.8263765573501587,0.25406014919281
-0.1017548590898513,0.6058679819107056,-0.1453301161527633,-0.7130280137062073,-0.0947151258587837,-0.0844831988215446,0.0,0.0,0.0588201284408569,-0.3204404711723327
-0.1032135933637619,0.589928150177002,-0.1413340270519256,-0.7087282538414001,-0.0992103293538093,-0.0899040475487709,0.0,0.0,0.3638424873352051,-0.1652136445045471
-0.1047155410051345,0.574446439743042,-0.1448687314987182,-0.6884394884109497,-0.1044973656535148,-0.1057408601045608,0.0,0.0,-0.9298939108848572,-0.6522109508514404
-0.1062543839216232,0.5586947202682495,-0.1494771391153335,-0.7003903985023499,-0.108870081603527,-0.0874543637037277,0.0,0.0,0.2245221138000488,-0.2557451725006103
-0.1076951995491981,0.5429709553718567,-0.1395866870880127,-0.6991667151451111,-0.1133268177509307,-0.0891347303986549,0.0,0.0,0.8433539867401123,-0.0228614807128906
-0.1089822798967361,0.5283764600753784,-0.123974397778511,-0.6490131616592407,-0.1180311441421508,-0.0940868705511093,0.0,0.0,-0.908533811569214,-0.7976564168930054
-0.1103242859244346,0.5135060548782349,-0.1309109777212143,-0.661169707775116,-0.1213036254048347,-0.0654495880007743,0.0,0.0,0.4420260190963745,0.603696346282959
-0.1116144210100174,0.4992401599884033,-0.1238956823945045,-0.6344623565673828,-0.1263940036296844,-0.1018076688051223,0.0,0.0,-0.6536885499954224,0.1282472610473632
-0.1128832846879959,0.4846893548965454,-0.1213279366493225,-0.647185206413269,-0.1319294273853302,-0.1107083931565284,0.0,0.0,-0.1259798407554626,-0.8461136817932129
-0.1142089813947677,0.4698788225650787,-0.1286103129386901,-0.6585972309112549,-0.1358709782361984,-0.0788307413458824,0.0,0.0,0.0618560314178466,-0.2867885231971741
-0.1154131889343261,0.4553253650665283,-0.1162059754133224,-0.6472111344337463,-0.14007268846035,-0.0840343683958053,0.0,0.0,0.7819154262542725,-0.1470503211021423
-0.1165687590837478,0.4411211013793945,-0.1106706038117408,-0.6317664980888367,-0.1449365615844726,-0.09727743268013,0.0,0.0,0.6374647617340088,-0.6888201236724854
-0.117632195353508,0.42709881067276,-0.1025040298700332,-0.6235920190811157,-0.1487789750099182,-0.0768481418490409,0.0,0.0,0.7634046077728271,-0.4307514429092407
-0.1186469048261642,0.4133366346359253,-0.0969375446438789,-0.612112283706665,-0.1532991379499435,-0.0904034674167633,0.0,0.0,0.2585974931716919,-0.8339964151382446
-0.1196110695600509,0.4002095460891723,-0.0930209755897522,-0.5837778449058533,-0.1566873341798782,-0.0677638724446296,0.0,0.0,-0.2475210428237915,-0.6634500026702881
-0.1205883994698524,0.3868148326873779,-0.094956025481224,-0.59561687707901,-0.1594666838645935,-0.0555869117379188,0.0,0.0,0.4951868057250976,-0.2609139680862427
-0.1215165108442306,0.3742549419403076,-0.0890047699213028,-0.5586294531822205,-0.1632730364799499,-0.0761270076036453,0.0,0.0,0.1532599925994873,-0.1548343896865844
-0.1224630326032638,0.3617746531963348,-0.0898660868406295,-0.5552126169204712,-0.168064534664154,-0.095829963684082,0.0,0.0,0.3166871070861816,-0.7881519198417664
-0.1232949271798133,0.3499548435211181,-0.0794463753700256,-0.5257499814033508,-0.1718070656061172,-0.0748509913682937,0.0,0.0,-0.3912822008132934,-0.9136449694633484
-0.124174878001213,0.3378719389438629,-0.0858113914728164,-0.537270724773407,-0.1739966422319412,-0.0437913388013839,0.0,0.0,0.3366844654083252,-0.7197960615158081
-0.125028520822525,0.3263452351093292,-0.0839523077011108,-0.5124675631523132,-0.1754096746444702,-0.0282607488334178,0.0,0.0,0.4156332015991211,0.1536906957626342
-0.1257510185241699,0.3154213428497314,-0.070195160806179,-0.4857473969459533,-0.1774719059467315,-0.0412446036934852,0.0,0.0,0.4146919250488281,-0.7055683732032776
-0.1263215988874435,0.3049414157867431,-0.055948156863451,-0.4659089148044586,-0.1785877496004104,-0.0223170779645442,0.0,0.0,-0.2265838384628296,-0.4268637895584106
-0.1268541365861892,0.2941769063472748,-0.0515301711857318,-0.4786341786384582,-0.1803188771009445,-0.0346221774816513,0.0,0.0,0.6715877056121826,-0.3360620737075805
-0.1271826773881912,0.2837036848068237,-0.0309331621974706,-0.4657107591629028,-0.1822371333837509,-0.0383651331067085,0.0,0.0,0.4829061031341553,-0.9290649890899658
-0.1273036003112793,0.2736808955669403,-0.0115701872855424,-0.4455217123031616,-0.1827633529901504,-0.0105244815349578,0.0,0.0,0.6478726863861084,-0.939785659313202
-0.1272335052490234,0.2639243006706238,0.0060870754532516,-0.4335112571716308,-0.1818342357873916,0.018582472577691,0.0,0.0,0.1178729534149169,-0.9241462349891664
-0.1271064728498459,0.2546607255935669,0.0105611663311719,-0.4114525020122528,-0.179684042930603,0.043003462255001,0.0,0.0,-0.3788615465164184,-0.9268779754638672
-0.1270060539245605,0.2451382428407669,0.0067755379714071,-0.4228305220603943,-0.1764068603515625,0.0655434727668762,0.0,0.0,0.3656201362609863,-0.4478739500045776
-0.1266662627458572,0.2361183762550354,0.0308836754411458,-0.4005164802074432,-0.1732979714870453,0.0621778890490531,0.0,0.0,-0.4372065663337707,-0.2224892377853393
-0.1262847930192947,0.2268139719963073,0.035697977989912,-0.4132426083087921,-0.1708368510007858,0.0492221750319004,0.0,0.0,0.0507640838623046,-0.9325491189956664
-0.125918298959732,0.2177301496267318,0.0329680517315864,-0.4033055603504181,-0.1671512573957443,0.0737117826938629,0.0,0.0,-0.2422634363174438,-0.8243080973625183
-0.1255634278059005,0.2083856165409088,0.0310305655002594,-0.4148195087909698,-0.1626942902803421,0.0891393572092056,0.0,0.0,-0.4131900072097778,-0.6043135523796082
-0.1252147704362869,0.1987685710191726,0.0298016518354415,-0.4268821477890014,-0.1576364338397979,0.1011571437120437,0.0,0.0,0.1459633111953735,-0.5449972152709961
-0.124872587621212,0.1897219568490982,0.0288978815078735,-0.4015165567398071,-0.1523168087005615,0.1063922867178917,0.0,0.0,-0.2347666025161743,0.0772336721420288
-0.1244870200753212,0.180390864610672,0.0338802859187126,-0.414243221282959,-0.1476567387580871,0.0932013317942619,0.0,0.0,0.1722222566604614,0.3400568962097168
-0.1240173354744911,0.1715734153985977,0.0431396588683128,-0.3915115296840668,-0.1438333988189697,0.0764672309160232,0.0,0.0,0.0780279636383056,-0.8126082420349121
-0.1235589981079101,0.1632298082113266,0.0410533361136913,-0.3703750371932983,-0.1390710324048996,0.0952473431825637,0.0,0.0,-0.371978759765625,-0.3068516850471496
-0.1230567917227745,0.1546015292406082,0.0461010858416557,-0.3831005394458771,-0.1349714249372482,0.0819917097687721,0.0,0.0,0.2333699464797973,-0.7025765180587769
-0.122602179646492,0.1463875323534011,0.0407360717654228,-0.3646439015865326,-0.1302620023488998,0.0941881239414215,0.0,0.0,0.0860360860824585,-0.6424576044082642
-0.1222198456525802,0.1384312510490417,0.0330202616751194,-0.3531676232814789,-0.1250705122947693,0.1038298234343528,0.0,0.0,0.308631420135498,0.2830175161361694
-0.1216389685869216,0.1310216933488845,0.0531470999121665,-0.3289074003696441,-0.120154395699501,0.0983223393559455,0.0,0.0,-0.1742779612541198,-0.8735753297805786
-0.1210760101675987,0.1233311295509338,0.0504507794976234,-0.3413463234901428,-0.1143385842442512,0.1163162365555763,0.0,0.0,0.2363737821578979,-0.1998171210289001
-0.1202955245971679,0.1161880120635032,0.0723513215780258,-0.3170449435710907,-0.108683206140995,0.1131075248122215,0.0,0.0,0.0510822534561157,-0.2360662817955017
-0.1194313988089561,0.1094987243413925,0.0814399123191833,-0.2969500422477722,-0.1037568524479866,0.0985274091362953,0.0,0.0,-0.4190040230751037,-0.1517089605331421
-0.1185228377580642,0.1025244817137718,0.0865535736083984,-0.3096737563610077,-0.0994908958673477,0.0853192880749702,0.0,0.0,-0.0451480150222778,-0.6190211772918701
-0.1176123619079589,0.0952716469764709,0.0863267332315445,-0.322038859128952,-0.0948061347007751,0.0936955288052558,0.0,0.0,0.3648333549499511,-0.6946641802787781
-0.1166542023420333,0.0887568071484565,0.0903560072183609,-0.2892136871814728,-0.089402750134468,0.1080676913261413,0.0,0.0,0.0301887989044189,0.6042006015777588
-0.1155174225568771,0.0826837122440338,0.110051728785038,-0.2697007358074188,-0.0858033448457717,0.0719880610704422,0.0,0.0,-0.2325280308723449,-0.4245113134384155
-0.114336110651493,0.0763254463672638,0.1151549592614173,-0.2824225127696991,-0.0828569531440734,0.0589280128479003,0.0,0.0,0.2334150075912475,-0.2775909900665283
-0.1131631880998611,0.0703832507133483,0.1153983920812606,-0.2639955878257751,-0.0809834897518158,0.0374690778553485,0.0,0.0,0.3333997726440429,-0.2141191959381103
-0.1120156273245811,0.0647893026471138,0.1140038594603538,-0.2485777288675308,-0.0802369490265846,0.0149308592081069,0.0,0.0,0.1828731298446655,-0.4575647115707397
-0.1108068451285362,0.0595152229070663,0.1208487600088119,-0.2343989461660385,-0.0802062824368476,0.0006132756243459,0.0,0.0,0.0850188732147216,-0.3135441541671753
-0.1095087975263595,0.0544776059687137,0.1303364932537078,-0.2239255160093307,-0.0807378962635994,-0.0106320325285196,0.0,0.0,0.2812100648880005,-0.0346778035163879
-0.1080434769392013,0.0495592206716537,0.1472513526678085,-0.2186346054077148,-0.0814384222030639,-0.0140107898041605,0.0,0.0,0.0421531200408935,-0.3117703199386596
-0.1064377799630165,0.0449926704168319,0.1616271883249282,-0.203013464808464,-0.082488015294075,-0.020991988480091,0.0,0.0,-0.1303809881210327,-0.8493799567222595
-0.1048520058393478,0.0401568263769149,0.1586207598447799,-0.2149286866188049,-0.0825426876544952,-0.0010933225275948,0.0,0.0,0.4119619131088257,-0.8950809836387634
