x_pos,y_pos,x_vel,y_vel,angle,ang_vel,leg_1,leg_2,main_booster,lat_booster
-0.0015104294288903,1.403367519378662,-0.152064561843872,-0.3356689214706421,0.0009149942197836,0.0179860740900039,0.0,0.0,-0.088680624961853,0.8584203720092773
-0.0029346465598791,1.395577073097229,-0.140601098537445,-0.3462397456169128,-0.0008824139949865,-0.0359509252011776,0.0,0.0,-0.5125842094421387,0.6773145198822021
-0.0042807580903172,1.3875243663787842,-0.1302939057350158,-0.3579050302505493,-0.0051566110923886,-0.0854921489953994,0.0,0.0,0.2827440500259399,-0.1041807532310485
-0.0057044983841478,1.3797976970672607,-0.1367585659027099,-0.3434363603591919,-0.0107136964797973,-0.111151672899723,0.0,0.0,-0.4497023224830627,0.4608155488967895
-0.0071155549958348,1.3718146085739136,-0.1346401870250702,-0.3548618257045746,-0.0171083007007837,-0.127904012799263,0.0,0.0,0.3096897602081299,-0.2485923171043396
-0.0083979610353708,1.3642184734344482,-0.1214545592665672,-0.337701141834259,-0.0238184724003076,-0.1342155784368515,0.0,0.0,-0.690342903137207,-0.4965543746948242
-0.0096681592985987,1.3563661575317385,-0.1193864718079567,-0.3491291999816894,-0.0313622578978538,-0.1508897095918655,0.0,0.0,-0.506255567073822,-0.4418701529502868
-0.010926341637969,1.348258376121521,-0.117346167564392,-0.3605513572692871,-0.039736557751894,-0.1675015836954116,0.0,0.0,-0.3356293439865112,-0.2242879867553711
-0.0121726989746093,1.3398948907852173,-0.115337073802948,-0.371976375579834,-0.0489387921988964,-0.1840616911649704,0.0,0.0,-0.8133115172386169,-0.7623031139373779
-0.0134675027802586,1.3312853574752808,-0.1208807080984115,-0.3829467892646789,-0.0574520304799079,-0.1702800989151001,0.0,0.0,-0.4693093299865722,-0.4596478343009949
-0.0147511484101414,1.322420597076416,-0.1189481168985366,-0.3943739831447601,-0.0667876899242401,-0.1867306232452392,0.0,0.0,-0.0826579332351684,-0.018593430519104
-0.016024112701416,1.3133009672164917,-0.1170561164617538,-0.405802845954895,-0.0769411772489547,-0.2030881643295288,0.0,0.0,-0.2081438899040222,-0.8599230051040649
-0.0173395164310932,1.3039370775222778,-0.1218350976705551,-0.4166978895664215,-0.0865689665079116,-0.1925731152296066,0.0,0.0,-0.6107171177864075,-0.2945947647094726
-0.0186449997127056,1.294318437576294,-0.1200408339500427,-0.4281296730041504,-0.0970073118805885,-0.2087858617305755,0.0,0.0,-0.7042929530143738,0.5858378410339355
-0.019883919507265,1.2844436168670654,-0.1111388355493545,-0.4397572875022888,-0.109685868024826,-0.2535942196846008,0.0,0.0,-0.6130927801132202,-0.7697070240974426
-0.0211639404296875,1.2743144035339355,-0.1157134920358657,-0.4511410593986511,-0.1219136714935302,-0.2445784509181976,0.0,0.0,-0.3002901673316955,-0.6417165398597717
-0.0224735252559185,1.2639458179473877,-0.1188968196511268,-0.4618531465530395,-0.1339470595121383,-0.2406892478466034,0.0,0.0,-0.3632649183273315,-0.6551382541656494
-0.0238150600343942,1.2533260583877563,-0.1223043203353881,-0.4730983078479767,-0.145773559808731,-0.2365510463714599,0.0,0.0,-0.6220988631248474,-0.9248865842819214
-0.0252090450376272,1.2424744367599487,-0.1283465325832367,-0.4834109842777252,-0.1568281948566436,-0.2211126387119293,0.0,0.0,-0.7443006634712219,-0.5775803327560425
-0.026647662743926,1.2313809394836426,-0.1333613693714141,-0.4941879212856293,-0.1673487722873687,-0.2104302644729614,0.0,0.0,-0.642942488193512,-0.8744001984596252
-0.0281335823237895,1.2200533151626587,-0.1387131214141845,-0.504589319229126,-0.1772529333829879,-0.198100745677948,0.0,0.0,-0.3847980499267578,-0.8429398536682129
-0.0296792984008789,1.208484172821045,-0.1456107199192047,-0.515274703502655,-0.1862622946500778,-0.1802035421133041,0.0,0.0,-0.781181275844574,-0.4531470537185669
-0.0312210079282522,1.1966612339019775,-0.1444762051105499,-0.5267139673233032,-0.1960202902555465,-0.1951775699853897,0.0,0.0,-0.9054253697395324,-0.8477644324302673
-0.0328186973929405,1.1845922470092771,-0.1508529484272003,-0.5376008152961731,-0.2050175219774246,-0.1799606531858444,0.0,0.0,-0.856779932975769,-0.8929172158241272
-0.0344990715384483,1.1722983121871948,-0.1606077402830124,-0.5474470257759094,-0.2125219404697418,-0.1501017808914184,0.0,0.0,-0.1204195618629455,-0.9010093212127686
-0.0362669005990028,1.1597615480422974,-0.1708754003047943,-0.5580475330352783,-0.2184865474700927,-0.1192917823791503,0.0,0.0,0.8445713520050049,-0.8820871710777283
-0.0379212386906147,1.1481845378875732,-0.1606108546257019,-0.5152561664581299,-0.2233647406101226,-0.0975635051727294,0.0,0.0,0.1124036312103271,-0.1838060021400451
-0.0395390503108501,1.137195110321045,-0.1558836996555328,-0.4893241226673126,-0.2293374836444854,-0.1194552928209304,0.0,0.0,-0.6574176549911499,-0.5549865961074829
-0.0412097945809364,1.12597393989563,-0.1618644297122955,-0.4995414018630981,-0.2346174120903015,-0.1055984050035476,0.0,0.0,-0.0516601800918579,-0.4207645058631897
-0.0428832061588764,1.1144981384277344,-0.1614972054958343,-0.5109729170799255,-0.2405522167682647,-0.1186964958906173,0.0,0.0,-0.5266208052635193,-0.2002161145210266
-0.0445602424442768,1.1027683019638062,-0.161246046423912,-0.5224049687385559,-0.2471235394477844,-0.1314268261194229,0.0,0.0,-0.6107355952262878,-0.9099328517913818
-0.0463213920593261,1.090808391571045,-0.1710938513278961,-0.5324021577835083,-0.2522406876087188,-0.1023423820734024,0.0,0.0,0.0662240982055664,-0.9438231587409972
-0.0480910316109657,1.079405426979065,-0.1732574105262756,-0.5074353814125061,-0.2560226619243622,-0.0756397694349289,0.0,0.0,0.4107797145843506,-0.4124677181243896
-0.0498418807983398,1.0682153701782229,-0.1705734580755233,-0.4981264472007751,-0.2606289982795715,-0.0921267122030258,0.0,0.0,-0.3399087190628052,-0.5823583006858826
-0.0516430847346782,1.0567891597747805,-0.1762032210826873,-0.5085374116897583,-0.26463583111763,-0.0801364779472351,0.0,0.0,0.1150305271148681,-0.6613264083862305
-0.0533552169799804,1.045866847038269,-0.1681092381477356,-0.4860014319419861,-0.2678048610687256,-0.0633808150887489,0.0,0.0,-0.0267990231513977,-0.8043285012245178
-0.0551409721374511,1.034711837768555,-0.1766576915979385,-0.4961353540420532,-0.2697718441486358,-0.0393399000167846,0.0,0.0,-0.2798992395401001,-0.8603088855743408
-0.0569967254996299,1.0233333110809326,-0.1848000586032867,-0.5058562755584717,-0.2705646753311157,-0.0158563759177923,0.0,0.0,0.6718224287033081,-0.5178729891777039
-0.0587144866585731,1.0129706859588623,-0.171492800116539,-0.4606088697910309,-0.2708518505096435,-0.005743752233684,0.0,0.0,0.5433385372161865,0.0101628303527832
-0.0602662079036235,1.003162860870361,-0.1546229124069214,-0.4360074996948242,-0.2714174389839172,-0.0113120451569557,0.0,0.0,-0.3314576745033264,0.3549530506134033
-0.0618299469351768,0.9930993914604188,-0.1554697304964065,-0.4474322497844696,-0.2723491489887237,-0.0186340995132923,0.0,0.0,-0.0143070220947265,-0.0907239913940429
-0.0634063705801963,0.9827802777290344,-0.1564103066921234,-0.4588562548160553,-0.2736109495162964,-0.0252358857542276,0.0,0.0,-0.0257135033607482,-0.1129184365272522
-0.0649959594011306,0.9722053408622742,-0.157440572977066,-0.4702795147895813,-0.2751653790473938,-0.0310887061059474,0.0,0.0,0.3701432943344116,-0.5244129300117493
-0.0664341896772384,0.9619869589805604,-0.1432968080043792,-0.4542547762393951,-0.2757059335708618,-0.0108111556619405,0.0,0.0,0.0010321140289306,-0.7031043767929077
-0.0679201111197471,0.9517961144447328,-0.1492193937301635,-0.4528075456619262,-0.2750605046749115,0.0129083842039108,0.0,0.0,-0.0380871891975402,-0.0434203743934631
-0.0694204345345497,0.9413489699363708,-0.1504932940006256,-0.4642280042171478,-0.2745881378650665,0.0094472263008356,0.0,0.0,0.3568159341812134,-0.5993496775627136
-0.0708291977643966,0.9311692714691162,-0.1425003558397293,-0.4521335363388061,-0.2729265987873077,0.033231645822525,0.0,0.0,-0.5379555225372314,0.0758897066116333
-0.0722530335187912,0.9207329750061036,-0.1439156681299209,-0.4635522663593292,-0.2713541090488434,0.031449906527996,0.0,0.0,-0.4938236474990845,-0.5797015428543091
-0.0737448707222938,0.91006737947464,-0.1520749032497406,-0.4734950363636017,-0.268389880657196,0.0592847950756549,0.0,0.0,-0.7654876112937927,-0.3537847399711609
-0.0752520561218261,0.8991450071334839,-0.1536155492067337,-0.4849123358726501,-0.2654293477535248,0.0592107847332954,0.0,0.0,-0.9022409319877625,-0.2196884155273437
-0.0767748802900314,0.8879656791687012,-0.1552130281925201,-0.4963286817073822,-0.2624298632144928,0.0599897503852844,0.0,0.0,-0.294130802154541,-0.4120136499404907
-0.0783132538199424,0.876529335975647,-0.156863659620285,-0.5077441334724426,-0.2593491375446319,0.0616148635745048,0.0,0.0,-0.9689030051231384,-0.3623812198638916
-0.0798675566911697,0.8648359179496765,-0.1585640013217926,-0.5191587209701538,-0.2561453878879547,0.0640748888254165,0.0,0.0,-0.9275042414665222,-0.393786072731018
-0.0814376845955848,0.8528849482536316,-0.160310685634613,-0.5305725336074829,-0.252777636051178,0.0673543438315391,0.0,0.0,-0.8996590375900269,-0.4551126956939697
-0.0830236449837684,0.8406768441200256,-0.1621005982160568,-0.5419856309890747,-0.2492059469223022,0.0714339762926101,0.0,0.0,-0.9853885769844056,-0.515352725982666
-0.0846714973449707,0.8282265067100525,-0.169716402888298,-0.5525218844413757,-0.2441868931055069,0.100381352007389,0.0,0.0,-0.962055802345276,-0.2420093417167663
-0.0863351821899414,0.8155187368392944,-0.1715842485427856,-0.563934862613678,-0.2388873845338821,0.1059903129935264,0.0,0.0,-0.6379992365837097,-0.565790593624115
-0.0880477875471115,0.8025680184364319,-0.1776597648859024,-0.5745646953582764,-0.2323892563581466,0.1299625039100647,0.0,0.0,-0.9190210700035096,0.0523115396499633
-0.0897761359810829,0.789359986782074,-0.179594948887825,-0.5859777927398682,-0.2255398035049438,0.1369887292385101,0.0,0.0,-0.5791042447090149,-0.336848497390747
-0.0915203094482421,0.7758945822715759,-0.1815600544214248,-0.5973909497261047,-0.2183059453964233,0.1446770578622818,0.0,0.0,-0.8907274007797241,-0.104576826095581
-0.0932801216840744,0.7621716856956482,-0.183552861213684,-0.6088041663169861,-0.2106561958789825,0.1529949009418487,0.0,0.0,-0.3750641345977783,0.6264774799346924
-0.0950147658586502,0.7481817007064819,-0.1804543882608413,-0.6207992434501648,-0.2036087065935135,0.1409494131803512,0.0,0.0,-0.7194209694862366,-0.1036214828491211
-0.0967650413513183,0.733934223651886,-0.1824961751699447,-0.6322117447853088,-0.19608736038208,0.1504268944263458,0.0,0.0,-0.253365695476532,0.4690254926681518
-0.0985308662056922,0.7194295525550842,-0.1845598667860031,-0.6436246633529663,-0.1880656629800796,0.1604343652725219,0.0,0.0,-0.4891395568847656,0.6559683084487915
-0.1002612113952636,0.7046477794647217,-0.1802205443382263,-0.6560728549957275,-0.1808555424213409,0.1442024707794189,0.0,0.0,-0.7620522975921631,0.3522586822509765
-0.1020071059465408,0.6896086931228638,-0.1823225915431976,-0.6674853563308716,-0.1730968803167343,0.1551733314990997,0.0,0.0,-0.1316932439804077,0.3417383432388305
-0.1037684455513954,0.6743120551109314,-0.1844418197870254,-0.6788986921310425,-0.1647679358720779,0.1665790379047393,0.0,0.0,0.1346052885055542,0.7704436779022217
-0.1053893119096756,0.6590154767036438,-0.1695047914981842,-0.6790468692779541,-0.1573463231325149,0.1484319120645523,0.0,0.0,0.036065936088562,0.7069913148880005
-0.1068661659955978,0.6442448496818542,-0.1543364822864532,-0.65578693151474,-0.1507108807563781,0.1327091008424759,0.0,0.0,-0.4724763631820678,0.6111941337585449
-0.1083184257149696,0.6292049288749695,-0.1514615416526794,-0.6678289175033569,-0.1444815099239349,0.1245869845151901,0.0,0.0,0.2392706871032714,0.3014562129974365
-0.1097807884216308,0.6146760582923889,-0.1528176069259643,-0.6451030373573303,-0.1379275918006897,0.1310787498950958,0.0,0.0,0.1126554012298584,0.5077512264251709
-0.1111383438110351,0.6005003452301025,-0.1420238763093948,-0.6294636130332947,-0.131685733795166,0.1248373240232467,0.0,0.0,-0.7743026614189148,0.6538605690002441
-0.1124701499938964,0.5860663056373596,-0.1390945017337799,-0.6410003900527954,-0.1257951408624649,0.1178114861249923,0.0,0.0,-0.2942801713943481,0.5720515251159668
-0.1137666702270507,0.5713651776313782,-0.134974330663681,-0.6529456377029419,-0.1205013841390609,0.1058755069971084,0.0,0.0,-0.3742837905883789,0.7628846168518066
-0.1150221824645996,0.5563901662826538,-0.1301334798336029,-0.6651935577392578,-0.1159510388970375,0.0910069048404693,0.0,0.0,0.0982894897460937,0.6464059352874756
-0.1161669716238975,0.5414549112319946,-0.1185281500220298,-0.6634806990623474,-0.1119223982095718,0.0805728584527969,0.0,0.0,0.4286738634109497,0.693385124206543
-0.1172698959708213,0.526688277721405,-0.1136302128434181,-0.6560437679290771,-0.1086160093545913,0.0661278516054153,0.0,0.0,0.2208045721054077,0.8937993049621582
-0.1182605773210525,0.5125356912612915,-0.1013326644897461,-0.6288438439369202,-0.1063662245869636,0.0449958592653274,0.0,0.0,-0.2204185724258422,0.4913347959518432
-0.1192661300301551,0.4981251955032348,-0.1035690754652023,-0.6402542591094971,-0.1033809706568718,0.0597052983939647,0.0,0.0,0.2671308517456054,0.4877607822418213
-0.1203075423836708,0.4844056069850921,-0.1074986234307289,-0.60953289270401,-0.1000504568219184,0.0666102841496467,0.0,0.0,-0.8598338961601257,0.9736042022705078
-0.121304415166378,0.4704091250896454,-0.1022570133209228,-0.6218938231468201,-0.0974972248077392,0.0510649867355823,0.0,0.0,0.3900638818740845,0.8524594306945801
-0.1221453696489334,0.4571399092674255,-0.0857703238725662,-0.5896345973014832,-0.0958404690027237,0.0331349745392799,0.0,0.0,-0.2164185047149658,0.4026638269424438
-0.1230011954903602,0.4436129927635193,-0.0880213528871536,-0.6010451912879944,-0.0934205949306488,0.0483974628150463,0.0,0.0,0.1358224153518676,0.5681084394454956
-0.1238249763846397,0.4305261075496673,-0.0843821540474891,-0.581515371799469,-0.0914347916841507,0.0397160351276397,0.0,0.0,-0.0550299286842346,0.6652884483337402
-0.1246119514107704,0.4171777963638305,-0.0801682621240615,-0.5931702256202698,-0.0899737179279327,0.0292215980589389,0.0,0.0,0.1881334781646728,0.8614134788513184
-0.1252357512712478,0.4041778743267059,-0.0629566088318824,-0.5777380466461182,-0.0894093066453933,0.0112881865352392,0.0,0.0,-0.0002211332321166,0.6717321872711182
-0.1258196830749511,0.3909062147140503,-0.0583472549915313,-0.58985435962677,-0.089455708861351,-0.0009277611970901,0.0,0.0,0.5678942203521729,0.3428560495376587
-0.1262964308261871,0.3779358565807342,-0.0488317385315895,-0.5763923525810242,-0.0883083269000053,0.0229475051164627,0.0,0.0,-0.4135891199111938,0.3806624412536621
-0.1267877519130706,0.3647077083587646,-0.0510884746909141,-0.587803065776825,-0.086370937526226,0.0387478768825531,0.0,0.0,0.3658626079559326,0.6273820400238037
-0.1270899772644043,0.3516814708709717,-0.0319708250463008,-0.578844428062439,-0.0846481099724769,0.0344565734267234,0.0,0.0,0.8509690761566162,0.2763078212738037
-0.1273420304059982,0.3396562933921814,-0.0277097634971141,-0.5343105792999268,-0.0821584314107894,0.0497936382889747,0.0,0.0,0.2830777168273926,0.94832444190979
-0.1274571418762207,0.3282486796379089,-0.0129368063062429,-0.5069293975830078,-0.0807429328560829,0.028309766203165,0.0,0.0,-0.5863540768623352,0.62666916847229
-0.1275268495082855,0.3165783584117889,-0.0076894438825547,-0.5186402201652527,-0.0800321698188781,0.0142152179032564,0.0,0.0,0.4860594272613525,0.8820083141326904
-0.1274162232875824,0.3050595819950104,0.011173341423273,-0.5119560956954956,-0.0801523849368095,-0.0024041507858783,0.0,0.0,0.7229526042938232,0.5937553644180298
-0.1272894889116287,0.2940767705440521,0.0133316069841384,-0.4881602525711059,-0.0808009728789329,-0.0129717271775007,0.0,0.0,0.2329308986663818,-0.3975082635879516
-0.1270620375871658,0.283791184425354,0.0222903359681367,-0.4571110606193542,-0.0803506150841713,0.009007285349071,0.0,0.0,-0.1061753034591674,0.382967472076416
-0.1268487870693206,0.2732479572296142,0.0200538747012615,-0.468522161245346,-0.0790920853614807,0.0251705646514892,0.0,0.0,0.4706740379333496,0.4731708765029907
-0.1267041265964508,0.2635189592838287,0.0128945168107748,-0.4323161840438843,-0.0775364488363266,0.0311126597225666,0.0,0.0,-0.5482930541038513,0.9733749628067015
-0.1264854371547699,0.2535269260406494,0.0217233039438724,-0.4440813362598419,-0.0773879289627075,0.0029703786130994,0.0,0.0,-0.2252994775772094,-0.287216305732727
-0.1262806951999664,0.243277221918106,0.01950329169631,-0.4554925858974457,-0.0764280781149864,0.019197043031454,0.0,0.0,-0.1234930753707885,0.7943837642669678
-0.12603560090065,0.2327692657709121,0.0241037737578153,-0.4669976532459259,-0.0760194286704063,0.008172657340765,0.0,0.0,0.774592399597168,-0.1198042035102844
-0.1257902085781097,0.2228066772222519,0.0234226137399673,-0.4427242875099182,-0.0749217867851257,0.0219527520239353,0.0,0.0,0.2431424856185913,0.7262630462646484
-0.1255661994218826,0.2132687419652938,0.0220720171928405,-0.4238926470279693,-0.0745832324028015,0.0067709339782595,0.0,0.0,-0.5207781195640564,0.4868313074111938
-0.1253557205200195,0.2034731060266494,0.0198828466236591,-0.4353040754795074,-0.073431596159935,0.0230327751487493,0.0,0.0,-0.0114216208457946,0.4842458963394165
-0.1251587867736816,0.1934198290109634,0.0177031550556421,-0.4467157125473022,-0.0714668408036232,0.0392952486872673,0.0,0.0,0.565025806427002,0.974982976913452
-0.1248080283403396,0.1836080104112625,0.0341559387743473,-0.4360349774360657,-0.0705616548657417,0.0181037858128547,0.0,0.0,0.8264907598495483,0.9263296127319336
-0.1241601929068565,0.1747812628746032,0.0646131113171577,-0.3922935128211975,-0.070388875901699,0.003455564379692,0.0,0.0,0.2584266662597656,-0.5646610856056213
-0.1235473603010177,0.1665927320718765,0.0591855868697166,-0.3638375997543335,-0.068316213786602,0.041453294456005,0.0,0.0,0.0460867881774902,-0.2396373748779297
-0.122820571064949,0.1589470654726028,0.0693384706974029,-0.3396560549736023,-0.0650139525532722,0.0660453736782074,0.0,0.0,-0.1603407263755798,-0.8319545388221741
-0.1221641525626182,0.1510499268770218,0.0600200816988945,-0.3507533073425293,-0.0594544820487499,0.1111895591020584,0.0,0.0,-0.1200850009918212,0.5508049726486206
-0.1214773207902908,0.1428972333669662,0.0633313804864883,-0.3621377348899841,-0.0541671477258205,0.1057465821504592,0.0,0.0,0.3761641979217529,0.7297589778900146
-0.1206535324454307,0.1354671567678451,0.0775935277342796,-0.3300593197345733,-0.0494345761835575,0.0946512892842292,0.0,0.0,-0.284259557723999,0.9386022090911864
-0.1197583228349685,0.1277690082788467,0.0860606580972671,-0.3420301973819732,-0.0460129268467426,0.0684330388903617,0.0,0.0,0.3331770896911621,-0.6008472442626953
-0.1190081611275672,0.1205731704831123,0.0697387903928756,-0.3196630477905273,-0.0408032983541488,0.1041924506425857,0.0,0.0,-0.3059343099594116,0.8156986236572266
-0.118219569325447,0.1131151318550109,0.0740667432546615,-0.3313475549221039,-0.0360664911568164,0.0947359204292297,0.0,0.0,-0.0385745167732238,0.9537384510040284
-0.1173703223466873,0.1053955182433128,0.0811778753995895,-0.3430074751377105,-0.0323566310107708,0.0741972774267196,0.0,0.0,0.6781573295593262,-0.6050803065299988
-0.1165346130728721,0.0982311591506004,0.0777055919170379,-0.3182983994483948,-0.0265727266669273,0.1156780496239662,0.0,0.0,0.653562068939209,0.5287864208221436
-0.1155195236206054,0.0913378074765205,0.0955278426408767,-0.3062789738178253,-0.0206662118434906,0.1181306466460228,0.0,0.0,0.5870416164398193,0.8380434513092041
-0.1143315285444259,0.0851712301373481,0.1135381907224655,-0.2740077078342438,-0.0154669657349586,0.1039849072694778,0.0,0.0,-0.5321164131164551,0.512832522392273
-0.1131122559309005,0.0787518844008445,0.1169306263327598,-0.285261332988739,-0.0105367200449109,0.0986047834157943,0.0,0.0,0.3017092943191528,0.8509030342102051
