x_pos,y_pos,x_vel,y_vel,angle,ang_vel,leg_1,leg_2,main_booster,lat_booster
-0.0016375541454181,1.4032156467437744,-0.1659128367900848,-0.3424184620380401,0.0019278111867606,0.038040392100811,0.0,0.0,0.1365374894413333,0.8651790282878096
-0.0032809257972985,1.3955976963043213,-0.164618581533432,-0.3385747671127319,0.0022080761846154,0.0056064552627503,0.0,0.0,0.0979105783989768,-0.6290803968051448
-0.0049889562651515,1.3879687786102295,-0.1725952625274658,-0.3390697240829468,0.0039775548502802,0.0353929065167903,0.0,0.0,-0.888114374482073,-0.7247387953958568
-0.0068796155974268,1.3799283504486084,-0.1926777213811874,-0.3573703467845917,0.0075635840184986,0.0717270895838737,0.0,0.0,-0.8528618878028802,-0.6003421749341025
-0.00892133731395,1.3714808225631714,-0.2088505029678344,-0.3754773437976837,0.0121919689700007,0.0925760716199874,0.0,0.0,0.1776704723747957,0.8455776777416228
-0.0109020229429006,1.3632073402404783,-0.2012633383274078,-0.3677349090576172,0.0153505066409707,0.0631763637065887,0.0,0.0,0.1802977550215481,-0.9061442515840072
-0.0130925178527832,1.3551421165466309,-0.2241748571395874,-0.3585186898708343,0.0204183999449014,0.1013673320412635,0.0,0.0,-0.9214465985015516,0.9322740280599984
-0.0153046604245901,1.3466737270355225,-0.2241334617137909,-0.3764143884181976,0.0233145523816347,0.0579284019768238,0.0,0.0,0.7631546006157499,0.6861804053829781
-0.017609978094697,1.3391448259353638,-0.2322053015232086,-0.3346442282199859,0.0249592196196317,0.0328966416418552,0.0,0.0,0.0676945391083141,0.9342388425388362
-0.0199662204831838,1.3319194316864014,-0.2355671226978302,-0.321126252412796,0.0249022338539361,-0.0011398630449548,0.0,0.0,0.6723185450242231,-0.6778302654525235
-0.022407341748476,1.3251895904541016,-0.245799258351326,-0.2991280555725097,0.0265693664550781,0.0333456248044967,0.0,0.0,-0.1873616954028139,-0.7989674963669017
-0.0250149723142385,1.3180474042892456,-0.2640210390090942,-0.3174978494644165,0.0298003870993852,0.0646260529756546,0.0,0.0,-0.9340459521425412,-0.8722812041934689
-0.0277867317199707,1.3104987144470217,-0.2819917201995849,-0.3355998992919922,0.034561812877655,0.09523706138134,0.0,0.0,0.0873696849067926,0.9204272141869734
-0.0305498130619525,1.3028899431228638,-0.2794519066810608,-0.3382439613342285,0.0376870296895504,0.0625097006559372,0.0,0.0,-0.7694638166920929,0.9966728960950832
-0.0333247184753418,1.2948883771896362,-0.2783835530281067,-0.355652391910553,0.0385636314749717,0.0175335612148046,0.0,0.0,0.0217891022807696,0.9680715663175896
-0.0360564216971397,1.286751389503479,-0.2722817361354828,-0.3616204261779785,0.0376916415989398,-0.0174411721527576,0.0,0.0,0.0969727504377608,0.7042283985159229
-0.0387569442391395,1.2790744304656982,-0.2680758237838745,-0.3411533236503601,0.03574039041996,-0.0390288308262825,0.0,0.0,-0.8508038623643193,-0.9053317875878808
-0.0416177734732627,1.2709778547286987,-0.2857213318347931,-0.3598330318927765,0.0353811793029308,-0.0071848668158054,0.0,0.0,-0.7974869569698286,-0.7178767755249205
-0.0446314811706543,1.2624770402908323,-0.3024353384971618,-0.3778383135795593,0.036442544311285,0.0212289914488792,0.0,0.0,0.2912835955321216,-0.8639498538478756
-0.0479056350886821,1.2542226314544678,-0.3303927481174469,-0.3669365048408508,0.0393892712891101,0.058940052986145,0.0,0.0,-0.0543621368690108,-0.967984989531978
-0.0513433441519737,1.245563268661499,-0.3485164046287536,-0.3849962651729584,0.0440929494798183,0.0940816700458526,0.0,0.0,0.3452960611220288,-0.6198194809931341
-0.0549370758235454,1.2370295524597168,-0.3656505346298218,-0.3794750869274139,0.0502989627420902,0.12413140386343,0.0,0.0,0.2980733095259817,-0.8401658905997731
-0.058603286743164,1.2287312746047974,-0.3749535083770752,-0.3691132366657257,0.0585470870137214,0.1649772822856903,0.0,0.0,0.8746170110119049,0.795912876086218
-0.0622401237487793,1.2205597162246704,-0.3708693385124206,-0.3634728789329529,0.0656615272164344,0.1423017680644989,0.0,0.0,-0.7313233303464781,-0.6811218429845791
-0.0660417526960372,1.2119756937026978,-0.3893052339553833,-0.3819313049316406,0.074723832309246,0.1812623590230941,0.0,0.0,0.8992688369150394,0.8102928596827211
-0.0701182335615158,1.2041645050048828,-0.4150679111480713,-0.3475493788719177,0.0820656865835189,0.1468372642993927,0.0,0.0,-0.0092161635265419,-0.7468406130710439
-0.0743487328290939,1.1959433555603027,-0.4322366714477539,-0.3659182488918304,0.0911707133054733,0.1821003258228302,0.0,0.0,0.3727145004345209,-0.7272343790317262
-0.0789135918021202,1.1883225440979004,-0.4672348499298095,-0.3393965065479278,0.10182686150074,0.213123083114624,0.0,0.0,-0.9111252152520528,-0.8697556196821526
-0.0836544036865234,1.1802895069122314,-0.487238734960556,-0.3579692542552948,0.114888310432434,0.2612289786338806,0.0,0.0,-0.740556249436489,0.8525931955615192
-0.0884209647774696,1.1718584299087524,-0.4884397387504577,-0.3756698668003082,0.1266124099493026,0.234481930732727,0.0,0.0,0.6188556932738969,0.9012314020131128
-0.0932909026741981,1.1642825603485107,-0.4972888529300689,-0.3376156985759735,0.1368695646524429,0.2051430642604828,0.0,0.0,-0.1483790119730486,0.8560155350154801
-0.0981889739632606,1.1563068628311155,-0.4989190995693207,-0.3553407788276672,0.1459531038999557,0.1816709339618683,0.0,0.0,0.8348451308477918,0.9286603546946544
-0.1033306121826171,1.149247646331787,-0.5215542912483215,-0.3144890367984772,0.1533236652612686,0.1474116295576095,0.0,0.0,0.4661711412610516,0.9496890944212916
-0.1085931807756424,1.1422491073608398,-0.5319992303848267,-0.3116450607776642,0.1590610593557357,0.1147480010986328,0.0,0.0,0.5978063618057945,0.8735132215970438
-0.1139478683471679,1.1357637643814087,-0.539808988571167,-0.2887096703052521,0.1634013652801513,0.0868062153458595,0.0,0.0,-0.2713730185157763,0.872165636148037
-0.1193126663565635,1.128894329071045,-0.5393426418304443,-0.3056274950504303,0.1662695705890655,0.0573639683425426,0.0,0.0,-0.0960304563006246,-0.8809836266006194
-0.1248258575797081,1.1215945482254028,-0.5563657283782959,-0.3250042200088501,0.1713164746761322,0.1009376868605613,0.0,0.0,-0.4085572888688402,-0.9957746552164878
-0.1304880082607269,1.1138761043548584,-0.5734427571296692,-0.3438945114612579,0.1785657554864883,0.144985631108284,0.0,0.0,0.8254785879292563,0.8842817505169089
-0.1363683640956878,1.107140064239502,-0.5937425494194031,-0.300078421831131,0.1842911690473556,0.1145085841417312,0.0,0.0,0.0163938867834798,-0.6962151455593268
-0.1424227654933929,1.100539207458496,-0.6128896474838257,-0.2943077683448791,0.1917711645364761,0.149599939584732,0.0,0.0,-0.9465966143902542,-0.9504913854929288
-0.1486338675022125,1.093514323234558,-0.6311150789260864,-0.3135467171669006,0.2018382102251052,0.2013408243656158,0.0,0.0,0.1520426273345947,0.9975409507751464
-0.1548070907592773,1.0866714715957642,-0.6256576776504517,-0.3052914440631866,0.2102372497320175,0.1679807603359222,0.0,0.0,-0.0492647290229797,0.990614414215088
-0.1609541922807693,1.0794391632080078,-0.6210916042327881,-0.3223559558391571,0.2166800200939178,0.1288559883832931,0.0,0.0,0.1450123786926269,0.9989584684371948
-0.1670846939086914,1.0723860263824463,-0.6177730560302734,-0.3141707479953766,0.2214515060186386,0.0954296886920929,0.0,0.0,0.2275805473327636,0.991584062576294
-0.1732792854309082,1.0652482509613037,-0.6225491762161255,-0.3177002668380737,0.2245825231075287,0.062620460987091,0.0,0.0,0.0416839122772216,0.9880533218383788
-0.1794661581516266,1.0580390691757202,-0.6201582551002502,-0.3206392228603363,0.2260661572217941,0.0296726040542125,0.0,0.0,0.2502384185791015,0.9978761672973632
-0.1856532096862793,1.0509557723999023,-0.6185448169708252,-0.3147883117198944,0.2259069085121154,-0.0031854175031185,0.0,0.0,-0.2841584682464599,0.9798859357833862
-0.1918328255414962,1.043496012687683,-0.6165576577186584,-0.3313228785991668,0.2244871854782104,-0.0283941719681024,0.0,0.0,-0.1815958619117736,0.9907877445220948
-0.1980041563510894,1.0356576442718506,-0.6145339012145996,-0.3479779362678528,0.2218579649925232,-0.0525842532515525,0.0,0.0,-0.2087447643280029,0.9888116121292114
-0.204148918390274,1.02743399143219,-0.610331118106842,-0.3648847043514251,0.2176627367734909,-0.0839045718312263,0.0,0.0,-0.0056025981903076,0.9569305181503296
-0.2102472335100174,1.0188329219818115,-0.6036734580993652,-0.3813754916191101,0.2114349752664566,-0.1245553344488143,0.0,0.0,0.05502450466156,0.9399614334106444
-0.2164581269025802,1.0105303525924685,-0.6133943200111389,-0.367922842502594,0.2036736905574798,-0.1552255451679229,0.0,0.0,0.3091461658477783,0.9216259717941284
-0.2226106226444244,1.0023858547210691,-0.6061180830001831,-0.3607516884803772,0.1944779902696609,-0.1839141547679901,0.0,0.0,0.1036109924316406,0.9609105587005616
-0.2288279980421066,0.9946505427360536,-0.6110159158706665,-0.342427521944046,0.1836943328380584,-0.2156730890274047,0.0,0.0,-0.133546769618988,0.9547202587127686
-0.2349879294633865,0.9865311980247498,-0.6032027006149292,-0.3593253493309021,0.1708700805902481,-0.2564851641654968,0.0,0.0,0.0395504236221313,0.9927022457122804
-0.241225004196167,0.978441834449768,-0.6092852354049683,-0.3579349815845489,0.1564406752586364,-0.288588136434555,0.0,0.0,-0.1727120876312255,0.9636845588684082
-0.2474067211151123,0.9699769020080566,-0.6018277406692505,-0.3745842278003692,0.1401176303625106,-0.3264609277248382,0.0,0.0,0.2054520845413208,0.9920717477798462
-0.2534909248352051,0.961883783340454,-0.590387225151062,-0.3580928444862366,0.1221589148044586,-0.3591744303703308,0.0,0.0,-0.0565056800842285,0.9825773239135742
-0.2595155835151672,0.9534133076667786,-0.5824974775314331,-0.3749515414237976,0.1023253574967384,-0.3966713547706604,0.0,0.0,0.0058807134628295,0.9671058654785156
-0.2655933499336242,0.9452657103538512,-0.586179792881012,-0.3607819676399231,0.0809204205870628,-0.4280990958213806,0.0,0.0,-0.1666103601455688,0.98941969871521
-0.2716076970100403,0.9367181062698364,-0.5779755711555481,-0.3787946105003357,0.0577062405645847,-0.4642837643623352,0.0,0.0,-0.2864599823951721,0.975684404373169
-0.2775775790214538,0.9277798533439636,-0.5721837282180786,-0.3964720070362091,0.0331946685910224,-0.4902316927909851,0.0,0.0,-0.5922518372535706,0.955420970916748
-0.2834737300872803,0.918444037437439,-0.562792181968689,-0.4145436286926269,0.0067105046473443,-0.5296835899353027,0.0,0.0,-0.7135298252105713,0.9385056495666504
-0.2893079817295074,0.9087116718292236,-0.5549452900886536,-0.4326633810997009,-0.0214008316397666,-0.5622273683547974,0.0,0.0,-0.799976110458374,0.9496018886566162
-0.2950793206691742,0.8985720872879028,-0.5470445156097412,-0.4513437151908874,-0.0511191934347152,-0.5943678021430969,0.0,0.0,-0.8655970692634583,0.8728358745574951
-0.3008068203926086,0.8880321979522705,-0.5416148900985718,-0.4697951674461365,-0.0819166749715805,-0.6159499287605286,0.0,0.0,-0.6984511017799377,0.9689122438430786
-0.3064634203910827,0.8770977854728699,-0.5328881144523621,-0.4880816340446472,-0.1144156008958816,-0.6499791145324707,0.0,0.0,-0.4971729516983032,0.944583296775818
-0.3120432794094085,0.8657435774803162,-0.5234755277633667,-0.5076426267623901,-0.1487734019756317,-0.6871569156646729,0.0,0.0,-0.5113160610198975,0.7627453804016113
-0.3175646364688873,0.8539907336235046,-0.5164865255355835,-0.5262974500656128,-0.1844401955604553,-0.7133363485336304,0.0,0.0,-0.2416144013404846,0.8803325891494751
-0.3230312466621399,0.8418258428573608,-0.5100487470626831,-0.5456344485282898,-0.2213268131017685,-0.7377329468727112,0.0,0.0,0.1646802425384521,-0.5493686199188232
-0.328505277633667,0.8300070762634277,-0.5123085379600525,-0.5309386253356934,-0.2569712102413177,-0.7128877639770508,0.0,0.0,-0.2191769480705261,0.2674095630645752
-0.3339783549308777,0.8177947998046875,-0.5127815008163452,-0.5492029190063477,-0.2923597991466522,-0.7077725529670715,0.0,0.0,-0.1581705212593078,-0.578898012638092
-0.3395006060600281,0.8052183389663696,-0.5196800827980042,-0.5658470988273621,-0.3260673880577087,-0.6741516590118408,0.0,0.0,-0.0058047175407409,0.5033910274505615
-0.3449768126010895,0.7922254204750061,-0.5145683884620667,-0.5852962732315063,-0.3606922626495361,-0.6924981474876404,0.0,0.0,0.3105908632278442,-0.9375599026679992
-0.3504377901554107,0.7793207764625549,-0.515468955039978,-0.5815890431404114,-0.3931895196437835,-0.649945855140686,0.0,0.0,0.7976738214492798,-0.8876627087593079
-0.3557483255863189,0.7664926648139954,-0.502840518951416,-0.5782386064529419,-0.4235146641731262,-0.6065031290054321,0.0,0.0,0.9423823356628418,-0.8958485126495361
-0.3609917759895324,0.7538712620735168,-0.4983165264129638,-0.5690399408340454,-0.4518612325191498,-0.566931426525116,0.0,0.0,0.8015693426132202,-0.9749383330345154
-0.3659252226352691,0.7420803904533386,-0.4696756303310394,-0.5319191813468933,-0.4779808223247528,-0.522391676902771,0.0,0.0,0.9183266162872314,-0.9153544306755066
-0.3703847527503967,0.7311354279518127,-0.4246319234371185,-0.4939956068992615,-0.5018109679222107,-0.4766027927398681,0.0,0.0,0.9382238388061525,-0.4234783053398132
-0.3744898736476898,0.7211436033248901,-0.3890883326530456,-0.452131062746048,-0.52608323097229,-0.4854449331760406,0.0,0.0,0.9005422592163086,-0.8016397356987
-0.378591924905777,0.7114046812057495,-0.3903869986534118,-0.4406938850879669,-0.5488370060920715,-0.4550772309303283,0.0,0.0,0.9453716278076172,-0.7204851508140564
-0.3822008073329925,0.702461838722229,-0.3428912758827209,-0.4049573242664337,-0.5697876811027527,-0.4190136790275574,0.0,0.0,0.9309349060058594,-0.9017302989959716
-0.3856062293052673,0.6941255331039429,-0.3243257403373718,-0.3775666058063507,-0.5889039039611816,-0.382324069738388,0.0,0.0,0.9504221677780152,-0.9515810608863832
-0.3886771202087402,0.6865056157112122,-0.2927891910076141,-0.3451366722583771,-0.605968177318573,-0.3412849307060241,0.0,0.0,0.9659528732299804,-0.8183096051216125
-0.3913280963897705,0.6795758008956909,-0.2524782121181488,-0.3139022290706634,-0.6211926937103271,-0.3044902980327606,0.0,0.0,0.95543110370636,-0.8439993858337402
-0.3935306072235107,0.6730376482009888,-0.2095050513744354,-0.2957744002342224,-0.6342947483062744,-0.2620394825935364,0.0,0.0,0.6799204349517822,-0.7981914281845093
-0.3955495953559875,0.6665375232696533,-0.1927320212125778,-0.2934336364269256,-0.6455671191215515,-0.2254473865032196,0.0,0.0,0.9497439861297609,-0.8339855074882507
-0.3972326219081878,0.6601444482803345,-0.1608960181474685,-0.287889301776886,-0.6547574996948242,-0.1838078945875167,0.0,0.0,0.932375192642212,-0.9499947428703308
-0.3984083533287048,0.6540312767028809,-0.1121218204498291,-0.2745083272457123,-0.6615526080131531,-0.1359016895294189,0.0,0.0,0.7826945781707764,-0.9456393718719482
-0.399243414402008,0.6479207277297974,-0.0799064859747886,-0.2734560072422027,-0.6660599708557129,-0.0901470780372619,0.0,0.0,0.5830327272415161,-0.9889806509017944
-0.3996880650520324,0.6423325538635254,-0.0426043309271335,-0.2493331283330917,-0.6683960556983948,-0.0467214547097682,0.0,0.0,0.3321220874786377,-0.8575392961502075
-0.3997735977172851,0.6370963454246521,-0.0081976195797324,-0.2329099625349044,-0.6688427925109863,-0.0089351721107959,0.0,0.0,-0.3507513999938965,-0.9488609433174132
-0.3998966813087463,0.6315085887908936,-0.0132396565750241,-0.247856393456459,-0.6676716804504395,0.0234224423766136,0.0,0.0,0.3172637224197387,-0.9237478375434875
-0.3998402655124664,0.6257922649383545,0.0031304124277085,-0.252744048833847,-0.664516806602478,0.0630974248051643,0.0,0.0,-0.2993814945220947,-0.915563941001892
-0.3998401165008545,0.6197370886802673,-0.004181436728686,-0.2669325470924377,-0.6592614650726318,0.1051070839166641,0.0,0.0,-0.5167243480682373,-0.878552258014679
-0.3998768925666809,0.6133363842964172,-0.00915870629251,-0.2816661298274994,-0.6524291634559631,0.136645957827568,0.0,0.0,0.0103987455368042,-0.9229175448417664
-0.399768590927124,0.6070235371589661,0.0037677220534533,-0.2770021259784698,-0.6436816453933716,0.1749500185251236,0.0,0.0,0.2157931327819824,-0.7571340799331665
-0.3994324803352356,0.6011577248573303,0.0253157969564199,-0.2565864324569702,-0.6334848403930664,0.2039358615875244,0.0,0.0,-0.7229160070419312,-0.8772936463356018
-0.399138867855072,0.5949409604072571,0.0197796374559402,-0.2716603875160217,-0.6217971444129944,0.2337542027235031,0.0,0.0,-0.4919682145118713,-0.8726155757904053
-0.3989009857177734,0.5883879661560059,0.0125566842034459,-0.2859430313110351,-0.6082053780555725,0.2718357741832733,0.0,0.0,-0.5071948766708374,-0.7972018122673035
-0.3987176418304443,0.581494927406311,0.0054889693856239,-0.3004845082759857,-0.5928292274475098,0.3075227439403534,0.0,0.0,-0.2867027521133423,-0.4042893648147583
-0.3985344767570495,0.5741972327232361,0.0055032838135957,-0.3186765611171722,-0.5776553750038147,0.3034766316413879,0.0,0.0,0.3267215490341186,-0.1967973709106445
-0.3981677591800689,0.5671784281730652,0.0243016704916954,-0.3066464364528656,-0.5631349682807922,0.2904083728790283,0.0,0.0,-0.4701011180877685,-0.7334920167922974
-0.3978647589683532,0.559810996055603,0.0163223296403884,-0.3216544091701507,-0.5468942523002625,0.3248133063316345,0.0,0.0,0.0968151092529296,0.0054355859756469
-0.3972578048706054,0.5525960326194763,0.0465245023369789,-0.3150089085102081,-0.5305833220481873,0.3262181580066681,0.0,0.0,-0.3396860361099243,-0.2503048777580261
-0.3966564536094665,0.5449770092964172,0.0460630133748054,-0.3332057893276214,-0.5145440697669983,0.320784717798233,0.0,0.0,0.1086653470993042,-0.6143518090248108
-0.3957555294036865,0.5375819802284241,0.0748599767684936,-0.3230290114879608,-0.4973486363887787,0.3439087569713592,0.0,0.0,-0.3281261920928955,-0.3553978204727173
-0.3948632776737213,0.5297836661338806,0.0741245374083519,-0.3412290513515472,-0.4804572463035583,0.3378277420997619,0.0,0.0,0.0892719030380249,0.1526892185211181
-0.3936375081539154,0.5222660303115845,0.1072377786040306,-0.328885555267334,-0.4634504318237304,0.3401365578174591,0.0,0.0,-0.0629524588584899,-0.1849451065063476
-0.3924237191677093,0.5143449902534485,0.1062101498246193,-0.3470858633518219,-0.4467780292034149,0.3334478735923767,0.0,0.0,0.1149443387985229,0.246838092803955
-0.3909900784492492,0.506769061088562,0.1284199059009552,-0.3320249617099762,-0.4304770827293396,0.3260195851325989,0.0,0.0,0.1647655963897705,-0.2507774829864502
-0.3893013894557953,0.4995195865631103,0.153959721326828,-0.3177196085453033,-0.4143411219120025,0.3227197527885437,0.0,0.0,0.5154283046722412,-0.4039136171340942
-0.3873931765556335,0.4923993647098541,0.1758418828248977,-0.3121455907821655,-0.398239403963089,0.3220344185829162,0.0,0.0,0.2540838718414306,-0.3415426015853882
-0.3854077756404876,0.4855784773826599,0.1842244565486908,-0.2992163002490997,-0.3829557597637176,0.3056726157665252,0.0,0.0,0.2680517435073852,-0.3260029554367065
-0.3833873867988586,0.4789584279060364,0.1884490996599197,-0.2906426787376404,-0.3685285449028015,0.2885442972183227,0.0,0.0,-0.3304961919784546,-0.4796010255813598
-0.3813901543617248,0.4719341099262237,0.1864502131938934,-0.3088375627994537,-0.3545136451721191,0.2802982032299042,0.0,0.0,0.329776406288147,-0.5636494159698486
-0.3792892098426819,0.465119868516922,0.1960023939609527,-0.2994516491889953,-0.3397199511528015,0.2958738505840301,0.0,0.0,-0.1480727195739746,0.0738688707351684
-0.3772152364253998,0.4579014480113983,0.1936548948287964,-0.317647248506546,-0.3253599405288696,0.287199467420578,0.0,0.0,-0.1245324611663818,-0.5391339659690857
-0.3752031922340393,0.4502981305122375,0.1869277060031891,-0.3347837030887604,-0.3105180263519287,0.2968384921550751,0.0,0.0,0.1535408496856689,0.2418627738952636
-0.3730331063270569,0.4430870711803436,0.2030243426561355,-0.31756791472435,-0.2960481345653534,0.2893977165222168,0.0,0.0,0.06270432472229,-0.2634692192077636
