x_pos,y_pos,x_vel,y_vel,angle,ang_vel,leg_1,leg_2,main_booster,lat_booster
-0.001543617225252,1.4030046463012695,-0.1568617969751358,-0.3517974317073822,0.0022360482253134,0.0441432520747184,0.0,0.0,-0.3409103751182556,0.9083026647567748
-0.0030340193770825,1.3944883346557615,-0.1497299969196319,-0.3784989416599273,0.0029176448006182,0.0136339394375681,0.0,0.0,-0.0041349530220031,0.5874276161193848
-0.0044960021041333,1.385347843170166,-0.1459084898233413,-0.4062452018260956,0.0026340070180594,-0.0056731859222054,0.0,0.0,0.1405432224273681,0.8012435436248779
-0.0060223578475415,1.376102089881897,-0.1511156111955642,-0.4109196364879608,0.0011392181040719,-0.029898652806878,0.0,0.0,0.2521694898605346,0.970790147781372
-0.007394122891128,1.3669812679290771,-0.1342483460903167,-0.4053708016872406,-0.0017604117747396,-0.0579983107745647,0.0,0.0,-0.2630088329315185,0.1870445013046264
-0.0088048931211233,1.3572406768798828,-0.1386107504367828,-0.4329219162464142,-0.0042001819238066,-0.0487994588911533,0.0,0.0,-0.0032907128334045,0.8455147743225098
-0.0101941106840968,1.346879959106445,-0.1352880746126175,-0.4604884684085846,-0.0077901720069348,-0.0718066617846489,0.0,0.0,0.8373734951019287,0.2232998609542846
-0.0114572523161768,1.3369767665863037,-0.123952530324459,-0.4401523768901825,-0.0101248705759644,-0.0466980561614036,0.0,0.0,0.4028440713882446,0.4773178100585937
-0.0127724651247262,1.3275195360183716,-0.1295776665210724,-0.4203337132930755,-0.0120454188436269,-0.038414642214775,0.0,0.0,-0.6074064373970032,0.6444244384765625
-0.0140889165922999,1.3174455165863037,-0.1288913339376449,-0.4477571249008178,-0.0147754913195967,-0.0546064786612987,0.0,0.0,0.7090640068054199,0.1420803070068359
-0.0153620718047022,1.307672142982483,-0.1254563629627227,-0.4343908131122589,-0.0166163705289363,-0.0368207171559333,0.0,0.0,-0.2689594626426697,0.6578021049499512
-0.0166350360959768,1.2972760200500488,-0.1244361028075218,-0.4620859324932098,-0.0194482300430536,-0.0566425211727619,0.0,0.0,0.7029755115509033,0.843189001083374
-0.0177390091121196,1.287339448928833,-0.1066004857420921,-0.4416771233081817,-0.0232102889567613,-0.0752478167414665,0.0,0.0,0.4215915203094482,0.5519447326660156
-0.0187908168882131,1.2772324085235596,-0.1009012684226036,-0.4492763876914978,-0.0274450872093439,-0.0847036838531494,0.0,0.0,-0.2047961950302124,-0.1098256707191467
-0.0199076645076274,1.266505479812622,-0.1078756675124168,-0.4768234193325043,-0.0312125254422426,-0.0753554254770279,0.0,0.0,0.5546551942825317,0.172353982925415
-0.020979881286621,1.2555733919143677,-0.1043736562132835,-0.4859341084957123,-0.034028060734272,-0.056315828114748,0.0,0.0,0.3825962543487549,0.0253922939300537
-0.0219817161560058,1.2450885772705078,-0.0983559489250183,-0.4660353660583496,-0.0358363911509513,-0.0361696705222129,0.0,0.0,-0.92415589094162,0.0341536998748779
-0.0230547897517681,1.2339835166931152,-0.1059469580650329,-0.4935885369777679,-0.0371797122061252,-0.0268687196075916,0.0,0.0,-0.6670358777046204,0.6159006357192993
-0.0241442676633596,1.2222611904144287,-0.106619119644165,-0.5210478901863098,-0.0394783094525337,-0.0459762662649154,0.0,0.0,-0.115896999835968,0.46760094165802
-0.0253082271665334,1.209918975830078,-0.1145486831665039,-0.5485938787460327,-0.0413133464753627,-0.0367041006684303,0.0,0.0,0.7781548500061035,-0.283052921295166
-0.026377772912383,1.198161244392395,-0.1062154397368431,-0.522597074508667,-0.0420467741787433,-0.0146700162440538,0.0,0.0,-0.3630225658416748,-0.5009276270866394
-0.0275639537721872,1.1857824325561523,-0.1193199902772903,-0.5501419305801392,-0.0413454473018646,0.0140277566388249,0.0,0.0,0.4988175630569458,0.6339176893234253
-0.0286300666630268,1.1735122203826904,-0.1067923903465271,-0.545340359210968,-0.0411716997623443,0.0034752148203551,0.0,0.0,-0.5166012644767761,0.4556790590286255
-0.0297765731811523,1.1606217622756958,-0.1152765154838562,-0.572891891002655,-0.0405427180230617,0.0125805642455816,0.0,0.0,-0.573753833770752,0.3007652759552002
-0.0310043338686227,1.1471112966537476,-0.1238739714026451,-0.6004363298416138,-0.039461612701416,0.0216243397444486,0.0,0.0,-0.8076332211494446,0.3106191158294678
-0.0323150642216205,1.1329593658447266,-0.1326322257518768,-0.6289351582527161,-0.0379310138523578,0.0306122153997421,0.0,0.0,-0.4135618209838867,0.7415738105773926
-0.0336502082645893,1.118188738822937,-0.1340097934007644,-0.6564608216285706,-0.0374385938048362,0.0098482398316264,0.0,0.0,-0.4701379537582397,0.7707569599151611
-0.0350216850638389,1.1028034687042236,-0.1368831396102905,-0.6837986707687378,-0.0377039313316345,-0.0053065903484821,0.0,0.0,-0.91976135969162,0.2660560607910156
-0.0364784225821495,1.0867981910705566,-0.1458455175161361,-0.7113425135612488,-0.0375317931175231,0.0034427363425493,0.0,0.0,-0.3511832952499389,0.0651073455810546
-0.0380211845040321,1.0701727867126465,-0.1548820436000824,-0.738886296749115,-0.0369267612695694,0.0121003780514001,0.0,0.0,-0.6583607792854309,-0.1546611785888672
-0.0396505370736122,1.0529274940490725,-0.1639867573976516,-0.766430139541626,-0.0358937196433544,0.0206610150635242,0.0,0.0,0.6852116584777832,0.2990127801895141
-0.0414306633174419,1.0357366800308228,-0.1791072338819503,-0.7640116810798645,-0.0348049029707908,0.0217762663960456,0.0,0.0,0.4831899404525757,-0.0908517837524414
-0.0433477386832237,1.0190085172653198,-0.1928864121437072,-0.7434443235397339,-0.0336415953934192,0.0232660267502069,0.0,0.0,-0.0717344880104065,-0.1510329842567443
-0.0453534126281738,1.0016604661941528,-0.2021640539169311,-0.7709885239601135,-0.0320664979517459,0.0315021239221096,0.0,0.0,0.4724522829055786,0.7946627140045166
-0.0473512634634971,0.9845284819602966,-0.2002115696668625,-0.7614138722419739,-0.0316417440772056,0.0084949471056461,0.0,0.0,-0.1515236496925354,-0.3706039190292358
-0.0494386665523052,0.9667765498161316,-0.2095818817615509,-0.788957953453064,-0.030817374587059,0.0164874289184808,0.0,0.0,0.0829581022262573,-0.7426127195358276
-0.0516857132315635,0.9488521218299866,-0.2274099886417389,-0.7965924739837646,-0.028138481080532,0.0535777881741523,0.0,0.0,0.0329431295394897,0.8111124038696289
-0.0539176948368549,0.93102365732193,-0.2246782779693603,-0.7923480272293091,-0.0266778357326984,0.029212936758995,0.0,0.0,-0.5314553380012512,0.7850639820098877
-0.0561823844909668,0.9125816226005554,-0.2268610447645187,-0.8196346163749695,-0.0262964032590389,0.0076286597177386,0.0,0.0,-0.5134807229042053,0.7765674591064453
-0.0584741607308387,0.8935183882713318,-0.2283017933368683,-0.8472765684127808,-0.0271597746759653,-0.0172673221677541,0.0,0.0,0.9778295755386353,-0.2206778526306152
-0.0609601028263568,0.8752380013465881,-0.2474873811006546,-0.8124822378158569,-0.0282498858869075,-0.0218022521585226,0.0,0.0,-0.4520741701126098,0.5704712867736816
-0.063483715057373,0.8563342094421387,-0.2502333521842956,-0.8402124643325806,-0.0303503945469856,-0.0420102924108505,0.0,0.0,0.3188885450363159,0.7899706363677979
-0.0659420937299728,0.8371703624725342,-0.2425854504108429,-0.8517962098121643,-0.0335688926279544,-0.0643700584769249,0.0,0.0,0.5946333408355713,0.5772265195846558
-0.0683271437883377,0.8181430101394653,-0.2346827685832977,-0.8457517027854919,-0.037340935319662,-0.075440876185894,0.0,0.0,0.58001708984375,-0.1972421407699585
-0.0708333998918533,0.798920214176178,-0.2469625025987625,-0.8544420599937439,-0.0409603230655193,-0.0723876655101776,0.0,0.0,0.8465865850448608,0.6580973863601685
-0.073310375213623,0.7796240448951721,-0.2431792765855789,-0.8577329516410828,-0.0454283617436885,-0.0893608778715133,0.0,0.0,0.2019233703613281,0.5949710607528687
-0.0757699981331825,0.7601856589317322,-0.2406480610370636,-0.8640965223312378,-0.0506801307201385,-0.1050352081656456,0.0,0.0,0.9819996356964112,0.3811682462692261
-0.0784072875976562,0.7416365146636963,-0.2580883204936981,-0.8246110081672668,-0.056249301880598,-0.1113839149475097,0.0,0.0,-0.179995059967041,0.7347640991210938
-0.0810928344726562,0.7224704027175903,-0.2620716691017151,-0.8520827889442444,-0.0626600086688995,-0.1282142102718353,0.0,0.0,0.8421798944473267,0.8848342895507812
-0.0837931632995605,0.7035273909568787,-0.2620106339454651,-0.8422678709030151,-0.0705917328596115,-0.1586348116397857,0.0,0.0,0.7900094985961914,0.688559889793396
-0.0863217338919639,0.6848673820495605,-0.2441311329603195,-0.8297752737998962,-0.0792232751846313,-0.1726309210062027,0.0,0.0,0.8911763429641724,0.6906108856201172
-0.0888939872384071,0.6668558120727539,-0.2472247779369354,-0.8010739088058472,-0.0891329050064086,-0.1981927454471588,0.0,0.0,0.7411710023880005,0.5074969530105591
-0.0913571342825889,0.6489011645317078,-0.2359220534563064,-0.7986441850662231,-0.0994451642036438,-0.2062452584505081,0.0,0.0,0.890556812286377,0.5495395660400391
-0.0937768965959549,0.6316882967948914,-0.2307438552379608,-0.7658053040504456,-0.1105894744396209,-0.2228860557079315,0.0,0.0,0.605707049369812,-0.0200231671333313
-0.0960951820015907,0.6145391464233398,-0.2215244770050048,-0.7629760503768921,-0.1208226233720779,-0.2046631127595901,0.0,0.0,-0.2157465815544128,0.1210521459579467
-0.0985082611441612,0.5967714190483093,-0.2312577664852142,-0.7905275821685791,-0.1308240294456482,-0.2000281810760498,0.0,0.0,0.9243576526641846,-0.7211692929267883
-0.1008336991071701,0.5797596573829651,-0.2244653403759002,-0.7568102478981018,-0.138878121972084,-0.1610816419124603,0.0,0.0,0.8919514417648315,-0.0001615285873413
-0.102990910410881,0.5632429718971252,-0.2085875272750854,-0.7347550988197327,-0.1459884941577911,-0.142207533121109,0.0,0.0,0.8826272487640381,-0.7838867902755737
-0.1050755530595779,0.5475002527236938,-0.2033091336488723,-0.7001917362213135,-0.1511246711015701,-0.1027240604162216,0.0,0.0,0.4644147157669067,0.5462325811386108
-0.1071794480085372,0.5321820378303528,-0.2041811197996139,-0.6814526319503784,-0.1573313176631927,-0.1241325885057449,0.0,0.0,-0.9156433343887328,0.4093375205993652
-0.1093788146972656,0.5162442326545715,-0.213909700512886,-0.7089985609054565,-0.1633532643318176,-0.1204389780759811,0.0,0.0,0.7532145977020264,0.1366957426071167
-0.1116575226187706,0.5008142590522766,-0.2215339690446853,-0.6864827275276184,-0.1696920096874237,-0.1267748177051544,0.0,0.0,-0.5206189751625061,0.0250860452651977
-0.1140316948294639,0.4847647249698639,-0.2312530726194381,-0.7140289545059204,-0.1758642196655273,-0.1234443560242652,0.0,0.0,0.2407799959182739,0.7272433042526245
-0.1163443550467491,0.4687563180923462,-0.2238469868898391,-0.7123844623565674,-0.1833112835884094,-0.1489409357309341,0.0,0.0,-0.3172305822372436,-0.0070544481277465
-0.1187525764107704,0.4521284699440002,-0.2335521727800369,-0.7399319410324097,-0.1906093657016754,-0.1459620594978332,0.0,0.0,0.7628158330917358,-0.423342227935791
-0.1212663650512695,0.435847520828247,-0.2436603605747223,-0.7246096730232239,-0.1983781605958938,-0.1553758680820465,0.0,0.0,-0.1163828372955322,0.3864634037017822
-0.123875617980957,0.4189473390579223,-0.2533461451530456,-0.7521576285362244,-0.2060149163007736,-0.1527348458766937,0.0,0.0,0.947872757911682,0.7610797882080078
-0.1263494491577148,0.4018745422363281,-0.2386515885591507,-0.7600303888320923,-0.2148254960775375,-0.1762117147445678,0.0,0.0,0.9641828536987304,-0.0480235815048217
-0.1286708861589431,0.3856597542762756,-0.2236810624599456,-0.7219096422195435,-0.223371535539627,-0.1709213256835937,0.0,0.0,0.9722998142242432,-0.4384093284606933
-0.1310717612504959,0.3696897327899933,-0.2312497794628143,-0.711141049861908,-0.2323291152715683,-0.1791513264179229,0.0,0.0,0.9576122760772704,-0.0925384759902954
-0.1334889382123947,0.3543093800544739,-0.2324961721897125,-0.6850484609603882,-0.2416892498731613,-0.1872025728225708,0.0,0.0,0.7587201595306396,0.7209105491638184
-0.1357523947954177,0.3392432928085327,-0.2158888131380081,-0.671356737613678,-0.2523329257965088,-0.2128735035657882,0.0,0.0,0.922858953475952,-0.6127020716667175
-0.1380660086870193,0.3250709474086761,-0.2218164950609207,-0.6315534710884094,-0.2620742619037628,-0.1948268860578537,0.0,0.0,0.7025463581085205,0.4912900924682617
-0.140246957540512,0.3111123740673065,-0.208995059132576,-0.6220332384109497,-0.2713854610919952,-0.1862248927354812,0.0,0.0,0.9394152164459229,-0.8532024621963501
-0.1425071656703949,0.2972362637519836,-0.2186066210269928,-0.6181095838546753,-0.2789869308471679,-0.1520295441150665,0.0,0.0,0.9635776281356812,-0.0381104350090026
-0.1446776390075683,0.2832646071910858,-0.2100767344236374,-0.6223119497299194,-0.2861472368240356,-0.1432058662176132,0.0,0.0,0.993333101272583,-0.7580945491790771
-0.1469248831272125,0.2692983150482178,-0.2192340642213821,-0.6218156814575195,-0.2918097674846649,-0.1132508963346481,0.0,0.0,0.99527907371521,0.370826244354248
-0.1490001678466797,0.25609290599823,-0.2020475566387176,-0.5880152583122253,-0.2974631190299988,-0.1130669862031936,0.0,0.0,0.9979987144470216,-0.8013020753860474
-0.1508379876613617,0.2436717599630355,-0.1801689565181732,-0.5527946949005127,-0.3011968731880188,-0.07467532902956,0.0,0.0,0.9983341693878174,-0.8286070227622986
-0.1526776254177093,0.2321497052907943,-0.1817319095134735,-0.5125568509101868,-0.3035038709640503,-0.046139758080244,0.0,0.0,0.992902398109436,0.139488935470581
-0.154639720916748,0.2206496149301529,-0.1933188736438751,-0.5117188096046448,-0.30649134516716,-0.0597497709095478,0.0,0.0,0.9932236671447754,-0.2071091532707214
-0.1563600599765777,0.2098716348409652,-0.1694043725728988,-0.4795805513858795,-0.309216558933258,-0.0545044913887977,0.0,0.0,0.997690200805664,-0.4727015495300293
-0.1580772399902343,0.1995241045951843,-0.1685837656259536,-0.4605650305747986,-0.3124752640724182,-0.0651748701930046,0.0,0.0,0.9438927173614502,-0.0459476113319397
-0.1597022116184234,0.1897248178720474,-0.1590917259454727,-0.4362576901912689,-0.3160027265548706,-0.0705493688583374,0.0,0.0,0.9657580852508544,-0.7889612317085266
-0.1612322777509689,0.1805319190025329,-0.1511529684066772,-0.4089753031730652,-0.3179245889186859,-0.0384374260902404,0.0,0.0,0.988487958908081,-0.3363749980926513
-0.1625338494777679,0.1716677546501159,-0.1288059949874878,-0.3942615687847137,-0.3193377256393432,-0.0282627306878566,0.0,0.0,0.9817177057266236,-0.5646233558654785
-0.1638108193874359,0.1627699732780456,-0.1275465786457061,-0.3954921364784241,-0.3194980919361114,-0.0032071699388325,0.0,0.0,0.9495072364807128,-0.7174180746078491
-0.1649699211120605,0.1538949310779571,-0.1174414381384849,-0.3941096365451813,-0.3179012537002563,0.0319363661110401,0.0,0.0,0.9927196502685548,-0.5348960161209106
-0.1658631265163421,0.1453130841255188,-0.0924627184867858,-0.3807318806648254,-0.3146431446075439,0.0651629343628883,0.0,0.0,0.9815151691436768,-0.3987323045730591
-0.1665378510951995,0.1367086321115493,-0.0713726729154586,-0.3815792202949524,-0.3105972707271576,0.0809172689914703,0.0,0.0,0.9878939390182496,-0.7251275181770325
-0.1670823097229004,0.1288102716207504,-0.0597765557467937,-0.3499088883399963,-0.3050732016563415,0.110481396317482,0.0,0.0,0.9572244882583618,-0.3563170433044433
-0.167406365275383,0.1215616539120674,-0.037930928170681,-0.3210141956806183,-0.2993680238723755,0.1141033768653869,0.0,0.0,0.941326141357422,-0.7949750423431396
-0.167489618062973,0.1147773116827011,-0.0157652553170919,-0.3000147640705108,-0.2916895747184753,0.1535691320896148,0.0,0.0,0.9341747760772704,-0.7348639965057373
-0.1674794256687164,0.1078855395317077,-0.0081793628633022,-0.304484874010086,-0.2822195887565613,0.1893999278545379,0.0,0.0,0.5892941951751709,-0.562861979007721
-0.1675082147121429,0.1011207923293113,-0.0130958873778581,-0.2987169623374939,-0.2717336416244507,0.2097188979387283,0.0,0.0,0.8743457794189453,-0.4788205623626709
-0.1672603636980056,0.0951134264469146,0.0140962954610586,-0.2650483250617981,-0.2607943713665008,0.2187855541706085,0.0,0.0,0.8473048210144043,-0.6972797513008118
-0.1670055389404297,0.0894421637058258,0.0134314149618148,-0.2499599456787109,-0.2485012114048004,0.2458632737398147,0.0,0.0,0.961217999458313,-0.790449321269989
-0.166807934641838,0.084615409374237,0.0064238407649099,-0.2123229056596756,-0.2349488735198974,0.2710466980934143,0.0,0.0,0.7688744068145752,-0.4051750302314758
-0.1664183586835861,0.0802288129925727,0.0251459516584873,-0.1928197294473648,-0.2209557592868805,0.2798623144626617,0.0,0.0,0.8439266681671143,-0.4928405284881592
-0.1659738570451736,0.0764700025320053,0.0308622177690267,-0.1650816798210144,-0.207228809595108,0.274538904428482,0.0,0.0,0.7321022748947144,-0.3745583891868591
-0.165520578622818,0.0732729509472847,0.0320943966507911,-0.1402923762798309,-0.1938921362161636,0.2667334973812103,0.0,0.0,0.3236197233200073,-0.3156569004058838
-0.1650750190019607,0.070051372051239,0.0313556753098964,-0.1415095627307891,-0.1806358247995376,0.2651262283325195,0.0,0.0,0.1715767383575439,0.5043046474456787
-0.1646650284528732,0.0668556094169616,0.0289664305746555,-0.1406174600124359,-0.168564572930336,0.2414251118898391,0.0,0.0,-0.1820639371871948,-0.0282467007637023
-0.1643141806125641,0.063041865825653,0.0230027977377176,-0.1681744754314422,-0.1564793884754181,0.2417036592960357,0.0,0.0,0.7515404224395752,-0.2994405031204223
-0.1637895554304123,0.0597128495573997,0.0398186296224594,-0.1466742157936096,-0.1438597291707992,0.2523930668830871,0.0,0.0,0.3428140878677368,0.408052921295166
-0.1632249802350998,0.0562007278203964,0.0435426011681556,-0.1549002975225448,-0.1309931129217147,0.2573323845863342,0.0,0.0,0.6045961380004883,0.4922523498535156
-0.1624727249145507,0.0531453713774681,0.0616307482123374,-0.1346537917852401,-0.1174571812152862,0.2707184255123138,0.0,0.0,0.5657541751861572,0.5554925203323364
-0.1616580039262771,0.0505690202116966,0.0689955800771713,-0.1135711744427681,-0.1050671637058258,0.2478007376194,0.0,0.0,0.0220606327056884,0.7967216968536377
-0.160662367939949,0.0481462329626083,0.0886121690273284,-0.1069456338882446,-0.0942102149128913,0.2171392738819122,0.0,0.0,0.1217304468154907,0.6164050102233887
-0.1595597267150879,0.0456776730716228,0.1004408448934555,-0.1091211065649986,-0.0844756588339805,0.1946910470724105,0.0,0.0,0.1374198198318481,0.5909621715545654
-0.1583999693393707,0.0434313379228115,0.1073231548070907,-0.0993714332580566,-0.0759016424417495,0.1714802980422973,0.0,0.0,0.2133457660675048,0.4675045013427734
-0.1571788787841797,0.0414262637495994,0.1132154092192649,-0.0886883586645126,-0.0670958086848259,0.1761167347431183,0.0,0.0,-0.0259687900543212,0.16105318069458
-0.1559799164533615,0.0388024188578128,0.1109715923666954,-0.1162398606538772,-0.0582623481750488,0.1766690015792846,0.0,0.0,0.3268327713012695,0.7634937763214111
-0.1548190116882324,0.0363088957965374,0.1088090911507606,-0.1105564385652542,-0.051064521074295,0.1439565867185592,0.0,0.0,0.2364815473556518,0.5531023740768433
-0.1537120789289474,0.0337766036391258,0.1047065258026123,-0.1123556047677993,-0.0451458357274532,0.1183736100792884,0.0,0.0,0.4085566997528076,0.6742253303527832
-0.1525572836399078,0.0313423722982406,0.1108560189604759,-0.1080541536211967,-0.0405719950795173,0.0914768278598785,0.0,0.0,0.1010357141494751,0.5895863771438599
-0.1513237059116363,0.0288163758814334,0.1198451891541481,-0.1121780723333358,-0.0371058769524097,0.0693224221467971,0.0,0.0,0.1065373420715332,0.4177484512329101
-0.1499901711940765,0.0260268077254295,0.1293900907039642,-0.1238851174712181,-0.0331968441605567,0.078180618584156,0.0,0.0,0.3006846904754638,0.4491877555847168
-0.1485533714294433,0.023420987650752,0.1393260061740875,-0.1157251670956611,-0.0288920830935239,0.0860949605703353,0.0,0.0,0.2811521291732788,0.3322896957397461
-0.1470649689435959,0.0211326703429222,0.144336998462677,-0.1016243621706962,-0.0244540553539991,0.0887605622410774,0.0,0.0,0.1407208442687988,-0.1929305791854858
