x_pos,y_pos,x_vel,y_vel,angle,ang_vel,leg_1,leg_2,main_booster,lat_booster
-0.0015533447731286,1.403153419494629,-0.1573459506034851,-0.3451848030090332,0.0018042584415525,0.0355934128165245,0.0,0.0,-0.3262202988189766,0.6516749336574986
-0.003084945725277,1.3949358463287354,-0.1535311639308929,-0.3652245104312897,0.002177165588364,0.0074595315381884,0.0,0.0,-0.2874816642449314,-0.6279361253878111
-0.0046923635527491,1.3862420320510864,-0.1621122509241104,-0.3863921165466308,0.003532214090228,0.0271034743636846,0.0,0.0,-0.0371799040017595,0.6318558830416693
-0.0063011171296238,1.377075433731079,-0.1612490266561508,-0.4074098765850067,0.0038995007053017,0.007346489932388,0.0,0.0,-0.591159705137074,0.6117459426806817
-0.0078964233398437,1.3674399852752686,-0.1584356874227523,-0.4282402098178863,0.0028165108524262,-0.0216617286205291,0.0,0.0,0.183237505292273,-0.5784524194153171
-0.0094781871885061,1.3579163551330566,-0.1584767997264862,-0.4232713878154754,0.0031083135399967,0.0058368421159684,0.0,0.0,-0.6983518214976026,0.8950865565902648
-0.0110444072633981,1.3479218482971191,-0.1552116572856903,-0.4441931843757629,0.0017149628838524,-0.027869701385498,0.0,0.0,-0.847738136617177,0.5360375936357643
-0.0126135824248194,1.337458252906799,-0.1541972458362579,-0.4650484025478363,-0.0009777443483471,-0.0538593716919422,0.0,0.0,-0.5047917434890106,0.9434323294231002
-0.014169025234878,1.3265339136123655,-0.1509950160980224,-0.4855339229106903,-0.0054756137542426,-0.0899654552340507,0.0,0.0,0.4323517764370777,0.9640179029522338
-0.0157080646604299,1.3160890340805054,-0.1474617719650268,-0.4642538428306579,-0.0118554085493087,-0.1276074349880218,0.0,0.0,0.1363916673446408,-0.5396603181929028
-0.0172849651426076,1.3057866096496582,-0.152487576007843,-0.4579329192638397,-0.0170065574347972,-0.1030323952436447,0.0,0.0,-0.8550241304023087,-0.9758245925720924
-0.0189986228942871,1.295013189315796,-0.1679128259420395,-0.4788637459278106,-0.0204190611839294,-0.0682561695575714,0.0,0.0,-0.8739638730121804,0.5145193672377629
-0.020734691992402,1.2837700843811035,-0.1689392179250717,-0.499764084815979,-0.0250380728393793,-0.0923886150121688,0.0,0.0,-0.1332016132333959,0.6141674220695617
-0.0224916450679302,1.2720485925674438,-0.1696868389844894,-0.52106773853302,-0.0309776403009891,-0.1188023090362548,0.0,0.0,-0.028028347111924,0.9001473030841883
-0.0242382045835256,1.259861946105957,-0.1664684861898422,-0.5418182611465454,-0.0390804521739482,-0.1620709151029586,0.0,0.0,0.5472227783148111,0.715105115474289
-0.025885010138154,1.2476041316986084,-0.1553246080875396,-0.5450589656829834,-0.0483365952968597,-0.1851395666599273,0.0,0.0,0.6615234977536015,0.8266175016751056
-0.0273539535701274,1.2361592054367063,-0.136215791106224,-0.5090386271476746,-0.0589129514992237,-0.2115459442138672,0.0,0.0,0.0275739277598345,-0.8206465978481579
-0.0288555137813091,1.2245827913284302,-0.1412009298801422,-0.5148794651031494,-0.0677834078669548,-0.1774249970912933,0.0,0.0,0.8645943866833183,0.6263081148239777
-0.030216122046113,1.213881254196167,-0.1262268275022506,-0.4760943353176117,-0.0775372758507728,-0.1950952112674713,0.0,0.0,-0.2480880167698786,-0.7714873663916242
-0.0317354202270507,1.2027170658111572,-0.1438980251550674,-0.4966156780719757,-0.0854994505643844,-0.159257486462593,0.0,0.0,-0.4240765939734636,0.5604596595754332
-0.0332928672432899,1.191080093383789,-0.1464096903800964,-0.5177532434463501,-0.0947593823075294,-0.1852151900529861,0.0,0.0,-0.514090204623332,-0.5848669760216346
-0.0349893569946289,1.1789761781692505,-0.1615368574857711,-0.5384836196899414,-0.1028213500976562,-0.1612540334463119,0.0,0.0,-0.4995105116353453,-0.9730519371837184
-0.0368417724967002,0.0,-0.1787204444408416,-0.5589662790298462,-0.1093050241470336,-0.1296848207712173,0.0,0.0,-0.6996598960835343,0.9796407312058386
-0.0387067794799804,1.1533479690551758,-0.1778418719768524,-0.5811755657196045,-0.1179129034280777,-0.1721732318401336,0.0,0.0,0.6895083671154241,0.9812368872902522
-0.0406785011291503,1.1408145427703855,-0.1864264905452728,-0.5579236745834351,-0.1286248415708542,-0.2142581045627594,0.0,0.0,0.8830072879426805,-0.6087801877641532
-0.0428738594055175,1.1290305852890017,-0.2095884531736374,-0.5246250033378601,-0.1385283470153808,-0.1980699002742767,0.0,0.0,0.949507372148954,0.9025311055415882
-0.0449770912528038,1.1180403232574463,-0.1986727267503738,-0.4895873963832855,-0.1501572579145431,-0.2325783222913742,0.0,0.0,0.8070147510628405,-0.7247581602014365
-0.0472587570548057,1.1079742908477783,-0.2177013605833053,-0.4484678208827972,-0.1606110781431198,-0.2090769708156585,0.0,0.0,0.8647676758231873,0.958812797427724
-0.0495916381478309,1.0987623929977417,-0.2207412719726562,-0.4108243286609649,-0.1731757521629333,-0.2512933015823364,0.0,0.0,0.3610311485071757,0.6109797454480844
-0.0519331917166709,1.089665174484253,-0.2204415053129196,-0.4059759378433227,-0.1869323253631591,-0.2751317024230957,0.0,0.0,0.7359359885583969,-0.8851017239275458
-0.0542628280818462,1.0814332962036133,-0.221171349287033,-0.3673924207687378,-0.1987974792718887,-0.2373027056455612,0.0,0.0,-0.9414801001548768,-0.4693077802658081
-0.0567011833190918,1.0727319717407229,-0.2321417778730392,-0.3883355557918548,-0.2105879783630371,-0.2358099669218063,0.0,0.0,-0.9168614149093628,-0.8682664036750793
-0.0593243613839149,1.0635936260223389,-0.252692699432373,-0.407557338476181,-0.2203101962804794,-0.1944439560174942,0.0,0.0,-0.6399163603782654,0.0189021825790405
-0.0620582588016986,1.0539851188659668,-0.2638631165027618,-0.4284964203834533,-0.2299543768167495,-0.1928840577602386,0.0,0.0,-0.2736467123031616,-0.3588934540748596
-0.0649037361145019,1.043906569480896,-0.2751241028308868,-0.4494352638721466,-0.2395188808441162,-0.1912902295589447,0.0,0.0,-0.9117320775985718,0.5738797187805176
-0.0678155869245529,1.0333456993103027,-0.2806968092918396,-0.4711168706417084,-0.2501915395259857,-0.2134539633989334,0.0,0.0,-0.665103554725647,-0.2388986349105835
-0.0708405524492263,1.0223150253295898,-0.2921216785907745,-0.4920571744441986,-0.2607810795307159,-0.2117910683155059,0.0,0.0,-0.5673863887786865,0.1011903285980224
-0.0739794746041297,1.0108146667480469,-0.3036198019981384,-0.5129972100257874,-0.2712857723236084,-0.2100937664508819,0.0,0.0,-0.501293957233429,0.717388391494751
-0.0771804824471473,0.9988309144973756,-0.3086267113685608,-0.5347855091094971,-0.2830551266670227,-0.2353876382112503,0.0,0.0,-0.5100743174552917,-0.379068374633789
-0.0804964080452919,0.9863774180412292,-0.3202570378780365,-0.5557273626327515,-0.2947361767292022,-0.2336211204528808,0.0,0.0,-0.4336117506027221,0.3214783668518066
-0.0839280113577842,0.973454475402832,-0.3319459557533264,-0.576668918132782,-0.3063271939754486,-0.2318204194307327,0.0,0.0,-0.3959722518920898,-0.3040497899055481
-0.0874757766723632,0.9600617289543152,-0.3436890542507171,-0.5976101756095886,-0.3178264796733856,-0.2299853861331939,0.0,0.0,0.2778970003128052,-0.1872752904891967
-0.0909929275512695,0.9465096592903136,-0.3410968482494354,-0.604681670665741,-0.3288846611976623,-0.2211639136075973,0.0,0.0,-0.4285566806793213,0.4860771894454956
-0.0946272835135459,0.9324876666069032,-0.3529359102249145,-0.6256216168403625,-0.3398476541042328,-0.2192600667476654,0.0,0.0,0.5248377323150635,0.2277095317840576
-0.0983237251639366,0.9183989763259888,-0.3591272532939911,-0.6286830902099609,-0.350887268781662,-0.2207923382520675,0.0,0.0,0.7872697114944458,0.6558946371078491
-0.1019165962934494,0.9042892456054688,-0.347737580537796,-0.6299647688865662,-0.3630538582801819,-0.2433316707611084,0.0,0.0,0.1577388048171997,0.1883039474487304
-0.1054763793945312,0.8901261687278748,-0.344763845205307,-0.632354736328125,-0.3749223351478576,-0.2373692542314529,0.0,0.0,0.1398694515228271,0.3843196630477905
-0.109015941619873,0.8763388991355896,-0.3425636291503906,-0.6158049702644348,-0.3870474398136139,-0.2425021827220916,0.0,0.0,0.1936897039413452,0.0681595802307128
-0.1125481575727462,0.8629271388053894,-0.3415480852127075,-0.5992925763130188,-0.3995122611522674,-0.2492955476045608,0.0,0.0,0.7382469177246094,0.2703776359558105
-0.1160114258527755,0.8497985005378723,-0.3347325325012207,-0.5868171453475952,-0.4119746387004852,-0.2492474615573883,0.0,0.0,0.6589169502258301,0.5367591381072998
-0.1191844940185546,0.8368702530860901,-0.30521160364151,-0.5781652331352234,-0.4250416755676269,-0.2613405585289001,0.0,0.0,0.4770094156265259,-0.8830482959747314
-0.1223195046186447,0.8244562745094299,-0.3032138645648956,-0.5548761487007141,-0.4362197816371918,-0.2235621213912964,0.0,0.0,0.1334770917892456,-0.3177460432052612
-0.1253772675991058,0.8119392991065979,-0.2959552407264709,-0.559398889541626,-0.4469407498836517,-0.2144187688827514,0.0,0.0,0.4907910823822021,-0.6221412420272827
-0.1282831132411956,0.7999603152275085,-0.2821027636528015,-0.535140872001648,-0.4562370181083679,-0.1859258711338043,0.0,0.0,0.4956403970718384,-0.8554200530052185
-0.1310395300388336,0.7880460619926453,-0.2690893113613128,-0.5316855907440186,-0.4634546637535095,-0.1443529427051544,0.0,0.0,0.9018778800964355,-0.2787544727325439
-0.1337719857692718,0.7764624953269958,-0.2663628458976745,-0.5171467065811157,-0.4710659682750702,-0.1522261202335357,0.0,0.0,0.8225905895233154,-0.6660041809082031
-0.1361704766750335,0.7655473947525024,-0.2345989942550659,-0.486907035112381,-0.4768933653831482,-0.1165470629930496,0.0,0.0,0.6930381059646606,-0.92886620759964
-0.138294979929924,0.7550265192985535,-0.2092665731906891,-0.4687005877494812,-0.4804394245147705,-0.0709212869405746,0.0,0.0,0.7240910530090332,-0.887818455696106
-0.1401247978210449,0.7451727390289307,-0.1817040592432022,-0.438382089138031,-0.4818573296070099,-0.0283583011478185,0.0,0.0,0.490032434463501,-0.7467679381370544
-0.1418637335300445,0.7358886003494263,-0.1740373820066452,-0.4125806391239166,-0.4816935360431671,0.0032760079484432,0.0,0.0,0.8466091156005859,-0.7539929747581482
-0.1435305625200271,0.7266747951507568,-0.1684724539518356,-0.4088793098926544,-0.479701280593872,0.0398452952504158,0.0,0.0,0.9275345802307128,-0.5718905329704285
-0.1450892388820648,0.7181981801986694,-0.1585501283407211,-0.3758202195167541,-0.4767188727855682,0.0596482641994953,0.0,0.0,0.9349700212478638,-0.946646511554718
-0.1464147567749023,0.7099959254264832,-0.1373821794986724,-0.3628945052623749,-0.4713638126850128,0.1071013584733009,0.0,0.0,0.8831038475036621,-0.7360162734985352
-0.1475682258605957,0.7022762894630432,-0.1217575669288635,-0.3409314751625061,-0.4642705917358398,0.1418641954660415,0.0,0.0,0.900871992111206,-0.8426229357719421
-0.1486871689558029,0.6947364807128906,-0.1200603023171424,-0.3324071764945984,-0.4552721381187439,0.179969385266304,0.0,0.0,0.9780771732330322,-0.8629230260848999
-0.1498207151889801,0.6878311038017273,-0.1230398043990135,-0.3037796318531036,-0.4446510672569275,0.2124214470386505,0.0,0.0,0.9897092580795288,-0.6948984861373901
-0.1506519317626953,0.6818756461143494,-0.0943818837404251,-0.2611580193042755,-0.4323663711547851,0.2456939220428466,0.0,0.0,0.8644008636474609,-0.4592278003692627
-0.1513797789812088,0.6758415699005127,-0.084640696644783,-0.2645875215530395,-0.4195165038108825,0.2569973468780517,0.0,0.0,0.4753897190093994,-0.4510490894317627
-0.1518938988447189,0.6703675985336304,-0.063570350408554,-0.2397370785474777,-0.40641650557518,0.2620001435279846,0.0,0.0,0.4865701198577881,0.118947148323059
-0.1524360626935959,0.665060818195343,-0.0662075951695442,-0.2324699312448501,-0.3935679197311401,0.2569718658924103,0.0,0.0,-0.1205551624298095,-0.2129759788513183
-0.1530965864658355,0.6592844128608704,-0.0782434269785881,-0.2534108757972717,-0.3805773854255676,0.2598106563091278,0.0,0.0,-0.0182984471321105,-0.0438456535339355
-0.1538751572370529,0.653038501739502,-0.0902497991919517,-0.2743523418903351,-0.367443323135376,0.2626810371875763,0.0,0.0,0.6551566123962402,-0.282650887966156
-0.1545880287885666,0.6475768089294434,-0.0833067372441291,-0.2397088855504989,-0.3547612428665161,0.2536419630050659,0.0,0.0,-0.3290756940841675,0.1996738910675048
-0.1554183065891266,0.6416453719139099,-0.0952427461743354,-0.2606500089168548,-0.3419327139854431,0.2565706670284271,0.0,0.0,-0.2887958288192749,0.5041515827178955
-0.15633125603199,0.6352217793464661,-0.1027699559926986,-0.2828137576580047,-0.3299355208873749,0.2399440109729766,0.0,0.0,0.2457810640335083,-0.3777233958244324
-0.1572328507900238,0.6286514401435852,-0.1020535677671432,-0.289350152015686,-0.3175521194934845,0.2476671636104583,0.0,0.0,-0.4727407097816467,-0.1899669766426086
-0.1582505255937576,0.6216112971305847,-0.1138536557555198,-0.3102912008762359,-0.305018663406372,0.2506690323352813,0.0,0.0,-0.5476159453392029,-0.180393636226654
-0.1593836843967437,0.6141018271446228,-0.1255993247032165,-0.3312326669692993,-0.292334109544754,0.2536914646625519,0.0,0.0,-0.924025058746338,-0.5301699042320251
-0.1606653183698654,0.6061435341835022,-0.1415573805570602,-0.3510718643665313,-0.2785580158233642,0.2755221128463745,0.0,0.0,-0.3495018482208252,0.0706963539123535
-0.1620611250400543,0.5977162718772888,-0.153178721666336,-0.3720163702964782,-0.2646290361881256,0.2785796523094177,0.0,0.0,0.972358226776123,0.521770715713501
-0.1635859459638595,0.5894350409507751,-0.1647601127624511,-0.36589115858078,-0.2520952224731445,0.2506761252880096,0.0,0.0,-0.3286166191101074,0.2548805475234985
-0.1652235984802246,0.5806843042373657,-0.1762301325798034,-0.3868334591388702,-0.2394071072340011,0.2537622451782226,0.0,0.0,0.9209809303283693,0.9163877964019777
-0.1668705940246582,0.5724593997001648,-0.1752998828887939,-0.3638633191585541,-0.2286475151777267,0.2151919603347778,0.0,0.0,0.7580037117004395,0.5304534435272217
-0.1684845983982086,0.5648271441459656,-0.1709561198949813,-0.3377579152584076,-0.2189726531505584,0.1934975534677505,0.0,0.0,0.9723565578460692,0.8138430118560791
-0.1699791848659515,0.5579349398612976,-0.1575412005186081,-0.3051413893699646,-0.2108112871646881,0.1632275581359863,0.0,0.0,0.6388754844665527,0.9713122844696044
-0.171291634440422,0.5513640642166138,-0.1376736909151077,-0.2911366820335388,-0.2043309509754181,0.1296066343784332,0.0,0.0,-0.2624587416648865,0.9370954036712646
-0.1726381331682205,0.544289767742157,-0.1392796039581298,-0.3137808740139007,-0.1996596008539199,0.0934270322322845,0.0,0.0,-0.8056628108024597,0.9587081670761108
-0.1740065515041351,0.5367113351821899,-0.1394239068031311,-0.3364719152450561,-0.1970608234405517,0.0519756749272346,0.0,0.0,-0.7444141507148743,0.985976219177246
-0.1753852814435959,0.5286328792572021,-0.1381572782993316,-0.3590048253536224,-0.1967716068029403,0.0057842088863253,0.0,0.0,-0.4961888790130615,0.8547736406326294
-0.1767870932817459,0.5200522541999817,-0.1385133564472198,-0.3815836608409881,-0.1984467804431915,-0.033503420650959,0.0,0.0,-0.0129722356796264,0.9944217205047609
-0.1782135069370269,0.5109844207763672,-0.1391827911138534,-0.4034844636917114,-0.2019419819116592,-0.0699041187763214,0.0,0.0,0.2191845178604126,0.9910647869110109
-0.1795238554477691,0.5022438168525696,-0.1257558315992355,-0.3892037272453308,-0.2072672843933105,-0.1065056174993515,0.0,0.0,-0.7642280459403992,-0.8208670020103455
-0.1809823960065841,0.4930509030818939,-0.1420181989669799,-0.4091150164604187,-0.2111289054155349,-0.0772325545549392,0.0,0.0,-0.7761911749839783,0.0267637968063354
-0.1825368851423263,0.4833867847919464,-0.1517792642116546,-0.4300463795661926,-0.2148394435644149,-0.0742107480764389,0.0,0.0,-0.2975650429725647,-0.0840361714363098
-0.184185117483139,0.4732514023780823,-0.1613081693649292,-0.4509775936603546,-0.2184001356363296,-0.0712139755487442,0.0,0.0,0.6062746047973633,0.9148268699645996
-0.1855805367231369,0.4638304114341736,-0.1344766914844513,-0.4194705188274383,-0.2235241532325744,-0.1024802550673484,0.0,0.0,0.9418599605560304,-0.5952265858650208
-0.1869906485080719,0.4549417793750763,-0.1371925771236419,-0.3956319391727447,-0.2273828536272049,-0.077173888683319,0.0,0.0,0.9442157745361328,-0.0474086999893188
-0.188417911529541,0.4469995200634002,-0.1384005546569824,-0.3536628484725952,-0.2317738533020019,-0.0878200531005859,0.0,0.0,0.1777471303939819,0.5252735614776611
-0.1897065192461013,0.439277321100235,-0.1237661242485046,-0.3440223634243011,-0.2369448244571685,-0.1034194082021713,0.0,0.0,0.933870792388916,-0.9780985713005066
-0.1910096108913421,0.4324228167533874,-0.127194806933403,-0.3051470518112182,-0.2401100844144821,-0.0633049458265304,0.0,0.0,0.8821010589599609,-0.8433094620704651
-0.1923495233058929,0.4264063835144043,-0.1324966996908188,-0.2676456570625305,-0.2416317015886306,-0.0304322279989719,0.0,0.0,0.9118573665618896,-0.5572968125343323
-0.1936961114406585,0.420782595872879,-0.1343176662921905,-0.2499981224536895,-0.2419803589582443,-0.0069730756804347,0.0,0.0,0.8257269859313965,-0.8509962558746338
-0.1951541006565094,0.4157313108444214,-0.1470156610012054,-0.2243014872074127,-0.2407403439283371,0.0248006172478199,0.0,0.0,0.7645548582077026,0.2254667282104492
-0.1966981887817382,0.4110810756683349,-0.1550312787294387,-0.2065798938274383,-0.2401129901409149,0.0125471372157335,0.0,0.0,0.9448740482330322,-0.8744419813156128
-0.1980332434177398,0.4071727097034454,-0.1362553536891937,-0.1732583492994308,-0.237322524189949,0.055809486657381,0.0,0.0,0.811050534248352,-0.7305951714515686
-0.1993133574724197,0.4033712744712829,-0.1324818432331085,-0.1682398319244384,-0.2327779978513717,0.0908906161785125,0.0,0.0,0.8453739881515503,0.4058107137680053
-0.2002881020307541,0.4002863764762878,-0.1028181463479995,-0.1362691670656204,-0.2273631393909454,0.1082971319556236,0.0,0.0,0.7678658962249756,-0.6809011101722717
-0.2011966258287429,0.3979768753051758,-0.0976155549287796,-0.1016174480319023,-0.2205154150724411,0.1369543373584747,0.0,0.0,0.860454797744751,-0.8925658464431763
-0.2018268555402755,0.3965803384780884,-0.0720053687691688,-0.0607533603906631,-0.2114315927028656,0.181676298379898,0.0,0.0,0.5496120452880859,-0.9349557757377625
-0.2023682594299316,0.3955089747905731,-0.0652119815349578,-0.0460714325308799,-0.2002647519111633,0.2233366668224334,0.0,0.0,0.6617047786712646,-0.9001591801643372
-0.2028489112854004,0.3952079117298126,-0.0610617324709892,-0.0116760646924376,-0.1871895492076873,0.2615036368370056,0.0,0.0,0.6609302759170532,-0.7183860540390015
-0.2031917124986648,0.3956083953380584,-0.0489914529025554,0.0195914711803197,-0.1724309474229812,0.2951720952987671,0.0,0.0,0.45303475856781,-0.7105429172515869
-0.2034577876329422,0.3961275815963745,-0.0430073589086532,0.0248966682702302,-0.1560171097517013,0.3282769024372101,0.0,0.0,0.0820509195327758,-0.3663831949234009
-0.2037476003170013,0.396797776222229,-0.0451491959393024,0.0314027518033981,-0.139882281422615,0.3226964473724365,0.0,0.0,0.1452436447143554,-0.1098458170890808
-0.2040770053863525,0.3975487947463989,-0.0488203577697277,0.0347938053309917,-0.1240722611546516,0.3162003755569458,0.0,0.0,-0.0806028842926025,-0.2606614828109741
-0.2044013440608978,0.3978319764137268,-0.0484222508966922,0.0138411102816462,-0.1081803143024444,0.3178389966487884,0.0,0.0,-0.0953412055969238,0.3534656763076782
-0.2047142088413238,0.397647500038147,-0.0473771579563617,-0.007111997809261,-0.0922113582491874,0.3193789422512054,0.0,0.0,0.1163630485534668,0.1871320009231567
-0.2048989832401275,0.397346168756485,-0.0350751914083957,-0.0124518442898988,-0.0757622346282005,0.3289822936058044,0.0,0.0,0.0665295124053955,0.835648775100708
-0.2048865854740142,0.3972250819206238,-0.0137957315891981,-0.0046881800517439,-0.0608877912163734,0.2974887788295746,0.0,0.0,-0.2312203049659729,0.7972018718719482
-0.2047780454158783,0.3966372013092041,-0.0025834387633949,-0.0256340242922306,-0.0476025342941284,0.2657053172588348,0.0,0.0,-0.7697865962982178,0.9119987487792968
