x_pos,y_pos,x_vel,y_vel,angle,ang_vel,leg_1,leg_2,main_booster,lat_booster
-0.0015127181541174,1.4029449224472046,-0.1531822383403778,-0.3544484972953796,0.0017063113627955,0.0336544588208198,0.0,0.0,0.988652208634337,-0.939745764547766
-0.0030209540855139,1.3951419591903689,-0.1544705927371978,-0.3468097150325775,0.0053113321773707,0.0721078813076019,0.0,0.0,0.6574167150332941,-0.9036071471900268
-0.0044425963424146,1.387261152267456,-0.1478085070848465,-0.3502914607524872,0.0108944866806268,0.1116735339164733,0.0,0.0,0.9968304675858954,0.5071899614317552
-0.0059731481596827,1.3796032667160034,-0.1571336686611175,-0.340384691953659,0.0149266710504889,0.0806506797671318,0.0,0.0,0.8408049684572387,0.933457880446285
-0.0072725294157862,1.3723639249801636,-0.1323936283588409,-0.3217787742614746,0.0173544734716415,0.0485607832670211,0.0,0.0,-0.6631249526509937,0.6575552943795311
-0.0084996223449707,1.3644455671310425,-0.1235005035996437,-0.3519324660301208,0.0181352216750383,0.015616625547409,0.0,0.0,-0.2355228006319172,-0.9699282668340904
-0.0097975730895996,1.355845928192139,-0.1325558125972747,-0.3822464644908905,0.0208610240370035,0.0545212514698505,0.0,0.0,-0.4366216377342031,-0.8312218198869595
-0.0111371995881199,1.3465676307678225,-0.1379226744174957,-0.4124238193035126,0.0247786678373813,0.078359842300415,0.0,0.0,0.8664597666886087,-0.6552094561031612
-0.0125596048310399,1.338032603263855,-0.1474260836839676,-0.3794316351413727,0.0299113392829895,0.1026628017425537,0.0,0.0,-0.7228813257742583,-0.9728311500887692
-0.0140524860471487,1.3288209438323977,-0.1563814878463745,-0.4095659852027893,0.0369326770305633,0.1404395103454589,0.0,0.0,0.5229877077628844,0.7442143403889034
-0.0154134752228856,1.31976056098938,-0.1418381184339523,-0.4028374254703522,0.0426059886813163,0.1134764924645423,0.0,0.0,-0.3571153602081771,0.9530309572685144
-0.0166856758296489,1.3100242614746094,-0.1307770311832428,-0.4328333139419555,0.0461340583860874,0.0705676227807998,0.0,0.0,0.2383261718433436,0.6194909481392045
-0.0178208351135253,1.300408124923706,-0.1160025596618652,-0.4274588823318481,0.0485979430377483,0.0492820814251899,0.0,0.0,-0.9903218657950096,0.6015643565508333
-0.0188992507755756,1.2901108264923096,-0.1089658588171005,-0.4576983153820038,0.0497040450572967,0.0221241526305675,0.0,0.0,-0.1332429677609981,0.8736552607182873
-0.0198902133852243,1.279149293899536,-0.098022423684597,-0.4871392548084259,0.0486445240676403,-0.0211921762675046,0.0,0.0,-0.0265097759204544,-0.887081511895772
-0.0209357254207134,1.2674938440322876,-0.1049240604043006,-0.518032968044281,0.0490073449909687,0.0072572939097881,0.0,0.0,0.9152047062834918,0.8513883977340366
-0.021786879748106,1.2566722631454468,-0.0841129645705223,-0.4809247255325317,0.0480228029191494,-0.0196926761418581,0.0,0.0,-0.95423205242066,0.74850920092252
-0.0225640293210744,1.245169997215271,-0.074861004948616,-0.5111240744590759,0.0451883077621459,-0.0566952526569366,0.0,0.0,0.6091822017771367,0.6137326796625359
-0.0232260711491107,1.2341761589050293,-0.0623548030853271,-0.4885041415691376,0.0413710065186023,-0.0763528570532798,0.0,0.0,-0.4763740140278896,0.9747943494228452
-0.0238224025815725,1.2225066423416138,-0.0540775880217552,-0.5185030698776245,0.0358705483376979,-0.1100188717246055,0.0,0.0,0.4409908952206893,-0.7610249491582124
-0.0243803020566701,1.2111499309539795,-0.0519537441432476,-0.5046495199203491,0.0320797674357891,-0.0758224874734878,0.0,0.0,0.120182216575098,-0.7901161077052099
-0.0250035282224416,1.1995567083358765,-0.0600821897387504,-0.515213668346405,0.0298674590885639,-0.0442500002682209,0.0,0.0,-0.6758648535709089,-0.5385405028869987
-0.0256634708493948,1.1872817277908323,-0.0646093934774398,-0.5455285906791687,0.0285013541579246,-0.0273248013108968,0.0,0.0,0.5524291803966879,-0.8843500867429959
-0.0263318065553903,1.1747573614120483,-0.0673474967479705,-0.5566441416740417,0.0290059354156255,0.0100924940779805,0.0,0.0,0.3874286286134418,0.6722189761773105
-0.027099322527647,1.1623623371124268,-0.0756880417466163,-0.550868034362793,0.0279496498405933,-0.0211272295564413,0.0,0.0,0.2636623705290082,0.9862074449151874
-0.0279395096004009,1.1500771045684814,-0.0809352621436119,-0.5459607839584351,0.0249103773385286,-0.0607857890427112,0.0,0.0,-0.5661116774377839,-0.9867774890710548
-0.0288635250180959,1.137115716934204,-0.0913256257772445,-0.5760462284088135,0.0238439440727233,-0.0213288646191358,0.0,0.0,-0.7219267267234193,0.944418086172774
-0.0297361370176076,1.1234867572784424,-0.0847158730030059,-0.6056904196739197,0.0213335733860731,-0.0502073839306831,0.0,0.0,-0.1757805861859291,-0.8691820257771444
-0.0307000167667865,1.1091829538345337,-0.0960046052932739,-0.635718047618866,0.0209577828645706,-0.0075159319676458,0.0,0.0,0.3368780470225339,0.8498558223326145
-0.0316321365535259,1.0947898626327517,-0.0911445617675781,-0.6396688222885132,0.018908666446805,-0.0409821718931198,0.0,0.0,-0.3602594528541623,0.8291410614818764
-0.032505415380001,1.079728603363037,-0.0835686400532722,-0.6693432927131653,0.015199314802885,-0.0741870552301406,0.0,0.0,-0.1899696588516235,-0.3811955451965332
-0.0333878509700298,1.063988208770752,-0.0845230743288993,-0.6995410919189453,0.0115348640829324,-0.0732891410589218,0.0,0.0,0.385804533958435,-0.6000699996948242
-0.0344107635319232,1.048580527305603,-0.0996817052364349,-0.6847677826881409,0.0089556984603405,-0.0515830591320991,0.0,0.0,-0.409445583820343,-0.90468430519104
-0.0355228409171104,1.0324840545654297,-0.1106632724404335,-0.715389609336853,0.0084194997325539,-0.010723846964538,0.0,0.0,-0.3673279881477356,0.4406092166900635
-0.0366452224552631,1.015708327293396,-0.1117606908082962,-0.7455862760543823,0.0079406797885894,-0.0095764566212892,0.0,0.0,-0.3436214923858642,0.0389307737350463
-0.0377784743905067,0.9982532858848572,-0.1128992661833763,-0.7757828831672668,0.0075232461094856,-0.0083484770730137,0.0,0.0,-0.5933907628059387,0.0760765075683593
-0.0389227867126464,0.9801185131072998,-0.1140759587287902,-0.8059795498847961,0.0071711800992488,-0.0070414380170404,0.0,0.0,0.6985621452331543,0.0858087539672851
-0.0400449745357036,0.9624788761138916,-0.1121164932847023,-0.7839870452880859,0.0070693348534405,-0.0020370665006339,0.0,0.0,-0.3099159002304077,-0.876181960105896
-0.0412528030574321,0.944168746471405,-0.1226333752274513,-0.8137948513031006,0.0088963191956281,0.0365397781133651,0.0,0.0,0.8467156887054443,0.8548192977905273
-0.0423761382699012,0.926200807094574,-0.1126137748360633,-0.7985770106315613,0.0091663459315896,0.0054005989804863,0.0,0.0,0.7696788311004639,0.0066546201705932
-0.0436337478458881,0.9088029265403748,-0.1255783140659332,-0.7732412815093994,0.0089875161647796,-0.0035765226930379,0.0,0.0,-0.6887004971504211,-0.4994165897369385
-0.0449037551879882,0.8907255530357361,-0.126905545592308,-0.8034380078315735,0.0088923862203955,-0.0019027937669306,0.0,0.0,-0.3822552561759949,0.0339370965957641
-0.0461864471435546,0.8719688653945923,-0.128256008028984,-0.8336346745491028,0.0088842930272221,-0.0001621359988348,0.0,0.0,0.9512181282043456,0.2848978042602539
-0.04737014696002,0.8534707427024841,-0.1190042346715927,-0.8221454620361328,0.0095088575035333,0.0124915037304162,0.0,0.0,0.7114131450653076,0.7880483865737915
-0.0485536567866802,0.8347416520118713,-0.1173949837684631,-0.8324002623558044,0.0085709914565086,-0.0187571700662374,0.0,0.0,0.9828817844390868,-0.2282422184944152
-0.0496984496712684,0.8159353137016296,-0.1138912588357925,-0.8358314633369446,0.00798452924937,-0.0117291929200291,0.0,0.0,0.8428363800048828,-0.2244324684143066
-0.0507924072444438,0.7971981763839722,-0.1092276200652122,-0.8327630758285522,0.0078120389953255,-0.003449487267062,0.0,0.0,0.9940305948257446,0.6712275743484497
-0.0520001426339149,0.7792971730232239,-0.118962861597538,-0.7955922484397888,0.0060280701145529,-0.0356794521212577,0.0,0.0,0.6310971975326538,-0.2606115341186523
-0.053356934338808,0.7618827223777771,-0.1333678811788559,-0.7739664316177368,0.0037427565548568,-0.0457064546644687,0.0,0.0,0.0905059576034545,-0.0593381524085998
-0.0547426231205463,0.7442925572395325,-0.1362904608249664,-0.7817850112915039,0.001499940874055,-0.044856421649456,0.0,0.0,0.4108099937438965,0.8515920639038086
-0.0559366233646869,0.7267546057701111,-0.115694522857666,-0.7794609069824219,-0.0021636255551129,-0.0732710435986518,0.0,0.0,0.3951573371887207,0.2216942310333252
-0.0571916587650775,0.7094709277153015,-0.1216807961463928,-0.7681781053543091,-0.0059403236955404,-0.0755341202020645,0.0,0.0,-0.0346863865852355,0.7469310760498047
-0.0583908073604106,0.6915032267570496,-0.1144173964858055,-0.7985954284667969,-0.0113581456243991,-0.1083566099405288,0.0,0.0,0.6723984479904175,0.7461633682250977
-0.0595318786799907,0.6740734577178955,-0.1072426065802574,-0.7747191190719604,-0.0181365441530942,-0.1355678886175155,0.0,0.0,0.8802934885025024,-0.5650940537452698
-0.0605409629642963,0.6567911505699158,-0.0958127379417419,-0.7681708931922913,-0.0231669843196868,-0.100609004497528,0.0,0.0,0.6748311519622803,-0.453036904335022
-0.0616497993469238,0.6395494937896729,-0.1054567471146583,-0.7663906216621399,-0.0285257846117019,-0.1071758493781089,0.0,0.0,0.7429487705230713,-0.1869568824768066
-0.0626495331525802,0.6228851675987244,-0.0951345115900039,-0.7407386898994446,-0.0333042703568935,-0.0955700352787971,0.0,0.0,0.2988156080245971,-0.4728962182998657
-0.0635372176766395,0.6063310503959656,-0.0845666974782943,-0.7358388304710388,-0.0374577976763248,-0.0830705389380455,0.0,0.0,0.4554671049118042,-0.2628823518753052
-0.0643460303544998,0.5901811718940735,-0.077118419110775,-0.7178720235824585,-0.0411821864545345,-0.0744873434305191,0.0,0.0,0.380967378616333,0.3122169971466064
-0.0652056708931922,0.574340283870697,-0.0820198580622673,-0.7041522264480591,-0.0450749471783638,-0.0778551921248436,0.0,0.0,-0.4334220886230469,-0.1603510379791259
-0.0660794228315353,0.5578201413154602,-0.0835694745182991,-0.7343495488166809,-0.0488402284681797,-0.075305737555027,0.0,0.0,0.9408375024795532,0.3496990203857422
-0.0670449286699295,0.5418637990951538,-0.0923120826482772,-0.709313690662384,-0.0530216991901397,-0.0836296752095222,0.0,0.0,0.9177038669586182,-0.1987930536270141
-0.0678495392203331,0.5261159539222717,-0.0770406201481819,-0.7000299096107483,-0.0564100742340087,-0.0677674561738967,0.0,0.0,0.5297243595123291,0.4906749725341797
-0.0686147660017013,0.5105368494987488,-0.0733233168721199,-0.6925296783447266,-0.0595664493739604,-0.0631276816129684,0.0,0.0,0.5796685218811035,0.4546997547149658
-0.0693638771772384,0.4948515594005584,-0.0718926414847374,-0.6972486972808838,-0.0625561401247978,-0.0597936324775218,0.0,0.0,0.7394504547119141,0.6990629434585571
-0.0701745972037315,0.4794269800186157,-0.0764598697423935,-0.6857371926307678,-0.067121110856533,-0.0912993103265762,0.0,0.0,0.8683655261993408,0.817213773727417
-0.07084321975708,0.4647719860076904,-0.0607978515326976,-0.6516159176826477,-0.0731225237250328,-0.1200287342071533,0.0,0.0,-0.4398725628852844,-0.0850620865821838
-0.0715261474251747,0.4494379758834839,-0.0623691082000732,-0.6818147301673889,-0.0789890810847282,-0.1173312216997146,0.0,0.0,0.8617839813232422,-0.8354709148406982
-0.0721795111894607,0.4348767101764679,-0.0613019876182079,-0.6473870873451233,-0.0829870253801345,-0.0799588188529014,0.0,0.0,0.9522886276245116,-0.6898472309112549
-0.0729748755693435,0.4204908609390259,-0.076710894703865,-0.6395320892333984,-0.0857748985290527,-0.055757500231266,0.0,0.0,0.8129136562347412,0.6413826942443848
-0.0737781524658203,0.4065459966659546,-0.0760945156216621,-0.6200173497200012,-0.0899741202592849,-0.0839842483401298,0.0,0.0,0.8102364540100098,0.2434910535812378
-0.0745009407401084,0.3929359912872314,-0.0683425590395927,-0.6051303744316101,-0.0938797071576118,-0.0781119018793106,0.0,0.0,0.5192921161651611,-0.6931589245796204
-0.0753490477800369,0.379840075969696,-0.0821496322751045,-0.5822091698646545,-0.0965153351426124,-0.0527125112712383,0.0,0.0,-0.5167654752731323,0.6060341596603394
-0.0761579498648643,0.3660570383071899,-0.077007345855236,-0.6128389835357666,-0.1003676503896713,-0.0770463943481445,0.0,0.0,0.9712378978729248,-0.8367454409599304
-0.0770444869995117,0.3523008823394775,-0.0864979922771453,-0.6115305423736572,-0.102507434785366,-0.0427956953644752,0.0,0.0,0.9630792140960692,0.536858081817627
-0.0777789130806922,0.338416188955307,-0.0705993473529815,-0.6172930598258972,-0.1053271889686584,-0.0563952848315238,0.0,0.0,0.9890751838684082,-0.708854615688324
-0.0785818099975586,0.3244698345661163,-0.0789040923118591,-0.6199357509613037,-0.10669756680727,-0.0274077747017145,0.0,0.0,0.9526464939117432,-0.2731249332427978
-0.0793089866638183,0.3112436830997467,-0.07143434882164,-0.5879219770431519,-0.1079731807112693,-0.0255121532827615,0.0,0.0,0.9258151054382324,0.0670301914215087
-0.0798552483320236,0.2987408638000488,-0.0539223849773407,-0.5557318329811096,-0.1086763739585876,-0.0140637578442692,0.0,0.0,-0.1417751908302307,-0.4869623184204101
-0.0804159194231033,0.2855584323406219,-0.0555013604462146,-0.5859271883964539,-0.1092383563518524,-0.0112396832555532,0.0,0.0,0.9581537246704102,-0.3789613246917724
-0.0811005607247352,0.2723067998886108,-0.0673281103372573,-0.589044451713562,-0.1103682443499565,-0.0225979015231132,0.0,0.0,0.952672243118286,-0.3336690664291382
-0.0816492065787315,0.2597605884075165,-0.0540948882699012,-0.5576664805412292,-0.1111359000205993,-0.0153531190007925,0.0,0.0,0.9098873138427734,-0.7617197632789612
-0.0823247879743576,0.2475576698780059,-0.0681689828634262,-0.5423065423965454,-0.1105282306671142,0.0121531030163168,0.0,0.0,0.6181216239929199,0.032342791557312
-0.082994744181633,0.2356736958026886,-0.0675056129693985,-0.5281382203102112,-0.110026866197586,0.0100274514406919,0.0,0.0,0.4362854957580566,-0.1230465173721313
-0.0836227387189865,0.2240181714296341,-0.0633873268961906,-0.517978847026825,-0.1094313561916351,0.0119097828865051,0.0,0.0,0.32827889919281,-0.1537139415740966
-0.0841440185904502,0.2123690247535705,-0.0532071813941001,-0.5176636576652527,-0.1083692386746406,0.0212422646582126,0.0,0.0,0.7312452793121338,0.0810210704803466
-0.0846161842346191,0.2005710899829864,-0.0485430881381034,-0.524257242679596,-0.1070498153567314,0.0263885054737329,0.0,0.0,0.9554071426391602,0.2538659572601318
-0.0849424377083778,0.1887866854667663,-0.0346124842762947,-0.5236097574234009,-0.1050800159573555,0.0393959805369377,0.0,0.0,0.8927526473999023,0.6328415870666504
-0.0849846825003624,0.1772621273994445,-0.0055613717995584,-0.5121095776557922,-0.1037585735321044,0.0264288522303104,0.0,0.0,0.9796775579452516,-0.4507814049720764
-0.0848260894417762,0.1657370626926422,0.0136077525094151,-0.5120685696601868,-0.1015219390392303,0.0447326190769672,0.0,0.0,0.9693664312362672,-0.5315871834754944
-0.0846395492553711,0.1548802703619003,0.0152113158255815,-0.4822961688041687,-0.0981028228998184,0.0683823525905609,0.0,0.0,0.8765578269958496,0.7376800775527954
-0.0842862129211425,0.1446215063333511,0.0331315360963344,-0.4558036029338836,-0.095923013985157,0.0435960218310356,0.0,0.0,0.9361456632614136,-0.3679399490356445
-0.0837267860770225,0.134829431772232,0.0529157817363739,-0.4350113272666931,-0.0929257944226265,0.0599444732069969,0.0,0.0,0.8112599849700928,-0.7344438433647156
-0.0830867737531662,0.1248762235045433,0.059089608490467,-0.4420703947544098,-0.0880588963627815,0.0973379388451576,0.0,0.0,0.8991506099700928,-0.4351038932800293
-0.0824694633483886,0.1151262819766998,0.0569603629410266,-0.4330566823482513,-0.0833293870091438,0.0945903807878494,0.0,0.0,0.9783525466918944,-0.564068615436554
-0.0817168205976486,0.106240376830101,0.0688901841640472,-0.3945874869823456,-0.0770215019583702,0.1261577904224395,0.0,0.0,0.5772838592529297,-0.5754100680351257
-0.081005573272705,0.0974960178136825,0.0635048970580101,-0.3882663547992706,-0.0694847479462623,0.1507354378700256,0.0,0.0,0.8880791664123535,0.2404848337173462
-0.0803869217634201,0.0894480347633361,0.0547692999243736,-0.357378214597702,-0.0624644756317138,0.140405461192131,0.0,0.0,0.8523263931274414,0.4392280578613281
-0.079635813832283,0.0818833410739898,0.0674172714352607,-0.3359066545963287,-0.0548517517745494,0.1522544473409652,0.0,0.0,0.4286209344863891,0.9287216663360596
-0.0788418799638748,0.0746164172887802,0.0734695568680763,-0.3227687776088714,-0.048995204269886,0.117130734026432,0.0,0.0,0.0906401872634887,-0.1819950938224792
-0.0780918151140213,0.0674150064587593,0.0691854655742645,-0.3198834061622619,-0.0432510264217853,0.1148835644125938,0.0,0.0,0.7420229911804199,0.711169958114624
-0.0773050338029861,0.0603171698749065,0.0742178335785865,-0.3153389394283294,-0.0388451591134071,0.0881174057722091,0.0,0.0,0.6145615577697754,0.7475924491882324
-0.076575182378292,0.0534254647791385,0.0701362714171409,-0.3062249720096588,-0.0360263288021087,0.0563765279948711,0.0,0.0,0.8999085426330566,0.399533748626709
-0.0760099440813064,0.0467665754258632,0.0543441474437713,-0.2958985269069671,-0.033869095146656,0.0431443080306053,0.0,0.0,0.7743520736694336,0.7733120918273926
-0.0752461403608322,0.0405804030597209,0.0753618776798248,-0.2749184370040893,-0.0328556708991527,0.0202684849500656,0.0,0.0,0.4551057815551758,0.4053995609283447
-0.0744307488203048,0.0341993197798728,0.0801192671060562,-0.2835744023323059,-0.0314546972513198,0.0280195139348506,0.0,0.0,0.6752450466156006,0.4528353214263916
-0.073457047343254,0.028291592374444,0.0951208621263504,-0.262517362833023,-0.0292364507913589,0.0443647913634777,0.0,0.0,0.7963895797729492,0.4035216569900512
-0.0724966078996658,0.0229707341641187,0.0937876030802726,-0.2364398390054702,-0.0269971713423728,0.0447855964303016,0.0,0.0,0.4163062572479248,0.8833787441253662
-0.0713200569152832,0.0180706605315208,0.1168688088655471,-0.2177685052156448,-0.0262291766703128,0.0153599428012967,0.0,0.0,0.7185442447662354,-0.455880343914032
-0.0700611099600792,0.0133920283988118,0.1246113553643226,-0.2079169899225235,-0.0249597486108541,0.0253885090351104,0.0,0.0,0.6313216686248779,-0.1888817548751831
-0.0688016861677169,0.0092430803924798,0.1245625391602516,-0.1843730062246322,-0.0235899295657873,0.0273961909115314,0.0,0.0,0.5041871070861816,-0.2270696759223938
-0.0674823746085167,0.0054880953393876,0.1301526129245758,-0.1668626815080642,-0.0218324344605207,0.0351498872041702,0.0,0.0,0.0838454961776733,-0.8761398792266846
-0.0661758407950401,0.0015006518224254,0.1269605755805969,-0.1771701425313949,-0.0181905105710029,0.0728385597467422,0.0,0.0,0.1176292896270752,-0.9226962327957152
-0.0649425536394119,-0.0018247509142383,0.0983171314001083,-0.1476761847734451,0.0064908280037343,0.4936205744743347,1.0,0.0,0.8257136344909668,-0.4522817134857178
-0.0639577880501747,-0.003958108369261,0.0815562754869461,-0.095021404325962,0.0230100750923156,0.3301469087600708,1.0,1.0,0.6314566135406494,0.0566846132278442
-0.0631711035966873,-0.0050099277868866,0.0700326561927795,-0.0470139756798744,0.031083969399333,0.1608945429325103,1.0,1.0,-0.3142615556716919,-0.7179616689682007
-0.0625777244567871,-0.0057208561338484,0.0538614466786384,-0.0317226238548755,0.0364789441227912,0.1078859940171241,1.0,1.0,-0.3207544684410095,-0.2815899848937988
-0.0621122345328331,-0.0060493373312056,0.0440187007188797,-0.0146623710170388,0.0389624424278736,0.0496587790548801,1.0,1.0,-0.5876112580299377,-0.115723967552185
-0.0617742538452148,-0.0059967301785945,0.0341856740415096,0.0023457198403775,0.0385664254426956,-0.0079293521121144,1.0,1.0,-0.5517740249633789,-0.0935750603675842
-0.0615621581673622,-0.0055719041265547,0.0244311690330505,0.0189594253897666,0.0353717394173145,-0.0639016032218933,1.0,1.0,-0.4475587606430053,-0.0776167511940002
