x_pos,y_pos,x_vel,y_vel,angle,ang_vel,leg_1,leg_2,main_booster,lat_booster
-0.0014930724864825,1.403010368347168,-0.151231586933136,-0.3515454530715942,0.0017249656375497,0.0340239182114601,0.0,0.0,-0.2661721755640835,0.6218928360852951
-0.0029045105911791,1.3945066928863523,-0.1414687931537628,-0.3779399693012237,0.0020448609720915,0.006399318575859,0.0,0.0,0.5195601681630957,-0.5965060872315058
-0.0042037963867187,1.3859416246414185,-0.1317566782236099,-0.3806696236133575,0.0038484567776322,0.0360753461718559,0.0,0.0,0.2745597321535371,0.9447092177332796
-0.0055126189254224,1.3773372173309326,-0.1307183355093002,-0.3824163973331451,0.0036856280639767,-0.0032566923182457,0.0,0.0,-0.3858291523559813,-0.8077322431209506
-0.0068494798615574,1.3681210279464722,-0.1347604542970657,-0.4096169173717499,0.0047580646350979,0.021450413390994,0.0,0.0,-0.3975417976559823,0.9328966383641676
-0.0080765727907419,1.3582898378372192,-0.1214758306741714,-0.4369334280490875,0.0035414826124906,-0.0243339575827121,0.0,0.0,-0.3272697676366065,-0.5369396490904836
-0.0093301776796579,1.3478443622589111,-0.1252277195453643,-0.4642414450645447,0.0034083339851349,-0.0026633210945874,0.0,0.0,0.3746140667647795,0.6166897055794998
-0.0103859901428222,1.337594985961914,-0.1044820547103881,-0.4555267095565796,0.002323850756511,-0.0216918103396892,0.0,0.0,-0.17669441951245,0.5527112082823771
-0.0113868713378906,1.326737642288208,-0.0978834852576255,-0.4825529754161834,0.0001491120056016,-0.0434989258646965,0.0,0.0,-0.1645842665393584,-0.6560331442519507
-0.0124297142028808,1.315270185470581,-0.1033769398927688,-0.5096638202667236,-0.0007402275223284,-0.0177886746823787,0.0,0.0,-0.2571853222422484,-0.9005582099140915
-0.0135259628295898,1.303189396858215,-0.1102679520845413,-0.5369269251823425,-0.0001158880622824,0.0124880950897932,0.0,0.0,0.3546853361294102,0.8175339601491916
-0.0144877433776855,1.2911423444747925,-0.095229223370552,-0.5354219675064087,-0.0010414122371003,-0.0185124054551124,0.0,0.0,-0.1535004432605868,-0.644354643442309
-0.0154870031401515,1.2784844636917114,-0.0999956056475639,-0.5625722408294678,-0.0009764640708453,0.0012990464456379,0.0,0.0,-0.7207121406003791,0.7421800324768844
-0.0164214130491018,1.2652053833007812,-0.0918387174606323,-0.5901774764060974,-0.002562898909673,-0.0317317917943,0.0,0.0,-0.6280778197665076,-0.6492091061175463
-0.0173978805541992,1.251319169998169,-0.0970308408141136,-0.6171658635139465,-0.0031704932916909,-0.01215301733464,0.0,0.0,0.6705930486774954,0.8407989172453969
-0.0181894302368164,1.2372589111328125,-0.0770628750324249,-0.624904215335846,-0.0052359476685523,-0.0413133017718791,0.0,0.0,-0.4837020247273043,0.9241199244892382
-0.01889886893332,1.2225947380065918,-0.066575177013874,-0.6517640352249146,-0.0095587624236941,-0.0864643678069114,0.0,0.0,-0.7021253547387605,-0.6988191988089264
-0.0196603778749704,1.2073111534118652,-0.0728552863001823,-0.679288923740387,-0.0128247356042265,-0.0653250068426132,0.0,0.0,0.8690389055972849,-0.9923875634565412
-0.0203783996403217,1.192784309387207,-0.0706855207681655,-0.6456508040428162,-0.0139255654066801,-0.0220185369253158,0.0,0.0,-0.8436883840454239,-0.861776022305613
-0.0211881641298532,1.1776442527770996,-0.0818265601992607,-0.6728857159614563,-0.0130868172273039,0.0167764425277709,0.0,0.0,-0.7821064352483664,-0.7419447570881146
-0.0220609661191701,1.1618964672088623,-0.0892996415495872,-0.6998843550682068,-0.0110848853364586,0.0400422662496566,0.0,0.0,-0.6935971047934129,0.5323779648451065
-0.0229096412658691,1.1455308198928833,-0.0858133807778358,-0.7273541688919067,-0.01015848480165,0.018529849126935,0.0,0.0,0.5819102755721173,-0.6786387763489824
-0.0236917492002248,1.1293309926986694,-0.0808130949735641,-0.7199822068214417,-0.0075904675759375,0.0513648875057697,0.0,0.0,0.5253570050611773,0.6215449876633642
-0.0243752487003803,1.1129409074783323,-0.069860428571701,-0.7284441590309143,-0.0060967495664954,0.0298773255199193,0.0,0.0,-0.2362062338561774,-0.952913753878216
-0.0251766201108694,1.095940113067627,-0.0840249434113502,-0.7555758953094482,-0.0022523612715303,0.0768945291638374,0.0,0.0,-0.9459943046776528,-0.8478990135629497
-0.0260877609252929,1.0783089399337769,-0.0971457511186599,-0.7836090922355652,0.0036956516560167,0.1189602836966514,0.0,0.0,-0.649619646768461,0.9349660590981572
-0.0269526485353708,1.0600703954696655,-0.0906252264976501,-0.8106228113174438,0.0077843102626502,0.0817730352282524,0.0,0.0,-0.6312509857791877,0.8497044478331555
-0.0277945511043071,1.0412272214889526,-0.0870060548186302,-0.8374910354614258,0.0105628669261932,0.0555712506175041,0.0,0.0,-0.4436552986432007,0.7178235044989474
-0.0286231990903615,1.0217766761779783,-0.0845634043216705,-0.8644821643829346,0.0122376699000597,0.0334962680935859,0.0,0.0,0.0889735212996751,-0.5920232368938778
-0.0295507423579692,1.0021907091140747,-0.0956379622220993,-0.8705116510391235,0.0150829060003161,0.0569049790501594,0.0,0.0,-0.1200523415955554,0.8968803193262938
-0.0304391868412494,0.9820024967193604,-0.0898858085274696,-0.897263765335083,0.0161059163510799,0.0204602442681789,0.0,0.0,0.9800448417663574,0.7015211582183838
-0.0314162261784076,0.961982786655426,-0.0970953851938247,-0.8897596001625061,0.0155016677454113,-0.0120849171653389,0.0,0.0,0.9996932744979858,-0.5412775278091431
-0.0325936302542686,0.9428059458732604,-0.1179081201553344,-0.8523123860359192,0.0156787317246198,0.0035412430297583,0.0,0.0,0.9651024341583252,0.3107905387878418
-0.0338911041617393,0.9236565232276917,-0.1295922249555587,-0.8510849475860596,0.0155262453481554,-0.0030497121624648,0.0,0.0,0.9006056785583496,-0.8077298402786255
-0.0352819450199604,0.9049757719039916,-0.1406261622905731,-0.8302680253982544,0.0170454587787389,0.0303844604641199,0.0,0.0,0.5012354850769043,0.3897700309753418
-0.0367076881229877,0.8867121338844299,-0.1442172676324844,-0.8117327094078064,0.0186646860092878,0.0323845893144607,0.0,0.0,0.6410853862762451,0.7402217388153076
-0.0381525978446006,0.8685097098350525,-0.1446022987365722,-0.8089927434921265,0.0187803357839584,0.0023128704633563,0.0,0.0,0.4306588172912597,0.729682445526123
-0.0395570769906044,0.8506903052330017,-0.1391820311546325,-0.7919646501541138,0.017530970275402,-0.0249872840940952,0.0,0.0,-0.0790225267410278,0.1171529293060302
-0.0410038940608501,0.8322567343711853,-0.1434457153081894,-0.8192580938339233,0.0163084920495748,-0.0244495533406734,0.0,0.0,0.9676718711853028,0.3693892955780029
-0.0424719825387001,0.8142956495285034,-0.1457574963569641,-0.7982586622238159,0.0152695914730429,-0.0207779873162508,0.0,0.0,0.6521406173706055,-0.1823893785476684
-0.0441025719046592,0.7968859076499939,-0.1615331768989563,-0.77375328540802,0.0137656768783926,-0.0300783459097147,0.0,0.0,0.3484801054000854,0.4024500846862793
-0.0456828102469444,0.7795048952102661,-0.1569994240999221,-0.7724759578704834,0.0127576207742095,-0.0201611518859863,0.0,0.0,-0.1446489691734314,0.715496301651001
-0.0472422614693641,0.7615033388137817,-0.1532850563526153,-0.8000507950782776,0.0101283295080065,-0.0525860115885734,0.0,0.0,0.9115750789642334,0.6865946054458618
-0.0486754402518272,0.7438064813613892,-0.1396112889051437,-0.7865058779716492,0.006471655331552,-0.0731331408023834,0.0,0.0,0.1403881311416626,0.529719352722168
-0.0501450523734092,0.7257944941520691,-0.1421619355678558,-0.8005183935165405,0.0017356268363073,-0.094720609486103,0.0,0.0,0.8122987747192383,-0.4591403007507324
-0.0516115203499794,0.7077186703681946,-0.1421232521533966,-0.8033716082572937,-0.0027339123189449,-0.0893907696008682,0.0,0.0,0.7905828952789307,0.8620877265930176
-0.0529826171696186,0.6897504329681396,-0.1310082972049713,-0.7986158132553101,-0.0087514743208885,-0.1203512102365493,0.0,0.0,0.9059238433837892,0.4114025831222534
-0.0545224174857139,0.6726129055023193,-0.1473099887371063,-0.7617186307907104,-0.0153339309617877,-0.1316492855548858,0.0,0.0,-0.3673607110977173,0.7632274627685547
-0.056062888354063,0.6548677086830139,-0.1462210118770599,-0.7887764573097229,-0.0230638477951288,-0.1545984447002411,0.0,0.0,0.7713066339492798,-0.654614269733429
-0.057715319097042,0.6373274922370911,-0.1587136089801788,-0.779676616191864,-0.0295149814337492,-0.1290225684642791,0.0,0.0,0.7664982080459595,0.6091867685317993
-0.0591853149235248,0.6200796961784363,-0.1397025436162948,-0.7667281031608582,-0.0367200635373592,-0.1441016495227813,0.0,0.0,0.6729640960693359,-0.1604651808738708
-0.0607349388301372,0.6033400297164917,-0.1474343985319137,-0.7441908717155457,-0.0441573522984981,-0.1487458646297454,0.0,0.0,-0.3534539341926574,-0.1265692710876464
-0.0623335838317871,0.5859869122505188,-0.152378648519516,-0.7714887261390686,-0.0515565685927867,-0.1479840725660324,0.0,0.0,0.861250638961792,-0.4654037952423095
-0.0639315620064735,0.5693663358688354,-0.1523679494857788,-0.7389676570892334,-0.0589005388319492,-0.1468794196844101,0.0,0.0,0.0334455966949462,0.0167834758758544
-0.065467931330204,0.552580714225769,-0.1466884166002273,-0.7463167905807495,-0.0657742917537689,-0.1374748796224594,0.0,0.0,0.850071907043457,-0.0280455946922302
-0.067125990986824,0.5359818935394287,-0.1583967506885528,-0.7380663156509399,-0.0731035098433494,-0.1465841829776764,0.0,0.0,0.5359488725662231,0.3399362564086914
-0.0686924010515213,0.5198685526847839,-0.149689182639122,-0.7165053486824036,-0.079988494515419,-0.1376995146274566,0.0,0.0,0.3756887912750244,-0.7659081220626831
-0.0701956748962402,0.5039761662483215,-0.1451356112957,-0.7066162824630737,-0.0851248055696487,-0.1027262955904007,0.0,0.0,0.7501447200775146,0.5315893888473511
-0.0715482681989669,0.4887627959251404,-0.1292921006679535,-0.6764984726905823,-0.0910432711243629,-0.1183691173791885,0.0,0.0,0.7807183265686035,0.4743285179138183
-0.0729556083679199,0.4742121994495392,-0.1344223916530609,-0.6470910310745239,-0.097300574183464,-0.1251460313796997,0.0,0.0,-0.8250435590744019,0.0183455944061279
-0.0744129195809364,0.4590480029582977,-0.1394677907228469,-0.6743872165679932,-0.1035166755318641,-0.1243219822645187,0.0,0.0,0.5537971258163452,0.3241463899612427
-0.0759458541870117,0.4442689418792724,-0.1466367244720459,-0.6573211550712585,-0.1101275905966758,-0.1322184950113296,0.0,0.0,-0.5486049652099609,0.6809026002883911
-0.0774643868207931,0.4288641214370727,-0.1435965001583099,-0.6852907538414001,-0.1183345168828964,-0.1641381680965423,0.0,0.0,-0.4508348703384399,0.5875076055526733
-0.078984834253788,0.4128384590148926,-0.1426131725311279,-0.7130278944969177,-0.1277177333831787,-0.1876642853021621,0.0,0.0,0.5320022106170654,0.1907382011413574
-0.0805006027221679,0.3967513740062713,-0.1422308534383773,-0.7158083319664001,-0.1370254158973693,-0.1861535757780075,0.0,0.0,0.3933700323104858,-0.5158901810646057
-0.0821502655744552,0.38082355260849,-0.1564256399869918,-0.7087081670761108,-0.1455309987068176,-0.1701117753982544,0.0,0.0,0.906549334526062,-0.7909330129623413
-0.0837404280900955,0.3657649755477905,-0.1521916836500167,-0.669954240322113,-0.152349978685379,-0.1363793760538101,0.0,0.0,0.0365773439407348,-0.4129457473754883
-0.0853015929460525,0.3503531515598297,-0.149564042687416,-0.6856569051742554,-0.1588885337114334,-0.13077113032341,0.0,0.0,0.9282064437866212,-0.25751793384552
-0.0867232307791709,0.3357957601547241,-0.1358231008052826,-0.6476852297782898,-0.1652390211820602,-0.1270097941160202,0.0,0.0,0.5913481712341309,-0.8403947949409485
-0.0882848724722862,0.321336954832077,-0.1513819396495819,-0.643154501914978,-0.1700226813554763,-0.0956731662154197,0.0,0.0,0.8980890512466431,-0.3070504665374756
-0.0898679718375206,0.3074411153793335,-0.153087168931961,-0.6182013750076294,-0.1752521991729736,-0.1045902147889137,0.0,0.0,0.8593971729278564,-0.4115045070648193
-0.0913436859846115,0.2939568758010864,-0.1425624936819076,-0.5999002456665039,-0.1802794486284256,-0.1005449667572975,0.0,0.0,0.9218530654907228,-0.2700672149658203
-0.0928393378853797,0.2813487946987152,-0.1439121663570404,-0.5610557794570923,-0.1859578639268875,-0.1135679259896278,0.0,0.0,0.0635048151016235,-0.07177734375
-0.0942683219909668,0.2686617970466614,-0.1374986469745636,-0.564552366733551,-0.1913754940032959,-0.1083527207374572,0.0,0.0,0.6151409149169922,-0.0549583435058593
-0.095704935491085,0.2559334635734558,-0.1381727457046508,-0.5664255619049072,-0.1969037652015686,-0.1105654835700988,0.0,0.0,0.9179199934005736,-0.1141002774238586
-0.0970381721854209,0.2431231588125229,-0.128243401646614,-0.5700309872627258,-0.2020251750946045,-0.10242810100317,0.0,0.0,0.9780633449554444,0.1444095373153686
-0.0983745604753494,0.2303076386451721,-0.1284210979938507,,-0.2072800397872924,-0.1050973907113075,0.0,0.0,0.9804637432098388,-0.4349089860916137
-0.0995721817016601,0.2182770371437072,-0.1145514845848083,-0.5354344844818115,-0.2125399708747863,-0.1051989644765853,0.0,0.0,0.9967801570892334,-0.8156414031982422
-0.1005674377083778,0.2070730477571487,-0.0962181240320205,-0.4984338879585266,-0.2158824205398559,-0.0668487697839737,0.0,0.0,0.964451551437378,-0.9550464749336244
-0.1016171425580978,0.1967598497867584,-0.1033638715744018,-0.4586023092269897,-0.217513620853424,-0.0326237305998802,0.0,0.0,0.895014762878418,-0.3044148683547973
-0.1027758568525314,0.1864368468523025,-0.1136213541030883,-0.4591290056705475,-0.2197906523942947,-0.0455406382679939,0.0,0.0,0.8636182546615601,-0.08524090051651
-0.1037413626909256,0.1767903417348861,-0.094544880092144,-0.4290371537208557,-0.2218167632818222,-0.0405222252011299,0.0,0.0,0.7304408550262451,-0.9094703197479248
-0.1048047095537185,0.1674742102622985,-0.1059978604316711,-0.4141010344028473,-0.2221539169549942,-0.0067433095537126,0.0,0.0,0.8464560508728027,-0.0885331034660339
-0.1058055907487869,0.1586724817752838,-0.0995028167963028,-0.3912745714187622,-0.2227346301078796,-0.0116146635264158,0.0,0.0,0.6160242557525635,-0.488483726978302
-0.1067107170820236,0.1502610743045807,-0.0899285227060318,-0.3739306628704071,-0.223330020904541,-0.0119079444557428,0.0,0.0,0.0368489027023315,-0.9550626873970032
-0.1075880080461502,0.1417729258537292,-0.0890562534332275,-0.3770509660243988,-0.221987783908844,0.0268446020781993,0.0,0.0,0.1051048040390014,-0.6041148900985718
-0.1084879860281944,0.1330097466707229,-0.0925852954387664,-0.389087975025177,-0.2193692475557327,0.0523707382380962,0.0,0.0,0.471815824508667,0.1137223243713378
-0.1092716231942176,0.1241305693984031,-0.081364557147026,-0.3941839039325714,-0.2163299918174743,0.0607849061489105,0.0,0.0,0.930600881576538,-0.0779129266738891
-0.1097857505083084,0.1155596598982811,-0.0552446842193603,-0.3803730010986328,-0.2124574482440948,0.0774509757757186,0.0,0.0,0.9441808462142944,-0.0011448860168457
-0.1100826263427734,0.1070034131407737,-0.0343167893588542,-0.3796201646327972,-0.2077884525060653,0.0933799818158149,0.0,0.0,0.941457986831665,0.1640225648880005
-0.1102441772818565,0.099131092429161,-0.0207977257668972,-0.3492385447025299,-0.2031131237745285,0.0935065597295761,0.0,0.0,0.9444611072540284,0.0931434631347656
-0.1102295890450477,0.0919454172253608,-0.0033891343045979,-0.3187058568000793,-0.1982326209545135,0.0976100414991378,0.0,0.0,0.8502600193023682,-0.4887913465499878
-0.1099700927734375,0.0852034166455268,0.0204313322901725,-0.298917293548584,-0.1926706880331039,0.111238457262516,0.0,0.0,0.2256202697753906,-0.5254431962966919
-0.1096633896231651,0.0781871899962425,0.0238833893090486,-0.3109640181064605,-0.1858523935079574,0.1363658756017685,0.0,0.0,0.8150568008422852,0.0716809034347534
-0.1093473434448242,0.0713981240987777,0.0250446442514657,-0.3009282350540161,-0.1792658865451812,0.1317299902439117,0.0,0.0,0.6629365682601929,0.0803557634353637
-0.1088291183114051,0.0652544349431991,0.0448338612914085,-0.2722229659557342,-0.1722505986690521,0.1403056979179382,0.0,0.0,0.6159796714782715,-0.0658236145973205
-0.1082733124494552,0.0593258254230022,0.0486327856779098,-0.262708842754364,-0.1653067022562027,0.1388781368732452,0.0,0.0,0.489251971244812,0.3005584478378296
-0.1077449768781662,0.0538721419870853,0.046374324709177,-0.2416794747114181,-0.1588481217622757,0.1291716992855072,0.0,0.0,0.3700557947158813,-0.1235814094543457
-0.1070877090096473,0.048644982278347,0.0588985979557037,-0.2316071838140487,-0.1520226746797561,0.1365085393190384,0.0,0.0,0.7181804180145264,0.1037821769714355
-0.1064002066850662,0.0439737178385257,0.0621393844485282,-0.2069507390260696,-0.1454225182533264,0.1320030689239502,0.0,0.0,0.3011941909790039,0.2395796775817871
-0.1057236641645431,0.0395782552659511,0.0613046400249004,-0.1947465538978576,-0.13909213244915,0.1266075670719146,0.0,0.0,0.2171573638916015,0.4427169561386108
-0.1050454154610633,0.0351180657744407,0.0615213327109813,-0.1976599693298339,-0.1328155398368835,0.1255318224430084,0.0,0.0,0.4045917987823486,0.1021660566329956
-0.1044278144836425,0.030824027955532,0.0558808259665966,-0.1903357505798339,-0.1269674599170684,0.1169619411230087,0.0,0.0,0.4719071388244629,0.0857166051864624
-0.1039132103323936,0.0266359187662601,0.0461733415722847,-0.1856956034898758,-0.1217099130153656,0.1051509603857994,0.0,0.0,0.5337792634963989,0.3169358968734741
-0.103248119354248,0.0228095147758722,0.0607383772730827,-0.1696030348539352,-0.115968607366085,0.1148259788751602,0.0,0.0,0.0839724540710449,0.791244626045227
-0.1024741157889366,0.0187042336910963,0.0731605142354965,-0.1821371167898178,-0.111755758523941,0.0842568576335907,0.0,0.0,0.7857823371887207,0.509796142578125
-0.1014283150434494,0.0151834581047296,0.1008500680327415,-0.1562021225690841,-0.1080508530139923,0.0740981325507164,0.0,0.0,0.6379177570343018,-0.4329102039337158
-0.1003470420837402,0.0121997687965631,0.1044727116823196,-0.1323504745960235,-0.1044242978096008,0.0725311115384101,0.0,0.0,0.0766167640686035,-0.5311828851699829
-0.0991022139787674,0.0099815819412469,0.1056202203035354,-0.0973775833845138,-0.085718035697937,0.3741251826286316,1.0,0.0,0.1996898651123047,-0.3370530605316162
-0.0977658256888389,0.0077758049592375,0.1144817322492599,-0.0970456600189209,-0.0667559653520584,0.3792413175106048,1.0,0.0,0.1393358707427978,-0.5995972752571106
-0.0964442268013954,0.0058150384575128,0.1117782443761825,-0.0863605514168739,-0.0466079898178577,0.4029598236083984,1.0,0.0,-0.0102928280830383,-0.4327415823936462
-0.0951226204633712,0.0032456254120916,0.1117753386497497,-0.1136877760291099,-0.0264605525881052,0.4029486179351806,0.0,0.0,0.7156031131744385,0.5040671825408936
-0.0936822891235351,0.0007735228282399,0.1243613511323928,-0.1096388921141624,-0.0070385294966399,0.3884404301643371,0.0,0.0,0.7199515104293823,0.7528820037841797
-0.0923389419913292,-0.0013404870405793,0.1164302602410316,-0.0939660146832466,0.0106251304969191,0.3532735705375671,0.0,0.0,0.0795283317565918,0.7745035886764526
-0.0912792235612869,-0.002994587412104,0.109422817826271,-0.0735363066196441,0.0070446217432618,-0.0718265622854232,0.0,1.0,-0.4637733697891235,0.057499885559082
-0.0903433784842491,-0.0040922546759247,0.097480833530426,-0.0489067174494266,0.0027707824483513,-0.0860107988119125,1.0,1.0,0.0806515216827392,-0.9005487561225891
-0.089573860168457,-0.0041201137937605,0.0799360275268554,-0.0012508467771112,-0.0001421276538167,-0.058218915015459,1.0,1.0,-0.5553877353668213,-0.9028785228729248
-0.0890836715698242,-0.0035194063093513,0.0515664517879486,0.0266658402979373,-0.0025792380329221,-0.0486499294638633,1.0,1.0,-0.6751948595046997,-0.8260455131530762
-0.0886964797973632,-0.0024635458830744,0.0383269414305686,0.0469367355108261,-0.002206397941336,0.0074385879561305,1.0,1.0,-0.742512047290802,-0.4518266916275024
-0.0882967934012413,-0.0011068844469264,0.0385803021490573,0.0602937974035739,-0.0008184575708582,0.0277775526046752,1.0,1.0,-0.7218471169471741,-0.6373028755187988
