x_pos,y_pos,x_vel,y_vel,angle,ang_vel,leg_1,leg_2,main_booster,lat_booster
-0.0015232085715979,1.403204321861267,-0.1544232666492462,-0.3429260551929474,0.0018704286776483,0.0369043536484241,0.0,0.0,-0.5495713978653329,0.6563321729588182
-0.0029902458190917,1.3950884342193604,-0.1472289264202118,-0.3607073426246643,0.0023920002859085,0.0104330424219369,0.0,0.0,-0.3575039203215411,0.8826678532200906
-0.004371833987534,1.3865456581115725,-0.1366453915834427,-0.3796745538711548,0.0008989524212665,-0.0298636015504598,0.0,0.0,-0.5516219579010622,-0.741710623374302
-0.0058221817016601,1.3775802850723269,-0.1454348862171173,-0.3984664678573608,0.0012898843269795,0.0078191272914409,0.0,0.0,0.0568428993756016,-0.8250179124717547
-0.007240486331284,1.3688228130340576,-0.1440644413232803,-0.3892168402671814,0.0034942475613206,0.0440916530787944,0.0,0.0,-0.6713457725441239,-0.9868117741625624
-0.0087175369262695,1.3596436977386477,-0.1516097635030746,-0.4079788625240326,0.007352550048381,0.0771731287240982,0.0,0.0,-0.3316180661257819,-0.8951989428284365
-0.0102662090212106,1.350043773651123,-0.160790205001831,-0.4266980588436126,0.0132036404684185,0.1170328110456466,0.0,0.0,-0.4251660041651965,0.6440145730848689
-0.0117502212524414,1.3400272130966189,-0.1528621613979339,-0.445222944021225,0.0176271237432956,0.0884777158498764,0.0,0.0,-0.5645795574253087,0.6914014440209818
-0.0131789203733205,1.3295997381210327,-0.1461633145809173,-0.4634877443313598,0.020882686600089,0.065117210149765,0.0,0.0,-0.1612162234289733,0.7349357331767724
-0.0145476339384913,1.318758487701416,-0.1388855129480362,-0.4818599820137024,0.0228670593351125,0.0396912507712841,0.0,0.0,0.4734344959478225,0.7393375548405399
-0.01578264310956,1.3082977533340454,-0.1243760585784912,-0.4649388492107391,0.0237343199551105,0.0173467956483364,0.0,0.0,-0.3741150392754047,-0.818846865879679
-0.0170717239379882,1.2974128723144531,-0.1314465552568435,-0.4838095307350158,0.02623669244349,0.0500523038208484,0.0,0.0,0.2050431071979723,0.7251227828420111
-0.0182067863643169,1.2868832349777222,-0.1149398311972618,-0.4680065512657165,0.027649350464344,0.0282559134066104,0.0,0.0,0.6067849776610874,0.737294188159699
-0.0192160606384277,1.2764499187469482,-0.1012534722685813,,0.027970265597105,0.0064189871773123,0.0,0.0,-0.6756988449267474,-0.6953556803016208
-0.0202639587223529,1.2656019926071167,-0.1064075008034706,-0.4821646809577942,0.0295760426670312,0.0321184173226356,0.0,0.0,-0.8738475332333384,0.96262029713589
-0.0212180130183696,1.2543267011642456,-0.0949829369783401,-0.5011194348335266,0.0291617084294557,-0.0082874316722154,0.0,0.0,-0.862093074689827,0.6783517742307614
-0.022102165967226,1.2426419258117676,-0.0865761339664459,-0.5192843079566956,0.0273389145731925,-0.0364592000842094,0.0,0.0,0.0488611446021411,0.6778376795897662
-0.0228315349668264,1.2308948040008545,-0.0701083466410636,-0.5220565795898438,0.0245308373123407,-0.0561664588749408,0.0,0.0,0.6357776211272599,-0.7283462464925619
-0.0235279090702533,1.2199275493621826,-0.0687375590205192,-0.4874095618724823,0.0236470494419336,-0.0176774971187114,0.0,0.0,-0.4900890549302983,0.9291930252072804
-0.0241555217653512,1.2085421085357666,-0.0605230927467346,-0.5059878826141357,0.0214325971901416,-0.0442929603159427,0.0,0.0,0.5430096157356501,0.9344449510091428
-0.0245841983705759,1.1978034973144531,-0.0391944348812103,-0.4772296845912933,0.0178014915436506,-0.0726286098361015,0.0,0.0,0.488583342358357,-0.8941115180364817
-0.0250728614628314,1.187235713005066,-0.0472909696400165,-0.4696578681468963,0.0162455756217241,-0.031120816245675,0.0,0.0,-0.1785343221923514,0.97981219367968
-0.025461196899414,1.1762487888336182,-0.0351650938391685,-0.4882670640945434,0.0126117710024118,-0.0726827010512352,0.0,0.0,-0.4267443106935058,0.8797448560475121
-0.0257654190063476,1.164833903312683,-0.025072306394577,-0.5072949528694153,0.0073247416876256,-0.1057498678565025,0.0,0.0,0.9036167736516744,-0.9148289026974952
-0.0263213161379098,1.1541109085083008,-0.052063725888729,-0.4765558838844299,0.0038301905151456,-0.0698971673846244,0.0,0.0,-0.9380983989165486,0.8809551636653723
-0.0268174167722463,1.1429516077041626,-0.0450370721518993,-0.4959665834903717,-0.0006845062598586,-0.0902938246726989,0.0,0.0,-0.4084210705768853,-0.7263838602368743
-0.0273633953183889,1.1313767433166504,-0.0517959967255592,-0.5144374370574951,-0.0034504123032093,-0.0553178675472736,0.0,0.0,-0.443077861184193,0.9275081182142196
-0.027844239026308,1.1193914413452148,-0.0441486909985542,-0.5327004790306091,-0.0073416638188064,-0.0778250619769096,0.0,0.0,-0.3275422586713827,0.6415992047990202
-0.0282774921506643,1.1069906949996948,-0.038695853203535,-0.5511643290519714,-0.0119086084887385,-0.0913392677903175,0.0,0.0,0.0364635241205144,-0.8495548635335185
-0.0287817008793354,1.0946272611618042,-0.0478316619992256,-0.5495120882987976,-0.0144602954387664,-0.0510339029133319,0.0,0.0,0.8847286594799515,0.8834721154862989
-0.0291698463261127,1.0833001136779783,-0.0348310396075248,-0.5034685134887695,-0.0183921679854393,-0.0786373764276504,0.0,0.0,0.9291314101861404,-0.7147961773244944
-0.0296944621950387,1.072320580482483,-0.0500239729881286,-0.4880159795284271,-0.0208034478127956,-0.0482254698872566,0.0,0.0,-0.5282365213986184,0.6800339537837015
-0.0301634781062603,1.0609257221221924,-0.0436238497495651,-0.5064867734909058,-0.024041885510087,-0.0647687837481498,0.0,0.0,0.9314463344496364,-0.9115061518528608
-0.0307673458009958,1.0497403144836426,-0.0591369345784187,-0.4971528947353363,-0.0252786986529827,-0.0247361846268177,0.0,0.0,-0.1049042331633258,0.8810817721575965
-0.0312899574637413,1.03813374042511,-0.0495332032442092,-0.5158960223197937,-0.0279700011014938,-0.0538260266184806,0.0,0.0,-0.1439664248117051,0.6606318071161603
-0.0317485816776752,1.0261096954345703,-0.0421244278550148,-0.5344757437705994,-0.0316671840846538,-0.0739436969161033,0.0,0.0,0.4232892197920164,-0.937844361080224
-0.0322847366333007,1.0142534971237185,-0.0520883277058601,-0.5269766449928284,-0.0331736244261264,-0.0301285777240991,0.0,0.0,0.5297124937942501,0.761242220951311
-0.0326876640319824,1.003034591674805,-0.0376502834260463,-0.4986810386180877,-0.0357756055891513,-0.0520398020744323,0.0,0.0,-0.956054666022088,0.9265337651050972
-0.0330109596252441,0.9914020895957948,-0.0283117927610874,-0.5171023011207581,-0.0397472158074379,-0.0794321224093437,0.0,0.0,0.7519639088454335,0.7656479802477866
-0.0332042686641216,0.9803109169006348,-0.0141933588311076,-0.4930801391601562,-0.0448223166167736,-0.1015021204948425,0.0,0.0,0.0071239119296635,-0.8720481919839944
-0.033510971814394,0.9695281386375428,-0.0276556462049484,-0.4793280065059662,-0.0478021167218685,-0.0595960393548011,0.0,0.0,-0.9834091067314148,-0.9022842049598694
-0.0338628776371479,0.9583271145820618,-0.0339838378131389,-0.4978649914264679,-0.0490025021135807,-0.0240074880421161,0.0,0.0,-0.9894962310791016,-0.4357813596725464
-0.0342031493782997,0.9467057585716248,-0.0331674963235855,-0.5165375471115112,-0.0498510040342807,-0.0169702656567096,0.0,0.0,-0.9828906655311584,-0.6625552177429199
-0.0345752723515033,0.934665858745575,-0.0378200635313987,-0.5350877642631531,-0.0492479801177978,0.0120603395625948,0.0,0.0,-0.9724903106689452,0.7397948503494263
-0.034881018102169,0.9221926927566528,-0.0301453527063131,-0.5543745160102844,-0.0496699586510658,-0.0084393080323934,0.0,0.0,-0.9946346282958984,-0.7010421752929688
-0.0352258682250976,0.9092957377433776,-0.0357077531516552,-0.5731514692306519,-0.0484573729336261,0.0242517720907926,0.0,0.0,-0.9829965233802797,0.0061984062194824
-0.03555803373456,0.8959786891937256,-0.0348035618662834,-0.5918241739273071,-0.0468998737633228,0.031150072813034,0.0,0.0,-0.9867067337036132,0.5728490352630615
-0.0358406081795692,0.8822446465492249,-0.0292380414903163,-0.6103684306144714,-0.045926421880722,0.0194690097123384,0.0,0.0,-0.9095417857170104,0.5807416439056396
-0.0360742583870887,0.8680930137634277,-0.0237862188369035,-0.6289510726928711,-0.0455144420266151,0.0082397377118468,0.0,0.0,-0.9794192314147948,-0.4390860199928283
-0.036294937133789,0.8535209894180298,-0.0228222887963056,-0.6476237773895264,-0.0447676815092563,0.0149351377040147,0.0,0.0,-0.9786851406097412,-0.0445011258125305
-0.0365024581551551,0.8385286331176758,-0.0218396876007318,-0.6662965416908264,-0.0436905249953269,0.0215430967509746,0.0,0.0,-0.8468123078346252,-0.0449943542480468
-0.0366966240108013,0.8231160044670105,-0.0208390317857265,-0.6849693655967712,-0.0422878451645374,0.0280534327030181,0.0,0.0,-0.7507124543190002,0.0669801235198974
-0.0368773452937603,0.8072829842567444,-0.0198209583759307,-0.7036424279212952,-0.0405650772154331,0.0344556719064712,0.0,0.0,-0.7622764110565186,-0.3448284864425659
-0.0370446220040321,0.7910298109054565,-0.0187860857695341,-0.7223155498504639,-0.0385281071066856,0.0407391525804996,0.0,0.0,-0.4737539291381836,0.146074891090393
-0.037198256701231,0.7743561863899231,-0.0177350398153066,-0.7409888505935669,-0.0361834466457366,0.0468930564820766,0.0,0.0,-0.5570604801177979,0.5295109748840332
-0.0373029708862304,0.7572581171989441,-0.0122532937675714,-0.7598736882209778,-0.0344246365129947,0.035175897181034,0.0,0.0,0.0501308441162109,0.5725529193878174
-0.0372642502188682,0.7404985427856445,0.0028471956029534,-0.7448424100875854,-0.0334124863147735,0.0202433206140995,0.0,0.0,-0.5296114683151245,0.0078243017196655
-0.0372117049992084,0.7233186960220337,0.0039431010372936,-0.7635155916213989,-0.0321154296398162,0.0259410236030817,0.0,0.0,-0.3445777893066406,0.3850619792938232
-0.0371452346444129,0.7057186961174011,0.005052744410932,-0.7821887731552124,-0.0305422618985176,0.0314635261893272,0.0,0.0,-0.2006347775459289,0.7402329444885254
-0.0370135307312011,0.6877025365829468,0.0126065192744135,-0.8007059693336487,-0.0299878008663654,0.0110893175005912,0.0,0.0,-0.3321344256401062,0.3217918872833252
-0.036867905408144,0.6692662239074707,0.0137418927624821,-0.8193792104721069,-0.0291765332221984,0.0162254404276609,0.0,0.0,-0.3528450727462768,0.0354290008544921
-0.0367083549499511,0.6504096388816833,0.0148892672732472,-0.8380526304244995,-0.0281190276145935,0.0211500506848096,0.0,0.0,0.0475647449493408,0.4633920192718506
-0.036447238177061,0.6316211819648743,0.0244326665997505,-0.8350130915641785,-0.0264642480760812,0.033095546066761,0.0,0.0,-0.0598765015602111,0.521209716796875
-0.0361293777823448,0.6124115586280823,0.0309799127280712,-0.8537470698356628,-0.0256634149700403,0.0160165410488843,0.0,0.0,0.5917890071868896,-0.2010204792022705
-0.0357800498604774,0.5933604836463928,0.0338703244924545,-0.8466939926147461,-0.024617014452815,0.0209282748401165,0.0,0.0,0.6679726839065552,0.174317717552185
-0.0355270393192768,0.5747886300086975,0.0246221516281366,-0.8254050612449646,-0.0239511132240295,0.0133181931450963,0.0,0.0,0.623249888420105,-0.6629329323768616
-0.0352693572640419,0.5570662617683411,0.0235141236335039,-0.7876259088516235,-0.0217316541820764,0.044389072805643,0.0,0.0,0.1794954538345337,0.4383366107940674
-0.0349348075687885,0.5392349362373352,0.030760770663619,-0.7924652695655823,-0.0190715529024601,0.0532019324600696,0.0,0.0,0.631110429763794,0.5241835117340088
-0.0345002189278602,0.522251546382904,0.0415756478905677,-0.7547937631607056,-0.0172223970293998,0.0369833633303642,0.0,0.0,0.2246477603912353,-0.242961049079895
-0.0341158881783485,0.5053760409355164,0.0367571003735065,-0.7500030994415283,-0.0155569789931178,0.0333084017038345,0.0,0.0,-0.2722484469413757,-0.3946229219436645
-0.0337179191410541,0.4880804419517517,0.0379883646965026,-0.7686770558357239,-0.0137688424438238,0.0357627086341381,0.0,0.0,0.6088356971740723,-0.289385437965393
-0.0332681648433208,0.4712730050086975,0.0429178848862648,-0.7469784021377563,-0.0117363221943378,0.0406505055725574,0.0,0.0,0.0161870718002319,0.0456533432006835
-0.0328781120479106,0.4548259973526001,0.0372219085693359,-0.730965793132782,-0.0099819367751479,0.0350877679884433,0.0,0.0,0.3414546251296997,-0.3083647489547729
-0.0324105247855186,0.4386612176895141,0.0446279048919677,-0.7184206247329712,-0.007881156168878,0.0420157425105571,0.0,0.0,0.5648698806762695,-0.4580719470977783
-0.0319588668644428,0.4226323366165161,0.0431326888501644,-0.712384045124054,-0.0058762412518262,0.0400982089340686,0.0,0.0,0.7425953149795532,-0.350066065788269
-0.0314206108450889,0.4066970646381378,0.051431942731142,-0.7082278728485107,-0.0035067470744252,0.0473899058997631,0.0,0.0,0.8798105716705322,-0.4128084182739258
-0.0309040062129497,0.3909211754798889,0.0494063347578048,-0.7011474370956421,-0.0012903759488835,0.0443274900317192,0.0,0.0,0.8366074562072754,-0.3812442421913147
-0.0303830150514841,0.3760478496551513,0.0499048791825771,-0.6610372066497803,0.0008761597564443,0.0433307662606239,0.0,0.0,0.8763265609741211,-0.1391550898551941
-0.029759407043457,0.3621442317962646,0.0597627833485603,-0.6179417371749878,0.0034359085839241,0.0511950924992561,0.0,0.0,0.5408637523651123,0.196146011352539
-0.0292308814823627,0.3489634096622467,0.0508024282753467,-0.5858203172683716,0.0054634450934827,0.0405507273972034,0.0,0.0,0.1417373418807983,0.3120095729827881
-0.0287809371948242,0.3357050716876983,0.0434325449168682,-0.5892658233642578,0.0070081804879009,0.0308945812284946,0.0,0.0,0.8264787197113037,0.3179632425308227
-0.0282805450260639,0.3233378827571869,0.0483523532748222,-0.5496604442596436,0.0086685428395867,0.0332071408629417,0.0,0.0,0.4793394804000854,0.5054435729980469
-0.0278304107487201,0.3113227188587188,0.0447138957679271,-0.5340090394020081,0.0089609054848551,0.0058473511599004,0.0,0.0,0.4436649084091186,0.5201585292816162
-0.0273846630007028,0.2997778654098511,0.0455933362245559,-0.5131005048751831,0.0079572582617402,-0.020073203369975,0.0,0.0,-0.2626435160636902,-0.1444207429885864
-0.0269276611506938,0.2878127694129944,0.0468735843896865,-0.5317744016647339,0.0067975739948451,-0.0231936946511268,0.0,0.0,0.3826775550842285,-0.7330988645553589
-0.0264396667480468,0.276158332824707,0.0485544651746749,-0.517979085445404,0.0070440773852169,0.00492999330163,0.0,0.0,-0.0434131026268005,-0.2265739440917968
-0.0259408950805664,0.2640836536884308,0.0498327128589153,-0.5366528630256653,0.0070905238389968,0.0009290195885114,0.0,0.0,0.6669414043426514,-0.5638781785964966
-0.0253786090761423,0.2521946132183075,0.0550089254975318,-0.528407633304596,0.0082965539768338,0.0241206921637058,0.0,0.0,0.6129577159881592,-0.4816582798957824
-0.0246669761836528,0.2407234013080597,0.0695121064782142,-0.5098400115966797,0.0099231516942381,0.0325320214033126,0.0,0.0,0.4079971313476562,-0.2988864779472351
-0.0238299369812011,0.2293379604816436,0.0817727744579315,-0.5060326457023621,0.0118337916210293,0.0382126867771148,0.0,0.0,0.6664783954620361,-0.5472394227981567
-0.0230415351688861,0.2186721414327621,0.0761118829250335,-0.4740615487098694,0.014529219828546,0.0539089441299438,0.0,0.0,-0.0228824615478515,-0.6294868588447571
-0.0222908966243267,0.2075898945331573,0.0714394897222518,-0.4925808906555176,0.0181037653237581,0.0714906901121139,0.0,0.0,0.5712820291519165,-0.2541021108627319
-0.0214241035282611,0.1970423758029937,0.0828354805707931,-0.4688310921192169,0.0218972265720367,0.0758693888783454,0.0,0.0,0.6325572729110718,-0.7658510208129883
-0.0205061919987201,0.1865521520376205,0.0865571349859237,-0.4663179516792297,0.0270709618926048,0.1034747213125228,0.0,0.0,0.5952472686767578,-0.8990381956100464
-0.0197208411991596,0.1763716340065002,0.0719361007213592,-0.4526017010211944,0.0335849300026893,0.1302791535854339,0.0,0.0,0.6399352550506592,-0.4396706223487854
-0.0188719742000103,0.1670594364404678,0.0782974883913993,-0.4140368103981018,0.0400985367596149,0.1302720457315445,0.0,0.0,0.3996200561523437,-0.1223443746566772
-0.0180540084838867,0.1580488532781601,0.0757063403725624,-0.4006458520889282,0.0461127907037735,0.1202849373221397,0.0,0.0,0.339691162109375,-0.9042347073554992
-0.0174453742802143,0.1495802998542785,0.0534903481602668,-0.3766242563724518,0.0534032210707664,0.1458087265491485,0.0,0.0,0.201371431350708,0.8059871196746826
-0.0167202949523925,0.1414668709039688,0.0671384930610656,-0.3607977926731109,0.0587054602801799,0.1060445308685302,0.0,0.0,0.2936763763427734,0.0042122602462768
-0.016064453870058,0.1338093429803848,0.0608893632888793,-0.3405296504497528,0.0633520781993866,0.092932716012001,0.0,0.0,0.2731001377105713,-0.1624498963356018
-0.0155017850920557,0.1265890449285507,0.0523439161479473,-0.3210694193840027,0.0672253966331482,0.0774664729833602,0.0,0.0,0.0881191492080688,-0.5612694025039673
-0.0150171276181936,0.119431123137474,0.0439556315541267,-0.3183391988277435,0.0716924890875816,0.0893416330218315,0.0,0.0,0.0991641283035278,-0.5963344573974609
-0.0146883968263864,0.1124377101659774,0.0277949478477239,-0.3110703825950622,0.0767078772187233,0.1003079414367675,0.0,0.0,-0.2393521070480346,0.936187744140625
-0.0142984390258789,0.1050281599164009,0.0358758345246315,-0.3294801414012909,0.079800471663475,0.0618519894778728,0.0,0.0,0.4828985929489136,-0.4113178253173828
-0.0138595579192042,0.0981736481189727,0.040865883231163,-0.304806113243103,0.0827939733862876,0.059870034456253,0.0,0.0,0.3294507265090942,-0.7406120300292969
-0.0134428981691598,0.0913355946540832,0.0376279354095459,-0.3041420876979828,0.0867904350161552,0.0799294561147689,0.0,0.0,0.3580570220947265,0.3590264320373535
-0.0129570960998535,0.0850296095013618,0.0445662960410118,-0.2805055677890777,0.0907731726765632,0.079654648900032,0.0,0.0,0.294252872467041,0.5085322856903076
-0.0125014306977391,0.0792180895805358,0.0431937091052532,-0.258437305688858,0.0931191071867942,0.0469187311828136,0.0,0.0,-0.0597061514854431,-0.3125729560852051
-0.0120418546721339,0.0729857087135315,0.0441907569766044,-0.2771070897579193,0.0948759466409683,0.0351368747651577,0.0,0.0,0.4508918523788452,0.5237199068069458
-0.01151361502707,0.0671086609363555,0.0525283403694629,-0.2612195014953613,0.095166377723217,0.005808672402054,0.0,0.0,0.413631796836853,-0.3343740701675415
-0.0110547067597508,0.0618530362844467,0.0462431386113166,-0.2335625290870666,0.0948177129030227,-0.0069729397073388,0.0,0.0,0.0444265604019165,-0.1910649538040161
-0.0106019023805856,0.0569253526628017,0.0460729524493217,-0.2189580053091049,0.0940261259675026,-0.0158318914473056,0.0,0.0,-0.2084124684333801,-0.5636599659919739
-0.0101851467043161,0.0515684448182582,0.0421312004327774,-0.2380549013614654,0.0935790240764617,-0.0089422585442662,0.0,0.0,0.3876631259918213,-0.0486282110214233
-0.0099172592163085,0.0465517863631248,0.028360828757286,-0.2228631973266601,0.0920183509588241,-0.0312134958803653,0.0,0.0,0.2009576559066772,0.9301910400390624
-0.0097174644470214,0.0416659452021122,0.0241102240979671,-0.2168997675180435,0.0879215896129608,-0.0819350183010101,0.0,0.0,0.1977589130401611,0.0854746103286743
-0.0095683094114065,0.0369680747389793,0.0197893138974905,-0.2085167020559311,0.0830984339118003,-0.0964632034301757,0.0,0.0,0.1610596179962158,0.1012262105941772
-0.00943164806813,0.0324122533202171,0.0191171746701002,-0.2021854072809219,0.0776983126997947,-0.1080024242401123,0.0,0.0,0.4094785451889038,-0.2867905497550964
-0.0092079164460301,0.0279077868908643,0.0279833264648914,-0.1999174952507019,0.0721454694867134,-0.1110568791627883,0.0,0.0,0.2097214460372924,-0.1096521019935607
-0.008949851617217,0.0237397048622369,0.031771432608366,-0.1849716454744339,0.0662483796477317,-0.1179418191313743,0.0,0.0,0.2948347330093384,-0.7001299262046814
-0.0087685585021972,0.0201009139418602,0.0233395639806985,-0.1615044772624969,0.0610960610210895,-0.1030465513467788,0.0,0.0,-0.1069971919059753,0.1334931850433349
-0.008589076809585,0.0160417649894952,0.0238478165119886,-0.1801771074533462,0.0552580840885639,-0.1167594417929649,0.0,0.0,0.3471925258636474,-0.4231129884719848
