x_pos,y_pos,x_vel,y_vel,angle,ang_vel,leg_1,leg_2,main_booster,lat_booster
-0.0015778541564941,1.4033645391464231,-0.1589422971010208,-0.3358022272586822,0.0010300250723958,0.0202641729265451,0.0,0.0,-0.8263030057328005,0.9569771263960212
-0.0031266212463378,1.3955676555633545,-0.153030663728714,-0.3465259969234466,-0.0008032618206925,-0.0366683676838874,0.0,0.0,-0.376233989296391,0.6709383347378347
-0.0046610832214355,1.3875055313110352,-0.1491650491952896,-0.3583222031593323,-0.0050409785471856,-0.0847624540328979,0.0,0.0,0.4356013829700278,0.9239780044012612
-0.0062862397171556,1.3798326253890991,-0.1554375290870666,-0.3410608172416687,-0.0120311537757515,-0.1398166567087173,0.0,0.0,0.6116393843693977,-0.6583295625358858
-0.0078634265810251,1.3728549480438232,-0.1514864861965179,-0.3101802468299866,-0.0181866791099309,-0.1231221184134483,0.0,0.0,0.0167328245868314,0.8791712712731603
-0.0093072894960641,1.3661136627197266,-0.1355993002653122,-0.2997451424598694,-0.0268729217350482,-0.1737414300441742,0.0,0.0,-0.0455959675054502,-0.7103414295291186
-0.0108483312651515,1.3591160774230957,-0.1459752023220062,-0.3111734390258789,-0.0349001325666904,-0.1605593711137771,0.0,0.0,-0.6718313047580347,0.7216692700949382
-0.0123543739318847,1.3518584966659546,-0.1398827582597732,-0.3228430449962616,-0.0455163680016994,-0.2123445719480514,0.0,0.0,0.1490791240557047,-0.652985834576606
-0.0139273647218942,1.3452262878417969,-0.147055298089981,-0.2951056063175201,-0.0556589215993881,-0.2028698474168777,0.0,0.0,-0.321778265504407,0.9481112953745492
-0.0154553409665822,1.3383362293243408,-0.1398344337940216,-0.306760162115097,-0.0684907734394073,-0.2566606402397156,0.0,0.0,-0.0592833231190337,0.7653068766544688
-0.0169404987245798,1.3311830759048462,-0.1330006867647171,-0.3186958432197571,-0.0838721096515655,-0.3076550662517547,0.0,0.0,0.2283214064824503,0.8911432861427013
-0.0182846076786518,1.32434344291687,-0.1163602098822593,-0.3050911724567413,-0.1018001139163971,-0.3585933744907379,0.0,0.0,0.297863658846268,0.7775267440050296
-0.0194154735654592,1.3180469274520874,-0.0928260758519172,-0.2813552320003509,-0.1219434514641761,-0.4029037058353424,0.0,0.0,0.5275958961112852,-0.686577919404193
-0.0205059051513671,1.311976432800293,-0.0895323306322097,-0.271510511636734,-0.1414020359516143,-0.3892072141170501,0.0,0.0,-0.3354921304362972,0.6562844002281089
-0.0215436927974224,1.3056464195251465,-0.081886887550354,-0.2835579514503479,-0.1633004248142242,-0.4380078911781311,0.0,0.0,0.1973592548867448,-0.7052461836096819
-0.0225213058292865,1.2993669509887695,-0.0766272097826004,-0.2815519273281097,-0.1845063120126724,-0.424156129360199,0.0,0.0,-0.8593527989554512,0.7675889266844218
-0.0234282501041889,1.2928245067596436,-0.0669610798358917,-0.2939099669456482,-0.2084290236234665,-0.4784977436065674,0.0,0.0,0.639727798815408,0.78013331330288
-0.0240461342036724,1.286504149436951,-0.0360887646675109,-0.2847351133823395,-0.2344644963741302,-0.520757257938385,0.0,0.0,-0.3544334253484704,0.7332774737320477
-0.0245932582765817,1.2799195051193235,-0.0266773905605077,-0.2973761856555938,-0.2630470693111419,-0.571703314781189,0.0,0.0,-0.8875537937997189,-0.7119119890122299
-0.0251935012638568,1.2731122970581057,-0.0329642370343208,-0.3076456189155578,-0.2908374965190887,-0.5558589696884155,0.0,0.0,0.0948642474095626,-0.6088525309716186
-0.0255931857973337,1.266757845878601,-0.0136500317603349,-0.2879072725772857,-0.31809863448143,-0.545272171497345,0.0,0.0,0.9258568490575434,-0.6309449510390772
-0.0258502960205078,1.2609035968780518,-7.80476038926281e-05,-0.2660405337810516,-0.3448845446109772,-0.5357667207717896,0.0,0.0,-0.2506163043056115,-0.925481647174818
-0.0261427871882915,1.2548294067382812,-0.0044636582024395,-0.2761190533638,-0.371033102273941,-0.5230182409286499,0.0,0.0,-0.4884746730678235,-0.9255852032272534
-0.0264760013669729,1.2485326528549194,-0.0095497472211718,-0.2862255275249481,-0.3963612914085388,-0.506609320640564,0.0,0.0,-0.8637180043682466,0.935127877734012
-0.0267316810786724,1.2419586181640625,9.27628789213486e-05,-0.2995933890342712,-0.4240153133869171,-0.5531302690505981,0.0,0.0,-0.2027362502168135,-0.9995836440378292
-0.0270527843385934,1.2351828813552856,-0.0082931611686944,-0.3085236847400665,-0.4499376118183136,-0.5184453129768372,0.0,0.0,0.7532272569131107,-0.6756737507570805
-0.027050781995058,1.2292368412017822,0.0232006050646305,-0.271885871887207,-0.4752918481826782,-0.5070844888687134,0.0,0.0,0.108939342727949,0.6722045093849445
-0.0268013961613178,1.2238216400146484,0.0497416667640209,-0.249451071023941,-0.503005862236023,-0.5542807579040527,0.0,0.0,0.280539760327372,0.8523973103604076
-0.0262668617069721,1.2189924716949463,0.08027134090662,-0.2247872501611709,-0.5334464907646179,-0.6088140606880188,0.0,0.0,0.6139693325297622,-0.7109812442788539
-0.0255187042057514,1.2145919799804688,0.1006204113364219,-0.2060583680868148,-0.563283383846283,-0.596737802028656,0.0,0.0,-0.1506968277064984,-0.7831478923844857
-0.0247759819030761,1.2100019454956057,0.0989647060632705,-0.2146909683942794,-0.5923437476158142,-0.5812072157859802,0.0,0.0,0.7260743004482577,-0.749983979689081
-0.0238577835261821,1.2058570384979248,0.1155602931976318,-0.1951600164175033,-0.6208252310752869,-0.5696297287940979,0.0,0.0,0.907474443633466,0.8444344834192236
-0.0223833080381155,1.2026381492614746,0.1730124354362487,-0.1556230187416076,-0.6521735191345215,-0.6269652843475342,0.0,0.0,-0.6902427906505646,0.8435649776089952
-0.02081642113626,1.1991183757781982,0.1836258023977279,-0.1705925315618515,-0.686040997505188,-0.6773494482040405,0.0,0.0,0.7063766146287374,0.7331470574692822
-0.0187285430729389,1.196040153503418,0.236868068575859,-0.15263731777668,-0.7223426103591919,-0.7260338068008423,0.0,0.0,-0.8548163079400701,0.6239276741803267
-0.0165462493896484,1.1926782131195068,0.2471055090427398,-0.166984423995018,-0.7609184980392456,-0.7715184688568115,0.0,0.0,-0.6729874550373967,0.8246019981038072
-0.0142635349184274,1.1890138387680054,0.2579492330551147,-0.1824242919683456,-0.8021221160888672,-0.8240739703178406,0.0,0.0,-0.4781898431200631,0.7288818939501422
-0.0118752475827932,1.185054063796997,0.2690356075763702,-0.1976537108421325,-0.8459191918373108,-0.8759424090385437,0.0,0.0,0.9431005844628312,-0.8347044681246051
-0.0087523460388183,1.1819791793823242,0.3404218256473541,-0.1586648374795913,-0.8887317776679993,-0.8562521934509277,0.0,0.0,-0.017279130751775,-0.9616768027353956
-0.0056077959015965,1.1787502765655518,0.3403733670711517,-0.1656067073345184,-0.9302754998207092,-0.8308750987052917,0.0,0.0,0.128360248506649,-0.6125419463917943
-0.0020442008972167,1.1759175062179563,0.3805873095989227,-0.1484203934669494,-0.971313774585724,-0.8207666277885437,0.0,0.0,-0.7658354043960571,-0.9338565468788148
0.0015538216102868,1.17291522026062,0.382134735584259,-0.1560881733894348,-1.0114542245864868,-0.8028120994567871,0.0,0.0,-0.5910980701446533,-0.9426653385162354
0.0051823616959154,1.1697444915771484,0.3832896947860718,-0.1635621190071106,-1.050579309463501,-0.7825007438659668,0.0,0.0,-0.7851992845535278,-0.9482327103614808
0.0088488580659031,1.1664104461669922,0.3852588832378387,-0.1707109659910202,-1.0886541604995728,-0.761496365070343,0.0,0.0,-0.5649712085723877,-0.7732759118080139
0.0125508308410644,1.1629136800765991,0.3869826197624206,-0.1777047365903854,-1.1255918741226196,-0.7387531995773315,0.0,0.0,-0.8133475184440613,-0.9874712824821472
0.0162868499755859,1.1592633724212646,0.3886119723320007,-0.1840835213661193,-1.161166787147522,-0.7114979028701782,0.0,0.0,-0.7598324418067932,-0.97768634557724
0.0200636871159076,1.1554584503173828,0.3910147547721863,-0.190471351146698,-1.1954363584518433,-0.6853910088539124,0.0,0.0,-0.7817813754081726,-0.9655666947364808
0.0238858219236135,1.151533126831055,0.3937486410140991,-0.1948558688163757,-1.2277122735977173,-0.6455174088478088,0.0,0.0,-0.8024831414222717,-0.993383765220642
0.0277528762817382,1.147493600845337,0.3965753614902496,-0.1987674832344055,-1.2578166723251345,-0.6020879745483398,0.0,0.0,-0.8229424357414246,-0.9680607914924622
0.0316648483276367,1.1433145999908447,0.3997260928153991,-0.2040958255529403,-1.2862640619277954,-0.568947434425354,0.0,0.0,-0.8660304546356201,-0.8114411234855652
0.0356337539851665,1.1389552354812622,0.4044407904148102,-0.2117819190025329,-1.313987374305725,-0.5544677972793579,0.0,0.0,-0.8256788849830627,-0.8361960053443909
0.0396591201424598,1.134449481964111,0.408979594707489,-0.2174483090639114,-1.3402317762374878,-0.5248881578445435,0.0,0.0,-0.8959023356437683,-0.9140483140945436
0.0437383651733398,1.1297767162322998,0.4134888648986816,-0.2242773175239563,-1.3654121160507202,-0.5036057233810425,0.0,0.0,-0.925359070301056,-0.9565333724021912
0.0478792190551757,1.1249619722366333,0.4187110960483551,-0.2296174615621566,-1.3890000581741333,-0.4717583060264587,0.0,0.0,-0.9595497250556946,-0.9495689272880554
0.0520782470703125,1.1199768781661987,0.4238085746765136,-0.2365870475769043,-1.4115842580795288,-0.4516830444335937,0.0,0.0,-0.9656661748886108,-0.9878594875335692
0.0563307777047157,1.1148688793182373,0.4283598363399505,-0.2407093495130539,-1.4320785999298096,-0.4098876118659973,0.0,0.0,-0.9689574837684632,-0.8875578045845032
0.0606508255004882,1.109595775604248,0.4345527291297912,-0.2473349124193191,-1.4514557123184204,-0.3875454664230346,0.0,0.0,-0.9794272184371948,-0.9846261739730836
0.0650365799665451,1.1041581630706787,0.4406298696994781,-0.253909170627594,-1.4696824550628662,-0.3645338416099548,0.0,0.0,-0.9812940955162048,-0.9864811897277832
0.0694923400878906,1.0985679626464844,0.4471719264984131,-0.2597501277923584,-1.486481785774231,-0.3359874784946441,0.0,0.0,-0.9892067313194276,-0.955710470676422
0.0740165710449218,1.0928484201431274,0.4535828530788421,-0.2641837298870086,-1.501309871673584,-0.2965621054172516,0.0,0.0,-0.9915819764137268,-0.855803370475769
0.0786011666059494,1.086965560913086,0.4593311250209808,-0.2706131935119629,-1.5148963928222656,-0.2717311382293701,0.0,0.0,-0.99409282207489,-0.8961803317070007
0.0832538604736328,1.0809494256973269,0.4658606946468353,-0.275256484746933,-1.5265668630599976,-0.233412504196167,0.0,0.0,-0.9968538880348206,-0.9795188903808594
0.0879714041948318,1.0747694969177246,0.472173124551773,-0.2816869616508484,-1.5369805097579956,-0.208273559808731,0.0,0.0,-0.9972369074821472,-0.9904012084007264
0.0927566513419151,1.0684452056884766,0.4787844121456146,-0.2869544625282287,-1.545688271522522,-0.1741517484188079,0.0,0.0,-0.9975962042808532,-0.9923089146614076
0.0976040810346603,1.0619792938232422,0.484896719455719,-0.2920443415641784,-1.5526063442230225,-0.1383616030216217,0.0,0.0,-0.9979516863822936,-0.9714521169662476
0.1025191321969032,1.0553932189941406,0.4915787279605865,-0.295845627784729,-1.557236909866333,-0.0926103368401527,0.0,0.0,-0.9983327388763428,-0.9279452562332152
0.1075093299150466,1.0486557483673096,0.4990462362766266,-0.301480084657669,-1.5602580308914185,-0.060422770678997,0.0,0.0,-0.9981871843338012,-0.981518566608429
0.1125596016645431,1.04176127910614,0.5050486326217651,-0.3074388206005096,-1.561772108078003,-0.0302808322012424,0.0,0.0,-0.9986113905906676,-0.9459550380706788
0.117685317993164,1.0347161293029783,0.5125741958618164,-0.3130145370960235,-1.5616198778152466,0.0030446539167314,0.0,0.0,-0.9988380074501038,-0.9735733270645142
0.122876264154911,1.0275447368621826,0.5190669894218445,-0.3171137273311615,-1.5592236518859863,0.0479251146316528,0.0,0.0,-0.9987345337867736,-0.9797065258026124
0.128137782216072,1.0202471017837524,0.5260879397392273,-0.3211850821971893,-1.554554104804993,0.0933900326490402,0.0,0.0,-0.9985575675964355,-0.97738379240036
0.1334683448076248,1.0128004550933838,0.5329359769821167,-0.3265995681285858,-1.5480968952178955,0.1291435211896896,0.0,0.0,-0.998503565788269,-0.9683083295822144
0.1388734877109527,1.0052324533462524,0.5402629971504211,-0.3303510546684265,-1.5392050743103027,0.1778374910354614,0.0,0.0,-0.9980332255363464,-0.9221754670143129
0.1443460434675216,0.99750155210495,0.5468707084655762,-0.3365500569343567,-1.528775334358215,0.2085937261581421,0.0,0.0,-0.9980696439743042,-0.9589688777923584
0.1498802155256271,0.989630162715912,0.5528014898300171,-0.3414114713668823,-1.5162737369537354,0.2500311434268951,0.0,0.0,-0.99700129032135,-0.862095057964325
0.1554750502109527,0.981589674949646,0.5586205124855042,-0.3479329347610473,-1.502298355102539,0.2795076668262481,0.0,0.0,-0.9972206950187684,-0.8753585815429688
0.1611295640468597,0.9733972549438475,0.5642393827438354,-0.3534205555915832,-1.4864294528961182,0.3173785805702209,0.0,0.0,-0.996054470539093,-0.8478573560714722
0.1668543815612793,0.9650469422340392,0.5708380937576294,-0.3592677712440491,-1.4687899351119995,0.3527892231941223,0.0,0.0,-0.9946034550666808,-0.8111461400985718
0.1726502478122711,0.956520676612854,0.5774549245834351,-0.3661510050296783,-1.449743390083313,0.3809299767017364,0.0,0.0,-0.992307722568512,-0.7188712358474731
0.1785144805908203,0.9478353261947632,0.5836803913116455,-0.3720515370368957,-1.4288859367370603,0.4171502590179443,0.0,0.0,-0.9851540327072144,-0.8158866167068481
0.1844346076250076,0.9390033483505248,0.5884771943092346,-0.3771460354328155,-1.4058493375778198,0.4607320427894592,0.0,0.0,-0.961603045463562,-0.748832106590271
0.1904230117797851,0.9299947023391724,0.5944958925247192,-0.3840837478637695,-1.381328582763672,0.4904159009456634,0.0,0.0,-0.9387841820716858,-0.7113374471664429
0.196472555398941,0.9208220839500428,0.5996273756027222,-0.3902245163917541,-1.354967474937439,0.527222216129303,0.0,0.0,-0.9120814800262452,-0.7673169374465942
0.2025845497846603,0.9114868640899658,0.6047140955924988,-0.3963237106800079,-1.3267197608947754,0.5649577379226685,0.0,0.0,-0.9041150808334352,-0.8181565403938293
0.2087584435939788,0.90198814868927,0.6096034646034241,-0.4024635851383209,-1.2965627908706665,0.6031399369239807,0.0,0.0,-0.8671916723251343,-0.849934995174408
0.2149925231933593,0.8923135995864868,0.614243745803833,-0.4093811810016632,-1.264739155769348,0.636473536491394,0.0,0.0,-0.8013115525245667,-0.8672046661376953
0.2212781906127929,0.8824713826179504,0.6177521347999573,-0.4157876670360565,-1.2309684753417969,0.6754130125045776,0.0,0.0,-0.7860077023506165,-0.9010782837867736
0.2276168763637542,0.8724543452262878,0.6213153600692749,-0.4226854741573334,-1.195398449897766,0.711400032043457,0.0,0.0,-0.7705734372138977,-0.9520599842071532
0.2340126037597656,0.8622596859931946,0.6251361966133118,-0.4298222959041595,-1.15810227394104,0.7459233999252319,0.0,0.0,-0.6608856916427612,-0.9794653058052064
0.2404588758945465,0.8518877625465393,0.6280874013900757,-0.4369610548019409,-1.1189854145050049,0.7823371291160583,0.0,0.0,-0.6887477040290833,-0.9739670157432556
0.2469554841518402,0.8413681983947754,0.6306007504463196,-0.4425365328788757,-1.0774505138397217,0.8306988477706909,0.0,0.0,-0.5912550091743469,-0.982679009437561
0.2535029351711273,0.8306957483291626,0.6329466104507446,-0.4485259652137756,-1.0336039066314695,0.8769327402114868,0.0,0.0,-0.5252840518951416,-0.9864627122879028
0.2601026594638824,0.8198544383049011,0.6354173421859741,-0.4555911719799042,-0.9877941012382508,0.9161964654922484,0.0,0.0,-0.443005621433258,-0.9922434091567992
0.2667431831359863,0.8088409304618835,0.6364952325820923,-0.4628953039646148,-0.9399280548095704,0.957320511341095,0.0,0.0,-0.2973387241363525,-0.9948119521141052
0.2734155654907226,0.7976828217506409,0.6361108422279358,-0.4688112437725067,-0.8893874883651733,1.0108121633529663,0.0,0.0,-0.18604177236557,-0.9959881901741028
0.2801358103752136,0.7863689064979553,0.6374098062515259,-0.4757257103919983,-0.8366662859916687,1.0544252395629885,0.0,0.0,0.1477308273315429,-0.9961500763893129
0.2871685922145843,0.7753223776817322,0.6647947430610657,-0.4638976752758026,-0.7814499139785767,1.1043295860290527,0.0,0.0,0.5821863412857056,-0.9722754955291748
0.2946772575378418,0.7650824785232544,0.7084255218505859,-0.4284538030624389,-0.723889946937561,1.151200532913208,0.0,0.0,0.8491287231445312,-0.9611012935638428
0.3028145730495453,0.7554622888565063,0.7670375108718872,-0.4015021920204162,-0.6637824177742004,1.2021515369415283,0.0,0.0,0.9418179988861084,-0.979192554950714
0.3114668726921081,0.7468013763427734,0.8143439292907715,-0.3598936796188354,-0.6013325452804565,1.2490010261535645,0.0,0.0,0.9894654750823976,-0.9392877817153932
0.3205642700195312,0.7391980886459351,0.8547120094299316,-0.314287781715393,-0.5367171764373779,1.2923102378845217,0.0,0.0,0.9960687160491944,-0.9905610084533693
0.3299547135829925,0.7322399020195007,0.8797101974487305,-0.2873019576072693,-0.4697213768959045,1.3399189710617063,0.0,0.0,0.9977532625198364,-0.8860166668891907
0.3395551741123199,0.7261998653411865,0.8968408703804016,-0.2486730962991714,-0.4008071720600128,1.3782875537872314,0.0,0.0,0.99820876121521,-0.8786641359329224
0.3492328524589538,0.7209877967834473,0.9009689092636108,-0.2144189029932022,-0.3300934433937073,1.4142787456512451,0.0,0.0,0.99790358543396,-0.7636593580245972
0.3593426644802093,0.7167783975601196,0.9402899742126464,-0.172642096877098,-0.2571071088314056,1.459730863571167,0.0,0.0,0.9993331432342528,-0.4353847503662109
0.3697094023227691,0.7129965424537659,0.9638434648513794,-0.1570232659578323,-0.1833715736865997,1.474714756011963,0.0,0.0,0.999321222305298,-0.6039702296257019
0.3804496824741363,0.7103549838066101,0.9980063438415528,-0.1097714975476265,-0.1074781566858291,1.5178735256195068,0.0,0.0,0.9975824356079102,-0.5301535725593567
0.3912835121154785,0.708945631980896,1.0052839517593384,-0.0588328689336776,-0.0301735326647758,1.5460975170135498,0.0,0.0,0.9864745140075684,0.1516865491867065
0.4023782610893249,0.7088896632194519,1.0299054384231567,-0.0027500907890498,0.0483781769871711,1.5710394382476809,0.0,0.0,0.9641051292419434,-0.7405495047569275
0.4135321676731109,0.7096939086914062,1.033908724784851,0.0311346631497144,0.1291049718856811,1.6145416498184204,0.0,0.0,0.8740919828414917,-0.8026743531227112
0.4245410859584808,0.7116987705230713,1.0182019472122192,0.0798558443784713,0.2118950337171554,1.6558074951171875,0.0,0.0,0.4095277786254883,0.1658333539962768
0.4354999661445617,0.7145364880561829,1.0138977766036987,0.1122095584869384,0.2954178750514984,1.6704641580581665,0.0,0.0,-0.3326629400253296,0.8038327693939209
0.4465626776218414,0.7172311544418335,1.0275837182998655,0.1016615778207779,0.3775976300239563,1.6436017751693726,0.0,0.0,0.0567220449447631,0.9035043716430664
0.4574881494045257,0.7202913165092468,1.0175539255142212,0.1140522733330726,0.4584528803825378,1.6171109676361084,0.0,0.0,0.4031621217727661,0.8406945466995239
0.4681935310363769,0.7237192392349243,0.9996275901794434,0.1268977373838424,0.5379610657691956,1.5901697874069214,0.0,0.0,0.5511095523834229,0.9769039154052734
0.4786930978298187,0.7276839017868042,0.9835945963859558,0.1476731449365615,0.6159241199493408,1.559267282485962,0.0,0.0,0.5239264965057373,0.8532648086547852
0.4890003204345703,0.7321396470069885,0.968877911567688,0.1666714996099472,0.6926383972167969,1.53429114818573,0.0,0.0,0.946991205215454,0.980684757232666
0.499241828918457,0.7371175289154053,0.9670584797859192,0.1874306797981262,0.7680262923240662,1.507762432098389,0.0,0.0,0.4188876152038574,0.8505580425262451
0.509196400642395,0.7426969408988953,0.9431970715522766,0.2120215594768524,0.8421663045883179,1.4828057289123535,0.0,0.0,-0.4808107614517212,0.960669755935669
0.5192021131515503,0.7481616735458374,0.9535211324691772,0.2053436338901519,0.9146058559417723,1.448796033859253,0.0,0.0,0.9998233318328856,0.8532741069793701
0.529006838798523,0.7539317607879639,0.9382979273796082,0.217417299747467,0.9858405590057372,1.4246991872787476,0.0,0.0,0.7679133415222168,0.9924834966659546
