x_pos,y_pos,x_vel,y_vel,angle,ang_vel,leg_1,leg_2,main_booster,lat_booster
-0.0015208243858069,1.4031710624694824,-0.1537159830331802,-0.3443965017795563,0.0014602629235014,0.0287828184664249,0.0,0.0,-0.1212804317474365,0.8090169429779053
-0.0029710768721997,1.3949882984161377,-0.1443808227777481,-0.3636816442012787,0.00082240923075,-0.0127575667575001,0.0,0.0,-0.1654448509216308,0.5172346830368042
-0.0043709753081202,1.386348009109497,-0.1377396434545517,-0.3840147852897644,-0.0014014961197972,-0.044482372701168,0.0,0.0,0.2737802267074585,0.3650950193405151
-0.0058623314835131,1.3778324127197266,-0.1460949182510376,-0.3784753382205963,-0.0044169481843709,-0.0603146664798259,0.0,0.0,-0.2544888257980346,-0.2986136674880981
-0.0073549272492527,1.368863582611084,-0.1458408534526825,-0.3986268937587738,-0.0077973580919206,-0.0676143616437912,0.0,0.0,0.2720578908920288,0.5097718238830566
-0.0086913108825683,1.360066533088684,-0.1291023790836334,-0.3910118341445923,-0.0122898779809474,-0.0898585766553878,0.0,0.0,0.0611718893051147,0.325250506401062
-0.0100405691191554,1.3513728380203247,-0.1299118846654892,-0.3864279091358185,-0.0172438062727451,-0.0990876033902168,0.0,0.0,-0.1187611818313598,-0.26024329662323
-0.0113933561369776,1.3422266244888306,-0.1298597455024719,-0.4065785109996795,-0.0226034261286258,-0.1072023510932922,0.0,0.0,0.0748862028121948,-0.0288203954696655
-0.0127460481598973,1.3334442377090454,-0.129380464553833,-0.3904270529747009,-0.0284193363040685,-0.1163289174437522,0.0,0.0,0.2740993499755859,-0.0160467028617858
-0.0140881538391113,1.3250491619110107,-0.1279016435146331,-0.3732512891292572,-0.0346698984503746,-0.1250226199626922,0.0,0.0,-0.0130069255828857,0.0973014831542968
-0.0154358865693211,1.3162014484405518,-0.1280028074979782,-0.3934050500392914,-0.0413648523390293,-0.1339111179113388,0.0,0.0,-0.5673412084579468,0.1367613077163696
-0.0167896263301372,1.306901454925537,-0.128143310546875,-0.4135535061359405,-0.0485165305435657,-0.1430471241474151,0.0,0.0,-0.3221016526222229,0.288719892501831
-0.0181497577577829,1.2971490621566772,-0.1283178031444549,-0.4337047934532165,-0.0561370067298412,-0.1524234116077423,0.0,0.0,-0.4533528089523315,-0.7789084315299988
-0.0195713993161916,1.2869418859481812,-0.1353606730699539,-0.4539246261119842,-0.0628706291317939,-0.1346849203109741,0.0,0.0,0.5051400661468506,0.5302517414093018
-0.0207731239497661,1.277395248413086,-0.112166479229927,-0.4246472716331482,-0.070789448916912,-0.1583909392356872,0.0,0.0,-0.7403956055641174,-0.4741425514221191
-0.021982192993164,1.2673964500427246,-0.1124105080962181,-0.4448110461235046,-0.0792110487818718,-0.1684470623731613,0.0,0.0,-0.7003307938575745,-0.3841499090194702
-0.0231989864259958,1.2569459676742554,-0.1126642376184463,-0.464963287115097,-0.0881465300917625,-0.1787262260913849,0.0,0.0,-0.7023060917854309,-0.3223695755004883
-0.0244235042482614,1.2460439205169678,-0.1129234284162521,-0.4851199388504028,-0.0976063162088394,-0.189212828874588,0.0,0.0,-0.5449342131614685,-0.1654136180877685
-0.0256558414548635,1.2346904277801514,-0.1131822913885116,-0.5052791237831116,-0.107600450515747,-0.1999009549617767,0.0,0.0,-0.3081290125846863,-0.2124979496002197
-0.0268960949033498,1.2228858470916748,-0.1134349480271339,-0.525439977645874,-0.1181386932730674,-0.2107836902141571,0.0,0.0,-0.1465402245521545,-0.8737897872924805
-0.0281977653503417,1.2106462717056274,-0.1204075366258621,-0.5447843074798584,-0.1278544962406158,-0.194333404302597,0.0,0.0,-0.5919734835624695,-0.8824684619903564
-0.0295754428952932,1.1979633569717407,-0.1291892230510711,-0.5644370317459106,-0.1364092379808426,-0.1711099445819854,0.0,0.0,0.6744749546051025,-0.9411054253578186
-0.0308133121579885,1.1856329441070557,-0.1167393773794174,-0.5486806035041809,-0.143450453877449,-0.1408372670412063,0.0,0.0,-0.5550288558006287,-0.943804919719696
-0.0321251861751079,1.1728544235229492,-0.1252215206623077,-0.5685184597969055,-0.1494107395410537,-0.119216039776802,0.0,0.0,0.4950680732727051,-0.935728132724762
-0.0335749611258506,1.1605398654937744,-0.1401476114988327,-0.5478101968765259,-0.1542414277791977,-0.0966225489974021,0.0,0.0,-0.7189658284187317,-0.785402238368988
-0.0351098999381065,1.1477738618850708,-0.1500189751386642,-0.56773841381073,-0.157714769244194,-0.0694668442010879,0.0,0.0,0.1311943531036377,-0.4075827598571777
-0.0365711227059364,1.135292410850525,-0.1420512497425079,-0.5551701784133911,-0.1617808192968368,-0.0813205614686012,0.0,0.0,-0.358018159866333,-0.8616563081741333
-0.0381196960806846,1.1223878860473633,-0.1522785872220993,-0.5738134980201721,-0.1643541753292083,-0.0514673478901386,0.0,0.0,0.6443078517913818,-0.7787917256355286
-0.0397494323551654,1.1102290153503418,-0.1610811650753021,-0.5406061410903931,-0.1662459075450897,-0.0378345437347888,0.0,0.0,0.9093260765075684,0.1640087366104126
-0.0413153655827045,1.0984578132629397,-0.1539718359708786,-0.5234569311141968,-0.1688753366470337,-0.0525886602699756,0.0,0.0,0.5743832588195801,0.0290578603744506
-0.0427331924438476,1.0874234437942505,-0.1386075913906097,-0.4907806515693664,-0.1720539480447769,-0.0635721161961555,0.0,0.0,-0.8281581401824951,-0.0060913562774658
-0.0441554076969623,1.0759375095367432,-0.1384147703647613,-0.5109351277351379,-0.1758701354265213,-0.0763236656785011,0.0,0.0,-0.3845069408416748,-0.7976621985435486
-0.0456510558724403,1.064026117324829,-0.1469331830739975,-0.5297116041183472,-0.1785066574811935,-0.0527303330600261,0.0,0.0,-0.2384331226348877,-0.7263799905776978
-0.0472129806876182,1.051673412322998,-0.1545225083827972,-0.5492107272148132,-0.1801852583885193,-0.0335721112787723,0.0,0.0,0.4888687133789062,-0.9112766981124878
-0.0487301833927631,1.039720058441162,-0.1512382626533508,-0.5313246250152588,-0.1806703209877014,-0.0097012044861912,0.0,0.0,0.1377773284912109,0.4290337562561035
-0.0501429550349712,1.0280801057815552,-0.140200600028038,-0.5174626708030701,-0.181755781173706,-0.0217092167586088,0.0,0.0,-0.666551411151886,0.496798038482666
-0.0515564903616905,1.0159884691238403,-0.1396108567714691,-0.5376173257827759,-0.183504045009613,-0.0349652059376239,0.0,0.0,-0.929625928401947,-0.7755048274993896
-0.0530255325138568,1.0034668445587158,-0.1459516882896423,-0.5566335916519165,-0.1844581216573715,-0.0190813411027193,0.0,0.0,-0.4950096607208252,0.0760103464126586
-0.0544934272766113,0.9904937148094176,-0.145176276564598,-0.5767883062362671,-0.1860830783843994,-0.0324993915855884,0.0,0.0,-0.8344730138778687,-0.7034574151039124
-0.0560112968087196,0.9770843982696532,-0.1508356034755706,-0.5960830450057983,-0.187036782503128,-0.0190740004181861,0.0,0.0,0.1028741598129272,-0.8556728363037109
-0.0575767531991004,0.9640388488769532,-0.1566115915775299,-0.57979416847229,-0.1869718432426452,0.0012983875349164,0.0,0.0,-0.7796025276184082,-0.7550246715545654
-0.0591850280761718,0.9505534172058104,-0.1614123433828354,-0.5992850065231323,-0.1863845437765121,0.0117459800094366,0.0,0.0,-0.9858800172805786,-0.196300208568573
-0.0607882514595985,0.9366162419319152,-0.1602278649806976,-0.6194400191307068,-0.1864811331033706,-0.0019316965481266,0.0,0.0,-0.7378567457199097,-0.0587474107742309
-0.062385369092226,0.9222275614738464,-0.1589345484972,-0.6395951509475708,-0.1872642040252685,-0.0156610552221536,0.0,0.0,-0.9710632562637328,-0.5140944123268127
-0.0640187263488769,0.9073934555053712,-0.1629605144262313,-0.6593401432037354,-0.1876387894153595,-0.0074920482002198,0.0,0.0,-0.7291570901870728,-0.4324445724487304
-0.0656437873840332,0.8921079039573669,-0.1614432632923126,-0.6794955134391785,-0.1887042373418808,-0.0213089473545551,0.0,0.0,-0.2774848937988281,-0.312533974647522
-0.0672593116760253,0.8763708472251892,-0.1598114222288131,-0.6996509432792664,-0.1904623359441757,-0.0351617969572544,0.0,0.0,-0.5657188892364502,-0.7169061899185181
-0.0689293891191482,0.8602089285850525,-0.1662631332874298,-0.7184044122695923,-0.191201776266098,-0.0147887244820594,0.0,0.0,-0.6855422854423523,-0.2687761187553406
-0.0705875381827354,0.8435955047607422,-0.1643981039524078,-0.7385599613189697,-0.192636638879776,-0.0286972112953662,0.0,0.0,0.4883956909179687,-0.738029956817627
-0.0722233802080154,0.8272258639335632,-0.1628986597061157,-0.7276251912117004,-0.1933236867189407,-0.0137408943846821,0.0,0.0,0.0561866760253906,-0.8021424412727356
-0.0737323760986328,0.8109294772148132,-0.1511629074811935,-0.7242485880851746,-0.1930568516254425,0.0053368052467703,0.0,0.0,-0.7206164598464966,-0.6223762035369873
-0.0752783790230751,0.7942012548446655,-0.1555355638265609,-0.7433568835258484,-0.1921156197786331,0.0188245717436075,0.0,0.0,-0.6567100882530212,-0.2317739129066467
-0.0768078789114952,0.7770215272903442,-0.1531954109668731,-0.7635126709938049,-0.1918720752000808,0.0048708724789321,0.0,0.0,0.144051194190979,-0.4876224994659424
-0.0782122611999511,0.7602030038833618,-0.1399936228990554,-0.7475461363792419,-0.1923157721757888,-0.0088743474334478,0.0,0.0,-0.6336539387702942,-0.7499854564666748
-0.0796419158577919,0.7429429888725281,-0.142953559756279,-0.7671108841896057,-0.1923252940177917,-0.0001905629906104,0.0,0.0,0.4141969680786133,-0.7407986521720886
-0.0811216384172439,0.7258650064468384,-0.1486081928014755,-0.7589375972747803,-0.1916884034872055,0.0127378283068537,0.0,0.0,-0.8273477554321289,-0.4508421421051025
-0.0825801864266395,0.7083356380462646,-0.1457949131727218,-0.7790930867195129,-0.1917466819286346,-0.001165768248029,0.0,0.0,0.4970548152923584,-0.6731157898902893
-0.0838170051574707,0.6912331581115723,-0.124540165066719,-0.7599935531616211,-0.1908767521381378,0.0173984766006469,0.0,0.0,0.43463134765625,-0.7938882112503052
-0.0848836898803711,0.6747373938560486,-0.108535848557949,-0.7329038977622986,-0.1889972239732742,0.0375906787812709,0.0,0.0,-0.2085425853729248,-0.6667868494987488
-0.0859830826520919,0.6578127145767212,-0.1126330867409706,-0.7518711686134338,-0.1862960755825042,0.0540228895843029,0.0,0.0,0.5214062929153442,-0.3613782525062561
-0.0869471579790115,0.640925943851471,-0.0986316874623298,-0.750241219997406,-0.1840641349554062,0.0446392074227333,0.0,0.0,0.675800085067749,-0.7832762002944946
-0.0879243835806846,0.6246888041496277,-0.1006321161985397,-0.7212985754013062,-0.1811513602733612,0.0582553669810295,0.0,0.0,0.1399739980697631,0.0963248014450073
-0.0887255668640136,0.6085034012794495,-0.0827268213033676,-0.7190291881561279,-0.1785253137350082,0.0525207743048667,0.0,0.0,0.4022637605667114,-0.678707480430603
-0.0894360542297363,0.5926439762115479,-0.0743825733661651,-0.7044676542282104,-0.1751756966114044,0.0669920668005943,0.0,0.0,-0.2650539875030517,-0.3910664319992065
-0.0901162177324295,0.5763329267501831,-0.0706906393170356,-0.7246228456497192,-0.1724990308284759,0.0535333566367626,0.0,0.0,0.6663734912872314,-0.5404645800590515
-0.0908364281058311,0.5604968070983887,-0.0747607946395874,-0.7035108804702759,-0.1697622388601303,0.0547360777854919,0.0,0.0,0.7666743993759155,-0.6207804679870605
-0.0913929939270019,0.5455753207206726,-0.0590308085083961,-0.6627932190895081,-0.1663784682750702,0.0676755607128143,0.0,0.0,-0.1851888298988342,-0.4348344802856445
-0.0919161811470985,0.5302022099494934,-0.0550493672490119,-0.6829477548599243,-0.1636518537998199,0.0545322485268116,0.0,0.0,0.0160329341888427,-0.5993275046348572
-0.0923471450805664,0.5151681900024414,-0.0463930070400238,-0.6678200960159302,-0.160348892211914,0.0660590901970863,0.0,0.0,0.3372728824615478,-0.6580021381378174
-0.0928165465593338,0.5002796053886414,-0.0507721602916717,-0.6613079309463501,-0.1565207093954086,0.0765636339783668,0.0,0.0,0.4253920316696167,-0.793571949005127
-0.0933080688118934,0.4858436286449432,-0.0538178160786628,-0.641118049621582,-0.151863157749176,0.0931514054536819,0.0,0.0,0.6501162052154541,-0.112965703010559
-0.0936382263898849,0.4718704521656036,-0.0371955297887325,-0.6206053495407104,-0.1476914882659912,0.0834332704544067,0.0,0.0,-0.1785809993743896,0.3581951856613159
-0.0939306244254112,0.4574456214904785,-0.032797235995531,-0.6407588720321655,-0.1441389322280883,0.0710507035255432,0.0,0.0,0.6532559394836426,-0.4560027122497558
-0.0940284729003906,0.443410724401474,-0.0130883948877453,-0.6234582662582397,-0.1408557593822479,0.0656638890504837,0.0,0.0,0.2420746088027954,-0.8706501722335815
-0.0941434875130653,0.4293743968009949,-0.0159152373671531,-0.6234220266342163,-0.1364544928073883,0.0880254730582237,0.0,0.0,0.6733444929122925,-0.5519730448722839
-0.0941442474722862,0.415363609790802,-0.0051975180394947,-0.6222410798072815,-0.1313467919826507,0.1021540760993957,0.0,0.0,0.6886663436889648,-0.079671025276184
-0.0940905585885047,0.4014232158660888,0.0009599367040209,-0.6191955208778381,-0.1269641369581222,0.087653212249279,0.0,0.0,0.8251147270202637,-0.2982404232025146
-0.0938935279846191,0.3883360922336578,0.0159052480012178,-0.5813274383544922,-0.123186856508255,0.0755455940961837,0.0,0.0,0.5358562469482422,-0.1754436492919922
-0.0934871658682823,0.3759121000766754,0.0370379574596881,-0.5518859028816223,-0.1196140870451927,0.0714555829763412,0.0,0.0,0.3556798696517944,-0.4164206981658935
-0.093049332499504,0.3640511631965637,0.0411508753895759,-0.5269466638565063,-0.1170010194182396,0.0522613748908042,0.0,0.0,0.0032887458801269,-0.7797788977622986
-0.0926978141069412,0.352056473493576,0.0315221436321735,-0.532819390296936,-0.1133820936083793,0.0723785609006881,0.0,0.0,-0.1288744807243347,-0.4200397133827209
-0.0923020392656326,0.3396093845367431,0.0364268943667411,-0.5529695749282837,-0.1102640479803085,0.06236108019948,0.0,0.0,0.5869934558868408,-0.6088120341300964
-0.091953657567501,0.3275593817234039,0.0312105976045131,-0.5352922677993774,-0.1066601648926734,0.0720777139067649,0.0,0.0,0.5608417987823486,-0.4230527281761169
-0.0915434807538986,0.3160202503204345,0.0380917340517044,-0.5126435160636902,-0.1037595048546791,0.0580132417380809,0.0,0.0,0.3808596134185791,-0.3761563301086426
-0.0910372734069824,0.3049021661281585,0.0481952503323555,-0.4939729869365692,-0.1013484075665474,0.0482220463454723,0.0,0.0,0.1683530807495117,-0.5098080635070801
-0.0904163345694542,0.2939413785934448,0.0589175336062908,-0.4869336187839508,-0.0982045903801918,0.0628763735294342,0.0,0.0,0.1273983716964721,-0.4181702733039856
-0.0897101387381553,0.2828742861747741,0.0677764490246772,-0.4916857481002807,-0.0953851416707038,0.0563887879252433,0.0,0.0,-0.0361433029174804,-0.495749831199646
-0.0889573097229003,0.2713545262813568,0.0728219449520111,-0.5118338465690613,-0.0929410830140113,0.0488811917603015,0.0,0.0,0.3524646759033203,-0.2879781723022461
-0.08799409866333,0.260063499212265,0.0936446040868759,-0.5016618371009827,-0.0902902632951736,0.0530163273215293,0.0,0.0,0.3264961242675781,-0.9379974007606506
-0.0869009047746658,0.2487781792879104,0.1050082668662071,-0.5013145804405212,-0.0860117375850677,0.0855707600712776,0.0,0.0,0.412540078163147,-0.806903600692749
-0.0857735648751258,0.2380149513483047,0.1070951968431472,-0.4780502617359161,-0.0804279446601867,0.1116759628057479,0.0,0.0,0.0085904598236083,-0.2032463550567627
-0.0845423713326454,0.2274893075227737,0.1176551431417465,-0.4675236344337463,-0.0750252306461334,0.1080543398857116,0.0,0.0,0.0373501777648925,-0.8874802589416504
-0.0832093209028244,0.2171384841203689,0.1263050884008407,-0.4597034156322479,-0.0680970177054405,0.1385644823312759,0.0,0.0,0.1330772638320922,-0.6225537061691284
-0.0817852020263671,0.2066609263420105,0.134254589676857,-0.4653184115886688,-0.0600270293653011,0.1613998264074325,0.0,0.0,0.6655335426330566,-0.2293039560317993
-0.0803350433707237,0.1965045779943466,0.1372843384742736,-0.4511044919490814,-0.0523791164159774,0.1529583781957626,0.0,0.0,0.125946044921875,-0.7801854610443115
-0.0788008719682693,0.1867856085300445,0.1441980898380279,-0.4316541850566864,-0.0432730875909328,0.1821204721927642,0.0,0.0,0.0750409364700317,-0.8093529343605042
-0.0772842392325401,0.1771747916936874,0.1409409493207931,-0.4268702864646911,-0.0326764807105064,0.2119324207305908,0.0,0.0,0.1426531076431274,0.0251331329345703
-0.0757874473929405,0.1679411977529525,0.1394262015819549,-0.4101859629154205,-0.0225560162216424,0.2024091482162475,0.0,0.0,-0.2998034954071045,-0.880996584892273
-0.0743021965026855,0.1582625061273574,0.1367907226085662,-0.4300292134284973,-0.0109802037477493,0.2315164059400558,0.0,0.0,0.6204813718795776,0.5157604217529297
-0.072776511311531,0.1492398381233215,0.1420527398586273,-0.4009596705436706,-0.0005908192251808,0.2077876031398773,0.0,0.0,-0.1866587400436401,-0.447500467300415
-0.0712031349539756,0.1397654116153717,0.1467829942703247,-0.4211131930351257,0.0098242573440074,0.2083017081022262,0.0,0.0,0.7474768161773682,-0.6581250429153442
-0.0696682929992675,0.1306260228157043,0.141623705625534,-0.4063129723072052,0.0215412210673093,0.2343393564224243,0.0,0.0,0.5555057525634766,0.2817473411560058
-0.0682084113359451,0.1218807324767112,0.1345362216234207,-0.3888796865940094,0.0328458063304424,0.2260915338993072,0.0,0.0,0.4399795532226562,0.5833635330200195
-0.0668134689331054,0.1133621037006378,0.1294113993644714,-0.378855437040329,0.0428039766848087,0.1991633474826812,0.0,0.0,0.6234650611877441,-0.1165991425514221
-0.0652987509965896,0.1054565981030464,0.1407426297664642,-0.3516924679279327,0.0534087643027305,0.2120956182479858,0.0,0.0,0.2842582464218139,-0.0019869804382324
-0.0637062042951583,0.097532995045185,0.1481008678674698,-0.3525915741920471,0.0644333288073539,0.2204916179180145,0.0,0.0,0.6305103302001953,-0.1319242119789123
-0.0619745254516601,0.0902990400791168,0.1611254513263702,-0.3220700621604919,0.0763528496026992,0.2383901625871658,0.0,0.0,0.3165769577026367,0.9907193183898926
-0.0601892471313476,0.0835534632205963,0.1682241111993789,-0.3003626763820648,0.0865530967712402,0.2040051966905594,0.0,0.0,0.2679473161697387,0.0492098331451416
-0.0583083145320415,0.0773506239056587,0.1769967973232269,-0.2763602137565613,0.0975575894117355,0.220089703798294,0.0,0.0,-0.1904553771018982,0.1837871074676513
-0.0563849434256553,0.0706965997815132,0.1809208840131759,-0.2965174615383148,0.108890913426876,0.2266664206981659,0.0,0.0,0.4693858623504638,0.8612918853759766
-0.0544389709830284,0.0646926760673523,0.1845625340938568,-0.2676025927066803,0.1188526377081871,0.1992343962192535,0.0,0.0,0.0980746746063232,-0.1224222779273986
-0.0524746887385845,0.0590243451297283,0.1858409345149994,-0.2528047263622284,0.129389077425003,0.2107291519641876,0.0,0.0,0.277742862701416,-0.1952468156814575
-0.0504549033939838,0.0534445606172084,0.1906847506761551,-0.2490105330944061,0.1406300365924835,0.2248193323612213,0.0,0.0,0.2697982788085937,-0.3486602306365967
-0.0485568046569824,0.0481000281870365,0.178534060716629,-0.2386393249034881,0.1518793255090713,0.2249860018491745,0.0,0.0,0.4303834438323974,-0.3987184762954712
-0.0467992797493934,0.0429403893649578,0.1645472347736358,-0.2304992079734802,0.1630835086107254,0.22408327460289,0.0,0.0,0.4310954809188843,-0.5901314616203308
-0.0451517105102539,0.0380365960299968,0.1519423425197601,-0.219403401017189,0.1759189814329147,0.2567094266414642,0.0,0.0,0.5399503707885742,-0.1550437808036804
-0.0435335151851177,0.0334236957132816,0.1484049260616302,-0.2066630274057388,0.1893832832574844,0.2692853510379791,0.0,0.0,0.3873474597930908,-0.5514306426048279
-0.0418651588261127,0.0288228839635849,0.1515504419803619,-0.2065060883760452,0.2047640085220337,0.3076144754886627,0.0,0.0,0.3392069339752197,0.135606050491333
-0.0402018539607524,0.0246117450296878,0.1501820236444473,-0.1894796043634414,0.2210702002048492,0.326123982667923,0.0,0.0,0.1881324052810669,-0.071154773235321
-0.038665197789669,0.0216932147741317,0.1549037396907806,-0.1295255571603775,0.2198358029127121,-0.0246596876531839,0.0,1.0,0.8172223567962646,0.742145299911499
