x_pos,y_pos,x_vel,y_vel,angle,ang_vel,leg_1,leg_2,main_booster,lat_booster
-0.0015255927573889,1.402948260307312,-0.1542998552322387,-0.3543025255203247,0.0015633082948625,0.0308227390050888,0.0,0.0,-0.295743465423584,0.7992864847183228
-0.0029848099220544,1.3943196535110474,-0.14551343023777,-0.3834908902645111,0.0011608910281211,-0.0080483248457312,0.0,0.0,-0.1085597872734069,0.6429612636566162
-0.0043837549164891,1.3850098848342896,-0.1377045661211013,-0.4137678146362304,-0.0010031807469204,-0.0432853959500789,0.0,0.0,-0.0217563509941101,0.4426628351211548
-0.00578393926844,1.3750239610671997,-0.1376112103462219,-0.443823367357254,-0.0033758115023374,-0.0474571548402309,0.0,0.0,0.5830118656158447,0.7921955585479736
-0.0069835660979151,1.3653007745742798,-0.1160356029868125,-0.4321584105491638,-0.0072681321762502,-0.0778538882732391,0.0,0.0,0.301365852355957,0.5266211032867432
-0.0080219265073537,1.3555406332015991,-0.0989117473363876,-0.4338144659996032,-0.0121310530230402,-0.0972674936056137,0.0,0.0,-0.2581754922866821,0.0339534282684326
-0.0090605737641453,1.345104694366455,-0.0987389460206031,-0.463869571685791,-0.0172023717314004,-0.1014358773827552,0.0,0.0,0.2867851257324219,0.2899500131607055
-0.0099742887541651,1.3347457647323608,-0.0865947008132934,-0.4604597091674804,-0.0219275299459695,-0.0945117324590683,0.0,0.0,-0.4146474599838257,-0.0121875405311584
-0.0108878137543797,1.3237109184265137,-0.0863687694072723,-0.4905195832252502,-0.0268613416701555,-0.0986851528286933,0.0,0.0,0.3817908763885498,-0.7352302670478821
-0.0118431095033884,1.312918186187744,-0.0918075591325759,-0.4797483086585998,-0.0305470917373895,-0.0737218484282493,0.0,0.0,-0.4881106615066528,-0.7116522789001465
-0.0128458980470895,1.3014520406723022,-0.0975522994995117,-0.5096640586853027,-0.0332325883209705,-0.053714781999588,0.0,0.0,0.329010009765625,-0.2561860084533691
-0.0137765882536768,1.2899442911148071,-0.0904158279299736,-0.5115201473236084,-0.0358571484684944,-0.0524960979819297,0.0,0.0,-0.3715191483497619,-0.7074218988418579
-0.0147496219724416,1.2777663469314575,-0.0955486372113227,-0.5412865877151489,-0.0375893004238605,-0.0346464589238166,0.0,0.0,-0.2988792657852173,-0.6092718839645386
-0.0157637596130371,1.264909029006958,-0.1005259007215499,-0.5714569687843323,-0.0384602881968021,-0.0174213703721761,0.0,0.0,-0.484817624092102,-0.8009413480758667
-0.0168240554630756,1.2513868808746338,-0.1061707884073257,-0.6009857654571533,-0.0383207127451896,0.0027918217238038,0.0,0.0,0.3283312320709228,-0.3652840852737427
-0.0177848823368549,1.237541675567627,-0.0964320376515388,-0.6153314113616943,-0.0379745550453662,0.0069238715805113,0.0,0.0,-0.1391345262527465,-0.5315746068954468
-0.0187752731144428,1.223028540611267,-0.1000065580010414,-0.645009458065033,-0.0370209924876689,0.0190731212496757,0.0,0.0,0.0358055830001831,-0.4816852807998657
-0.0196647644042968,1.208186388015747,-0.090132899582386,-0.6596211194992065,-0.0358560308814048,0.0233013536781072,0.0,0.0,0.0728331804275512,-0.2012659311294555
-0.0204692836850881,1.193446159362793,-0.0817204415798187,-0.6550918221473694,-0.0346027798950672,0.0250672940164804,0.0,0.0,-0.0106163620948791,0.0497883558273315
-0.0212701801210641,1.1780297756195068,-0.0811467319726944,-0.6851494312286377,-0.033555869013071,0.0209400989115238,0.0,0.0,0.3138676881790161,-0.6345328092575073
-0.0219849590212106,1.1628353595733645,-0.0738105028867721,-0.6752579212188721,-0.0312468707561492,0.0461838990449905,0.0,0.0,-0.2911674976348877,-0.4689095616340637
-0.0226952545344829,1.1469646692276,-0.07316555082798,-0.7053182125091553,-0.0291440095752477,0.0420609638094902,0.0,0.0,-0.7676517963409424,0.5458838939666748
-0.0233484264463186,1.130414962768555,-0.0659025385975837,-0.7355296015739441,-0.0285643897950649,0.0115935811772942,0.0,0.0,0.520397424697876,-0.6308692693710327
-0.0239681247621774,1.113612174987793,-0.0637743324041366,-0.7467613816261292,-0.0267812982201576,0.0356649495661258,0.0,0.0,0.0410394668579101,0.0131329298019409
-0.0246608741581439,1.0967447757720947,-0.0704541429877281,-0.7496395707130432,-0.0256170723587274,0.0232866890728473,0.0,0.0,0.3543088436126709,-0.621630072593689
-0.0255136489868164,1.0800554752349854,-0.0872512906789779,-0.7417099475860596,-0.0236709974706172,0.0389212891459465,0.0,0.0,0.3216712474822998,-0.1276851892471313
-0.0263432506471872,1.0635616779327393,-0.0847401842474937,-0.7330333590507507,-0.0219114981591701,0.0351898223161697,0.0,0.0,0.4296998977661133,-0.4778473377227783
-0.0272634513676166,1.047466516494751,-0.0930688977241516,-0.7153263688087463,-0.0208746213465929,0.0207373946905136,0.0,0.0,-0.1250477433204651,-0.0207247734069824
-0.0281764976680278,1.0306951999664309,-0.0921508818864822,-0.7453771233558655,-0.0200358927249908,0.0167744997888803,0.0,0.0,0.7233366966247559,-0.352583646774292
-0.0290936473757028,1.0140113830566406,-0.0922628492116928,-0.7415004968643188,-0.0194951239973306,0.0108152562752366,0.0,0.0,0.7894904613494873,-0.352191150188446
-0.0299646370112895,0.9980259537696838,-0.087548904120922,-0.7104529738426208,-0.0190555974841117,0.0087908655405044,0.0,0.0,0.0496948957443237,-0.519565224647522
-0.0309179313480854,0.9817818999290466,-0.0965273976325988,-0.7219454050064087,-0.0178712680935859,0.023686384782195,0.0,0.0,-0.0436475872993469,-0.660878598690033
-0.0319219604134559,0.9648695588111876,-0.102915920317173,-0.7516313195228577,-0.0153831336647272,0.0497626662254333,0.0,0.0,-0.4221831560134887,-0.6144425272941589
-0.0329706184566021,0.947277009487152,-0.1085676103830337,-0.7818611860275269,-0.0117328353226184,0.073005810379982,0.0,0.0,0.2645467519760132,0.8290778398513794
-0.0339243896305561,0.9297287464141846,-0.0972257554531097,-0.779908299446106,-0.0099044339731335,0.0365680381655693,0.0,0.0,0.8669428825378418,0.3062355518341064
-0.0348392501473426,0.912786066532135,-0.0932491570711135,-0.752996027469635,-0.0081644793972373,0.0347991660237312,0.0,0.0,-0.0696954727172851,0.2589025497436523
-0.0357440002262592,0.8951672911643982,-0.0920468792319297,-0.7830466628074646,-0.0066049788147211,0.0311899725347757,0.0,0.0,0.9528324604034424,-0.1910997033119201
-0.0365871414542198,0.8782216310501099,-0.0859263613820076,-0.7531346082687378,-0.0050145057030022,0.0318097658455371,0.0,0.0,0.7627378702163696,-0.0687667727470398
-0.0374567992985248,0.861948549747467,-0.0882077664136886,-0.7232386469841003,-0.0037917946465313,0.0244545228779315,0.0,0.0,-0.465295672416687,0.0398335456848144
-0.0383151993155479,0.8449995517730713,-0.0869102254509925,-0.7532891035079956,-0.0027386180590838,0.0210635028779506,0.0,0.0,-0.195182979106903,0.1141953468322753
-0.0391620621085166,0.8273743987083435,-0.0855826586484909,-0.7833394408226013,-0.0018506858032196,0.0177586730569601,0.0,0.0,0.3536404371261596,0.8848381042480469
-0.0398106575012207,0.8097138404846191,-0.063920147716999,-0.7849092483520508,-0.0027757515199482,-0.0185015723109245,0.0,0.0,0.5965011119842529,-0.6762232184410095
-0.0403971672058105,0.7918241620063782,-0.0591341853141784,-0.7950945496559143,-0.0022943944204598,0.0096270758658647,0.0,0.0,0.6673777103424072,-0.1032947897911071
-0.0408695228397846,0.7740583419799805,-0.048047412186861,-0.7895928621292114,-0.0014996082754805,0.0158959310501813,0.0,0.0,0.7378413677215576,-0.0314486026763916
-0.0413713455200195,0.7560811042785645,-0.0506369471549987,-0.7989879846572876,-0.0010467689717188,0.0090567860752344,0.0,0.0,0.560340166091919,0.165451169013977
-0.0418161377310752,0.7379010319709778,-0.0450041815638542,-0.8080020546913147,-0.000531117839273,0.0103130470961332,0.0,0.0,0.8380353450775146,0.2597386837005615
-0.0421792976558208,0.7197906374931335,-0.0370201133191585,-0.8049097657203674,0.0001673211227171,0.0139683559536933,0.0,0.0,0.525576114654541,0.6363131999969482
-0.0425915718078613,0.7021657228469849,-0.0402731113135814,-0.7833297252655029,-0.0007676259265281,-0.0186989549547433,0.0,0.0,0.3597712516784668,0.3086016178131103
-0.043098259717226,0.6848377585411072,-0.0490967258810997,-0.770129919052124,-0.0023241967428475,-0.0311311781406402,0.0,0.0,0.1851478815078735,-0.3897644281387329
-0.0436048507690429,0.667381227016449,-0.0489043183624744,-0.7758538126945496,-0.0040594469755887,-0.0347052887082099,0.0,0.0,0.0169383287429809,-0.0259594917297363
-0.0440070144832134,0.6497750878334045,-0.0387714840471744,-0.7824940085411072,-0.005486371461302,-0.0285382214933633,0.0,0.0,0.2189923524856567,-0.1851804852485656
-0.0444336906075477,0.6323086619377136,-0.0409283824265003,-0.776293158531189,-0.0072011216543614,-0.0342951416969299,0.0,0.0,0.3483721017837524,-0.2774731516838074
-0.0447532646358013,0.6147095561027527,-0.0305518005043268,-0.7821964621543884,-0.0085853310301899,-0.0276842471212148,0.0,0.0,0.8098464012145996,0.5895466804504395
-0.0449993126094341,0.5977497696876526,-0.0219496637582778,-0.7537873387336731,-0.0112045183777809,-0.0523839369416236,0.0,0.0,0.2029953002929687,-0.1295208930969238
-0.0451170913875103,0.5806444883346558,-0.0095668761059641,-0.7602488398551941,-0.0133848376572132,-0.0436063259840011,0.0,0.0,0.3862283229827881,0.1017417907714843
-0.0452936179935932,0.5634579062461853,-0.0150191914290189,-0.7638763189315796,-0.015989065170288,-0.0520845726132392,0.0,0.0,0.8395663499832153,-0.6398072242736816
-0.0453777313232421,0.5469304919242859,-0.0073025249876081,-0.73456209897995,-0.0170779060572385,-0.0217768140137195,0.0,0.0,0.4762101173400879,0.1600863933563232
-0.0453117378056049,0.5306276679039001,0.0071655549108982,-0.7245770692825317,-0.0176289081573486,-0.0110200997442007,0.0,0.0,0.6052150726318359,-0.4220602512359619
-0.0451421737670898,0.5148465037345886,0.017194515094161,-0.7013868689537048,-0.0178663376718759,-0.0047483830712735,0.0,0.0,-0.1856646537780761,0.2696648836135864
-0.0449556335806846,0.4983892738819122,0.0189034566283226,-0.7314371466636658,-0.0181155819445848,-0.0049848156049847,0.0,0.0,0.409795880317688,0.0028103590011596
-0.0447025299072265,0.4817286133766174,0.0253593437373638,-0.7404749393463135,-0.0181642044335603,-0.0009725709678605,0.0,0.0,0.7005312442779541,-0.1953370571136474
-0.0445220954716205,0.4654774367809295,0.0185660254210233,-0.7222824692726135,-0.0186814982444047,-0.0103457253426313,0.0,0.0,0.8216221332550049,-0.0998347997665405
-0.0441772453486919,0.4494014978408813,0.0343486852943897,-0.7144858837127686,-0.0185499209910631,0.0026317026931792,0.0,0.0,0.7771203517913818,-0.2180109620094299
-0.043777085840702,0.4336374700069427,0.0397351942956447,-0.700619101524353,-0.0182722564786672,0.0055534737184643,0.0,0.0,0.8917236328125,-0.5525091886520386
-0.0433848388493061,0.4178825914859772,0.0377628244459629,-0.7002019882202148,-0.0168304443359375,0.0288363005965948,0.0,0.0,0.8763329982757568,-0.5052982568740845
-0.0431519523262977,0.4024633169174194,0.0212079212069511,-0.6852794885635376,-0.0147796897217631,0.0410154201090335,0.0,0.0,0.7505576610565186,0.1572011709213256
-0.0428647026419639,0.3877274990081787,0.0264836438000202,-0.6549054384231567,-0.0125666866078972,0.0442599132657051,0.0,0.0,0.7824530601501465,-0.0840184688568115
-0.0424665436148643,0.3727871477603912,0.0370910428464412,-0.6639941334724426,-0.0098783047869801,0.053767554461956,0.0,0.0,0.932955265045166,0.427513837814331
-0.0420083999633789,0.3586684465408325,0.0428686626255512,-0.6274824142456055,-0.006969541311264,0.0581751652061939,0.0,0.0,0.8731189966201782,0.600621223449707
-0.0415945053100585,0.344676673412323,0.0398825034499168,-0.6218488216400146,-0.0054800510406494,0.0297896172851324,0.0,0.0,0.6834883689880371,0.5433107614517212
-0.0412152297794818,0.3310464024543762,0.0376968756318092,-0.6057851910591125,-0.005249373614788,0.0046135066077113,0.0,0.0,0.858689546585083,0.6331703662872314
-0.0407260879874229,0.3177907764911651,0.0497552119195461,-0.5891403555870056,-0.0060851648449897,-0.0167161021381616,0.0,0.0,0.8156386613845825,-0.4804152846336365
-0.040354061871767,0.3052524924278259,0.0386116616427898,-0.5572629570960999,-0.0074721788987517,-0.027740204706788,0.0,0.0,0.6789455413818359,-0.1919405460357666
-0.0398839935660362,0.2929175496101379,0.0479513145983219,-0.5482268929481506,-0.0084037277847528,-0.0186309162527322,0.0,0.0,0.6267337799072266,-0.557428240776062
-0.039471436291933,0.280480682849884,0.0410466901957988,-0.5527492165565491,-0.008202388882637,0.0040268395096063,0.0,0.0,0.8965942859649658,0.6404240131378174
-0.0389023795723915,0.2679189443588257,0.0576480217278003,-0.5583029985427856,-0.008935771882534,-0.0146676953881978,0.0,0.0,0.8536019325256348,-0.8230958580970764
-0.0384149551391601,0.2552454471588135,0.0477824918925762,-0.5632597804069519,-0.0079838028177618,0.0190392173826694,0.0,0.0,0.9304927587509156,-0.4034833908081054
-0.0379107482731342,0.2432862371206283,0.0493687316775321,-0.5315181612968445,-0.0069451872259378,0.0207722298800945,0.0,0.0,0.6743474006652832,-0.8075868487358093
-0.037355899810791,0.2318987250328064,0.0524994544684886,-0.5060989856719971,-0.0040022968314588,0.0588580891489982,0.0,0.0,0.6371273994445801,-0.443729043006897
-0.0368899330496788,0.2210507988929748,0.0439941398799419,-0.482128232717514,-0.0014330657431855,0.0513845197856426,0.0,0.0,0.3903930187225342,-0.0493083596229553
-0.036513328552246,0.2099450230598449,0.0354173704981803,-0.4935857951641083,0.0007771395612508,0.0442040041089057,0.0,0.0,0.7107168436050415,-0.4318712949752807
-0.036076545715332,0.1993912011384964,0.0410924404859542,-0.4690660238265991,0.0033289620187133,0.0510363690555095,0.0,0.0,0.4764997959136963,-0.3725132346153259
-0.0357130989432334,0.1889323145151138,0.0340387523174285,-0.4648477137088775,0.005613665562123,0.0456940233707428,0.0,0.0,0.3185327053070068,0.7517514228820801
-0.0353232398629188,0.1786119490861892,0.0380895584821701,-0.4586853981018066,0.0064919809810817,0.0175663456320762,0.0,0.0,0.6793978214263916,0.0976107120513916
-0.0349312797188758,0.1686815619468689,0.0382006764411926,-0.4413546323776245,0.0074719060212373,0.0195985436439514,0.0,0.0,0.5588523149490356,-0.8576683402061462
-0.0345004089176654,0.1588990092277526,0.0400700159370899,-0.4347996413707733,0.0104515105485916,0.0595919787883758,0.0,0.0,0.7215464115142822,0.0222512483596801
-0.0340298637747764,0.1489758342504501,0.0437592044472694,-0.4410566985607147,0.0137084415182471,0.0651386827230453,0.0,0.0,0.8159770965576172,-0.3912606239318847
-0.0334446914494037,0.1390426456928253,0.0545658767223358,-0.4415169656276703,0.0176024679094553,0.0778805091977119,0.0,0.0,0.831202507019043,-0.1677688360214233
-0.0326891914010047,0.1293871998786926,0.0706746131181716,-0.4291968941688537,0.0224184077233076,0.0963189303874969,0.0,0.0,0.7825800180435181,-0.4911267757415771
-0.0317744240164756,0.1196992024779319,0.0857191011309623,-0.430673599243164,0.028099687770009,0.1136256456375122,0.0,0.0,0.9110476970672609,-0.8086724877357483
-0.0309371948242187,0.1106417030096054,0.076190710067749,-0.4027184844017029,0.0355449728667736,0.148905724287033,0.0,0.0,0.8909536600112915,-0.0278449654579162
-0.0300772674381732,0.1022121980786323,0.0781111940741539,-0.3748503923416137,0.0433272048830986,0.1556448191404342,0.0,0.0,0.6236844062805176,-0.3668686151504516
-0.0291054733097553,0.0940979793667793,0.0885388776659965,-0.3609049916267395,0.0518503785133361,0.1704632341861724,0.0,0.0,0.6558389663696289,0.3577418327331543
-0.0280322078615427,0.0858067348599433,0.0980546325445175,-0.3688472509384155,0.0610173493623733,0.1833397597074508,0.0,0.0,0.8668547868728638,-0.5628060102462769
-0.0270841605961322,0.077690802514553,0.0844066813588142,-0.3611639440059662,0.0713056400418281,0.2057661265134811,0.0,0.0,0.9515652656555176,0.8246784210205078
-0.0260180477052927,0.0704534873366355,0.09746565669775,-0.3221197724342346,0.0803598016500473,0.1810832917690277,0.0,0.0,0.6260907649993896,0.0099427700042724
-0.0250028613954782,0.063376098871231,0.0923055484890937,-0.3150714039802551,0.0894879624247551,0.1825631111860275,0.0,0.0,0.7979729175567627,-0.5485525131225586
-0.024235725402832,0.0568971745669841,0.0666261836886406,-0.2885843217372894,0.0994883030652999,0.2000066339969635,0.0,0.0,0.6740820407867432,0.8124580383300781
-0.0233616828918457,0.0508271567523479,0.07858806848526,-0.2703868150711059,0.1082234755158424,0.1747037321329116,0.0,0.0,0.6788575649261475,0.5328130722045898
-0.0225703231990337,0.0452204085886478,0.0713893696665763,-0.2497709840536117,0.1159205287694931,0.1539416015148162,0.0,0.0,0.380590558052063,0.362861156463623
-0.0219042785465717,0.0398588515818119,0.0589977912604808,-0.2389010339975357,0.1234821528196334,0.1512322127819061,0.0,0.0,0.6775741577148438,0.6160111427307129
-0.0212636943906545,0.0345766879618167,0.0575709715485572,-0.23531174659729,0.1299339830875396,0.1290367394685745,0.0,0.0,0.8723156452178955,0.9466142654418944
-0.0207677837461233,0.0296198222786188,0.04506641253829,-0.2207054942846298,0.1344354003667831,0.0900283902883529,0.0,0.0,0.869776725769043,0.8104758262634277
-0.0204577445983886,0.0248421281576156,0.0283067487180233,-0.2125907093286514,0.1371221393346786,0.0537347495555877,0.0,0.0,0.9226818084716796,0.8897664546966553
-0.0200443267822265,0.0206786971539258,0.0399872735142707,-0.1851646453142166,0.1384733170270919,0.0270234383642673,0.0,0.0,0.5664229393005371,0.7964470386505127
-0.0195384975522756,0.0163787938654422,0.0505230724811553,-0.1911123543977737,0.1385314762592315,0.0011635064147412,0.0,0.0,0.8023689985275269,-0.6757795810699463
-0.0190989486873149,0.0134559012949466,0.0607570111751556,-0.1284256875514984,0.1218242272734642,-0.3341177105903625,0.0,1.0,0.6438767910003662,-0.0199158191680908
-0.0188710205256938,0.0115882251411676,0.0548496730625629,-0.080704927444458,0.0899710655212402,-0.6370896697044373,0.0,1.0,0.6051560640335083,-0.1885275840759277
-0.0185612682253122,0.0102906795218586,0.0614368692040443,-0.0561124756932258,0.059818223118782,-0.6030572652816772,0.0,1.0,0.3047816753387451,-0.2220921516418457
-0.0182191841304302,0.0090197781100869,0.0644434541463851,-0.0555481500923633,0.0299448296427726,-0.5974684357643127,0.0,0.0,-0.3566361665725708,-0.9187666177749634
-0.0179384239017963,0.0070898388512432,0.0562751963734626,-0.0854501500725746,0.002111375099048,-0.5566692352294922,0.0,0.0,0.4087717533111572,-0.81135493516922
-0.0176529884338378,0.0055076931603252,0.0548393428325653,-0.0704815238714218,-0.0238416139036417,-0.5190601348876953,0.0,0.0,0.3677546977996826,-0.9561434984207152
-0.0173458103090524,0.0038220144342631,0.0548299364745616,-0.0754739046096801,-0.0476480275392532,-0.4761287569999695,0.0,0.0,0.5862278938293457,-0.9565001726150512
-0.0171148292720317,0.0030966734047979,0.025980170816183,-0.0323505960404872,-0.0504298061132431,-0.0555469281971454,1.0,0.0,-0.2926672697067261,-0.0416303277015686
-0.0167778022587299,0.0023387884721159,0.018815703690052,-0.0332679748535156,-0.035664614289999,0.2953823208808899,1.0,0.0,-0.7718489766120911,-0.0566869378089904
-0.0163701064884662,0.0013489103876054,0.0137644317001104,-0.0435820966958999,-0.0089420592412352,0.5345226526260376,1.0,0.0,-0.0023672580718994,0.0357429981231689
-0.0159828178584575,-0.0003412032092455,0.0129190441220998,-0.0751553326845169,0.016527822241187,0.5093972086906433,1.0,1.0,0.8545279502868652,0.740225076675415
-0.015442943200469,-0.0016300940187647,0.0414458885788917,-0.057657990604639,0.0281487181782722,0.2314563989639282,0.0,1.0,-0.628945529460907,0.7099401950836182
-0.0149509431794285,-0.0029920125380158,0.0563145279884338,-0.0604225881397724,0.0210960321128368,-0.1410980224609375,0.0,1.0,-0.634037971496582,-0.1211285591125488
-0.0145286563783884,-0.0038000368513166,0.0497532412409782,-0.0358384735882282,0.0137362778186798,-0.1471125781536102,1.0,1.0,0.4706457853317261,-0.722543478012085
-0.0142110828310251,-0.0037157440092414,0.0378128141164779,0.0037721931003034,0.0078021655790507,-0.1186293363571167,1.0,1.0,-0.4948991537094116,-0.7501906156539917
