x_pos,y_pos,x_vel,y_vel,angle,ang_vel,leg_1,leg_2,main_booster,lat_booster
-0.0014900207752361,1.4029536247253418,-0.1509542763233184,-0.3540669977664947,0.0017521446570754,0.0345619097352027,0.0,0.0,-0.8482774816818317,-0.5946630482034114
-0.0029890059959143,1.3943365812301636,-0.1527125537395477,-0.3829906582832336,0.0045357653871178,0.0556781664490699,0.0,0.0,-0.9981906656891828,0.6074057096950648
-0.0043957708403468,1.3850440979003906,-0.1420138329267501,-0.4130047559738159,0.0058512589894235,0.0263124443590641,0.0,0.0,-0.6214438638748665,0.8956561312440503
-0.005712223239243,1.375078201293945,-0.1315340101718902,-0.4429276287555694,0.0057441643439233,-0.002141993958503,0.0,0.0,-0.5894979407963665,0.6455533886647651
-0.0069332122802734,1.364444136619568,-0.1204181537032127,-0.4726245105266571,0.0040846611373126,-0.0331931747496128,0.0,0.0,0.530144459534647,0.9942205426369884
-0.0078992843627929,1.353893518447876,-0.0930954292416572,-0.4689059555530548,0.000614317599684,-0.0694135427474975,0.0,0.0,0.4825288912501317,-0.9226107837929504
-0.0089274402707815,1.343449354171753,-0.1011204496026039,-0.4641876220703125,-0.0010633501224219,-0.0335560142993927,0.0,0.0,0.8556817544249748,-0.8951588807173061
-0.009806347079575,1.3334267139434814,-0.0883478224277496,-0.4454531669616699,-0.0006162738427519,0.0089422175660729,0.0,0.0,0.0969600921865065,-0.5983192109885689
-0.0107076643034815,1.3235729932785034,-0.0917510539293289,-0.4379422962665558,0.0009904357139021,0.032137032598257,0.0,0.0,0.7817465717854348,-0.9279074841095284
-0.0116504672914743,1.3142292499542236,-0.0977519825100898,-0.4152851402759552,0.0044212555512785,0.0686226189136505,0.0,0.0,-0.7476013656905105,0.7069778531594535
-0.012496662326157,1.304215431213379,-0.0864459797739982,-0.4450626075267792,0.0062353876419365,0.0362857729196548,0.0,0.0,0.3314093526918233,-0.688651013610849
-0.0133033748716115,1.29416823387146,-0.0839852839708328,-0.4465607106685638,0.0095078833401203,0.0654563307762146,0.0,0.0,-0.2711056676763446,0.5240728544586664
-0.0140272136777639,1.2834534645080566,-0.0743979066610336,-0.4762242436408996,0.0114955510944128,0.0397567600011825,0.0,0.0,-0.984722815071511,0.541287705983098
-0.0146709438413381,1.2720637321472168,-0.065154917538166,-0.5062177181243896,0.0122651401907205,0.0153931407257914,0.0,0.0,0.1353109568474455,0.7405589990648865
-0.0151204112917184,1.2608635425567627,-0.0443264283239841,-0.4977799355983734,0.0116530889645218,-0.0122422790154814,0.0,0.0,-0.1808053490274344,0.9301394028277616
-0.0154510494321584,1.2489830255508425,-0.0302038099616765,-0.5280041694641113,0.0088321957737207,-0.0564229786396026,0.0,0.0,0.7447571066382206,-0.9494583079490758
-0.015670109540224,1.2377989292144775,-0.0211839657276868,-0.4970629513263702,0.0081170154735445,-0.0143047589808702,0.0,0.0,0.6576421147297447,-0.9619791225413094
-0.0157758705317974,1.2265006303787231,-0.0119696725159883,-0.5021580457687378,0.0094936648383736,0.0275353975594043,0.0,0.0,0.1051162032775088,0.9241382959370812
-0.0157060623168945,1.2153476476669312,0.007478087209165,-0.4956845939159393,0.0090040741488337,-0.009792854078114,0.0,0.0,-0.777230404011503,-0.8042433058224316
-0.0156775470823049,1.2035223245620728,0.0015522025059908,-0.525577187538147,0.0102844964712858,0.0256109088659286,0.0,0.0,-0.8424077998119068,-0.6023532470453343
-0.0156562812626361,1.1910301446914673,-8.975215314421803e-05,-0.5552275776863098,0.0124608017504215,0.0435301288962364,0.0,0.0,0.3032376712785989,0.6661719486352546
-0.0155467987060546,1.178387999534607,0.0101211965084075,-0.5618822574615479,0.01328095048666,0.016404565423727,0.0,0.0,-0.2729430858197736,-0.6965427515590538
-0.0154511453583836,1.165073037147522,0.0076891370117664,-0.5917940139770508,0.0151342758908867,0.0370697155594825,0.0,0.0,0.7372401279244614,0.9322190404167334
-0.0151758193969726,1.1515727043151855,0.0274641904979944,-0.6000146269798279,0.0152026992291212,0.0013682843418791,0.0,0.0,0.849686049427304,0.9222155259079372
-0.0149863241240382,1.1384824514389038,0.0211006626486778,-0.581773579120636,0.0130717763677239,-0.0426219031214714,0.0,0.0,-0.0894012081516173,-0.6002806384563424
-0.0148280141875147,1.124701738357544,0.0165603719651699,-0.6124696731567383,0.0123583599925041,-0.0142683759331703,0.0,0.0,-0.3627191366510232,-0.5627248718789671
-0.014686775393784,1.110252857208252,0.0137874502688646,-0.6421739459037781,0.0126872519031167,0.0065778470598161,0.0,0.0,-0.5040987845836595,-0.7649017119882064
-0.0145929334685206,1.095139741897583,0.0072583272121846,-0.6717138290405273,0.0147934891283512,0.0421246364712715,0.0,0.0,-0.8466192715746541,-0.9392655015961257
-0.0145637514069676,1.0793617963790894,-0.0014413592871278,-0.7012959122657776,0.0190944336354732,0.0860189720988273,0.0,0.0,0.8809559658472934,0.7950151815830038
-0.0144832609221339,1.0637435913085938,0.0054264245554804,-0.6941765546798706,0.0216774977743625,0.0516613535583019,0.0,0.0,-0.6508410520293955,0.6538758526649071
-0.0143254278227686,1.0474636554718018,0.0146171431988477,-0.7235671281814575,0.0228335820138454,0.0231215842068195,0.0,0.0,-0.6531283259391785,0.2130656242370605
-0.0141441347077488,1.030513048171997,0.0170454196631908,-0.7533817291259766,0.0239000637084245,0.021329578012228,0.0,0.0,-0.1613494157791137,-0.0527968406677246
-0.0139404293149709,1.0128915309906006,0.019388809800148,-0.7831963300704956,0.0248728711158037,0.0194560606032609,0.0,0.0,-0.6532691717147827,0.2287901639938354
-0.0137151721864938,0.9945990443229676,0.021642155945301,-0.8130109310150146,0.0257479269057512,0.0175010599195957,0.0,0.0,0.4765932559967041,0.3874027729034424
-0.0134692192077636,0.9764768481254578,0.0237439218908548,-0.8054420351982117,0.0265884026885032,0.0168094746768474,0.0,0.0,0.1295415163040161,0.695746660232544
-0.0131484027951955,0.958467185497284,0.0327182859182357,-0.8004165887832642,0.0259544588625431,-0.0126791018992662,0.0,0.0,0.204263687133789,-0.0351723432540893
-0.0128370281308889,0.9402836561203004,0.0319864340126514,-0.8081448674201965,0.0251222550868988,-0.0166441760957241,0.0,0.0,0.4243627786636352,-0.2115669250488281
-0.0124919889494776,0.9224145412445068,0.0353061556816101,-0.7941702604293823,0.0243281442672014,-0.0158821437507867,0.0,0.0,-0.0064078569412231,0.0088245868682861
-0.0121309282258152,0.9038745760917664,0.0370277091860771,-0.8239848017692566,0.0234165079891681,-0.0182326193898916,0.0,0.0,0.5960471630096436,0.1915616989135742
-0.0117415431886911,0.8855452537536621,0.0398545041680336,-0.814620316028595,0.0225098356604576,-0.0181333664804697,0.0,0.0,-0.1757353544235229,-0.6129384636878967
-0.0113959312438964,0.8665483593940735,0.0341532789170742,-0.8443127274513245,0.0229128487408161,0.0080601852387189,0.0,0.0,0.3281162977218628,0.769472599029541
-0.0108753200620412,0.8475158214569092,0.053187072277069,-0.8458713889122009,0.0218023397028446,-0.0222102515399456,0.0,0.0,0.2166222333908081,0.2676353454589844
-0.0102775571867823,0.8281611800193787,0.0606980510056018,-0.8601943254470825,0.0208906698971986,-0.0182332172989845,0.0,0.0,0.282666802406311,-0.4825221300125122
-0.0096021648496389,0.8087534308433533,0.0682389736175537,-0.8625520467758179,0.0202000699937343,-0.0138123156502842,0.0,0.0,-0.2713266611099243,-0.0735993981361389
-0.0089191440492868,0.7886750102043152,0.0691408663988113,-0.8923665285110474,0.0193706583231687,-0.0165882781147956,0.0,0.0,0.4323610067367553,0.3347280025482178
-0.0081958770751953,0.7683612108230591,0.073124274611473,-0.9028221368789672,0.018583495169878,-0.0157431736588478,0.0,0.0,0.3425624370574951,0.110808253288269
-0.0074254036881029,0.7479225993156433,0.0777647197246551,-0.9083721041679382,0.0178806073963642,-0.0140577834099531,0.0,0.0,0.6064853668212891,-0.1692241430282592
-0.0067758560180664,0.7280260920524597,0.0663307905197143,-0.8842698931694031,0.0165241304785013,-0.0271297730505466,0.0,0.0,0.6922941207885742,0.1112228631973266
-0.0062744142487645,0.7086663842201233,0.0523115210235118,-0.8604143857955933,0.0143881402909755,-0.0427200458943843,0.0,0.0,0.464643120765686,-0.2738755941390991
-0.0057987212203443,0.6893115639686584,0.0499721467494964,-0.8601886034011841,0.0120117990300059,-0.047526691108942,0.0,0.0,0.4281450510025024,-0.3217651844024658
-0.0052073476836085,0.6700286865234375,0.0611251890659332,-0.8570027947425842,0.0100529547780752,-0.039177156984806,0.0,0.0,0.8140771389007568,-0.8635121583938599
-0.004766178317368,0.6512920260429382,0.0446477495133876,-0.8327405452728271,0.0095240985974669,-0.0105768721550703,0.0,0.0,0.325420618057251,-0.1475555896759033
-0.0042465208098292,0.632420539855957,0.0522526875138282,-0.8387260437011719,0.0092400331050157,-0.0056812884286046,0.0,0.0,0.4843376874923706,-0.000205636024475
-0.0037382126320153,0.6139533519744873,0.0512797646224498,-0.8207628130912781,0.008806119672954,-0.0086784940212965,0.0,0.0,-0.0218371748924255,-0.1748887300491333
-0.0032389641273766,0.5948153138160706,0.0505224540829658,-0.8505773544311523,0.0082069328054785,-0.0119834775105118,0.0,0.0,0.4033756256103515,-0.7902438044548035
-0.0029076575301587,0.57560133934021,0.0324436165392398,-0.8539579510688782,0.0088858911767601,0.0135789643973112,0.0,0.0,0.691817045211792,-0.2955371737480163
-0.002499961759895,0.5569419860839844,0.0398037917912006,-0.8293114304542542,0.0098410202190279,0.0191027037799358,0.0,0.0,0.7969144582748413,0.1150773763656616
-0.0019636154174804,0.5387142300605774,0.0521326661109924,-0.8101316094398499,0.0113194771111011,0.0295693036168813,0.0,0.0,0.6240170001983643,0.1068881750106811
-0.0013789177173748,0.521030843257904,0.0568008832633495,-0.7859422564506531,0.0129650039598345,0.0329106077551841,0.0,0.0,0.7437388896942139,-0.5793262720108032
-0.000954532646574,0.5039231181144714,0.0400081723928451,-0.7603686451911926,0.0153618501499295,0.0479370728135108,0.0,0.0,0.383086085319519,0.1728341579437255
-0.0005111694335937,0.4866104423999786,0.0418891534209251,-0.7694770097732544,0.0177811589092016,0.0483857952058315,0.0,0.0,-0.0314247608184814,-0.1947338581085205
-8.831024024402723e-05,0.4686269760131836,0.0400131754577159,-0.7992919087409973,0.0200232062488794,0.0448411703109741,0.0,0.0,0.7496285438537598,0.2554746866226196
0.0004323005559854,0.4507980942726135,0.0493644289672374,-0.7924347519874573,0.0226917434483766,0.0533703677356243,0.0,0.0,0.9833084344863892,-0.2864332199096679
0.0009411812061443,0.4334027767181396,0.048237420618534,-0.7731671929359436,0.0253112073987722,0.0523891933262348,0.0,0.0,0.9828134775161744,0.0072075128555297
0.0014226913917809,0.4160584211349487,0.0456289127469062,-0.7709048986434937,0.0277929902076721,0.0496358126401901,0.0,0.0,0.8865141868591309,0.1645892858505249
0.0017181396251544,0.3990491926670074,0.0278753880411386,-0.755995512008667,0.0294386763125658,0.0329137817025184,0.0,0.0,0.9597436189651488,0.3239524364471435
0.0019820213783532,0.382892370223999,0.0247849877923727,-0.7181152105331421,0.0310188885778188,0.0316041335463523,0.0,0.0,0.9122966527938844,0.1330785751342773
0.0023019791115075,0.3665765225887298,0.0301426593214273,-0.7251868844032288,0.0328543409705162,0.0367088094353675,0.0,0.0,0.9450857639312744,0.1159365177154541
0.0025914192665368,0.3510981798171997,0.0271236300468444,-0.6879674792289734,0.0346517451107502,0.0359479933977127,0.0,0.0,0.9212157726287842,0.1559606790542602
0.0027220726478844,0.3357683718204498,0.0119400322437286,-0.6813480257987976,0.0357568338513374,0.0221017561852931,0.0,0.0,0.96358323097229,0.0557317733764648
0.0026833533775061,0.3209682404994964,-0.0042793154716491,-0.6577932834625244,0.0361701846122741,0.0082670068368315,0.0,0.0,0.9796016216278076,0.2757425308227539
0.00262241368182,0.3066169917583465,-0.0065014078281819,-0.6378412842750549,0.0365663990378379,0.0079241637140512,0.0,0.0,0.8752961158752441,0.6805758476257324
0.0023892403114587,0.2930337786674499,-0.0217629037797451,-0.6036627888679504,0.0350326485931873,-0.0306750945746898,0.0,0.0,0.9466886520385742,0.8315343856811523
0.002258586930111,0.2798081338405609,-0.0098396418616175,-0.587734043598175,0.0318545587360858,-0.0635618492960929,0.0,0.0,0.8307600021362305,0.0246957540512084
0.00204219808802,0.2665597200393677,-0.0180529709905385,-0.5887476205825806,0.0283141676336526,-0.0708079189062118,0.0,0.0,0.956106185913086,-0.0526508092880249
0.0018601417541503,0.2532210648059845,-0.0148139465600252,-0.5927700400352478,0.0249562487006187,-0.0671582594513893,0.0,0.0,0.8567439317703247,0.0384917259216308
0.0015970229869708,0.2397822737693786,-0.0225559640675783,-0.59721839427948,0.0212436895817518,-0.0742513313889503,0.0,0.0,0.9606342315673828,0.6818883419036865
0.001320457435213,0.2270921319723129,-0.0222986377775669,-0.5639392137527466,0.0159566178917884,-0.1057412475347518,0.0,0.0,0.8809094429016113,-0.7643282413482666
0.0010305404430255,0.2151329070329666,-0.0252026356756687,-0.5314866900444031,0.0122174760326743,-0.0747828558087349,0.0,0.0,0.9066994190216064,-0.0864338874816894
0.0005620002630166,0.2039154917001724,-0.0422681234776973,-0.4985229074954986,0.0076879425905644,-0.0905907750129699,0.0,0.0,0.3991091251373291,-0.1146265268325805
-5.645752025884576e-05,0.1924469321966171,-0.0565466992557048,-0.5096933245658875,0.0024600734468549,-0.1045572608709335,0.0,0.0,0.5937495231628418,-0.5652609467506409
-0.0007181167602539,0.1814568191766739,-0.0619241297245025,-0.4884513318538666,-0.0017307294765487,-0.0838161408901214,0.0,0.0,0.7907752990722656,-0.0213956236839294
-0.0015275001060217,0.1707320511341095,-0.0759874135255813,-0.4766685664653778,-0.0066212471574544,-0.0978102907538414,0.0,0.0,0.2854413986206054,-0.1170718073844909
-0.0024154663551598,0.1601283103227615,-0.0834440886974334,-0.4713099300861358,-0.0119006531313061,-0.1055883765220642,0.0,0.0,0.6049301624298096,-0.0782916545867919
-0.0033466338645666,0.1498733311891555,-0.0875179171562194,-0.4558356404304504,-0.0174253340810537,-0.1104936599731445,0.0,0.0,0.2149462699890136,0.0982789993286132
-0.0042462348937988,0.1395878940820694,-0.0844689831137657,-0.4572054445743561,-0.0228447411209344,-0.1083882227540016,0.0,0.0,0.6989336013793945,-0.3803948163986206
-0.0051536560058593,0.1291591078042984,-0.085179716348648,-0.46359783411026,-0.0283425282686948,-0.1099557727575302,0.0,0.0,0.9743194580078124,-0.4608566164970398
-0.00597724923864,0.1187766641378402,-0.0771182850003242,-0.4615503251552582,-0.0335183180868625,-0.1035156697034835,0.0,0.0,0.9325199127197266,-0.4798482656478882
-0.0066472054459154,0.1087165176868438,-0.0623743757605552,-0.4472286403179168,-0.0380884557962417,-0.0914025753736496,0.0,0.0,0.9824557304382324,-0.7938200831413269
-0.0072214128449559,0.0986822694540023,-0.0546210408210754,-0.4460405111312866,-0.0408620499074459,-0.0554718077182769,0.0,0.0,0.9822622537612916,-0.5732753872871399
-0.007852554321289,0.0893356651067733,-0.0612483508884906,-0.415455162525177,-0.042704701423645,-0.036852978169918,0.0,0.0,0.9936165809631348,0.3690283298492431
-0.0084486957639455,0.080687791109085,-0.057736761868,-0.3844054043292999,-0.0445633716881275,-0.0371733978390693,0.0,0.0,0.8708087205886841,-0.2640302181243896
-0.0089119914919137,0.0724917501211166,-0.0449136570096015,-0.3643129765987396,-0.0459576658904552,-0.027886101976037,0.0,0.0,0.9507980346679688,-0.7533526420593262
-0.0093301776796579,0.0641898512840271,-0.0420372746884822,-0.3689679801464081,-0.0457416847348213,0.00431948620826,0.0,0.0,0.9584972858428956,0.373652696609497
-0.0098249437287449,0.056125983595848,-0.0492103323340415,-0.3583999872207641,-0.046000026166439,-0.0051669110544025,0.0,0.0,0.9957729578018188,0.359584093093872
-0.0102116586640477,0.0489461049437522,-0.0386978834867477,-0.3191051185131073,-0.0459705740213394,0.0005889205494895,0.0,0.0,0.9749727249145508,0.2919673919677734
-0.0106370924040675,0.0421169139444828,-0.0422541797161102,-0.3035306334495544,-0.046254027634859,-0.0056690345518291,0.0,0.0,0.9247984886169434,0.1327173709869384
-0.0112066268920898,0.0360157117247581,-0.0558122023940086,-0.271199882030487,-0.047390766441822,-0.0227345786988735,0.0,0.0,0.8300728797912598,0.7607859373092651
-0.0116168018430471,0.0303941592574119,-0.0383730120956897,-0.2499324530363083,-0.0499946363270282,-0.0520777180790901,0.0,0.0,0.7597789764404297,0.0938465595245361
-0.0120862964540719,0.0253034681081771,-0.043868564069271,-0.2263570576906204,-0.0530420206487178,-0.0609477646648883,0.0,0.0,0.6570688486099243,0.5656490325927734
-0.0126026151701807,0.0206749066710472,-0.0470017604529857,-0.2058866024017334,-0.057621531188488,-0.0915900319814682,0.0,0.0,0.718885064125061,-0.348476231098175
-0.0131575586274266,0.0161539893597364,-0.0505595132708549,-0.2011270970106125,-0.0624969117343425,-0.0975077599287033,0.0,0.0,0.6964777708053589,0.6363966464996338
-0.0137954708188772,0.01189542748034,-0.0570964738726615,-0.189563974738121,-0.0691219046711921,-0.132500022649765,0.0,0.0,0.7206803560256958,0.6126391887664795
-0.0145585061982274,0.0077942945063114,-0.0677779763936996,-0.1826882362365722,-0.0775592848658561,-0.1687473058700561,0.0,0.0,0.4607679843902588,0.2535790205001831
-0.0151371005922555,0.0047105406410992,-0.0687358528375625,-0.1365301758050918,-0.0667815580964088,0.2155753374099731,1.0,0.0,0.575103759765625,0.7553608417510986
-0.0154545782133936,0.0021444177255034,-0.0598122552037239,-0.1130490973591804,-0.0389870069921016,0.5559590458869934,1.0,0.0,0.4767704010009765,0.7798279523849487
-0.0154671669006347,0.0003465151821728,-0.0394746176898479,-0.0793592259287834,-0.0011981244897469,0.7558556795120239,1.0,0.0,0.7902704477310181,0.9740664958953856
-0.0154553409665822,-0.00087678671116,-0.0335007645189762,-0.0546967908740043,0.033050175756216,0.6849661469459534,1.0,1.0,0.5432233810424805,0.9693098068237304
-0.0153532028198242,-0.0011219405569136,-0.0104327341541647,-0.0117359794676303,0.0522159524261951,0.3817309439182281,0.0,1.0,-0.9197671413421632,0.9537966251373292
-0.0152781484648585,-0.001471378840506,0.0064977286383509,-0.0155794862657785,0.0531699769198894,0.0190177541226148,0.0,1.0,-0.5167232751846313,0.19523286819458
-0.0152906421571969,-0.0019844316411763,0.012287026271224,-0.022383477538824,0.0397659987211227,-0.2681147456169128,0.0,1.0,-0.197102665901184,-0.0591949820518493
-0.015360546298325,-0.0028223895933479,0.01631342433393,-0.0367899537086486,0.0167159531265497,-0.461035668849945,0.0,1.0,0.1427586078643798,-0.0970844030380249
-0.0153019903227686,-0.0029434466268867,0.0173019729554653,-0.0053368373773992,0.0055365138687193,-0.2234551906585693,1.0,1.0,0.089729905128479,-0.2960748076438904
-0.0152301788330078,-0.0024641894269734,0.0109444111585617,0.0212899353355169,0.001869078609161,-0.0732834264636039,1.0,1.0,-0.3490405082702636,-0.3084167838096618
-0.0151437763124704,-0.0021482252050191,0.0111941322684288,0.0140256322920322,-0.0006014823447912,-0.0493566319346427,1.0,1.0,-0.5967745184898376,-0.1301931142807006
-0.0150356292724609,-0.0018971705576404,0.011411027982831,0.0111454548314213,-0.0011546929599717,-0.0110218990594148,1.0,1.0,-0.5521507263183594,0.0846760272979736
-0.0149490358307957,-0.0017001533415168,0.0102885263040661,0.0087411059066653,-0.0027429680339992,-0.0317321568727493,1.0,1.0,-0.4393459558486938,-0.3284801244735718
-0.0148594854399561,-0.0015552067197859,0.0077940793707966,0.0064281690865755,-0.001558611402288,0.023727772757411,1.0,1.0,-0.6435414552688599,-0.0356509685516357
-0.0148316379636526,-0.0015529894735664,0.0028007752262055,9.091461106436328e-05,-0.0015623187646269,-4.862980131292716e-05,1.0,1.0,-0.8671392798423767,-0.0400680303573608
-0.014837360009551,-0.0015537762083113,-0.0005722626810893,-4.437285679159686e-05,-0.0015546889044344,0.0001690232602413,1.0,1.0,-0.7402439713478088,0.0305153131484985
-0.0148499486967921,-0.0015537047293037,-0.0012750241439789,-1.8674021475817424e-06,-0.0015367862069979,0.0003651970182545,1.0,1.0,-0.8483791351318359,0.1143043041229248
