x_pos,y_pos,x_vel,y_vel,angle,ang_vel,leg_1,leg_2,main_booster,lat_booster
-0.001622200012207,1.4034266471862793,-0.1643390655517578,-0.3330474495887756,0.0018900622380897,0.0372929349541664,0.0,0.0,-0.8826459446248209,0.8582121972728106
-0.0032730102539062,1.395754337310791,-0.1651352345943451,-0.3409907519817352,0.0019448203966021,0.0010958021739497,0.0,0.0,-0.3710323885978996,-0.9472610148802356
-0.0050854682922363,1.3878765106201172,-0.1828376352787017,-0.3501264750957489,0.0035168067552149,0.0314426757395267,0.0,0.0,0.2626834138246614,-0.5718893311716993
-0.007149982266128,1.38037109375,-0.2090246379375457,-0.3335886001586914,0.0060660177841782,0.0509890504181385,0.0,0.0,0.5740713066322283,0.6662835420686181
-0.0091392518952488,1.373603105545044,-0.2005504667758941,-0.3007997572422027,0.0076671317219734,0.0320254936814308,0.0,0.0,0.6235073666455624,-0.7675163672828748
-0.0111536029726266,1.3674378395080566,-0.2049645632505417,-0.274036556482315,0.0111536243930459,0.0697362199425697,0.0,0.0,-0.6816022135530195,-0.9158896152317164
-0.0133536336943507,1.361073613166809,-0.2254947125911712,-0.282906711101532,0.0165891405194997,0.1087201386690139,0.0,0.0,0.8528741462543308,-0.8202875520977702
-0.0155588146299123,1.3556057214736938,-0.2281426638364792,-0.2431222051382064,0.0241167452186346,0.1505664736032486,0.0,0.0,0.1602257420269124,0.7509702111738812
-0.0178425796329975,1.350831389427185,-0.2345441281795501,-0.2122991234064102,0.0302192345261573,0.1220608502626419,0.0,0.0,-0.4530487255039686,0.6827945068694872
-0.0201874729245901,1.3458664417266846,-0.2393649518489837,-0.2207769006490707,0.0350490249693393,0.0966047644615173,0.0,0.0,0.4589590060708812,-0.812260899130963
-0.022645091637969,1.3414926528930664,-0.2524921298027038,-0.1945622712373733,0.0417007729411125,0.1330470591783523,0.0,0.0,0.0204129792132385,0.8730736200676987
-0.0251126289367675,1.3374160528182983,-0.2518120408058166,-0.1813336163759231,0.0467077158391475,0.1001482009887695,0.0,0.0,-0.8416398022685447,0.8247491834240853
-0.0276189800351858,1.3331514596939087,-0.2537595629692077,-0.1896380335092544,0.0498123541474342,0.0620982870459556,0.0,0.0,0.0634744549921002,0.5184288780441517
-0.0301647186279296,1.329033613204956,-0.2568651437759399,-0.1830968856811523,0.0520715452730655,0.0451879873871803,0.0,0.0,0.4321647351351882,0.7768195895108707
-0.0326693542301654,1.3258116245269775,-0.251499742269516,-0.1432299315929412,0.0530955046415329,0.0204811505973339,0.0,0.0,-0.0747584594139096,0.7118462553991759
-0.035227108746767,1.3223886489868164,-0.2552133202552795,-0.152111142873764,0.0525470562279224,-0.0109699349850416,0.0,0.0,0.3760868219567959,-0.93754064508335
-0.0378850921988487,1.3198508024215698,-0.2673450708389282,-0.1128521263599395,0.0540714003145694,0.0304898582398891,0.0,0.0,-0.337163609476085,0.6308350443020199
-0.0406023040413856,1.3171143531799316,-0.2717941403388977,-0.1216181144118309,0.0541479587554931,0.0015312579926103,0.0,0.0,0.0673433095053901,0.5756961175788387
-0.0433535575866699,1.314971923828125,-0.2742656767368316,-0.0951927751302719,0.053294900804758,-0.0170628428459167,0.0,0.0,-0.372604739186291,-0.6919627356462152
-0.0462883934378623,1.3126260042190552,-0.2943054437637329,-0.1042875871062278,0.0541089661419391,0.0162828676402568,0.0,0.0,0.3676154724674303,-0.5115577810279281
-0.049305535852909,1.3110244274139404,-0.3039519190788269,-0.0712651312351226,0.0563261546194553,0.0443480052053928,0.0,0.0,-0.4827349962418616,-0.8490604740070192
-0.0525107383728027,1.30921471118927,-0.3245456218719482,-0.0805940106511116,0.060312446206808,0.0797329396009445,0.0,0.0,0.9399151307235278,-0.5256318379128309
-0.0557578094303607,0.0,-0.3303880095481872,-0.0464593209326267,0.0659431293606758,0.1126237884163856,0.0,0.0,-0.0447159706189979,-0.7318668795130634
-0.0591788291931152,1.3069239854812622,-0.3492046892642975,-0.0559109672904014,0.0729806944727897,0.1407637894153595,0.0,0.0,0.3751498492876983,0.8376419559050552
-0.0628300681710243,1.3062725067138672,-0.370501697063446,-0.029228625819087,0.0783154964447021,0.1067056059837341,0.0,0.0,0.2800660916952133,-0.7245421417340903
-0.0668303519487381,1.3062002658843994,-0.4068152904510498,-0.003584191435948,0.0850438252091407,0.1345666348934173,0.0,0.0,-0.4156113305514708,-0.5955673167929927
-0.071001335978508,1.3059288263320925,-0.4252009391784668,-0.0125521393492817,0.0930758938193321,0.1606409847736358,0.0,0.0,0.967993350594081,-0.5440239134274456
-0.0755951851606369,1.3069052696228027,-0.4682186543941498,0.042824313044548,0.1018328964710235,0.1751401424407959,0.0,0.0,0.4804561988957405,-0.5877450489796228
-0.0805568695068359,1.308699369430542,-0.5060063600540161,0.0790337771177291,0.1116020157933235,0.1953822821378708,0.0,0.0,-0.8333297297020432,0.74660515501243
-0.0855860710144043,1.3103034496307373,-0.5114399790763855,0.0706365779042244,0.1200651451945304,0.1692628413438797,0.0,0.0,-0.1467973717753439,-0.8890543239182267
-0.0908083915710449,1.311708927154541,-0.5325919985771179,0.0615935511887073,0.1303753405809402,0.2062040269374847,0.0,0.0,-0.6422604918479919,0.9770022630691528
-0.0960880294442176,1.3129254579544067,-0.5367575883865356,0.0532692149281501,0.1391221433877945,0.1749360561370849,0.0,0.0,-0.5826548933982849,0.8946123123168945
-0.1014329940080642,0.0,-0.5418453216552734,0.0455448552966117,0.1464565843343734,0.1466890126466751,0.0,0.0,-0.5804624557495117,0.919700026512146
-0.1068374663591384,1.3148155212402344,-0.5462971925735474,0.0371707528829574,0.1522870063781738,0.1166088208556175,0.0,0.0,-0.3887358903884887,0.9891092777252196
-0.1122877150774002,1.31548810005188,-0.5489656329154968,0.0294819734990596,0.156221404671669,0.0786879211664199,0.0,0.0,-0.8035174012184143,0.952735185623169
-0.117786981165409,1.315988302230835,-0.5520352721214294,0.022008441388607,0.1583262085914611,0.0420963540673255,0.0,0.0,-0.7193148732185364,0.9537816047668456
-0.1233394593000412,1.3163031339645386,-0.5556670427322388,0.0139490505680441,0.1587478071451187,0.0084319626912474,0.0,0.0,-0.8950279355049133,0.8760027885437012
-0.1289448738098144,1.3164446353912354,-0.5592352747917175,0.0064229313284158,0.1574424356222152,-0.0261077731847763,0.0,0.0,-0.9002664685249329,0.0204962491989135
-0.1346752196550369,1.3163883686065674,-0.5718671083450317,-0.0023742027115076,0.1562794744968414,-0.0232591107487678,0.0,0.0,-0.6717759966850281,0.8508834838867188
-0.1404609680175781,1.3161522150039673,-0.57576984167099,-0.0102057000622153,0.153476670384407,-0.0560561716556549,0.0,0.0,-0.9838394522666932,0.188153862953186
-0.1463715583086013,1.315718650817871,-0.5883979201316833,-0.0190033260732889,0.1508185565471649,-0.0531623549759388,0.0,0.0,-0.8627329468727112,0.3755358457565307
-0.1524069756269455,1.3150873184204102,-0.6010216474533081,-0.027800865471363,0.1483061909675598,-0.0502472147345542,0.0,0.0,-0.9725663661956788,0.5648280382156372
-0.1585152596235275,1.314263939857483,-0.6071357131004333,-0.0362311415374279,0.1446319669485092,-0.0734845325350761,0.0,0.0,-0.9569254517555236,0.950429916381836
-0.1646612137556076,1.3132603168487549,-0.6088472604751587,-0.0440582484006881,0.1388927698135376,-0.1147838830947876,0.0,0.0,-0.992263674736023,0.7201482057571411
-0.1708784103393554,0.0,-0.6147649884223938,-0.0526181943714618,0.1319643408060073,-0.1385685950517654,0.0,0.0,-0.9879756569862366,0.7637813091278076
-0.177154928445816,1.3106722831726074,-0.619193971157074,-0.0610459484159946,0.1235470175743103,-0.1683464348316192,0.0,0.0,-0.958633303642273,0.380436897277832
-0.1835557967424392,1.3090858459472656,-0.6317704916000366,-0.0698485150933265,0.1152802035212516,-0.1653366386890411,0.0,0.0,-0.8668549060821533,0.8332409858703613
-0.1900282800197601,1.3073208332061768,-0.6377148032188416,-0.0777395144104957,0.1058084964752197,-0.1894344836473465,0.0,0.0,-0.9329756498336792,0.8797808885574341
-0.1965714395046234,1.3053758144378662,-0.64354008436203,-0.0857205390930175,0.0951177254319191,-0.2138152122497558,0.0,0.0,-0.9406372904777528,0.9415725469589232
-0.2031667232513427,1.303242325782776,-0.6470681428909302,-0.0940753445029258,0.0827697739005088,-0.2469590604305267,0.0,0.0,-0.9673742055892944,0.969745397567749
-0.2097909450531005,1.3009251356124878,-0.6476887464523315,-0.1022385880351066,0.0681833028793335,-0.2917293906211853,0.0,0.0,-0.9974006414413452,0.9957928657531738
-0.2164678126573562,1.2984271049499512,-0.6512774229049683,-0.1103515326976776,0.0519562438130378,-0.3245412707328796,0.0,0.0,-0.9945117235183716,0.953189730644226
-0.2231785804033279,1.2957370281219482,-0.6525461077690125,-0.1190177425742149,0.0336437784135341,-0.3662495911121368,0.0,0.0,-0.9847378730773926,0.9890048503875732
-0.2299337387084961,1.2928670644760132,-0.6551259160041809,-0.127214565873146,0.0135077591985464,-0.4027205407619476,0.0,0.0,-0.9882696866989136,0.9216654300689696
-0.2367203682661056,1.289803981781006,-0.6561034917831421,-0.1360952854156494,-0.0087586110457777,-0.4453276991844177,0.0,0.0,-0.9970232248306274,0.9620894193649292
-0.2435649931430816,1.286544680595398,-0.6604315042495728,-0.1451691836118698,-0.0324784256517887,-0.4743967056274414,0.0,0.0,-0.9948222041130066,0.9453297853469848
-0.2504443526268005,1.2831000089645386,-0.6618923544883728,-0.1538596302270889,-0.0582145303487777,-0.5147223472595215,0.0,0.0,-0.9889686703681946,0.9919712543487548
-0.2573481500148773,1.2794623374938965,-0.6620771884918213,-0.1630001962184906,-0.0862196385860443,-0.5601025819778442,0.0,0.0,-0.9874414801597596,0.64711594581604
-0.2643143534660339,1.2756370306015017,-0.6670884490013123,-0.1719791889190673,-0.1155147552490234,-0.5859028100967407,0.0,0.0,-0.9865411520004272,-0.0907002091407775
-0.271399974822998,1.2716248035430908,-0.6792890429496765,-0.1808443367481231,-0.1446525752544403,-0.5827566385269165,0.0,0.0,-0.9859453439712524,-0.2341313362121582
-0.2786043286323547,1.267425537109375,-0.6914390921592712,-0.1897081285715103,-0.1736334264278412,-0.5796173810958862,0.0,0.0,-0.9620924592018129,-0.1102519035339355
-0.2859266400337219,1.2630391120910645,-0.7035337090492249,-0.1985705196857452,-0.2024578005075454,-0.5764880776405334,0.0,0.0,-0.9705855250358582,-0.0020681023597717
-0.293366014957428,1.258465051651001,-0.7155677676200867,-0.2074314802885055,-0.2311263233423233,-0.5733709335327148,0.0,0.0,-0.9220633506774902,-0.2792068719863891
-0.3009216785430908,1.253702998161316,-0.7275357246398926,-0.2162909358739853,-0.2596397697925567,-0.5702687501907349,0.0,0.0,-0.7236032485961914,-0.5125768184661865
-0.3086320459842682,1.2487643957138062,-0.7443533539772034,-0.2244517803192138,-0.2869788110256195,-0.5467807054519653,0.0,0.0,-0.6954429149627686,-0.6020592451095581
-0.3165117800235748,1.2436610460281372,-0.7630780935287476,-0.2319284230470657,-0.3126904964447021,-0.5142338871955872,0.0,0.0,-0.6388360857963562,-0.3765360116958618
-0.3245052397251129,1.2383674383163452,-0.7748044729232788,-0.2407726496458053,-0.3382503688335418,-0.5111972093582153,0.0,0.0,-0.2410799860954284,-0.5983169078826904
-0.3326515555381775,1.2328964471817017,-0.7914384603500366,-0.2487794309854507,-0.3626101315021515,-0.4871952533721924,0.0,0.0,0.0399502515792846,-0.6679568290710449
-0.3407481610774994,1.2280124425888062,-0.7881344556808472,-0.222685769200325,-0.385421872138977,-0.4562349915504455,0.0,0.0,0.2120269536972046,-0.6674878597259521
-0.3489459156990051,1.2234888076782229,-0.7997720837593079,-0.2066131234169006,-0.4068167209625244,-0.4278970658779144,0.0,0.0,0.3124130964279175,-0.6530027389526367
-0.35716113448143,1.219593524932861,-0.8029635548591614,-0.1785881370306015,-0.4268406331539154,-0.4004788398742676,0.0,0.0,0.5142083168029785,-0.5204179883003235
-0.3652581572532654,1.2162902355194092,-0.7925037741661072,-0.1521421521902084,-0.4455617070198059,-0.37442147731781,0.0,0.0,0.8147127628326416,-0.6330490112304688
-0.3732426762580871,1.2141844034194946,-0.7824023365974426,-0.0988005772233009,-0.4631810486316681,-0.3523871004581451,0.0,0.0,0.6242341995239258,0.3799047470092773
-0.3810147643089294,1.2125968933105469,-0.7617393732070923,-0.0758050605654716,-0.4803249835968017,-0.3428785502910614,0.0,0.0,0.808952808380127,0.4711837768554687
-0.3887261748313904,1.211409330368042,-0.7557722330093384,-0.0582160763442516,-0.4975000321865082,-0.3435007929801941,0.0,0.0,0.8651144504547119,0.1063657999038696
-0.3962976336479187,1.2104551792144775,-0.7423522472381592,-0.0478568561375141,-0.5141822099685669,-0.3336434662342071,0.0,0.0,0.3039207458496094,-0.1355366110801696
-0.4038598537445068,1.209673523902893,-0.7415795922279358,-0.0403377227485179,-0.5308437943458557,-0.3332321643829345,0.0,0.0,0.7043178081512451,-0.0681991577148437
-0.4111138880252838,1.2097612619400024,-0.7109926342964172,-0.0018279528012499,-0.5474115014076233,-0.3313544392585754,0.0,0.0,0.5241856575012207,-0.224766731262207
-0.4180096983909607,1.210559606552124,-0.6757223010063171,0.0297613739967346,-0.563506007194519,-0.321890264749527,0.0,0.0,0.7692127227783203,0.1997219324111938
-0.4246338307857513,1.212368369102478,-0.6483290791511536,0.0743598490953445,-0.5800268650054932,-0.3304170668125152,0.0,0.0,0.4067317247390747,-0.4019320011138916
-0.4312871992588043,1.214425563812256,-0.6510848999023438,0.0851141959428787,-0.5969300866127014,-0.3380642831325531,0.0,0.0,0.0721468925476074,-0.1216477751731872
-0.4377195239067077,1.2169015407562256,-0.6293491125106812,0.1036543920636177,-0.6135875582695007,-0.3331499695777893,0.0,0.0,-0.0725377202033996,-0.7608752846717834
-0.4442946910858154,1.21924090385437,-0.6454652547836304,0.0982393100857734,-0.6282004117965698,-0.2922571897506714,0.0,0.0,0.0997925996780395,-0.3344215154647827
-0.4507175981998443,1.22196364402771,-0.6303373575210571,0.1151354387402534,-0.6428627967834473,-0.2932477295398712,0.0,0.0,0.0357551574707031,-0.2708511352539062
-0.4569640755653381,1.225022792816162,-0.6128853559494019,0.1300084292888641,-0.6574434041976929,-0.2916121780872345,0.0,0.0,-0.2919847965240478,-0.565633237361908
-0.4633172452449798,1.227919578552246,-0.624613881111145,0.123170182108879,-0.6708532571792603,-0.2681975960731506,0.0,0.0,-0.1030945777893066,-0.4530465602874756
-0.4697440266609192,1.2306195497512815,-0.6321778893470764,0.1143689379096031,-0.6841526031494141,-0.2659863829612732,0.0,0.0,-0.0694472789764404,-0.5797044038772583
-0.4762720465660095,1.2331550121307373,-0.6433309316635132,0.10747841745615,-0.6962737441062927,-0.2424230873584747,0.0,0.0,-0.1592043042182922,-0.4260709285736084
-0.4828663468360901,1.2354929447174072,-0.6501292586326599,0.0986793935298919,-0.708290696144104,-0.2403386384248733,0.0,0.0,0.082890510559082,-0.4961191415786743
-0.4892852306365967,1.2378389835357666,-0.6330880522727966,0.0991916358470916,-0.7197842001914978,-0.2298698127269745,0.0,0.0,0.039242148399353,-0.4204511642456054
-0.4954532980918884,1.2405240535736084,-0.6081544756889343,0.1142319440841674,-0.7311967611312866,-0.2282509803771972,0.0,0.0,-0.2405112981796264,-0.4443615078926086
-0.5016750693321228,1.243011713027954,-0.6136788129806519,0.1054338961839675,-0.7425153851509094,-0.226371482014656,0.0,0.0,-0.0976974368095398,-0.3219571113586426
-0.5079460144042969,1.2453022003173828,-0.6187478303909302,0.0966359376907348,-0.753743588924408,-0.2245643436908722,0.0,0.0,-0.1896920800209045,-0.4440816640853882
-0.5142613649368286,1.2473948001861572,-0.6233478784561157,0.0878380313515663,-0.7648851871490479,-0.2228316068649292,0.0,0.0,0.1284595727920532,-0.3948215246200561
-0.5204015970230103,1.2497040033340454,-0.6058489084243774,0.0973483324050903,-0.7761099934577942,-0.2244956940412521,0.0,0.0,-0.108344554901123,-0.5056084990501404
-0.5265974402427673,1.2518547773361206,-0.6122847199440002,0.0907641947269439,-0.7862686514854431,-0.2031726539134979,0.0,0.0,0.1729059219360351,-0.4842311143875122
-0.5325490832328796,1.254253625869751,-0.5879284739494324,0.1017415523529052,-0.7964289784431458,-0.2032062709331512,0.0,0.0,0.1885340213775634,-0.2533037662506103
-0.5381790995597839,1.2571512460708618,-0.5556012988090515,0.1236884742975235,-0.8069324493408203,-0.2100699245929718,0.0,0.0,-0.3495786786079407,-0.3015686869621277
-0.5438289642333984,1.259851336479187,-0.5577077269554138,0.1148909479379654,-0.8173691630363464,-0.2087346762418747,0.0,0.0,-0.5166420340538025,-0.3501838445663452
-0.5494934320449829,1.2623536586761477,-0.5592986345291138,0.1060933694243431,-0.8277433514595032,-0.2074832022190094,0.0,0.0,0.026216983795166,-0.2997081279754638
-0.5548596978187561,1.2651875019073486,-0.5294344425201416,0.1206772252917289,-0.8382968902587891,-0.2110706865787506,0.0,0.0,-0.3777501583099365,-0.5209231972694397
-0.5602591037750244,1.2678688764572144,-0.533694863319397,0.1145070046186447,-0.8475630879402161,-0.1853239685297012,0.0,0.0,-0.0638397336006164,-0.4003908634185791
-0.5656579732894897,1.2703527212142944,-0.5337396264076233,0.1057102009654045,-0.8567796349525452,-0.1843307316303253,0.0,0.0,-0.4036816954612732,-0.5970999598503113
-0.5710895657539368,1.2727025747299194,-0.5382161736488342,0.1006217747926712,-0.8642449975013733,-0.1493070274591446,0.0,0.0,-0.1461853384971618,-0.5436618328094482
-0.5765312910079956,1.2748959064483645,-0.5399872064590454,0.0941838324069976,-0.870636522769928,-0.1278301477432251,0.0,0.0,-0.272768497467041,-0.5015855431556702
-0.581982433795929,1.2769279479980469,-0.5416446328163147,0.0875522419810295,-0.8759651184082031,-0.1065718382596969,0.0,0.0,-0.2109155654907226,-0.5665069818496704
-0.5874324440956116,1.2788023948669434,-0.5422227382659912,0.0810787677764892,-0.880265474319458,-0.0860067754983902,0.0,0.0,0.1748216152191162,-0.5538421869277954
-0.5924686193466187,1.2810786962509155,-0.5016699433326721,0.0995888710021972,-0.8832828402519226,-0.0603476092219352,0.0,0.0,-0.609534502029419,-0.4322142004966736
-0.5974758267402649,1.2831567525863647,-0.4987989962100982,0.0907947197556495,-0.8862777948379517,-0.059898518025875,0.0,0.0,-0.3047277331352234,-0.4706187844276428
-0.6024497151374817,1.2850369215011597,-0.4954847693443298,0.0820002779364585,-0.8892549872398376,-0.0595438592135906,0.0,0.0,-0.3242833614349365,-0.3305337429046631
-0.60738605260849,1.2867190837860107,-0.4917420446872711,0.0732055380940437,-0.8922191858291626,-0.0592845194041729,0.0,0.0,0.172785997390747,-0.406886339187622
-0.6118184328079224,1.2886792421340942,-0.4414873719215393,0.0856738314032554,-0.8949762582778931,-0.0551399961113929,0.0,0.0,-0.0931329727172851,-0.5656604766845703
-0.6162300705909729,1.2904837131500244,-0.4401368498802185,0.0793405845761299,-0.8966036438941956,-0.0325480699539184,0.0,0.0,-0.2517218589782715,-0.4399136304855346
-0.6205924153327942,1.2920902967453003,-0.4352032542228699,0.0705452188849449,-0.898232638835907,-0.0325794294476509,0.0,0.0,0.0911673307418823,-0.0334985256195068
-0.6246886253356934,1.2939163446426392,-0.4083453118801117,0.0800832211971283,-0.9002602100372314,-0.0405514687299728,0.0,0.0,-0.1802055835723877,0.0287864208221435
-0.628728449344635,1.2955446243286133,-0.4027011394500732,0.071287140250206,-0.902299165725708,-0.0407793596386909,0.0,0.0,0.0651566982269287,-0.2357840538024902
-0.6324283480644226,1.297275185585022,-0.3687476217746734,0.0758663490414619,-0.9042770862579346,-0.0395582169294357,0.0,0.0,-0.3839493989944458,-0.1268161535263061
-0.6360654234886169,1.2988080978393557,-0.3624595701694488,0.0670696198940277,-0.9062762260437012,-0.0399826020002365,0.0,0.0,-0.0112066864967346,-0.4110521078109741
-0.6396368145942688,1.3001433610916138,-0.3558741509914398,0.0582725740969181,-0.9083014726638794,-0.0405047498643398,0.0,0.0,-0.1749483346939087,0.2775695323944092
-0.643139660358429,1.3012813329696655,-0.3490074574947357,0.0494751930236816,-0.910357654094696,-0.0411239676177501,0.0,0.0,0.0188063383102417,-0.3960012793540954
-0.6463953852653503,1.3023521900177002,-0.3243864178657532,0.046574804931879,-0.9122681021690368,-0.0382087007164955,0.0,0.0,-0.2186190485954284,-0.4076295495033264
