x_pos,y_pos,x_vel,y_vel,angle,ang_vel,leg_1,leg_2,main_booster,lat_booster
-0.0014636993873864,1.4034169912338257,-0.1478005498647689,-0.3334668278694153,0.001275785616599,0.025129597634077,0.0,0.0,-0.2204722166061401,0.2214726209640503
-0.0028730393387377,1.3957297801971436,-0.1417189538478851,-0.3416551351547241,0.002055125311017,0.0155892521142959,0.0,0.0,-0.1914916634559631,0.6415550708770752
-0.0041720392182469,1.387830138206482,-0.1286481469869613,-0.3510911166667938,0.0008151925867423,-0.0248011015355587,0.0,0.0,0.0028144121170043,0.5826585292816162
-0.0054642679169774,1.3801761865615845,-0.1261994242668151,-0.3401784300804138,-0.0021713010501116,-0.059735644608736,0.0,0.0,-0.2221298813819885,0.3335764408111572
-0.0067201615311205,1.3723148107528689,-0.1220876425504684,-0.3493989408016205,-0.0056375288404524,-0.0693305879831314,0.0,0.0,-0.0520554780960083,0.4925252199172973
-0.0079463962465524,1.3642466068267822,-0.118631437420845,-0.3586148917675018,-0.0095883356407284,-0.0790233165025711,0.0,0.0,-0.2224732041358947,-0.1227715015411377
-0.0091497423127293,1.355971097946167,-0.1158494129776954,-0.3678324520587921,-0.0140267629176378,-0.0887768194079399,0.0,0.0,-0.1844838857650756,0.1195751428604126
-0.0103370668366551,1.3474887609481812,-0.1137570887804031,-0.377050518989563,-0.0189554803073406,-0.0985832065343856,0.0,0.0,-0.1120655536651611,0.0882831811904907
-0.0115155223757028,1.3387993574142456,-0.11236622184515,-0.3862691819667816,-0.0243764463812112,-0.1084292083978653,0.0,0.0,-0.5918811559677124,0.2252451181411743
-0.0126921655610203,1.3299033641815186,-0.1116846203804016,-0.3954885601997375,-0.0302910022437572,-0.118302047252655,0.0,0.0,-0.2062954902648925,0.0079222917556762
-0.0138741489499807,1.3208006620407104,-0.1117158383131027,-0.4047086834907532,-0.0366999357938766,-0.1281903535127639,0.0,0.0,-0.7039156556129456,-0.3092775344848633
-0.0150684360414743,1.3114914894104004,-0.112459123134613,-0.4139296412467956,-0.0436035022139549,-0.1380839049816131,0.0,0.0,-0.397026777267456,-0.2307335138320922
-0.0162822715938091,1.3019758462905884,-0.1139094084501266,-0.4231515228748321,-0.0510015189647674,-0.1479737311601638,0.0,0.0,-0.3518499732017517,-0.1751812100410461
-0.0175227168947458,1.2922539710998535,-0.1160575374960899,-0.4323743879795074,-0.0588933676481246,-0.157851830124855,0.0,0.0,-0.8294388055801392,-0.7581562995910645
-0.0188416484743356,1.2823377847671509,-0.1245975345373153,-0.4410249590873718,-0.0661234781146049,-0.1446152180433273,0.0,0.0,-0.2588591575622558,-0.5107516050338745
-0.0202338211238384,1.2722126245498655,-0.1322563141584396,-0.4503325223922729,-0.0730173587799072,-0.1378902494907379,0.0,0.0,-0.6488699316978455,-0.128717303276062
-0.0216724388301372,1.2618811130523682,-0.1364107877016067,-0.4595561027526855,-0.0804018750786781,-0.1477039158344268,0.0,0.0,-0.248887300491333,0.5758310556411743
-0.0231080055236816,1.2513320446014404,-0.1341869086027145,-0.4693754911422729,-0.0896919593214988,-0.1858188807964325,0.0,0.0,-0.2526362538337707,-0.0616304874420166
-0.0246020313352346,1.2405773401260376,-0.1395625472068786,-0.4786036908626556,-0.0994682163000106,-0.1955431401729583,0.0,0.0,-0.3104121685028076,0.5495586395263672
-0.0261229518800973,1.2296113967895508,-0.1408189684152603,-0.4881573617458343,-0.1106774806976318,-0.2242051064968109,0.0,0.0,-0.4459726810455322,0.0750907659530639
-0.0277135856449604,1.2184405326843262,-0.1473110020160675,-0.4973903000354767,-0.1223688498139381,-0.2338486015796661,0.0,0.0,0.0289627313613891,0.2192734479904174
-0.0293378829956054,1.2074739933013916,-0.1502652168273925,-0.4884474873542785,-0.1345068514347076,-0.2427815645933151,0.0,0.0,-0.0220629572868347,-0.0621558427810668
-0.0310419090092182,1.196302890777588,-0.1577616035938263,-0.4976873695850372,-0.1471230685710907,-0.2523468732833862,0.0,0.0,-0.5696154236793518,-0.3355739116668701
-0.0328299514949321,1.184927463531494,-0.1657145023345947,-0.5069252848625183,-0.16021528840065,-0.2618676424026489,0.0,0.0,-0.2558655738830566,-0.2040567994117736
-0.034706212580204,1.1733478307724,-0.1740962117910385,-0.516166090965271,-0.1737813502550125,-0.2713450789451599,0.0,0.0,-0.4108463525772095,-0.5691551566123962
-0.0367320068180561,1.1615604162216189,-0.1900046169757843,-0.5254069566726685,-0.1864015609025955,-0.2524040043354034,0.0,0.0,-0.1115013360977172,-0.4381335377693176
-0.0388541221618652,1.149569034576416,-0.1991960257291793,-0.5346421003341675,-0.1994940340518951,-0.2618497908115387,0.0,0.0,0.2417435646057129,-0.7048903703689575
-0.0411147102713584,1.1383419036865234,-0.2138707190752029,-0.5006650686264038,-0.211783155798912,-0.2457825392484665,0.0,0.0,-0.0606329441070556,-0.904982089996338
-0.0435621254146099,1.1269454956054688,-0.234316736459732,-0.5080429315567017,-0.2223214507102966,-0.2107658088207245,0.0,0.0,-0.2109988331794738,-0.4833626747131347
-0.0461154952645301,1.115344524383545,-0.2444702088832855,-0.5172752141952515,-0.2333283871412277,-0.2201390564441681,0.0,0.0,-0.8300113081932068,-0.4052503705024719
-0.0487773902714252,1.103539228439331,-0.2548971772193908,-0.5265087485313416,-0.2448029071092605,-0.2294899970293045,0.0,0.0,-0.355955958366394,-0.5674858093261719
-0.0515999794006347,1.0915448665618896,-0.271804541349411,-0.5348578691482544,-0.2554526627063751,-0.2129949778318405,0.0,0.0,-0.1263983249664306,0.3567047119140625
-0.0545359626412391,1.0793464183807373,-0.2827141880989074,-0.5440914630889893,-0.2665678560733795,-0.2223036289215088,0.0,0.0,-0.0978014469146728,-0.8275777697563171
-0.0576582923531532,1.066964864730835,-0.3027380108833313,-0.5520523190498352,-0.2763011455535888,-0.1946653127670288,0.0,0.0,-0.6376691460609436,-0.1966159343719482
-0.0608981139957904,1.0543789863586426,-0.3140542507171631,-0.5612850785255432,-0.2864978313446045,-0.2039339989423751,0.0,0.0,0.3230923414230346,-0.7101288437843323
-0.0641229599714279,1.0424821376800537,-0.3135622143745422,-0.5305302739143372,-0.2956860065460205,-0.1837638169527053,0.0,0.0,-0.4284155368804931,0.5151329040527344
-0.0674318298697471,1.0303611755371094,-0.3205884099006653,-0.5408260822296143,-0.3063400983810425,-0.2130816727876663,0.0,0.0,0.1144752502441406,-0.3221745491027832
-0.0706836730241775,1.0187593698501587,-0.3145768642425537,-0.5179154872894287,-0.317335844039917,-0.2199148833751678,0.0,0.0,-0.6177498698234558,-0.8590197563171387
-0.0741254836320877,1.0069961547851562,-0.3349640071392059,-0.5248570442199707,-0.3269142210483551,-0.1915676593780517,0.0,0.0,-0.7070949077606201,-0.3853265643119812
-0.0776919350028038,0.9950287342071532,-0.3470340073108673,-0.5340912342071533,-0.3369511365890503,-0.2007381170988083,0.0,0.0,-0.8479920625686646,-0.7907891869544983
-0.0814519897103309,0.9828997254371644,-0.3678033351898193,-0.5410077571868896,-0.3455331921577453,-0.1716411411762237,0.0,0.0,-0.116220474243164,-0.3520996570587158
-0.0853389725089073,0.9705665707588196,-0.3800914883613586,-0.5502411127090454,-0.354571670293808,-0.1807693541049957,0.0,0.0,-0.4424375295639038,-0.1414224505424499
-0.0893538445234298,0.9580289721488952,-0.3924754559993744,-0.559475302696228,-0.364065408706665,-0.1898746788501739,0.0,0.0,-0.7533213496208191,0.1007481813430786
-0.0934973731637001,0.9452874064445496,-0.4049469828605652,-0.5687105059623718,-0.3740131855010986,-0.1989563852548599,0.0,0.0,-0.4786821603775024,0.8236677646636963
-0.0977165251970291,0.9323002696037292,-0.4106292724609375,-0.5802103877067566,-0.3860072195529938,-0.2398805618286132,0.0,0.0,-0.4466719031333923,0.2281850576400756
-0.102065660059452,0.9191096425056458,-0.4232558310031891,-0.589450478553772,-0.3984527885913849,-0.2489121407270431,0.0,0.0,-0.6091216802597046,0.5657558441162109
-0.1065009087324142,0.9056851267814636,-0.43032106757164,-0.6004205942153931,-0.4126410782337188,-0.2837655246257782,0.0,0.0,-0.6868345737457275,-0.2147992849349975
-0.1110671982169151,0.892058253288269,-0.4430777132511139,-0.6096657514572144,-0.4272782802581787,-0.2927439510822296,0.0,0.0,-0.7460859417915344,-0.4460508823394775
-0.1157648116350174,0.8782292008399963,-0.4558905959129333,-0.6189122796058655,-0.4423629641532898,-0.3016944527626037,0.0,0.0,0.1272913217544555,-0.678182065486908
-0.1205087676644325,0.8647109866142273,-0.4615038335323334,-0.6049448251724243,-0.4564996361732483,-0.2827333807945251,0.0,0.0,-0.2316122651100158,-0.5931391716003418
-0.1254168450832367,0.8510138392448425,-0.4784498214721679,-0.6128771305084229,-0.4701363444328308,-0.2727341055870056,0.0,0.0,0.90155029296875,-0.5706548094749451
-0.1301750242710113,0.8383294939994812,-0.4640451967716217,-0.5677925944328308,-0.483206033706665,-0.2613940238952636,0.0,0.0,0.6834442615509033,-0.0382406115531921
-0.1347570419311523,0.8259665966033936,-0.4465823769569397,-0.5535839796066284,-0.4962013661861419,-0.2599069476127624,0.0,0.0,-0.149196982383728,-0.7535116076469421
-0.1395215988159179,0.8134489059448242,-0.4659391343593597,-0.5601907968521118,-0.5080453157424927,-0.2368784844875335,0.0,0.0,0.2528877258300781,-0.3910552263259887
-0.144141286611557,0.8011303544044495,-0.4515924453735351,-0.5513903498649597,-0.5198032259941101,-0.2351582795381546,0.0,0.0,0.3656672239303589,-0.4859142303466797
-0.1487698554992675,0.7891749739646912,-0.4518582224845886,-0.5356038808822632,-0.5323607921600342,-0.2511502206325531,0.0,0.0,0.82291579246521,-0.61335289478302
-0.1530295312404632,0.7781097292900085,-0.4160540997982025,-0.4957245886325836,-0.5437618494033813,-0.2280206978321075,0.0,0.0,0.185024619102478,-0.7810987234115601
-0.1571277678012848,0.7674246430397034,-0.401094526052475,-0.4784364104270935,-0.5538467764854431,-0.2016982287168502,0.0,0.0,0.175148606300354,-0.613991379737854
-0.1610406935214996,0.7572800517082214,-0.3834575712680816,-0.4541330635547638,-0.562953770160675,-0.1821386814117431,0.0,0.0,-0.008054494857788,-0.5181138515472412
-0.165125086903572,0.7469720244407654,-0.401369959115982,-0.4611363708972931,-0.5712277293205261,-0.1654800772666931,0.0,0.0,0.639428973197937,-0.8413078188896179
-0.1691561639308929,0.7369253039360046,-0.3973098695278168,-0.4490252733230591,-0.5780485272407532,-0.1364155113697052,0.0,0.0,0.5788581371307373,-0.8088340163230896
-0.1730963736772537,0.7276588678359985,-0.3892312347888946,-0.4139324128627777,-0.5836960673332214,-0.1129511967301368,0.0,0.0,0.9177181720733644,-0.3339048624038696
-0.1767212897539138,0.7188212871551514,-0.3579433560371399,-0.3947949707508087,-0.5890910625457764,-0.1078993529081344,0.0,0.0,0.9354628324508668,-0.6795051693916321
-0.1801014840602874,0.7106954455375671,-0.3344311714172363,-0.3627604246139526,-0.5933581590652466,-0.085342451930046,0.0,0.0,0.912452220916748,-0.5173407793045044
-0.183384507894516,0.7029647827148438,-0.3253403007984161,-0.3449183404445648,-0.5968913435935974,-0.0706641003489494,0.0,0.0,0.9771672487258912,-0.2358679771423339
-0.1865280121564865,0.6960324048995972,-0.3104843497276306,-0.3098624348640442,-0.6015053391456604,-0.0922795087099075,0.0,0.0,0.9923675060272216,-0.1825044751167297
-0.1892014443874359,0.690150260925293,-0.2632728219032287,-0.2633021473884582,-0.6063894033432007,-0.0976817309856414,0.0,0.0,0.9973249435424804,-0.4459179043769836
-0.1917272508144378,0.6844149231910706,-0.2485813647508621,-0.256763219833374,-0.6111982464790344,-0.0961786061525344,0.0,0.0,0.9681105613708496,-0.5229199528694153
-0.1938077956438064,0.679735004901886,-0.2047789394855499,-0.2095280438661575,-0.6151456832885742,-0.0789490267634391,0.0,0.0,0.9936637878417968,-0.7757874727249146
-0.1958448439836502,0.6757063865661621,-0.2013048231601715,-0.1801870316267013,-0.6180539131164551,-0.0581650026142597,0.0,0.0,0.9018728733062744,-0.8286092877388
-0.1977106034755706,0.6725851893424988,-0.1851879954338073,-0.1393801569938659,-0.619740903377533,-0.0337398238480091,0.0,0.0,0.9019043445587158,-0.7278984785079956
-0.1993096321821212,0.6701511740684509,-0.1595924198627472,-0.1083288118243217,-0.6201212406158447,-0.0076062278822064,0.0,0.0,0.7260069847106934,-0.8190880417823792
-0.2006996124982834,0.6687812805175781,-0.139673426747322,-0.0605581663548946,-0.6193017959594727,0.0163890458643436,0.0,0.0,0.6238489151000977,-0.613215982913971
-0.2018702030181884,0.6678735017776489,-0.1186942085623741,-0.0395687259733676,-0.617320716381073,0.0396216623485088,0.0,0.0,-0.3174110651016235,-0.7072480916976929
-0.2032249420881271,0.6668068766593933,-0.1381694674491882,-0.0461320877075195,-0.6140614748001099,0.0651853904128074,0.0,0.0,0.4404609203338623,-0.7723272442817688
-0.2045490741729736,0.6658712029457092,-0.1362966150045395,-0.0397696830332279,-0.6093791127204895,0.0936465784907341,0.0,0.0,0.3038561344146728,-0.7538608908653259
-0.2059280425310135,0.6651286482810974,-0.1428532600402832,-0.0307120382785797,-0.603419303894043,0.1191961169242858,0.0,0.0,0.0759541988372802,-0.3916761875152588
-0.2071522772312164,0.6648237705230713,-0.1271331459283828,-0.0113912420347332,-0.5977826118469238,0.1127336025238037,0.0,0.0,0.4991847276687622,-0.6732921004295349
-0.2080684155225753,0.6652145981788635,-0.0974472090601921,0.0199991706758737,-0.5908269882202148,0.1391128152608871,0.0,0.0,-0.0556139349937438,-0.5854637622833252
-0.2091603279113769,0.6654507517814636,-0.116101250052452,0.0135524468496441,-0.5826414823532104,0.1637089699506759,0.0,0.0,0.385668396949768,-0.7145265936851501
-0.2103820741176605,0.6659693121910095,-0.130045086145401,0.026473443955183,-0.5733679533004761,0.1854707300662994,0.0,0.0,0.0401489734649658,-0.6009510159492493
-0.2114796638488769,0.6669297814369202,-0.1185959950089454,0.04645611718297,-0.5630154609680176,0.2070498764514923,0.0,0.0,-0.0554251670837402,-0.6457024812698364
-0.2127589732408523,0.6677328944206238,-0.1380096226930618,0.0398916564881801,-0.5512856245040894,0.2345968782901764,0.0,0.0,-0.0597859025001525,0.3536645174026489
-0.214169830083847,0.6683318018913269,-0.1510483920574188,0.0306575689464807,-0.5397774577140808,0.2301629036664962,0.0,0.0,0.5452510118484497,0.5653483867645264
-0.2153472900390625,0.6695454716682434,-0.1265275031328201,0.057413600385189,-0.5297027230262756,0.2014952600002288,0.0,0.0,0.138501763343811,-0.066861093044281
-0.2164011895656585,0.6710276007652283,-0.1142956763505935,0.0693192407488823,-0.5195425748825073,0.2032026499509811,0.0,0.0,-0.1060260534286499,-0.1894354224205017
-0.217585414648056,0.6723048090934753,-0.1272271424531936,0.0600898042321205,-0.5095599889755249,0.1996520459651947,0.0,0.0,0.2531557083129883,-0.027350902557373
-0.2186890542507171,0.6737253069877625,-0.119363285601139,0.0664539858698844,-0.4994140863418579,0.202918455004692,0.0,0.0,0.1997849941253662,-0.0330114364624023
-0.2196295708417892,0.6754099726676941,-0.1034055799245834,0.0782438740134239,-0.4889204502105713,0.2098732441663742,0.0,0.0,-0.2151544094085693,0.1666529178619384
-0.2206986844539642,0.6768894195556641,-0.1161997318267822,0.0690160319209098,-0.4785573482513428,0.2072620838880539,0.0,0.0,-0.0219067931175231,-0.2125077247619629
-0.221895694732666,0.6781635880470276,-0.1289391219615936,0.0597890876233577,-0.4683086574077606,0.204973891377449,0.0,0.0,-0.0161134600639343,-0.1681810021400451
-0.2232199162244796,0.6792321801185608,-0.1416188925504684,0.0505629740655422,-0.4581580758094787,0.2030119001865387,0.0,0.0,0.1583939790725708,0.3126757144927978
-0.2243853509426117,0.6806663870811462,-0.1260809004306793,0.0668483078479766,-0.4476852715015411,0.2094566375017166,0.0,0.0,-0.015068233013153,0.0876573324203491
-0.2256763875484466,0.6818950772285461,-0.1386256515979766,0.0576231069862842,-0.437277615070343,0.2081532478332519,0.0,0.0,0.0695977210998535,0.2622925043106079
-0.2269832640886306,0.6833875179290771,-0.1400688290596008,0.06922447681427,-0.4270759224891662,0.2040338516235351,0.0,0.0,0.0822651386260986,0.3517513275146484
-0.2281292378902435,0.6854113936424255,-0.1242311373353004,0.0928357020020484,-0.4166499078273773,0.2085207402706146,0.0,0.0,-0.0946294069290161,0.5135576725006104
-0.2293625324964523,0.6872055530548096,-0.1320424377918243,0.0822809413075447,-0.4072641134262085,0.187716469168663,0.0,0.0,-0.3879969120025635,-0.1724040508270263
-0.2307174205780029,0.6887935996055603,-0.1442373394966125,0.0730596110224723,-0.3978776931762695,0.1877284944057464,0.0,0.0,0.0428073406219482,0.5281839370727539
-0.2319269627332687,0.6907270550727844,-0.1288222372531891,0.088113933801651,-0.3894668817520141,0.1682154983282089,0.0,0.0,-0.2856351137161255,-0.1020458936691284
-0.2332556247711181,0.6924539804458618,-0.1407942622900009,0.0788949057459831,-0.3810235261917114,0.1688670516014099,0.0,0.0,-0.4144761562347412,0.1470837593078613
-0.2347020655870437,0.6939741969108582,-0.1526413112878799,0.0696762949228286,-0.3725320100784302,0.1698304116725921,0.0,0.0,-0.4844745397567749,0.4452860355377197
-0.2362647056579589,0.6952876448631287,-0.1643530875444412,0.0604580417275428,-0.3639770448207855,0.1710993945598602,0.0,0.0,-0.1669718027114868,0.1577048301696777
-0.237942025065422,0.6963943243026733,-0.1759185940027237,0.0512400865554809,-0.3553436994552612,0.1726671159267425,0.0,0.0,-0.2701756954193115,0.6659250259399414
-0.2396958768367767,0.6972723603248596,-0.1827065646648407,0.0408084318041801,-0.3476443588733673,0.1539865732192993,0.0,0.0,0.046521782875061,0.0466127395629882
-0.2413426339626312,0.698550820350647,-0.1724210232496261,0.0586704537272453,-0.3395276665687561,0.1623344272375106,0.0,0.0,-0.5035071969032288,0.7131450176239014
-0.243041843175888,0.699585497379303,-0.1762487739324569,0.0474590249359607,-0.3329058289527893,0.132436528801918,0.0,0.0,-0.3864381909370422,0.2666006088256836
-0.2448481023311615,0.7004127502441406,-0.1871032416820526,0.0382446460425853,-0.3261501789093017,0.1351128667593002,0.0,0.0,-0.38936448097229,0.2354897260665893
-0.246759220957756,0.7010325789451599,-0.1977453678846359,0.0290303844958543,-0.3192481100559234,0.1380413621664047,0.0,0.0,-0.4206990003585815,-0.11710125207901
-0.2487728148698806,0.7014451622962952,-0.2081596851348877,0.0198161900043487,-0.312187522649765,0.1412112414836883,0.0,0.0,-0.2009066939353943,0.0914502143859863
-0.2508863508701324,0.7016504406929016,-0.2183299958705902,0.0106020206585526,-0.3049569427967071,0.1446113735437393,0.0,0.0,-0.5411452054977417,-0.1282351613044738
-0.2530969977378845,0.7016481757164001,-0.2282394468784332,0.0013878241879865,-0.2975454330444336,0.1482302248477935,0.0,0.0,-0.4781835079193115,-0.2069618701934814
-0.255401998758316,0.7014387249946594,-0.2378704845905304,-0.0078264474868774,-0.2899426221847534,0.1520559936761856,0.0,0.0,-0.3805239796638489,0.032406210899353
-0.2577981948852539,0.7010218501091003,-0.2472051382064819,-0.0170408431440591,-0.2821387946605682,0.1560766398906707,0.0,0.0,-0.4807530641555786,-0.0820858478546142
-0.2602823674678802,0.7003976106643677,-0.2562249004840851,-0.0262554120272398,-0.2741248309612274,0.1602799594402313,0.0,0.0,-0.4861574172973633,-0.1655662655830383
-0.2628510892391205,0.6995661854743958,-0.264910876750946,-0.0354702025651931,-0.2658921480178833,0.1646536290645599,0.0,0.0,-0.0438528060913085,0.2818527221679687
-0.2655007243156433,0.6985275149345398,-0.2732441127300262,-0.0446852594614028,-0.2574328780174255,0.1691851913928985,0.0,0.0,-0.2954484820365906,-0.040999412536621
-0.2682275176048279,0.6972816586494446,-0.2812054753303528,-0.0539006404578685,-0.2487397640943527,0.1738623082637787,0.0,0.0,-0.1720171570777893,0.4829010963439941
-0.2710274755954742,0.6958288550376892,-0.2887758612632751,-0.0631163865327835,-0.23980613052845,0.1786725372076034,0.0,0.0,-0.5919196009635925,0.6614422798156738
-0.2738370895385742,0.6941498517990112,-0.2884746789932251,-0.0734140872955322,-0.2321745455265045,0.1526316106319427,0.0,0.0,-0.4884132742881775,0.8629016876220703
-0.2766411304473877,0.6922469735145569,-0.2863915562629699,-0.0836396142840385,-0.2260966897010803,0.1215570569038391,0.0,0.0,-0.3254885673522949,0.8450024127960205
