x_pos,y_pos,x_vel,y_vel,angle,ang_vel,leg_1,leg_2,main_booster,lat_booster
-0.0014552116626873,1.403120994567871,-0.1465040147304535,-0.3466289639472961,0.0008770197746343,0.0172345452010631,0.0,0.0,-0.4836269021034241,0.6105873584747314
-0.0027898787520825,1.3948386907577517,-0.1321506351232528,-0.3681079149246216,-0.0004251986101735,-0.0260464157909154,0.0,0.0,0.0134596824645996,0.0106095075607299
-0.0039741517975926,1.3864238262176514,-0.1166575402021408,-0.373990386724472,-0.0021738375071436,-0.0349756814539432,0.0,0.0,0.0784624814987182,-0.1391168236732483
-0.0051673888228833,1.3779950141906738,-0.116335354745388,-0.3746218681335449,-0.0051326104439795,-0.0591812133789062,0.0,0.0,-0.6175963282585144,-0.549034595489502
-0.0063268663361668,1.3690646886825562,-0.1129827126860618,-0.3969123065471649,-0.0080694099888205,-0.0587411038577556,0.0,0.0,-0.204723834991455,-0.1679742932319641
-0.0074191093444824,1.3596311807632446,-0.1054214835166931,-0.4192898869514465,-0.0118355201557278,-0.0753290057182312,0.0,0.0,-0.3908026218414306,-0.2918686866760254
-0.0084446910768747,1.3496946096420288,-0.0979148522019386,-0.4416691958904266,-0.0164256878197193,-0.0918116867542266,0.0,0.0,0.3330264091491699,-0.454007625579834
-0.0092748645693063,1.3400349617004397,-0.0781368166208267,-0.4293800294399261,-0.0212606508284807,-0.0967077314853668,0.0,0.0,-0.6085246801376343,-0.5219587683677673
-0.0100814821198582,1.3298790454864502,-0.0760130286216735,-0.4514409899711609,-0.0258549358695745,-0.0918943881988525,0.0,0.0,-0.7151452898979187,-0.3750811815261841
-0.0108232498168945,1.3192205429077148,-0.0687167793512344,-0.4738196432590484,-0.0312575846910476,-0.1080626621842384,0.0,0.0,-0.7785235047340393,-0.7511028051376343
-0.0115516660735011,1.308061957359314,-0.0678616687655448,-0.496045857667923,-0.0361855402588844,-0.098568394780159,0.0,0.0,-0.5757567882537842,-0.8190532326698303
-0.012273883447051,1.2964022159576416,-0.0678877532482147,-0.5183312296867371,-0.0404754653573036,-0.0858063101768493,0.0,0.0,-0.3652609586715698,-0.8598988056182861
-0.0129867549985647,1.2842469215393066,-0.0675144344568252,,-0.0442152991890907,-0.074803240597248,0.0,0.0,-0.4168494939804077,-0.9359706044197084
-0.0137040140107274,1.271584391593933,-0.0688124150037765,-0.5628668665885925,-0.0470915548503398,-0.0575301945209503,0.0,0.0,-0.3452965021133423,-0.9224660992622375
-0.0144163127988576,1.258432388305664,-0.0689604803919792,-0.5846056342124939,-0.0493344701826572,-0.0448621958494186,0.0,0.0,-0.3331776261329651,-0.9149020314216614
-0.0151287075132131,1.2447710037231443,-0.069705806672573,-0.6072226166725159,-0.0508541874587535,-0.0303974114358425,0.0,0.0,-0.1890596747398376,-0.9664848446846008
-0.0158413890749216,1.230622410774231,-0.0704727843403816,-0.6288533806800842,-0.0516420267522335,-0.0157581754028797,0.0,0.0,-0.2715888619422912,-0.7863279581069946
-0.0165448188781738,1.2159677743911743,-0.0699961706995964,-0.6513274908065796,-0.0519777350127697,-0.0067151384428143,0.0,0.0,-0.6432898044586182,-0.2817860841751098
-0.0171924587339162,1.200810194015503,-0.0636890307068824,-0.6737090945243835,-0.0530406311154365,-0.0212597232311964,0.0,0.0,0.0824999809265136,-0.7628976702690125
-0.0178869254887104,1.1857143640518188,-0.0691409260034561,-0.6709387898445129,-0.0533449724316597,-0.0060877474024891,0.0,0.0,-0.4011538028717041,-0.5254867672920227
-0.018560791388154,1.1701217889785769,-0.0672013983130455,-0.6930084824562073,-0.053525373339653,-0.003608348313719,0.0,0.0,-0.3141793012619018,-0.7913736701011658
-0.0192441940307617,1.1540266275405884,-0.0690221935510635,-0.7153124213218689,-0.0528483875095844,0.0135408667847514,0.0,0.0,-0.682395875453949,-0.6958717107772827
-0.0199202541261911,1.137431025505066,-0.068708911538124,-0.7375460863113403,-0.0517547614872455,0.0218742229044437,0.0,0.0,-0.3629381656646728,-0.4696884155273437
-0.0205471999943256,1.1203323602676392,-0.0631416663527488,-0.7599281072616577,-0.0513123795390129,0.0088485162705183,0.0,0.0,-0.591742217540741,-0.6367617845535278
-0.0211885459721088,1.1027370691299438,-0.0655284374952316,-0.7819643616676331,-0.0499362275004386,0.027525782585144,0.0,0.0,0.3404120206832886,-0.6675729155540466
-0.0219393726438283,1.0854904651641846,-0.0769747644662857,-0.766457200050354,-0.0480697192251682,0.0373303405940532,0.0,0.0,0.4868230819702148,-0.4860801696777344
-0.0226105693727731,1.0687199831008911,-0.0684293210506439,-0.7453133463859558,-0.0467787496745586,0.0258195288479328,0.0,0.0,0.0170511007308959,0.0040590763092041
-0.0232951156795024,1.052213191986084,-0.0688095986843109,-0.7336207032203674,-0.0464289002120494,0.0069971331395208,0.0,0.0,0.0634002685546875,-0.7322508692741394
-0.0240689273923635,1.0359671115875244,-0.0785838812589645,-0.7220075130462646,-0.0452393107116222,0.023791616782546,0.0,0.0,0.2966164350509643,-0.1301584243774414
-0.0248016361147165,1.019792556762695,-0.073875181376934,-0.718854546546936,-0.044646430760622,0.0118578355759382,0.0,0.0,-0.0527989864349365,-0.489923894405365
-0.0254958160221576,1.0031147003173828,-0.0695101767778396,-0.7412331700325012,-0.0445478856563568,0.0019707691390067,0.0,0.0,-0.1658768653869629,-0.698847234249115
-0.0262152664363384,0.9859337210655212,-0.0731685683131218,-0.7635601758956909,-0.0433470755815506,0.0240164455026388,0.0,0.0,0.4107929468154907,-0.4590629935264587
-0.0269400589168071,0.9692801237106324,-0.0729180127382278,-0.7401525974273682,-0.0429109148681163,0.0087231080979108,0.0,0.0,0.0563025474548339,-0.0636336803436279
-0.0276617053896188,0.9524713158607484,-0.0719997510313987,-0.7470607161521912,-0.0430722869932651,-0.003227426437661,0.0,0.0,0.1895478963851928,-0.505150318145752
-0.0283586494624614,0.9358388781547546,-0.0701894983649253,-0.7392049431800842,-0.0425798408687114,0.0098488610237836,0.0,0.0,0.3132098913192749,-0.6320123076438904
-0.0290329940617084,0.919611155986786,-0.0688855797052383,-0.7211964726448059,-0.041147194802761,0.0286529660224914,0.0,0.0,-0.1150685548782348,0.562755823135376
-0.0296356193721294,0.90287446975708,-0.0603082589805126,-0.7438490390777588,-0.0411000959575176,0.0009420536225661,0.0,0.0,0.3552334308624267,-0.7003642320632935
-0.0302053447812795,0.8865770697593689,-0.0582042522728443,-0.7242985963821411,-0.0398835614323616,0.0243305303156375,0.0,0.0,-0.0936502814292907,-0.5388768315315247
-0.0307940486818552,0.8697850108146667,-0.0610146336257457,-0.7462589740753174,-0.0377712622284889,0.0422458350658416,0.0,0.0,-0.3301241993904114,0.3353855609893799
-0.0313582420349121,0.852489709854126,-0.0583315975964069,-0.7686367630958557,-0.0358715988695621,0.0379932597279548,0.0,0.0,0.2219810485839843,-0.1531274914741516
-0.0319574363529682,0.8355584740638733,-0.0612888224422931,-0.7524659633636475,-0.034514907747507,0.0271337032318115,0.0,0.0,-0.0053715109825134,-0.2277984023094177
-0.0325348861515522,0.818123996257782,-0.0589737221598625,-0.774843156337738,-0.0333007164299488,0.0242837201803922,0.0,0.0,0.3555591106414795,0.2357467412948608
-0.033003807067871,0.8005675673484802,-0.0483878776431083,-0.780243992805481,-0.0318248867988586,0.0295165963470935,0.0,0.0,-0.1761711239814758,0.4342708587646484
-0.0334539413452148,0.7825080752372742,-0.0464314632117748,-0.8026211857795715,-0.0304208174347877,0.028081327676773,0.0,0.0,0.8308230638504028,0.6088502407073975
-0.033876895904541,0.764427125453949,-0.0423267967998981,-0.8036001920700073,-0.0303916968405246,0.000582790991757,0.0,0.0,0.080875277519226,-0.1207881569862365
-0.0342470183968544,0.7461689710617065,-0.0371880903840065,-0.8114675283432007,-0.0302250385284423,0.0033332400489598,0.0,0.0,-0.6817964911460876,-0.0938345193862915
-0.0346024520695209,0.7274075150489807,-0.0357452742755413,-0.8338442444801331,-0.0300253219902515,0.0039943251758813,0.0,0.0,0.6965500116348267,0.1380903720855713
-0.0350339896976947,0.7094312906265259,-0.0428883247077465,-0.7989469170570374,-0.0302922818809747,-0.0053391261026263,0.0,0.0,0.3351808786392212,-0.1060208678245544
-0.0355412475764751,0.691911518573761,-0.0500509031116962,-0.7786737680435181,-0.0309546142816543,-0.0132465567439794,0.0,0.0,-0.035495102405548,-0.7966328859329224
-0.0361026749014854,0.6738888025283813,-0.0572719760239124,-0.8009834289550781,-0.0298437904566526,0.0222165696322917,0.0,0.0,0.574207067489624,-0.1720765829086303
-0.036501407623291,0.6561723351478577,-0.0418055243790149,-0.7873610258102417,-0.0279355626553297,0.0381646417081356,0.0,0.0,-0.0659062266349792,0.6362521648406982
-0.0368457809090614,0.6379546523094177,-0.0354091338813304,-0.8096554279327393,-0.0269753728061914,0.0192037429660558,0.0,0.0,0.4028589725494385,0.3152155876159668
-0.0370795242488384,0.6197958588600159,-0.0250049568712711,-0.8070336580276489,-0.0253597423434257,0.0323125720024108,0.0,0.0,0.6607012748718262,0.4028546810150146
-0.0372828468680381,0.6023356318473816,-0.0222531333565711,-0.7759775519371033,-0.0234742797911167,0.0377094149589538,0.0,0.0,0.4558839797973633,0.6275613307952881
-0.0372773185372352,0.5850070118904114,-0.0006779663381166,-0.7701408863067627,-0.0222557969391345,0.024369902908802,0.0,0.0,0.2640491724014282,0.402808666229248
-0.0373320579528808,0.5677180290222168,-0.0066721127368509,-0.7683855295181274,-0.0210660137236118,0.0237953010946512,0.0,0.0,0.4738943576812744,0.6596111059188843
-0.0372234359383583,0.5509932041168213,0.0104584703221917,-0.7433207631111145,-0.020669437944889,0.007931588217616,0.0,0.0,0.0213634967803955,-0.1182208061218261
-0.0370176322758197,0.5343874096870422,0.019407469779253,-0.7380185723304749,-0.0195188280194997,0.0230122730135917,0.0,0.0,0.1178312301635742,-0.2401161193847656
-0.0367480292916297,0.5181120038032532,0.0251744985580444,-0.7233268022537231,-0.0177517347037792,0.0353416390717029,0.0,0.0,-0.5940050482749939,-0.3783178329467773
-0.0364765152335166,0.5013331174850464,0.0249468088150024,-0.7457032799720764,-0.0155800702050328,0.0434334203600883,0.0,0.0,0.1754034757614135,-0.2165148854255676
-0.0361632332205772,0.4844450950622558,0.0285213831812143,-0.7505542039871216,-0.0128144090995192,0.0553134270012378,0.0,0.0,-0.1159284710884094,0.1759369373321533
-0.0358492843806743,0.4670535624027252,0.0281414780765771,-0.7729310989379883,-0.0096035012975335,0.0642184168100357,0.0,0.0,0.9121651649475098,0.2711032629013061
-0.0353864654898643,0.4500545263290405,0.041898988187313,-0.7554925084114075,-0.005267322063446,0.0867232158780098,0.0,0.0,0.8418772220611572,-0.1252999901771545
-0.0348937027156353,0.4335770308971405,0.0442656278610229,-0.7323238849639893,-0.0003281377430539,0.0987838804721832,0.0,0.0,0.9356348514556884,0.2099499702453613
-0.0343920700252056,0.4173008799552917,0.0446090213954448,-0.7233937382698059,0.0051514483056962,0.1095919609069824,0.0,0.0,0.7468425035476685,0.4958142042160034
-0.0340251922607421,0.4014580249786377,0.0312278904020786,-0.7041565179824829,0.0105390939861536,0.1077526360750198,0.0,0.0,0.8878271579742432,0.1536471843719482
-0.033644963055849,0.3865793645381927,0.0319224521517753,-0.6613304018974304,0.0165682937949895,0.1205839142203331,0.0,0.0,0.8881642818450928,0.7330396175384521
-0.033111285418272,0.3716941773891449,0.0479521676898002,-0.6616313457489014,0.0219170190393924,0.1069743856787681,0.0,0.0,0.5907089710235596,0.758724570274353
-0.0325078964233398,0.3575503528118133,0.0558409765362739,-0.6286870241165161,0.0263629462569952,0.0889186412096023,0.0,0.0,0.7903363704681396,0.5548233985900879
-0.0319836623966693,0.3436676561832428,0.0487704798579216,-0.6170783638954163,0.0299722626805305,0.0721862837672233,0.0,0.0,0.8712074756622314,0.3192843198776245
-0.0315869338810443,0.3304270505905151,0.0359170474112033,-0.58855140209198,0.0336773917078971,0.0741025358438491,0.0,0.0,0.590975284576416,0.8375258445739746
-0.0311116222292184,0.3175884485244751,0.0448208637535572,-0.5706698298454285,0.0363552868366241,0.0535576939582824,0.0,0.0,0.6058735847473145,0.7169265747070312
-0.0307469367980957,0.305480808019638,0.0348742082715034,-0.5381566882133484,0.0379282049834728,0.0314585901796817,0.0,0.0,0.423547625541687,0.7537144422531128
-0.0302705764770507,0.2936232984066009,0.0468306057155132,-0.5270230174064636,0.0387166254222393,0.0157684907317161,0.0,0.0,0.2563269138336181,0.5778050422668457
-0.0297873504459857,0.2817047834396362,0.0481232069432735,-0.5297139286994934,0.0389148406684398,0.0039642318151891,0.0,0.0,0.1344070434570312,0.6907516717910767
-0.0292037967592477,0.2696166634559631,0.058860283344984,-0.5372350215911865,0.0384208410978317,-0.0098798843100667,0.0,0.0,0.8758283853530884,0.5696942806243896
-0.0286258701235055,0.257597804069519,0.0589048862457275,-0.5341430306434631,0.0373145602643489,-0.0221254900097847,0.0,0.0,0.8480255603790283,0.1414781808853149
-0.0280877109616994,0.2464051842689514,0.0543448328971862,-0.4974357783794403,0.0367977321147918,-0.0103367120027542,0.0,0.0,0.7610198259353638,-0.0858769416809082
-0.0274925231933593,0.2360175251960754,0.0589906573295593,-0.4616851508617401,0.0373136922717094,0.0103193465620279,0.0,0.0,-0.3143821954727173,-0.0643609762191772
-0.026892852038145,0.2251268178224563,0.0587924942374229,-0.4840639233589172,0.0384725295007228,0.0231768582016229,0.0,0.0,0.3400788307189941,-0.1007827520370483
-0.0264028552919626,0.21412955224514,0.0476612038910388,-0.4888016581535339,0.0397930964827537,0.0264112688601017,0.0,0.0,0.442286729812622,0.7552735805511475
-0.0258350372314453,0.203676089644432,0.0562511160969734,-0.4646103680133819,0.0403233990073204,0.0106061520054936,0.0,0.0,0.5238690376281738,-0.4444160461425781
-0.0253741256892681,0.1935095191001892,0.045325331389904,-0.4518689513206482,0.0410756766796112,0.0150455636903643,0.0,0.0,0.8469266891479492,0.2708312273025512
-0.0249965675175189,0.1839717179536819,0.0366145968437194,-0.4239348471164703,0.042201604694128,0.0225184578448534,0.0,0.0,0.6428096294403076,-0.4502304792404175
-0.0246500018984079,0.1749720871448516,0.0329148694872856,-0.4000323414802551,0.0439320132136344,0.0346082001924514,0.0,0.0,0.6292521953582764,0.0020958185195922
-0.0242308620363473,0.1663349419832229,0.039087388664484,-0.3839590847492218,0.0467215850949287,0.0557915270328521,0.0,0.0,0.3359466791152954,0.475637674331665
-0.0237923618406057,0.1576109677553177,0.0402686260640621,-0.3878494501113891,0.050262700766325,0.0708221122622489,0.0,0.0,0.421042799949646,0.6748850345611572
-0.0232151038944721,0.1489086002111435,0.0546682886779308,-0.3868765532970428,0.0532879419624805,0.0605046860873699,0.0,0.0,0.9282991886138916,-0.646151065826416
-0.0225239749997854,0.1407123357057571,0.0635881274938583,-0.3644853830337524,0.0587439127266407,0.1091193705797195,0.0,0.0,0.1713451147079467,-0.8026630878448486
-0.0217811577022075,0.13243068754673,0.0663947314023971,-0.3684030175209045,0.06655103713274,0.1561425924301147,0.0,0.0,0.3018075227737427,-0.2025052905082702
-0.0210622791200876,0.1245325431227684,0.0633458644151687,-0.351430594921112,0.0750023797154426,0.1690270006656646,0.0,0.0,-0.102114737033844,-0.0862272977828979
-0.0203218460083007,0.1161325797438621,0.0648402869701385,-0.373817503452301,0.0841181203722953,0.1823145300149917,0.0,0.0,0.5330115556716919,-0.065326988697052
-0.0194948203861713,0.1081708520650863,0.0723023638129234,-0.3544699251651764,0.0944320484995842,0.2062784135341644,0.0,0.0,0.0718386173248291,0.4344664812088012
-0.0185970310121774,0.1000335291028022,0.0783968269824981,-0.3624130189418793,0.1057110652327537,0.2255804985761642,0.0,0.0,0.1008033752441406,0.4890036582946777
-0.01774263381958,0.0918960645794868,0.0735845267772674,-0.3625471889972687,0.117489106953144,0.2355608195066452,0.0,0.0,0.882116436958313,0.6335885524749756
-0.016822051256895,0.0847566723823547,0.080555185675621,-0.3182544410228729,0.128926932811737,0.2287563979625702,0.0,0.0,0.0702924728393554,0.616225004196167
-0.0158859249204397,0.0776708424091339,0.0827315375208854,-0.3159018158912658,0.1397688835859298,0.2168389111757278,0.0,0.0,0.6245095729827881,0.2560311555862427
-0.0151461604982614,0.0712206661701202,0.0630140751600265,-0.2877403795719147,0.1506994515657425,0.2186115235090255,0.0,0.0,0.5197850465774536,0.7677607536315918
-0.0143195148557424,0.0652592256665229,0.0724624097347259,-0.2660163342952728,0.1608923226594925,0.2038571387529373,0.0,0.0,0.0261480808258056,0.4753389358520508
-0.0135622974485158,0.0594791732728481,0.065045990049839,-0.2580835521221161,0.1715801209211349,0.2137563228607177,0.0,0.0,0.4158446788787842,0.5171792507171631
-0.0129097942262887,0.0541414357721805,0.0551635809242725,-0.2384291142225265,0.1816890686750412,0.2021787464618683,0.0,0.0,0.5213792324066162,0.6917102336883545
-0.0122683523222804,0.0489852987229824,0.0548770129680633,-0.2303266525268554,0.191005140542984,0.186321347951889,0.0,0.0,0.4756886959075928,0.8777732849121094
-0.0117314336821436,0.0441064685583114,0.0456948354840278,-0.2178892195224762,0.199055477976799,0.161006674170494,0.0,0.0,0.2473125457763672,0.9392597675323486
-0.0112818721681833,0.0392887219786644,0.0382625833153724,-0.2150381058454513,0.2057995945215225,0.1348823010921478,0.0,0.0,0.8104338645935059,0.6842724084854126
-0.0107683185487985,0.0351850129663944,0.0451235994696617,-0.183266744017601,0.2120887488126754,0.1257829964160919,0.0,0.0,0.1195929050445556,0.8682541847229004
-0.010139656253159,0.0309763047844171,0.0577219799160957,-0.1878018081188202,0.2172748893499374,0.1037231236696243,0.0,0.0,0.5998419523239136,0.6369202136993408
-0.0094186784699559,0.0274186953902244,0.0672994777560234,-0.1588308960199356,0.2221346646547317,0.0971954017877578,0.0,0.0,-0.2523678541183471,-0.2552621960639953
-0.0086408611387014,0.0233597606420516,0.0723727792501449,-0.1812209337949752,0.2276074141263961,0.1094549894332885,0.0,1.0,0.944893479347229,0.9832698106765748
-0.007908153347671,0.0212543345987796,0.0872000604867935,-0.0918297320604324,0.2126922607421875,-0.299457848072052,0.0,1.0,0.7037323713302612,-0.5849132537841797
-0.00735645275563,0.0201259478926658,0.0827079191803932,-0.0464439168572425,0.1848896592855453,-0.5561391711235046,0.0,1.0,0.1496120691299438,-0.2556616067886352
-0.0068937302567064,0.0193148478865623,0.072896309196949,-0.0329521596431732,0.1582083851099014,-0.5336257219314575,0.0,1.0,-0.00162273645401,-0.3704601526260376
-0.006431960966438,0.0180095769464969,0.0729115232825279,-0.0553875714540481,0.1315284222364425,-0.5335994958877563,0.0,0.0,-0.956307291984558,-0.2033445835113525
-0.0059117316268384,0.0162109956145286,0.0782363638281822,-0.0778298377990722,0.1054563149809837,-0.5214422941207886,0.0,0.0,-0.788723886013031,-0.6135188937187195
-0.0053888321854174,0.0139098735526204,0.0765017047524452,-0.1007361263036727,0.0814572051167488,-0.4799821376800537,0.0,0.0,-0.3116077780723572,-0.7522853016853333
-0.0048741339705884,0.0111021371558308,0.0732762515544891,-0.123743861913681,0.0598710253834724,-0.4317236542701721,0.0,0.0,0.2762515544891357,-0.3648914098739624
-0.0043361661955714,0.0084480019286274,0.0751182287931442,-0.1172462776303291,0.0387954078614711,-0.4215122759342193,0.0,0.0,0.4987192153930664,-0.7733595371246338
-0.0037836073897778,0.0060177780687808,0.074409507215023,-0.1076206043362617,0.019881272688508,-0.3782828450202942,0.0,0.0,0.2124886512756347,-0.5994272828102112
-0.0031068802345544,0.0034805512987077,0.0848573520779609,-0.112621784210205,0.0029168406035751,-0.3392887711524963,0.0,0.0,0.4180467128753662,-0.7254683971405029
-0.0023234367836266,0.0013270592316985,0.0933419540524482,-0.0957492440938949,-0.0118869924917817,-0.2960764169692993,0.0,0.0,0.2922661304473877,-0.678696870803833
-0.0014891624450683,-0.0003741049731615,0.0964511409401893,-0.0757583379745483,-0.0247502084821462,-0.2572640776634216,1.0,0.0,0.0019742250442504,-0.4751129150390625
-0.0005792618030682,-0.0019416952272877,0.0953700393438339,-0.0699988380074501,-0.0281977448612451,-0.0678407922387123,1.0,0.0,0.2607564926147461,-0.7940171360969543
