x_pos,y_pos,x_vel,y_vel,angle,ang_vel,leg_1,leg_2,main_booster,lat_booster
-0.0015209198463708,1.403400182723999,-0.154690220952034,-0.3342234194278717,0.0023226025514304,0.0458574071526527,0.0,0.0,0.8092742059673257,0.9658065321402616
-0.0029014586471021,1.396432399749756,-0.1390764564275741,-0.3096766471862793,0.0033337220083922,0.0202251933515071,0.0,0.0,0.5679407484495291,-0.8091750423559156
-0.0042038918472826,1.3898093700408936,-0.133682906627655,-0.294367253780365,0.0067409784533083,0.0681513547897338,0.0,0.0,0.317804087664453,-0.7008297256421865
-0.0056680678389966,1.3835561275482178,-0.1516260653734207,-0.2779577374458313,0.0118865566328167,0.1029209941625595,0.0,0.0,0.0480748141323992,0.8061337309516455
-0.0069769858382642,1.377704381942749,-0.1350653767585754,-0.2601083517074585,0.0160183738917112,0.0826438516378402,0.0,0.0,-0.0063604298727983,0.8749082882224462
-0.0082001686096191,1.3716294765472412,-0.1248733177781105,-0.2700287103652954,0.018550582230091,0.0506487190723419,0.0,0.0,-0.4516694279047792,-0.7583191858562947
-0.0094841960817575,1.3653287887573242,-0.1330656111240387,-0.2800963819026947,0.0231598485261201,0.0921939238905906,0.0,0.0,0.8120722053671956,-0.6557267003593263
-0.01065912283957,1.3598748445510864,-0.1244442090392112,-0.2425274550914764,0.0300379078835248,0.1375738978385925,0.0,0.0,0.9560927781068738,-0.8990752584243511
-0.0119502069428563,1.355688452720642,-0.1383432298898697,-0.1862661242485046,0.0391674675047397,0.1826082020998001,0.0,0.0,0.7032755811272378,-0.8952210287164927
-0.0133424755185842,1.352403163909912,-0.1507390886545181,-0.1463532447814941,0.0505654029548168,0.2279794663190841,0.0,0.0,-0.8083532221012104,0.7766222245380184
-0.0146655086427927,1.3489010334014893,-0.1425310671329498,-0.1560208797454834,0.060691125690937,0.2025330960750579,0.0,0.0,0.1545749859110561,-0.6521740401328312
-0.0160078052431345,1.345728635787964,-0.1463230550289154,-0.1415338814258575,0.0726741179823875,0.2396818399429321,0.0,0.0,0.1359769886639468,0.8749952655002986
-0.0172136314213275,1.3430765867233276,-0.1314340829849243,-0.1184261292219162,0.0834358781576156,0.2152549028396606,0.0,0.0,-0.4411601069181212,0.931661944846728
-0.0183389671146869,1.3402035236358645,-0.1217726022005081,-0.1282293498516082,0.0925984382629394,0.1832678914070129,0.0,0.0,0.8939296668115588,-0.8801072210245773
-0.0194462779909372,1.3385437726974487,-0.1225175112485885,-0.0745360031723976,0.1043101325631141,0.234255239367485,0.0,0.0,-0.5765906791614714,-0.907490747399024
-0.020613670349121,1.336642503738403,-0.1304305493831634,-0.085517831146717,0.1179390400648117,0.2726028859615326,0.0,0.0,0.0386603783148546,0.9656628797930644
-0.0216691009700298,1.335363745689392,-0.1176868826150894,-0.057836040854454,0.1300317198038101,0.2418755292892456,0.0,0.0,-0.6870151312941111,-0.9620436022169224
-0.0227845199406147,1.3338439464569092,-0.1255556792020797,-0.0688233003020286,0.1440060138702392,0.2795110940933227,0.0,0.0,0.5615753378779804,-0.7883320603418408
-0.0239743236452341,1.333245873451233,-0.13509401679039,-0.0282200649380683,0.1601228415966034,0.3223661780357361,0.0,0.0,-0.0166787168986912,0.6100642360832015
-0.0251272208988666,1.3324368000030518,-0.1306950747966766,-0.0376879647374153,0.1755652725696563,0.3088762760162353,0.0,0.0,0.3025762465544599,0.6536057777135821
-0.0262283328920602,1.3323299884796145,-0.1247295513749122,-0.006533017847687,0.1902558356523513,0.2938377559185028,0.0,0.0,0.4715902847728406,0.9852169255239376
-0.0273202899843454,1.3326025009155271,-0.1221652999520301,0.0103980246931314,0.2033349275588989,0.2616053223609924,0.0,0.0,-0.6004619034792615,0.7331910759867274
-0.0283485408872365,1.3326739072799685,-0.1143218129873275,0.0015459439018741,0.2149588912725448,0.2324995696544647,0.0,0.0,0.9515800371298052,-0.6236615892536134
-0.0294219013303518,1.3330695629119873,-0.1205994337797164,0.0156100811436772,0.228396400809288,0.2687740623950958,0.0,0.0,-0.8455162403777101,-0.8034526435465015
-0.0305781364440917,1.3332202434539795,-0.1311061680316925,0.0042145894840359,0.2441284954547882,0.3146699666976928,0.0,0.0,-0.3241316585603186,-0.9193578387285696
-0.0318259224295616,1.3331022262573242,-0.1427373588085174,-0.0083322701975703,0.2624399960041046,0.3662301898002624,0.0,0.0,0.0439943373735112,0.8136862154944668
-0.0331359878182411,1.333460807800293,-0.1475187540054321,0.0128841446712613,0.2793586850166321,0.3383736312389374,0.0,0.0,0.0862668773069552,0.7810096991323201
-0.0346405990421772,1.3343737125396729,-0.1655413806438446,0.0376150608062744,0.2948684394359588,0.3101951479911804,0.0,0.0,-0.2435440587429165,-0.7916795294180051
-0.0362269394099712,1.3350398540496826,-0.1757226586341858,0.026043253019452,0.3125450015068054,0.3535310328006744,0.0,0.0,0.5770964420603437,0.6309960161000756
-0.0379374511539936,1.3361611366271973,-0.1869557201862335,0.0463160090148448,0.3290826678276062,0.3307530283927917,0.0,0.0,-0.0291367452575448,0.9959842305047942
-0.0395824424922466,1.337111473083496,-0.1784659922122955,0.0389897041022777,0.3436791598796844,0.2919300198554992,0.0,0.0,0.6194167041374103,0.900788689911297
-0.0413934700191021,1.3384349346160889,-0.1932680755853653,0.0558583810925483,0.356468915939331,0.2557949423789978,0.0,0.0,-0.1605640840649798,-0.9414098342391783
-0.0432944297790527,1.339501142501831,-0.2043991535902023,0.0437642373144626,0.3715685904026031,0.3019936978816986,0.0,0.0,-0.7818080993027172,0.9521813813128452
-0.0451404564082622,1.34037446975708,-0.1972741931676864,0.035461600869894,0.3850260376930237,0.2691490948200226,0.0,0.0,0.0250987044314223,-0.8095850697746421
-0.0471908561885356,1.3415398597717283,-0.2192768305540084,0.0478696040809154,0.400228202342987,0.304043173789978,0.0,0.0,-0.577492405905514,-0.8383003100705269
-0.0493121147155761,1.3424526453018188,-0.2278707325458526,0.0360371358692646,0.417154997587204,0.3385361433029175,0.0,0.0,0.8833971367717943,0.8947642332582191
-0.0516191497445106,1.34387469291687,-0.2446023970842361,0.0590196959674358,0.4322010278701782,0.3009208738803863,0.0,0.0,-0.7191023530676979,-0.7989808285022659
-0.0539923682808876,1.3450441360473633,-0.2525396943092346,0.0472016893327236,0.4487995207309723,0.3319700062274933,0.0,0.0,-0.7339527189789632,0.9861699573192396
-0.0563153252005577,1.3460488319396973,-0.2456150352954864,0.0403003208339214,0.4634380936622619,0.2927711904048919,0.0,0.0,0.930594899919744,-0.93994033033586
-0.0590010657906532,1.347760796546936,-0.2835823893547058,0.0710064172744751,0.4800598621368408,0.3324353098869324,0.0,0.0,-0.8392234239208272,-0.8038969979798777
-0.0617671012878418,1.3492064476013184,-0.2931705117225647,0.058386955410242,0.4985935688018799,0.3706733584403991,0.0,0.0,-0.9868411421775818,0.9997541904449464
-0.0644621849060058,1.3504964113235474,-0.2836144864559173,0.0521246157586574,0.5145014524459839,0.3181580603122711,0.0,0.0,-0.9907641410827636,0.9917101860046388
-0.0670880302786827,1.3516206741333008,-0.2743348181247711,0.0454722568392753,0.527878999710083,0.2675514817237854,0.0,0.0,-0.9949907064437866,0.970770001411438
-0.0696495026350021,1.352586269378662,-0.2656128704547882,0.0391941145062446,0.5387285351753235,0.2169910967350006,0.0,0.0,-0.979818880558014,0.9947493076324464
-0.0721571892499923,1.3533732891082764,-0.2583628296852112,0.0319259725511074,0.5474719405174255,0.1748677045106887,0.0,0.0,-0.9874857068061828,0.936934232711792
-0.0746070891618728,1.3539886474609375,-0.2505480945110321,0.0250745620578527,0.553909957408905,0.1287601888179779,0.0,0.0,-0.993226170539856,0.9259345531463624
-0.0770003348588943,1.354436993598938,-0.2428319901227951,0.0184742547571659,0.5579891204833984,0.0815833359956741,0.0,0.0,-0.994990348815918,0.8934829235076904
-0.0793619155883789,0.0,-0.2381308823823928,0.0114256171509623,0.5602911710739136,0.0460409596562385,0.0,0.0,-0.9843789935112,0.8632233142852783
-0.0816948860883712,1.3548104763031006,-0.233828067779541,0.0041237864643335,0.5609156489372253,0.0124897733330726,0.0,0.0,-0.964649260044098,0.8744962215423584
-0.083984375,1.3547325134277344,-0.2277364283800125,-0.0029548592865467,0.5594972968101501,-0.0283672958612442,0.0,0.0,-0.9733510613441468,0.8103430271148682
-0.0862210243940353,1.3544905185699463,-0.220377966761589,-0.0093909716233611,0.5556758642196655,-0.0764287188649177,0.0,0.0,-0.9934791326522828,0.8429291248321533
-0.0884228721261024,1.354074239730835,-0.2152434885501861,-0.0164712853729724,0.5499430894851685,-0.1146560907363891,0.0,0.0,-0.8417114615440369,0.7337442636489868
-0.0905796065926551,1.3534815311431885,-0.208862617611885,-0.0235824845731258,0.5420792698860168,-0.1572764813899994,0.0,0.0,-0.9987760186195374,0.7289685010910034
-0.0927039161324501,1.3527132272720337,-0.203962042927742,-0.0307811964303255,0.5323420166969299,-0.1947447210550308,0.0,0.0,-0.950745403766632,0.5483489036560059
-0.0947960838675499,1.351758360862732,-0.1991442143917083,-0.0385229215025901,0.5208395719528198,-0.2300491780042648,0.0,0.0,-0.9883679747581482,0.4265005588531494
-0.0969030410051345,1.350578784942627,-0.2002576291561126,-0.0484901815652847,0.5090094804763794,-0.2366023063659668,0.0,0.0,-0.978376030921936,0.4172689914703369
-0.0990246757864952,1.3491740226745603,-0.2013719975948333,-0.0584578774869442,0.4968402683734894,-0.2433846890926361,0.0,0.0,-0.999355971813202,0.5930072069168091
-0.1011122688651084,0.0,-0.196190521121025,-0.066028319299221,0.4827808141708374,-0.281188815832138,0.0,0.0,-0.9994080662727356,0.4604074954986572
-0.1032151207327842,1.34577739238739,-0.1973029375076294,-0.076000265777111,0.4683614075183868,-0.2883881330490112,0.0,0.0,-0.9924687147140504,0.2318147420883178
-0.1053333282470703,1.3437429666519165,-0.1984150111675262,-0.0859731212258338,0.453572541475296,-0.2957771718502044,0.0,0.0,-0.9665657877922058,0.2566821575164795
-0.1074670776724815,1.341484546661377,-0.199526309967041,-0.0959469825029373,0.4384053349494934,-0.3033438622951507,0.0,0.0,-0.9981999397277832,0.7055690288543701
-0.1095760315656662,1.3390352725982666,-0.1954457610845565,-0.1041196584701538,0.4216211438179016,-0.3356837630271911,0.0,0.0,-0.9990732073783876,0.3257056474685669
-0.1117008179426193,1.3363630771636963,-0.1965522170066833,-0.1140989139676094,0.4044426381587982,-0.3435702919960022,0.0,0.0,-0.9989542961120604,-0.129285991191864
-0.1138418167829513,1.333467960357666,-0.1976567208766937,-0.1240796595811843,0.386862576007843,-0.3516011834144592,0.0,0.0,-0.994171142578125,-0.3810534477233886
-0.1159987449645996,1.3303505182266235,-0.1987589001655578,-0.1340619772672653,0.3688742518424988,-0.3597665131092071,0.0,0.0,-0.9991464614868164,0.1059440374374389
-0.1181718856096267,1.3270108699798584,-0.1998583376407623,-0.1440459936857223,0.3504714071750641,-0.3680566251277923,0.0,0.0,-0.9980291724205016,0.1673791408538818
-0.1203610450029373,1.3234491348266602,-0.2009545862674713,-0.1540317982435226,0.3316482901573181,-0.3764625191688537,0.0,0.0,-0.9960307478904724,-0.6378283500671387
-0.1226057037711143,1.3196372985839844,-0.2070585489273071,-0.1655281335115432,0.3135342299938202,-0.3622819781303406,0.0,0.0,-0.9882341027259828,0.1533879041671753
-0.1248663887381553,1.315603494644165,-0.2081489115953445,-0.1755144149065017,0.2949894368648529,-0.3708957135677337,0.0,0.0,-0.9993492960929872,-0.10480797290802
-0.1271431893110275,1.3113481998443604,-0.2092347592115402,-0.1855026334524154,0.2760094106197357,-0.3796008229255676,0.0,0.0,-0.9948372840881348,-0.2694289088249206
-0.1294360160827636,1.306871771812439,-0.2103156298398971,-0.1954929083585739,0.2565899193286896,-0.3883897662162781,0.0,0.0,-0.9651279449462892,-0.079049527645111
-0.1317449510097503,1.3021743297576904,-0.2113910168409347,-0.205485314130783,0.2367271333932876,-0.3972556889057159,0.0,0.0,-0.979561984539032,-0.2676945328712463
-0.1340699195861816,1.297256350517273,-0.2124604433774948,-0.2154799401760101,0.2164175510406494,-0.4061917662620544,0.0,0.0,-0.8600791096687317,0.3746576309204101
-0.1364111006259918,1.2921181917190552,-0.2135234177112579,-0.2254768908023834,0.1956579834222793,-0.415191650390625,0.0,0.0,-0.9730287790298462,0.6480157375335693
-0.1387199461460113,1.2867696285247805,-0.2085540741682052,-0.2349093705415725,0.1732203662395477,-0.4487526416778564,0.0,0.0,-0.683417022228241,-0.7067636251449585
-0.1410926878452301,1.281182050704956,-0.2156493365764618,-0.2459584772586822,0.1515884846448898,-0.4326372146606445,0.0,0.0,-0.9289737939834596,-0.0104491114616394
-0.1434811651706695,1.275375485420227,-0.2166896611452102,-0.2559627294540405,0.1294988691806793,-0.4417929649353027,0.0,0.0,-0.9467397332191468,-0.5783473253250122
-0.1459316313266754,1.2693462371826172,-0.223540186882019,-0.2662405669689178,0.1081181317567825,-0.4276150166988373,0.0,0.0,-0.9376327991485596,-0.8447791337966919
-0.1484557092189788,1.2630966901779177,-0.2318545281887054,-0.2763963639736175,0.0877334028482437,-0.4076948165893554,0.0,0.0,-0.926338791847229,-0.5842060446739197
-0.1510498076677322,1.2566262483596802,-0.2397574931383133,-0.2865410447120666,0.0682643428444862,-0.3893812298774719,0.0,0.0,-0.9233886003494264,-0.0768114328384399
-0.1536590605974197,1.2499361038208008,-0.2407599687576294,-0.2965413928031921,0.0483304224908351,-0.3986784815788269,0.0,0.0,-0.9583430886268616,-0.8543981313705444
-0.156346321105957,1.2430293560028076,-0.2496807277202606,-0.3064605593681335,0.0295153353363275,-0.3763018548488617,0.0,0.0,-0.8255203366279602,0.7015917301177979
-0.1590020209550857,1.2359052896499634,-0.2448657304048538,-0.3163489997386932,0.0090725719928741,-0.4088553488254547,0.0,0.0,-0.9642513394355774,0.8117804527282715
-0.1616137474775314,1.228567123413086,-0.2385035455226898,-0.3261590003967285,-0.0133052505552768,-0.447556585073471,0.0,0.0,-0.9711694717407228,-0.4500083327293396
-0.164239689707756,1.221011519432068,-0.2394513189792633,-0.336172878742218,-0.0361508689820766,-0.4569125771522522,0.0,0.0,-0.9851174354553224,-0.734757125377655
-0.1669292449951172,1.2132412195205688,-0.2466181516647339,-0.3460332453250885,-0.0582145489752292,-0.4412738382816314,0.0,0.0,-0.9613341689109802,-0.9899116158485411
-0.1697077751159668,1.2052497863769531,-0.2569970786571502,-0.356114387512207,-0.0788557454943656,-0.4128241539001465,0.0,0.0,-0.9636673927307128,-0.2096107006072998
-0.1724996566772461,1.197040319442749,-0.2578925192356109,-0.3661245107650757,-0.0999651178717613,-0.4221874177455902,0.0,0.0,-0.955116093158722,0.3356387615203857
-0.1753046065568924,1.188612937927246,-0.2587680220603943,-0.3761370480060577,-0.1215422675013542,-0.4315432012081146,0.0,0.0,-0.9151986241340636,-0.8266042470932007
-0.1781726777553558,1.1799709796905518,-0.2659351229667663,-0.3859219253063202,-0.1423212736845016,-0.4155799448490143,0.0,0.0,-0.9863956570625304,-0.5339760184288025
-0.1810948401689529,1.171123743057251,-0.2720279991626739,-0.3952575623989105,-0.1624873280525207,-0.4033211171627044,0.0,0.0,-0.962760090827942,-0.8428383469581604
-0.1840908080339431,1.1620800495147705,-0.2806008458137512,-0.4041321873664856,-0.181514486670494,-0.3805430829524994,0.0,0.0,-0.8798927664756775,-0.9036250114440918
-0.1871538162231445,1.1528362035751345,-0.2883400917053222,-0.4131355583667755,-0.1995665431022644,-0.3610414862632751,0.0,0.0,-0.8463618755340576,-0.4148512482643127
-0.1902281790971756,1.143373727798462,-0.2890892028808594,-0.4231414496898651,-0.2180820256471634,-0.3703093528747558,0.0,0.0,-0.5048163533210754,-0.6850109696388245
-0.1933713853359222,1.1337095499038696,-0.2970592379570007,-0.4321674406528473,-0.2355614453554153,-0.349588543176651,0.0,0.0,-0.8947230577468872,-0.6114993691444397
-0.1965642869472503,1.1238478422164917,-0.3027088940143585,-0.4410445392131805,-0.2524349391460418,-0.3374696373939514,0.0,0.0,0.1831339597702026,-0.5877244472503662
-0.1997286826372146,1.1143828630447388,-0.300596535205841,-0.4234727323055267,-0.2686101794242859,-0.3235049545764923,0.0,0.0,-0.5903152227401733,-0.2627416253089905
-0.2029029428958892,1.104698657989502,-0.3012118637561798,-0.4334754943847656,-0.2852416038513183,-0.3326290547847748,0.0,0.0,-0.7026281952857971,0.4974908828735351
-0.2060865461826324,1.0947954654693604,-0.3017898499965668,-0.4434798955917358,-0.302326887845993,-0.3417058885097503,0.0,0.0,-0.1675050258636474,-0.0746310353279113
-0.2092790156602859,1.0846734046936035,-0.3023287355899811,-0.4534859657287597,-0.3198634386062622,-0.3507311344146728,0.0,0.0,0.0174145698547363,0.0107046365737915
-0.2123831212520599,1.075013518333435,-0.2929354608058929,-0.4332939684391022,-0.3380841016769409,-0.3644140660762787,0.0,0.0,-0.7752533555030823,-0.6609944105148315
-0.2155465185642242,1.0651601552963257,-0.2998917698860168,-0.4418842196464538,-0.3553442060947418,-0.3452017605304718,0.0,0.0,-0.6254077553749084,-0.2415666580200195
-0.2187172472476959,1.0550881624221802,-0.3003006279468536,-0.4518920183181762,-0.3730465471744537,-0.3540477156639099,0.0,0.0,-0.6799826622009277,0.1482945680618286
-0.2218945026397705,1.0447978973388672,-0.3006629645824432,-0.4619013667106628,-0.3911877572536468,-0.3628243803977966,0.0,0.0,-0.5888899564743042,-0.7269183993339539
-0.2251200228929519,1.0343199968338013,-0.3063730001449585,-0.4702220559120178,-0.4085215628147125,-0.3466764092445373,0.0,0.0,0.5316203832626343,-0.6528180241584778
-0.2282067239284515,1.0240830183029177,-0.2935700416564941,-0.4594289362430572,-0.4248166680335998,-0.3259020745754242,0.0,0.0,0.5347833633422852,0.0367316007614135
-0.2308834493160247,1.014512300491333,-0.2528640627861023,-0.429916113615036,-0.4409159421920776,-0.3219863772392273,0.0,0.0,0.6662049293518066,-0.7618248462677002
-0.2333054989576339,1.0058443546295166,-0.2285356074571609,-0.3896202743053436,-0.4558878540992737,-0.2994380891323089,0.0,0.0,0.6582577228546143,-0.7444887161254883
-0.2352625429630279,0.9980544447898864,-0.1834341585636139,-0.3502899706363678,-0.4694159924983978,-0.2705619633197784,0.0,0.0,0.674119234085083,-0.90008944272995
-0.2369430959224701,0.9908194541931152,-0.1573005616664886,-0.3252337276935577,-0.4813522696495056,-0.2387254238128662,0.0,0.0,0.5152509212493896,-0.8909040689468384
-0.2383452951908111,0.9844210743904114,-0.130841314792633,-0.2876696288585663,-0.4918198585510254,-0.2093513458967209,0.0,0.0,0.922553300857544,-0.9771921038627625
-0.2393124103546142,0.979020059108734,-0.0889834836125373,-0.2428389638662338,-0.5005006194114685,-0.1736150532960891,0.0,0.0,0.9181238412857056,-0.9242748618125916
-0.2400003373622894,0.97407203912735,-0.0626098364591598,-0.2221841067075729,-0.5074641704559326,-0.1392711400985717,0.0,0.0,0.8610594272613525,-0.9148685932159424
-0.2405459880828857,0.9699800610542296,-0.0495567396283149,-0.1837321668863296,-0.5131284594535828,-0.1132855266332626,0.0,0.0,0.6347593069076538,-0.8548578023910522
-0.2410242110490799,0.9664832949638368,-0.043900080025196,-0.1568884700536728,-0.5175750851631165,-0.0889326781034469,0.0,0.0,0.2115509510040283,-0.8387510776519775
-0.2413707226514816,0.9633654952049256,-0.0319620482623577,-0.1395998150110244,-0.5206348896026611,-0.0611965358257293,0.0,0.0,0.1960415840148925,-0.9389243721961976
-0.2415697574615478,0.9605650305747986,-0.0186320096254348,-0.1249513253569603,-0.5220791101455688,-0.0288839451968669,0.0,0.0,-0.6534773111343384,-0.9474561810493468
-0.2418208122253418,0.9575783610343932,-0.0248843058943748,-0.1328184902667999,-0.5223293900489807,-0.0050056101754307,0.0,0.0,-0.7438388466835022,-0.9487423896789552
-0.2421224117279052,0.95441997051239,-0.0311127360910177,-0.1400113105773925,-0.521245539188385,0.0216767955571413,0.0,0.0,-0.223577082157135,-0.8967497944831848
-0.2424768507480621,0.9510968923568726,-0.0377009287476539,-0.1468273252248764,-0.5186775922775269,0.051360584795475,0.0,0.0,0.3354619741439819,-0.9063249826431274
-0.2427169382572174,0.9478806853294371,-0.0276792254298925,-0.141560211777687,-0.5145134925842285,0.0832817703485488,0.0,0.0,-0.1590622663497924,-0.8910191655158997
