x_pos,y_pos,x_vel,y_vel,angle,ang_vel,leg_1,leg_2,main_booster,lat_booster
-0.0015631675487384,1.403210997581482,-0.1575766503810882,-0.3426257073879242,0.0011276818113401,0.0221973098814487,0.0,0.0,-0.0437082681013927,-0.7271391104702272
-0.0032219886779785,1.395107984542847,-0.1676461398601532,-0.3601350486278534,0.0028721804264932,0.0348939448595047,0.0,0.0,-0.8857909204618923,-0.6664917812165068
-0.0049682618118822,1.38658607006073,-0.1767609864473343,-0.3787584602832794,0.004977217875421,0.0421046316623687,0.0,0.0,0.4032555992721913,0.5168028224401957
-0.006835269741714,1.378284931182861,-0.1868350356817245,-0.3689393103122711,0.005112987011671,0.0027159510646015,0.0,0.0,0.4700163157431709,-0.656341714273639
-0.0086840633302927,1.3704431056976318,-0.1859402954578399,-0.3485271334648132,0.0061598219908773,0.0209388732910156,0.0,0.0,-0.3207464517717624,0.9769322993340936
-0.0104947090148925,1.3621872663497925,-0.1790512502193451,-0.3669204413890838,0.0041743041947484,-0.0397141426801681,0.0,0.0,-0.909522770817897,-0.7862148388194783
-0.0124282836914062,1.3535175323486328,-0.1923315227031707,-0.3853145241737366,0.0031497727613896,-0.020492497831583,0.0,0.0,-0.299004635363826,-0.998686708059212
-0.0144829750061035,1.3444370031356812,-0.2052645236253738,-0.4035758376121521,0.0029598281253129,-0.0037992889992892,0.0,0.0,-0.8548305148974056,-0.859564761023226
-0.0166708938777446,1.3349519968032837,-0.2197051793336868,-0.4215527474880218,0.0038569986354559,0.017944935709238,0.0,0.0,-0.4922508229207489,0.659892216428257
-0.0188738815486431,1.3250582218170166,-0.2192267477512359,-0.4397282302379608,0.0028026518411934,-0.0210887547582387,0.0,0.0,0.8016731867191778,0.841853103175819
-0.0209778789430856,1.3157246112823486,-0.2072102278470993,-0.4148236811161041,-0.0003526554210111,-0.0631121918559074,0.0,0.0,0.3919256837841531,-0.6261637796909871
-0.023137092590332,1.3066437244415283,-0.2134701907634735,-0.403595358133316,-0.0027668250259011,-0.0482876896858215,0.0,0.0,0.3821654342447369,0.9892507750246304
-0.0251640323549509,1.2980316877365112,-0.1977259218692779,-0.3827768266201019,-0.0076837530359625,-0.0983478352427482,0.0,0.0,0.8460178493992754,-0.8732300649062773
-0.0272470470517873,1.28959321975708,-0.2046166211366653,-0.3750647008419037,-0.011329548433423,-0.072922445833683,0.0,0.0,0.4908201867027588,-0.7640425906880093
-0.0293176658451557,1.2818636894226074,-0.2045162618160247,-0.3435488641262054,-0.0138376085087656,-0.0501656755805015,0.0,0.0,0.3591027751997717,-0.6805424964251472
-0.031417466700077,1.2740787267684937,-0.2083670645952224,-0.3460144102573395,-0.0154343349859118,-0.0319376736879348,0.0,0.0,0.5725997340699973,-0.5096348621407675
-0.0334850326180458,1.2671054601669312,-0.2059270143508911,-0.3099360167980194,-0.0162458308041095,-0.0162313599139451,0.0,0.0,-0.8885608335395645,-0.6520353926373009
-0.0356738083064556,1.259713888168335,-0.2184453755617141,-0.3285132646560669,-0.0166743192821741,-0.0085706878453493,0.0,0.0,0.6827923090098447,-0.9963550461178268
-0.0378992073237896,1.2531442642211914,-0.2236485183238983,-0.2919777035713196,-0.0155778136104345,0.02193209156394,0.0,0.0,-0.6363894355524149,0.7534848844045762
-0.0401576049625873,1.246159315109253,-0.2250411063432693,-0.3104467988014221,-0.0163695141673088,-0.0158352442085742,0.0,0.0,-0.480121665824144,-0.643898990608361
-0.0425417907536029,1.2387670278549194,-0.2380436360836029,-0.3285543620586395,-0.0167348757386207,-0.0073079271242022,0.0,0.0,0.6456027322054061,0.6497681148012338
-0.0449413284659385,1.2316169738769531,-0.2377210408449173,-0.3178023397922516,-0.0189382098615169,-0.0440708473324775,0.0,0.0,-0.069151719277263,0.5115508714034287
-0.0473792068660259,1.2240517139434814,-0.2397469729185104,-0.3362937867641449,-0.0229430310428142,-0.0801036208868026,0.0,0.0,0.6256173089008976,0.5667923239740984
-0.0497798919677734,1.2165236473083496,-0.2345111817121505,-0.3346738815307617,-0.0284434128552675,-0.1100173145532608,0.0,0.0,0.016625714549483,-0.512578855577742
-0.052396010607481,1.209183692932129,-0.2563663423061371,-0.3263253271579742,-0.0336359962821006,-0.1038606986403465,0.0,0.0,-0.6370544812465844,0.6876577672948727
-0.0550615303218364,1.201411247253418,-0.2596907317638397,-0.3456126451492309,-0.0404022485017776,-0.1353249996900558,0.0,0.0,-0.7684287731588479,0.7933061372264905
-0.0577544197440147,1.1932276487350464,-0.260307103395462,-0.3639850914478302,-0.0492831766605377,-0.1776187419891357,0.0,0.0,0.9346029411842705,-0.6352947305111123
-0.0607049949467182,1.1861021518707275,-0.2863803803920746,-0.3169953227043152,-0.0578485764563083,-0.1713080108165741,0.0,0.0,0.4401644376677014,-0.9628111761079527
-0.0639141052961349,1.1796016693115234,-0.3135711848735809,-0.289219319820404,-0.0651115924119949,-0.1452603638172149,0.0,0.0,0.731365499147149,-0.7307792393935177
-0.0672642737627029,1.173458695411682,-0.3285965919494629,-0.2733132541179657,-0.0714636817574501,-0.1270417273044586,0.0,0.0,0.901439088748756,0.783809285477254
-0.0705519691109657,1.1683610677719116,-0.3203526139259338,-0.2269872725009918,-0.0798020511865615,-0.1667673140764236,0.0,0.0,-0.8616642355918884,-0.4366395473480224
-0.0739330276846885,1.1628514528274536,-0.3292164206504822,-0.2453694939613342,-0.0886052399873733,-0.1760639250278473,0.0,0.0,-0.8827161192893982,0.584060788154602
-0.0773675888776779,1.156930446624756,-0.333112359046936,-0.2638049721717834,-0.09886085242033,-0.2051123678684234,0.0,0.0,-0.9323834180831908,0.6596274375915527
-0.0808499306440353,1.150585412979126,-0.336282342672348,-0.2828411161899566,-0.1107284799218177,-0.2373523414134979,0.0,0.0,-0.7626609802246094,-0.5896778702735901
-0.0844714194536209,1.1438381671905518,-0.3509377241134643,-0.30075603723526,-0.121868185698986,-0.2227939665317535,0.0,0.0,-0.9302842617034912,0.5159816741943359
-0.0881450623273849,1.1366759538650513,-0.3547077775001526,-0.3194009661674499,-0.1344667226076126,-0.2519709765911102,0.0,0.0,-0.6313958168029785,0.6780056953430176
-0.091862678527832,1.1290897130966189,-0.3574347198009491,-0.33852019906044,-0.148743063211441,-0.2855268120765686,0.0,0.0,-0.8010299801826477,-0.0020684003829956
-0.0956746116280555,1.1210933923721311,-0.3665470480918884,-0.3569149076938629,-0.1633799374103546,-0.2927375137805938,0.0,0.0,-0.552041232585907,0.0928736925125122
-0.0995811447501182,1.112687587738037,-0.3756908476352691,-0.3753105700016022,-0.1783563643693924,-0.2995289862155914,0.0,0.0,-0.828787088394165,0.9741109609603882
-0.103502556681633,1.103852152824402,-0.3748812079429626,-0.3948508203029632,-0.1956944465637207,-0.3467617630958557,0.0,0.0,-0.7230183482170105,0.2138847112655639
-0.1075182929635047,1.0946083068847656,-0.384083092212677,-0.4132536649703979,-0.2133267819881439,-0.3526471257209778,0.0,0.0,-0.8599132895469666,-0.0750666260719299
-0.1116283386945724,1.084955811500549,-0.3933103680610657,-0.4316572844982147,-0.231229156255722,-0.3580475747585296,0.0,0.0,-0.8195168375968933,-0.898962140083313
-0.1158920302987098,1.0749053955078125,-0.4100014269351959,-0.4493475556373596,-0.2478642463684082,-0.3327016532421112,0.0,0.0,-0.7535867691040039,-0.4675421118736267
-0.1202499419450759,1.0644458532333374,-0.4192726016044616,-0.4677478671073913,-0.2647176384925842,-0.3370681405067444,0.0,0.0,-0.7869636416435242,-0.1201786398887634
-0.1247018799185752,1.0535773038864136,-0.4285638928413391,-0.4861484169960022,-0.281761884689331,-0.3408845067024231,0.0,0.0,-0.706746518611908,-0.295025110244751
-0.1292475759983062,1.042299509048462,-0.4378736913204193,-0.504548966884613,-0.2989684045314789,-0.3441301882266998,0.0,0.0,-0.8930270671844482,0.6284584999084473
-0.1338355988264084,1.0305856466293335,-0.4406960606575012,-0.5244457721710205,-0.3177191317081451,-0.3750146925449371,0.0,0.0,0.0423232316970825,-0.8176981806755066
-0.1384905874729156,1.0192899703979492,-0.4490025639533996,-0.5057505369186401,-0.334911435842514,-0.3438462615013122,0.0,0.0,-0.6872379183769226,-0.6020024418830872
-0.1432923376560211,1.0076178312301636,-0.4651373326778412,-0.5223265886306763,-0.3506663739681244,-0.3150985836982727,0.0,0.0,0.2189159393310547,-0.4274863600730896
-0.1480730026960373,0.9960724711418152,-0.4630098342895508,-0.5168851017951965,-0.3665326535701751,-0.3173262774944305,0.0,0.0,-0.33229660987854,-0.5205457210540771
-0.1529758423566818,0.9841331243515016,-0.4760710597038269,-0.5343427658081055,-0.3815903067588806,-0.3011528849601745,0.0,0.0,-0.2377576828002929,0.1512218713760376
-0.1579713821411132,0.9717832207679749,-0.4854588508605957,-0.5527328252792358,-0.3966212272644043,-0.3006182312965393,0.0,0.0,-0.2250845432281494,0.4632370471954345
-0.1630595177412033,0.9590222239494324,-0.4948554635047912,-0.5711216330528259,-0.4115917086601257,-0.2994099259376526,0.0,0.0,-0.1447118520736694,0.6278939247131348
-0.1681927740573883,0.94582599401474,-0.4983552098274231,-0.5909463167190552,-0.4277685582637787,-0.3235367834568023,0.0,0.0,0.5787835121154785,-0.7230979204177856
-0.1731347143650055,0.9327897429466248,-0.4810861051082611,-0.5834405422210693,-0.4420305788516998,-0.2852402031421661,0.0,0.0,0.827850341796875,-0.3450013399124145
-0.1780409812927246,0.9201163053512572,-0.4773064255714416,-0.5675365924835205,-0.4566188454627991,-0.2917658984661102,0.0,0.0,0.2099584341049194,-0.2762452363967895
-0.182719424366951,0.907771110534668,-0.4550978243350982,-0.552922785282135,-0.4706918895244598,-0.2814607620239258,0.0,0.0,0.2870032787322998,-0.6902512311935425
-0.1871913969516754,0.8956731557846069,-0.4361888766288757,-0.5414732098579407,-0.482917457818985,-0.2445111721754074,0.0,0.0,-0.1359605193138122,0.0002336502075195
-0.1917543411254882,0.883161723613739,-0.4456084370613098,-0.5598472952842712,-0.4948790669441223,-0.239232450723648,0.0,0.0,0.4926103353500366,0.2135596275329589
-0.1961317062377929,0.871222972869873,-0.4270812571048736,-0.5344939827919006,-0.5068620443344116,-0.2396593540906906,0.0,0.0,0.4249569177627563,-0.7069377899169922
-0.2004522830247879,0.859288215637207,-0.4231358468532562,-0.5337680578231812,-0.5169546008110046,-0.2018509209156036,0.0,0.0,-0.4721784591674804,0.295717716217041
-0.204863354563713,0.8469387888908386,-0.4325482249259949,-0.5521338582038879,-0.526686429977417,-0.1946368515491485,0.0,0.0,0.7778275012969971,-0.1970274448394775
-0.2089698314666748,0.8347957134246826,-0.4030283391475677,-0.5426701307296753,-0.535412073135376,-0.1745133697986602,0.0,0.0,0.8679580688476562,-0.3871785402297973
-0.2127898186445236,0.8231109976768494,-0.3748852610588074,-0.5221598148345947,-0.5435933470726013,-0.1636242419481277,0.0,0.0,0.8636577129364014,-0.2981711030006408
-0.2164580821990966,0.8115841150283813,-0.3601696789264679,-0.5150092840194702,-0.5512838363647461,-0.1538092195987701,0.0,0.0,0.8469322919845581,-0.2536622285842895
-0.2199874818325042,0.8005942106246948,-0.3461802899837494,-0.4912390410900116,-0.5591368079185486,-0.1570592820644378,0.0,0.0,0.9042768478393556,-0.2999505996704101
-0.2230618000030517,0.7904225587844849,-0.3012255430221557,-0.4546831250190735,-0.5663711428642273,-0.1446884423494339,0.0,0.0,0.6402199268341064,-0.4879446029663086
-0.2260003089904785,0.7801360487937927,-0.2884501814842224,-0.4594818353652954,-0.572699248790741,-0.1265625655651092,0.0,0.0,0.789364218711853,-0.5565944910049438
-0.2285340279340744,0.7706132531166077,-0.24955515563488,-0.4248860776424408,-0.5771886110305786,-0.0897877365350723,0.0,0.0,0.7053507566452026,-0.9075713157653807
-0.2310407161712646,0.7614300847053528,-0.2488686144351959,-0.4089199900627136,-0.5793063640594482,-0.0423547588288784,0.0,0.0,0.8193707466125488,-0.5190883874893188
-0.2333498001098632,0.7528880834579468,-0.2303186953067779,-0.3798963725566864,-0.5800061821937561,-0.0139964343979954,0.0,0.0,0.9832801818847656,-0.8315767049789429
-0.2353568971157074,0.7448872327804565,-0.2022229433059692,-0.354940801858902,-0.5782200694084167,0.0357222482562065,0.0,0.0,0.9068408012390136,-0.7530889511108398
-0.2370992600917816,0.7378796935081482,-0.1773862987756729,-0.3100762367248535,-0.574508011341095,0.0742406994104385,0.0,0.0,0.8414980173110962,-0.8217489719390869
-0.2385568171739578,0.7312438488006592,-0.1511130630970001,-0.292627215385437,-0.568213939666748,0.125881090760231,0.0,0.0,0.5522823333740234,-0.4320356845855713
-0.2399293929338455,0.7246803641319275,-0.1430896520614624,-0.2892426550388336,-0.5613927245140076,0.1364239752292633,0.0,0.0,0.7154446840286255,-0.714991569519043
-0.241192489862442,0.7181046009063721,-0.1342056840658188,-0.2889753580093384,-0.5522116422653198,0.1836205720901489,0.0,0.0,0.8531591892242432,-0.5371707677841187
-0.242410272359848,0.711655855178833,-0.131224051117897,-0.2827696800231933,-0.5412922501564026,0.2183874100446701,0.0,0.0,0.696314811706543,-0.0393077135086059
-0.2432999163866043,0.7058438658714294,-0.0990649536252021,-0.254308134317398,-0.529693603515625,0.2319724559783935,0.0,0.0,0.586036205291748,-0.6082721948623657
-0.2438442707061767,0.700607180595398,-0.0665566325187683,-0.2280732542276382,-0.5158782601356506,0.276307076215744,0.0,0.0,0.2900874614715576,-0.4265707731246948
-0.244232565164566,0.6958521604537964,-0.0513514950871467,-0.20667265355587,-0.5017238855361938,0.2830870747566223,0.0,0.0,0.0416525602340698,-0.1832512617111206
-0.2446739226579666,0.6910147070884705,-0.0570865869522094,-0.2103309482336044,-0.48719123005867,0.2906530499458313,0.0,0.0,0.3356056213378906,-0.4132047891616821
-0.2448683232069015,0.6865860223770142,-0.0333251282572746,-0.1920142322778701,-0.4717416167259216,0.3089919984340668,0.0,0.0,0.163390040397644,0.1995604038238525
-0.2450224906206131,0.6823322176933289,-0.0298062972724437,-0.1842494308948516,-0.4558462798595428,0.31790691614151,0.0,0.0,-0.2831209897994995,0.5052573680877686
-0.2452231347560882,0.6776414513587952,-0.0344145186245441,-0.2038679867982864,-0.4401233792304992,0.3144579231739044,0.0,0.0,0.3029564619064331,0.5997154712677002
-0.2452333867549896,0.6732634902000427,-0.0150488587096333,-0.1902519911527633,-0.4248720407485962,0.3050268292427063,0.0,0.0,-0.1417109966278076,0.0112003087997436
-0.2453213185071945,0.6684708595275879,-0.0236541740596294,-0.2086153477430343,-0.4088203608989715,0.3210338354110718,0.0,0.0,0.1397420167922973,0.6101658344268799
-0.2453330010175705,0.6635437607765198,-0.0157226584851741,-0.2148654907941818,-0.3932077288627624,0.3122533559799194,0.0,0.0,0.0573927164077758,0.4047020673751831
-0.2452665865421295,0.6585251092910767,-0.0090297563001513,-0.2188083678483963,-0.3765070736408233,0.3340131938457489,0.0,0.0,-0.4631921052932739,0.6434659957885742
-0.2452159821987152,0.6530573964118958,-0.0099313203245401,-0.2391358464956283,-0.3606368899345398,0.3174041509628296,0.0,0.0,-0.2506626844406128,0.471061110496521
-0.2452383488416671,0.6471758484840393,-0.0181044191122055,-0.2575044929981231,-0.343942642211914,0.3338851034641266,0.0,0.0,-0.3567230105400085,0.736900806427002
-0.2452769726514816,0.6408565640449524,-0.0191947016865015,-0.2772823572158813,-0.327908992767334,0.3206729888916015,0.0,0.0,-0.3764423131942749,0.2527492046356201
-0.2453856468200683,0.6341237425804138,-0.0270860698074102,-0.2956535220146179,-0.3110427558422088,0.3373247683048248,0.0,0.0,-0.410123348236084,0.607682466506958
-0.2455072849988937,0.626953125,-0.0278346836566925,-0.3154181838035583,-0.2948325276374817,0.3242043256759643,0.0,0.0,-0.4723656773567199,0.0332211256027221
-0.2456955462694168,0.6193695664405823,-0.0353911183774471,-0.333792120218277,-0.2777831256389618,0.3409881591796875,0.0,0.0,-0.5254262685775757,0.7739863395690918
-0.2458953857421875,0.6113479733467102,-0.0360492654144763,-0.3535472154617309,-0.2613268792629242,0.3291248977184295,0.0,0.0,-0.7523244023323059,0.3364981412887573
-0.2461578398942947,0.6029137969017029,-0.0432098768651485,-0.3719241917133331,-0.2440266162157058,0.3460050225257873,0.0,0.0,-0.933144211769104,0.8330873250961304
-0.2464194297790527,0.594044029712677,-0.042433001101017,-0.3915986716747284,-0.2274980098009109,0.3305717408657074,0.0,0.0,-0.3378429412841797,0.5896332263946533
-0.2467021495103836,0.584754467010498,-0.0445212870836257,-0.4104436337947845,-0.2110607773065567,0.3287446796894073,0.0,0.0,-0.6177085041999817,0.581920862197876
-0.246988445520401,0.5750389695167542,-0.0444471798837184,-0.4296205937862396,-0.1951130777597427,0.3189540803432464,0.0,0.0,-0.3448895215988159,0.8578851222991943
-0.2472658604383468,0.5648990273475647,-0.0429062061011791,-0.4487335383892059,-0.1798821240663528,0.3046189844608307,0.0,0.0,-0.2904854416847229,0.7768001556396484
-0.2475402355194091,0.5543380379676819,-0.0421462729573249,-0.4676632285118103,-0.1651424169540405,0.294794499874115,0.0,0.0,-0.749203622341156,0.9137082099914552
-0.2477931976318359,0.5433443188667297,-0.0391308031976223,-0.4871297478675842,-0.1513099372386932,0.2766498625278473,0.0,0.0,0.3646657466888428,0.9134271144866944
-0.2480519711971283,0.5326839089393616,-0.0386719033122062,-0.4725413024425506,-0.1385474354028701,0.2552501559257507,0.0,0.0,0.2547881603240967,0.7756508588790894
-0.2483631670475006,0.5222141146659851,-0.0430859550833702,-0.4642594158649444,-0.126629427075386,0.2383602559566497,0.0,0.0,0.1380472183227539,0.9598114490509032
-0.248486191034317,0.5120425820350647,-0.0232108198106288,-0.45117849111557,-0.1157785132527351,0.2170181274414062,0.0,0.0,-0.4503703117370605,0.8422424793243408
-0.2485686242580413,0.5014377236366272,-0.0181518942117691,-0.4705880880355835,-0.1059373244643211,0.1968238055706024,0.0,0.0,-0.2078494429588318,0.8012290000915527
-0.248599961400032,0.490413099527359,-0.0119063463062047,-0.4893827736377716,-0.0972330421209335,0.1740855723619461,0.0,0.0,0.6776726245880127,0.7903931140899658
-0.2485407888889312,0.4801526069641113,-0.0020749033428728,-0.455523818731308,-0.0893079489469528,0.1585019826889038,0.0,0.0,-0.6190029978752136,0.5489287376403809
-0.248446375131607,0.4694776535034179,0.0019611737225204,-0.4740149676799774,-0.0818943157792091,0.1482727229595184,0.0,0.0,0.7350461483001709,0.0702230930328369
-0.2482361793518066,0.4592894613742828,0.0123079856857657,-0.4523597657680511,-0.0732728764414787,0.1724287718534469,0.0,0.0,-0.5726810097694397,0.6606823205947876
-0.247983306646347,0.4486888647079468,0.0170433539897203,-0.4707573056221008,-0.0651151090860366,0.1631553918123245,0.0,0.0,0.4891014099121094,0.8264749050140381
-0.2475617378950119,0.438732385635376,0.0346438102424144,-0.4422037303447723,-0.0576820857822895,0.1486603766679763,0.0,0.0,-0.0694683790206909,0.8936965465545654
-0.2470595389604568,0.4283510148525238,0.0439054146409034,-0.4611621797084808,-0.051437959074974,0.1248825192451477,0.0,0.0,0.5827609300613403,0.1799437999725341
-0.2466380596160888,0.4184527397155761,0.0355373471975326,-0.4397150576114654,-0.0449100174009799,0.1305588781833648,0.0,0.0,0.2775187492370605,0.4668170213699341
-0.2462871074676513,0.408744215965271,0.0281190313398838,-0.4312964081764221,-0.0380185730755329,0.1378288567066192,0.0,0.0,0.4967896938323974,0.6444665193557739
-0.2458713054656982,0.399385929107666,0.0351177379488945,-0.4157735407352447,-0.0316343940794467,0.1276835799217224,0.0,0.0,-0.6573033332824707,0.5354442596435547
-0.2453906089067459,0.3896113336086273,0.0419071875512599,-0.4343090057373047,-0.0255454648286104,0.1217787116765976,0.0,0.0,0.5142409801483154,0.98358154296875
-0.2446616142988205,0.3799004554748535,0.067760482430458,-0.4315142929553985,-0.0204718243330717,0.1014726012945175,0.0,0.0,-0.2512127161026001,0.7826809883117676
-0.2438302487134933,0.369777500629425,0.0790136605501174,-0.4498567283153534,-0.0163974780589342,0.0814867988228797,0.0,0.0,0.3715959787368774,-0.086835503578186
-0.2429319322109222,0.3602451384067535,0.0847847759723663,-0.423613578081131,-0.0114212948828935,0.0995236635208129,0.0,0.0,-0.113629400730133,0.8773216009140015
