x_pos,y_pos,x_vel,y_vel,angle,ang_vel,leg_1,leg_2,main_booster,lat_booster
-0.0015745162963867,1.4031453132629397,-0.1591489762067794,-0.3455475568771362,0.001520232995972,0.0299702696502208,0.0,0.0,0.9930140098827178,-0.967431759090338
-0.0032079697120934,1.3957444429397583,-0.1666357070207595,-0.3289318382740021,0.0047688814811408,0.0649799481034278,0.0,0.0,-0.8550449044739217,0.7900115421023305
-0.004816913511604,1.387858748435974,-0.1619624644517898,-0.3504847288131714,0.0058286301791667,0.0211969781666994,0.0,0.0,0.9755052749597284,-0.7848436970052216
-0.0066967965103685,1.380385398864746,-0.1899702250957489,-0.3321559727191925,0.0077887685038149,0.0392065271735191,0.0,0.0,-0.9622980344040392,-0.9788651291520382
-0.0086884498596191,1.3724350929260254,-0.2024063616991043,-0.353363573551178,0.0109978197142481,0.0641868188977241,0.0,0.0,-0.8954416240667107,0.7319813965211807
-0.0106605533510446,1.3640060424804688,-0.1983814388513565,-0.3746392428874969,0.0121579691767692,0.0232049170881509,0.0,0.0,0.7486085447163691,-0.8174911221191261
-0.0127816200256347,1.3560125827789309,-0.2146050631999969,-0.3552787899971008,0.0146172139793634,0.0491895154118537,0.0,0.0,-0.8850376499305646,-0.6410101857949071
-0.014991951175034,1.3475409746170044,-0.2242069542407989,-0.3765468895435333,0.0177671033889055,0.0630036741495132,0.0,0.0,0.3144437762382166,0.606671382590454
-0.0172278396785259,1.3395966291427612,-0.2252738028764724,-0.3531103730201721,0.0194333791732788,0.0333283767104148,0.0,0.0,-0.4566523813737726,0.8357311460437694
-0.019448947161436,1.3311797380447388,-0.2218609601259231,-0.3740768134593963,0.0191908087581396,-0.0048518697731196,0.0,0.0,0.3041428755053377,-0.667352490683081
-0.0217066761106252,1.3229886293411257,-0.2267531156539917,-0.3640598654747009,0.0201535187661647,0.0192561168223619,0.0,0.0,0.3539924894524378,-0.8495131735725618
-0.0240249633789062,1.3149657249450684,-0.2343332022428512,-0.356610357761383,0.0226289313286542,0.0495125278830528,0.0,0.0,-0.260522431752074,0.6186896436096903
-0.0263346675783395,1.306468844413757,-0.23171067237854,-0.3776574730873108,0.0233687926083803,0.014798698015511,0.0,0.0,-0.1391147051215908,-0.7491601288204592
-0.0287468917667865,1.2974836826324463,-0.2430601418018341,-0.3993640542030334,0.0251876972615718,0.036381609737873,0.0,0.0,0.8856397258795414,0.9262979994554472
-0.0309821125119924,1.2894494533538818,-0.2235977947711944,-0.3570804297924042,0.0252621546387672,0.0014894399791955,0.0,0.0,-0.1147197234607231,-0.9757347671796596
-0.0333301536738872,1.2809219360351562,-0.2362564504146576,-0.3790305554866791,0.026693869382143,0.0286368578672409,0.0,0.0,-0.9597714721115018,0.8527463792095646
-0.0356456749141216,1.271928310394287,-0.2306732386350631,-0.3996961712837219,0.0258206464350223,-0.017466053366661,0.0,0.0,0.3516237176971255,0.8476972152197676
-0.0378195755183696,0.0,-0.214725375175476,-0.400514543056488,0.0231969356536865,-0.0524791665375232,0.0,0.0,-0.0110092988794523,0.7051794716086592
-0.0399782173335552,1.2534328699111938,-0.2113547772169113,-0.4213944673538208,0.0187341906130313,-0.0892628207802772,0.0,0.0,0.8968020020563663,0.6576553042380758
-0.0422457680106163,1.2444442510604858,-0.2204557955265045,-0.3994327485561371,0.0125011736527085,-0.1246716827154159,0.0,0.0,0.8839830828990951,-0.6597217063087544
-0.0444686897099018,1.2362693548202517,-0.217509314417839,-0.363298088312149,0.0077794957906007,-0.0944420844316482,0.0,0.0,0.0311086843185828,0.8824251586664071
-0.0466638579964637,1.2280256748199463,-0.2127749025821685,-0.3663664758205414,0.0011080680415034,-0.1334404498338699,0.0,0.0,-0.6985717460339729,-0.949721821032699
-0.0489664077758789,1.21930193901062,-0.2248102873563766,-0.3877293169498443,-0.0042703342624008,-0.1075778380036354,0.0,0.0,0.2117811095499406,-0.8086469935358912
-0.0513213165104389,1.2104336023330688,-0.2315501868724823,-0.3941570520401001,-0.0081739285960793,-0.0780787542462349,0.0,0.0,-0.3341154542610749,-0.8715875419666104
-0.0538094528019428,1.2010897397994995,-0.2468446046113968,-0.4152931272983551,-0.0101132215932011,-0.0387893244624137,0.0,0.0,-0.0134316974987127,0.8194018915626755
-0.0562960617244243,1.1912490129470823,-0.2452702224254608,-0.437391847372055,-0.0134585686028003,-0.0669068247079849,0.0,0.0,0.6806790484161755,0.8854608345513839
-0.0587454810738563,1.182041883468628,-0.2396071404218673,-0.4092628359794616,-0.0187228955328464,-0.1052866727113723,0.0,0.0,-0.2140448912483892,0.8033658805219118
-0.0611918456852436,1.17236328125,-0.2378745526075363,-0.4302679002285003,-0.0253966376185417,-0.1334749460220337,0.0,0.0,-0.8391557436520733,0.8274888293135363
-0.0636331588029861,1.1622109413146973,-0.235915258526802,-0.4513725340366363,-0.0335116386413574,-0.1623001396656036,0.0,0.0,0.9675251753894968,0.913887414869043
-0.0660562515258789,1.152445673942566,-0.2320517599582672,-0.4342802464962005,-0.0436435677111148,-0.2026387751102447,0.0,0.0,0.4652006310428282,-0.8789718639954663
-0.0685425773262977,1.1433407068252563,-0.2400165498256683,-0.4049362242221832,-0.0521428138017654,-0.169984832406044,0.0,0.0,0.0862314554997727,-0.9826146330132448
-0.071197509765625,1.1341941356658936,-0.2587607800960541,-0.4067580997943878,-0.0588053576648235,-0.1332509815692901,0.0,0.0,0.2086388346795487,-0.7525557205246902
-0.0739899650216102,1.1254656314849854,-0.2738187909126282,-0.3881575465202331,-0.064169742166996,-0.1072878241539001,0.0,0.0,0.3464662946484622,0.7137541958130766
-0.0768090263009071,1.116692304611206,-0.2748258411884308,-0.3902468383312225,-0.0711670517921447,-0.1399461925029754,0.0,0.0,0.9331405577572762,0.7210387129966518
-0.079541303217411,1.1085319519042969,-0.2646405696868896,-0.3631117641925812,-0.0796645805239677,-0.1699510514736175,0.0,0.0,-0.6164126744867469,-0.7894098968742664
-0.0823758095502853,1.09990656375885,-0.2763078808784485,-0.3837483823299408,-0.0867432132363319,-0.141572505235672,0.0,0.0,-0.2633596448596933,-0.751432352870034
-0.0853137969970703,1.0908067226409912,-0.2881357967853546,-0.4047692120075226,-0.0923618227243423,-0.1123723164200782,0.0,0.0,0.2755395024310718,-0.863676425510056
-0.0882723778486251,1.0821175575256348,-0.2918532788753509,-0.3864397406578064,-0.0963246747851371,-0.0792570561170578,0.0,0.0,-0.956917652595809,-0.619322610603152
-0.0913221389055252,1.0729637145996094,-0.3022153377532959,-0.4070126414299011,-0.0990584790706634,-0.0546762645244598,0.0,0.0,-0.5733926300893026,-0.7562170704737071
-0.0944671630859375,1.0633405447006226,-0.3131233155727386,-0.4277948141098022,-0.1004373803734779,-0.027577955275774,0.0,0.0,0.2358874102697961,0.6636894950929534
-0.0976277366280555,1.0541187524795532,-0.313117116689682,-0.4100627303123474,-0.1033485680818557,-0.0582238733768463,0.0,0.0,-0.9108121991157532,0.7747304439544678
-0.1007514968514442,1.0444048643112185,-0.3074943423271179,-0.4320742487907409,-0.1081921085715293,-0.0968708172440528,0.0,0.0,-0.8398032784461975,0.2939703464508056
-0.1039105430245399,1.0342121124267578,-0.3109647333621979,-0.4533720314502716,-0.1130998656153678,-0.0981552526354789,0.0,0.0,-0.9432553648948668,0.610863447189331
-0.1070478409528732,1.0235302448272705,-0.3072987198829651,-0.4752567410469055,-0.119486428797245,-0.1277313083410263,0.0,0.0,-0.9819484353065492,0.9899849891662598
-0.1101461425423622,1.0123451948165894,-0.3015016317367553,-0.4978025555610657,-0.127773642539978,-0.1657442152500152,0.0,0.0,-0.7568294405937195,0.9836039543151855
-0.1131934151053428,1.0006563663482666,-0.294228732585907,-0.5204392671585083,-0.1382272243499755,-0.2090714871883392,0.0,0.0,-0.8835856318473816,0.8713985681533813
-0.1161953955888748,0.9884697198867798,-0.2877503037452698,-0.5428294539451599,-0.1506434828042984,-0.2483250349760055,0.0,0.0,-0.9539526104927064,0.7167758941650391
-0.1191786751151084,0.975803554058075,-0.2847049534320831,-0.5643789768218994,-0.1642592400312423,-0.2723151743412018,0.0,0.0,-0.9754809737205504,0.4238059520721435
-0.1221877112984657,0.962660551071167,-0.2872883677482605,-0.5856900811195374,-0.1779076009988784,-0.2729671895503998,0.0,0.0,-0.8106304407119751,0.5976707935333252
-0.1251762360334396,0.94902765750885,-0.284072071313858,-0.6077522039413452,-0.1927414238452911,-0.2966764569282532,0.0,0.0,-0.919346272945404,0.59295654296875
-0.1281295716762542,0.9349018931388856,-0.2791251540184021,-0.6300041675567627,-0.2090733498334884,-0.3266389966011047,0.0,0.0,-0.7318773865699768,-0.1849342584609985
-0.1311026513576507,0.920300543308258,-0.281131774187088,-0.6513216495513916,-0.2254250645637512,-0.3270343840122223,0.0,0.0,0.0798268318176269,-0.2958171367645263
-0.1339587271213531,0.9056243300437928,-0.2697923183441162,-0.6547728180885315,-0.2414622753858566,-0.3207445740699768,0.0,0.0,0.2236263751983642,-0.3567745685577392
-0.1366864144802093,0.8913320899009705,-0.2570169568061828,-0.6378819346427917,-0.2575011253356933,-0.3207771182060241,0.0,0.0,0.8295590877532959,-0.7300441861152649
-0.1391722708940506,0.8772976398468018,-0.2347235232591629,-0.6262519359588623,-0.2716772556304931,-0.2835232019424438,0.0,0.0,0.7288033962249756,-0.0495381951332092
-0.1416327506303787,0.8635393977165222,-0.2317756712436676,-0.6141936779022217,-0.2863223850727081,-0.2929026186466217,0.0,0.0,0.9112366437911988,-0.8163543343544006
-0.143786996603012,0.8506153225898743,-0.2030747234821319,-0.5768868327140808,-0.2990620136260986,-0.2547934353351593,0.0,0.0,0.839928388595581,-0.3960978388786316
-0.1455787718296051,0.8382226824760437,-0.1675540506839752,-0.5532219409942627,-0.3110920488834381,-0.2406009882688522,0.0,0.0,-0.1391868591308593,-0.9008086323738098
-0.147430807352066,0.8253898024559021,-0.1751846224069595,-0.5725363492965698,-0.321503609418869,-0.2082304507493972,0.0,0.0,-0.4051864147186279,-0.3685822486877441
-0.1492836028337478,0.8120790719985962,-0.1752825528383255,-0.5938402414321899,-0.3319122791290283,-0.2081739455461502,0.0,0.0,0.7980575561523438,-0.8834401965141296
-0.1510122269392013,0.7988584041595459,-0.1647273451089859,-0.5894740223884583,-0.3404147624969482,-0.1700488924980163,0.0,0.0,0.4920059442520141,-0.8324756026268005
-0.1526812613010406,0.7861427664756775,-0.1602925360202789,-0.5667188167572021,-0.3473371267318725,-0.1384478211402893,0.0,0.0,0.8956267833709717,-0.6851736307144165
-0.1540486365556717,0.7737331986427307,-0.1318417936563491,-0.5527305006980896,-0.3524824678897857,-0.1029071360826492,0.0,0.0,0.505090594291687,-0.9716176390647888
-0.1552620828151703,0.7616589665412903,-0.1183841675519943,-0.5373661518096924,-0.3556034564971924,-0.062419343739748,0.0,0.0,0.825048565864563,-0.9664683938026428
-0.1563734114170074,0.7497560977935791,-0.1100633144378662,-0.529278039932251,-0.3567259907722473,-0.0224508829414844,0.0,0.0,0.8642098903656006,-0.9484993815422058
-0.1574523895978927,0.7384321689605713,-0.1084570661187172,-0.5031460523605347,-0.3561370074748993,0.011779386550188,0.0,0.0,0.8952608108520508,-0.974380373954773
-0.1582157164812088,0.728045642375946,-0.0788493007421493,-0.4610006213188171,-0.3534818589687347,0.0531030297279357,0.0,0.0,0.8390142917633057,-0.7397826910018921
-0.1588107049465179,0.717608630657196,-0.0636746734380722,-0.4628497660160064,-0.3490931391716003,0.0877744406461715,0.0,0.0,0.5571086406707764,-0.8636123538017273
-0.1591437309980392,0.7078564167022705,-0.0392305254936218,-0.4320105016231537,-0.3428734838962555,0.1243929639458656,0.0,0.0,-0.2875542044639587,-0.2695159912109375
-0.1594533026218414,0.6976253986358643,-0.0369041226804256,-0.4533085227012634,-0.3366435468196869,0.1245989352464675,0.0,0.0,0.5605026483535767,-0.6109606027603149
-0.1596595793962478,0.6878942251205444,-0.0275979880243539,-0.4308944046497345,-0.3293614387512207,0.145641952753067,0.0,0.0,0.0552015304565429,-0.3195418119430542
-0.1596912443637848,0.6782389879226685,-0.0102477176114916,-0.4275227189064026,-0.3219791352748871,0.1476462483406067,0.0,0.0,-0.5371166467666626,-0.2276272773742675
-0.1596936285495758,0.6681052446365356,-0.0073452591896057,-0.4488221108913421,-0.3145882487297058,0.1478177607059478,0.0,0.0,-0.4322947263717651,-0.6106539964675903
-0.1597051620483398,0.6575128436088562,-0.0093368329107761,-0.4690227508544922,-0.306096613407135,0.1698327660560608,0.0,0.0,-0.6275922656059265,-0.4421840310096741
-0.1596840918064117,0.6464421153068542,-0.0061026206240057,-0.4903235733509063,-0.2975984513759613,0.169962853193283,0.0,0.0,-0.4258269071578979,-0.4110246896743774
-0.1596288681030273,0.6348931789398193,-0.0027177254669368,-0.5116245150566101,-0.2890950739383697,0.170067012310028,0.0,0.0,-0.5883839130401611,-0.1462637186050415
-0.1595381796360016,0.6228660345077515,0.0008077708189375,-0.5329254865646362,-0.2805879414081573,0.17014180123806,0.0,0.0,-0.6155748963356018,-0.6184306144714355
-0.1594569236040115,0.6103866696357727,-0.0014187495689839,-0.5528377890586853,-0.2708012759685516,0.195733442902565,0.0,0.0,-0.0240105390548706,-0.0598232150077819
-0.1593377143144607,0.5974293947219849,0.0023582056164741,-0.5741407871246338,-0.2610143423080444,0.1957385689020156,0.0,0.0,-0.1168887615203857,-0.0964828729629516
-0.1591794043779373,0.5839941501617432,0.0062476489692926,-0.5954439043998718,-0.2512291669845581,0.1957038193941116,0.0,0.0,0.4332270622253418,0.2841105461120605
-0.1590182334184646,0.5705403685569763,0.0070225200615823,-0.5964195132255554,-0.2419670671224594,0.1852421164512634,0.0,0.0,0.4366340637207031,0.1304682493209839
-0.1586171090602874,0.5575968623161316,0.0308311879634857,-0.5737656354904175,-0.2325488924980163,0.1883637607097625,0.0,0.0,-0.4299033880233764,0.4310762882232666
-0.1581742316484451,0.5441755056381226,0.0350090377032756,-0.5950682759284973,-0.2231394052505493,0.1881898343563079,0.0,0.0,0.2855229377746582,0.4092440605163574
-0.1576133668422699,0.5310617089271545,0.0469762198626995,-0.5814826488494873,-0.2139385938644409,0.1840163767337799,0.0,0.0,-0.4082692861557007,0.5191586017608643
-0.1569696366786956,0.5174596309661865,0.0562864728271961,-0.603385329246521,-0.2057739347219467,0.1632935255765915,0.0,0.0,0.8015365600585938,0.4015352725982666
-0.1560592651367187,0.5042816996574402,0.082525685429573,-0.5845192074775696,-0.1971865445375442,0.1717475652694702,0.0,0.0,-0.783268928527832,0.2314064502716064
-0.155104249715805,0.4906257390975952,0.0869911164045333,-0.6058208346366882,-0.188619390130043,0.1713427305221557,0.0,0.0,0.1890469789505005,-0.2651743292808532
-0.1539842635393142,0.4768997728824615,0.1031993627548217,-0.6089417934417725,-0.1797669380903244,0.1770487278699875,0.0,0.0,-0.1945700049400329,-0.2300329208374023
-0.1528185904026031,0.4626958072185516,0.1077749356627464,-0.6302440166473389,-0.1709414422512054,0.1765096336603164,0.0,0.0,0.4113292694091797,-0.3905509710311889
-0.1514319479465484,0.4484814405441284,0.1293159872293472,-0.630700409412384,-0.1615956574678421,0.1869153380393982,0.0,0.0,0.0548759698867797,-0.3527156114578247
-0.1499253213405609,0.4345002770423889,0.1413625627756118,-0.6204047799110413,-0.1523008942604065,0.1858952790498733,0.0,0.0,0.262200117111206,-0.5435901880264282
-0.148300364613533,0.4209084212779999,0.1520716547966003,-0.6030493378639221,-0.1419010609388351,0.2079967260360717,0.0,0.0,0.0770351886749267,-0.4251168966293335
-0.1464863717555999,0.4074674844741821,0.1706286072731018,-0.5963842868804932,-0.1311677992343902,0.2146650999784469,0.0,0.0,-0.3038698434829712,-0.1186919808387756
-0.1446249037981033,0.3935490846633911,0.1754071563482284,-0.6176896691322327,-0.120480790734291,0.2137401103973388,0.0,0.0,0.2287197113037109,-0.1196119785308837
-0.1427088677883148,0.3797239959239959,0.1810720711946487,-0.613631010055542,-0.1100250482559204,0.2091150283813476,0.0,0.0,0.1463692188262939,-0.3649383783340454
-0.1406209021806717,0.3663042187690735,0.1980492174625396,-0.5956763625144958,-0.0993524491786956,0.213451862335205,0.0,0.0,0.3232564926147461,-0.5397366285324097
-0.1385021209716797,0.353096604347229,0.200123980641365,-0.5862646698951721,-0.0877078771591186,0.2328917235136032,0.0,0.0,0.2386693954467773,-0.2477778196334839
-0.1363758146762848,0.3403151035308838,0.2013793736696243,-0.5674439072608948,-0.0765586644411087,0.222984105348587,0.0,0.0,0.3388639688491821,0.0021584033966064
-0.1340872794389724,0.3278939127922058,0.2173192501068115,-0.5515016913414001,-0.065151646733284,0.2281404733657837,0.0,0.0,-0.0811661481857299,-0.3721410632133484
-0.1317501962184906,0.3149953484535217,0.2222482413053512,-0.5728083252906799,-0.0538177601993083,0.2266776114702224,0.0,0.0,0.2536144256591797,-0.1044719219207763
-0.1293965280055999,0.3024753630161285,0.2242790460586547,-0.5560768842697144,-0.0428521186113357,0.219312697649002,0.0,0.0,0.5044066905975342,0.1053247451782226
-0.1269970834255218,0.2901589572429657,0.2290300875902176,-0.5471189618110657,-0.0320739857852458,0.2155629843473434,0.0,0.0,0.442226767539978,0.1307215690612793
-0.1246335953474044,0.2781568169593811,0.2259925901889801,-0.5332351922988892,-0.0218545030802488,0.2043897807598114,0.0,0.0,0.3850113153457641,0.3436222076416015
-0.1223377212882042,0.2663396596908569,0.2199256420135498,-0.5250998735427856,-0.0123109836131334,0.1908705085515976,0.0,0.0,0.4093415737152099,0.1310733556747436
-0.1198947876691818,0.254962146282196,0.2342998683452606,-0.5056093335151672,-0.0024469252675771,0.1972812116146087,0.0,0.0,0.6263208389282227,-0.4866746664047241
-0.1173414215445518,0.2436515241861343,0.2451629936695099,-0.5027081966400146,0.0075941043905913,0.200820654630661,0.0,0.0,0.4186025857925415,0.1558468341827392
-0.1146193519234657,0.2328470796346664,0.2615663409233093,-0.4802809357643127,0.0181039068847894,0.2101959884166717,0.0,0.0,0.3029737472534179,-0.5926113724708557
-0.1119258850812912,0.2224861681461334,0.2576654553413391,-0.4606660902500152,0.0296409055590629,0.2307399958372116,0.0,0.0,0.2745558023452759,-0.3946155309677124
-0.1090926155447959,0.212641179561615,0.2712471783161163,-0.4378365278244018,0.0415698029100894,0.2385778725147247,0.0,0.0,-0.1050955653190612,-0.5356162190437317
-0.106247141957283,0.2023167461156845,0.2716602385044098,-0.4592699110507965,0.054307036101818,0.2547449469566345,0.0,0.0,0.4413540363311767,-0.8455196022987366
-0.1034652739763259,0.192584827542305,0.2637445032596588,-0.4331143200397491,0.0685891658067703,0.2856426835060119,0.0,0.0,-0.0537033677101135,-0.0598996877670288
-0.1006341949105262,0.1823763400316238,0.2688122093677521,-0.4544258713722229,0.0827393010258674,0.2830027043819427,0.0,0.0,0.5112066268920898,0.2340242862701416
-0.0977150946855545,0.1723273545503616,0.2774219214916229,-0.4474872350692749,0.0970935523509979,0.2870849668979645,0.0,0.0,0.5939327478408813,0.5394022464752197
-0.0948884040117263,0.1626807004213333,0.269767701625824,-0.4296274781227112,0.1099032312631607,0.2561937570571899,0.0,0.0,0.7230530977249146,0.3936539888381958
-0.0922043770551681,0.1533351093530655,0.2562804818153381,-0.4162933528423309,0.1219476014375686,0.2408875226974487,0.0,0.0,-0.097532570362091,0.219226598739624
-0.0894712433218956,0.1435120701789856,0.2613666355609894,-0.4375991821289062,0.1338413506746292,0.2378750741481781,0.0,0.0,0.7613677978515625,0.3399519920349121
-0.0867372527718544,0.1340624690055847,0.2614837288856506,-0.4210941195487976,0.1457080543041229,0.237334057688713,0.0,0.0,0.6318420171737671,-0.3833035230636596
-0.0838782340288162,0.1246905401349067,0.2735842764377594,-0.4177812337875366,0.1580119282007217,0.2460774630308151,0.0,0.0,0.7994319200515747,0.195690631866455
-0.0809824913740158,0.1159695014357566,0.2769542336463928,-0.3889945447444916,0.170643076300621,0.2526231408119201,0.0,0.0,0.7055315971374512,0.4367175102233886
-0.0781536102294921,0.1080085635185241,0.2703420519828796,-0.3553136587142944,0.1832259744405746,0.2516579627990722,0.0,0.0,0.1892729997634887,0.0646075010299682
