x_pos,y_pos,x_vel,y_vel,angle,ang_vel,leg_1,leg_2,main_booster,lat_booster
-0.0015234947204589,1.4033243656158447,-0.1544632464647293,-0.3375974297523498,0.0018953137332573,0.0373966582119464,0.0,0.0,0.5377380693722082,0.6480358781710092
-0.0029426575638353,1.396092414855957,-0.1427399069070816,-0.321419894695282,0.0027059875428676,0.0162157714366912,0.0,0.0,-0.6887618546131633,-0.7308662386710081
-0.004403400234878,1.3885539770126345,-0.1481664478778839,-0.3350416719913482,0.0047628548927605,0.041141428053379,0.0,0.0,0.0940189120354109,-0.633020090671452
-0.0059998510405421,1.3812086582183838,-0.1629698127508163,-0.3264724016189575,0.0080588841810822,0.0659265667200088,0.0,0.0,0.6077873223384835,-0.8363751587408124
-0.0075213434174656,1.3745185136795044,-0.1575317531824112,-0.297373354434967,0.0133744059130549,0.1063202247023582,0.0,0.0,0.0994625988715931,0.6297847354298345
-0.0088879587128758,1.3680726289749146,-0.1410358846187591,-0.2865299582481384,0.0177112333476543,0.0867444425821304,0.0,0.0,0.0494306122292795,0.5323743831805399
-0.0102254869416356,1.3618775606155396,-0.1371543556451797,-0.2753849625587463,0.0210793521255254,0.0673683732748031,0.0,0.0,0.6437156622779521,0.9886291003533928
-0.0113195423036813,1.3563580513000488,-0.1111658215522766,-0.2453353852033615,0.0228249654173851,0.0349153578281402,0.0,0.0,0.1804025442239734,-0.7832130318687884
-0.0124855991452932,1.3514409065246582,-0.1200382858514785,-0.2185943871736526,0.0262207072228193,0.067920908331871,0.0,0.0,0.8979345164086434,-0.8481606703088393
-0.0137263294309377,1.347477674484253,-0.1293059289455413,-0.1762478649616241,0.031399730592966,0.1035896092653274,0.0,0.0,0.7998718304524404,0.9883604980047116
-0.0147875789552927,1.3441945314407349,-0.1096416264772415,-0.1459977179765701,0.0348878726363182,0.0697689428925514,0.0,0.0,0.6247834139333717,0.7065389878569364
-0.0157159809023141,1.341395378112793,-0.0952199697494506,-0.1244655549526214,0.0372416079044342,0.0470790043473243,0.0,0.0,-0.7297143562519492,-0.9315688252451848
-0.0166809074580669,1.338297724723816,-0.1004275232553482,-0.1377835869789123,0.0411402694880962,0.0779803022742271,0.0,0.0,0.3248998889410448,0.6451550533735885
-0.0175220482051372,1.3353275060653689,-0.0869715586304664,-0.1320858299732208,0.0439670272171497,0.0565401017665863,0.0,0.0,-0.4513828922327232,-0.6612727640645034
-0.0183778759092092,1.3320614099502563,-0.0895443707704544,-0.1452807486057281,0.0478880740702152,0.0784280821681022,0.0,0.0,0.3860729824113436,0.8290868988016332
-0.0190485008060932,1.328871488571167,-0.0695927590131759,-0.1418642401695251,0.0503827705979347,0.049898661673069,0.0,0.0,0.2457019072527,0.7608513788813271
-0.0195446014404296,1.3263696432113647,-0.0508332960307598,-0.1112332344055175,0.0515890233218669,0.0241272021085023,0.0,0.0,0.0823597606678536,0.6525315960647167
-0.019864272326231,1.3239418268203735,-0.0320826806128025,-0.1079104617238044,0.0517079569399356,0.0023791524581611,0.0,0.0,0.4087922342453898,0.9705509976826916
-0.0200135223567485,1.3222615718841553,-0.0132461283355951,-0.074621096253395,0.0500454418361187,-0.0332534126937389,0.0,0.0,-0.1079730958993354,-0.579745149672742
-0.020177936181426,1.3202767372131348,-0.0161422491073608,-0.0882052257657051,0.0497564375400543,-0.0057808924466371,0.0,0.0,0.0149134956566938,-0.9459197373930808
-0.0203069690614938,1.3186920881271362,-0.0145468991249799,-0.0704853162169456,0.0513740070164203,0.0323545224964618,0.0,0.0,0.6947500153928972,0.7916630568305034
-0.0203422550112009,1.3174883127212524,-0.0036545302718877,-0.0535054914653301,0.0514981634914875,0.0024834801442921,0.0,0.0,0.7696596795720865,-0.9479228144807968
-0.0202836990356445,1.3168625831604004,0.0035245311446487,-0.0278835669159889,0.0537984147667884,0.0460095070302486,0.0,0.0,-0.1389903658902522,0.9106288138296316
-0.0200987812131643,1.315933108329773,0.0181681104004383,-0.0413239933550357,0.0541203469038009,0.0064393766224384,0.0,0.0,0.9223446346274606,0.5520478267519457
-0.0200379379093647,1.315815806388855,0.0073440708220005,-0.0051669995300471,0.0528744459152221,-0.0249203238636255,0.0,0.0,-0.4548555772161222,0.9107172213432514
-0.0198715217411518,1.3153859376907349,0.0192643888294696,-0.0190154258161783,0.0502841472625732,-0.0518062300980091,0.0,0.0,0.5871944397969937,0.7141179534960798
-0.0196270942687988,1.3157105445861816,0.0284637361764907,0.0145550463348627,0.0463033281266689,-0.0796163603663444,0.0,0.0,-0.825790474588805,-0.5711409607300488
-0.0193829536437988,1.315737009048462,0.0270245019346475,,0.0437211468815803,-0.0516435578465461,0.0,0.0,-0.8061460257169732,-0.8921859140444391
-0.0191678050905466,1.315464973449707,0.0219352412968873,-0.012074296362698,0.0433071590960025,-0.0082797724753618,0.0,0.0,0.4081253781827914,0.6783356273316604
-0.0188774112612009,1.3155152797698977,0.0308590922504663,0.0022837745491415,0.0415108129382133,-0.0359269045293331,0.0,0.0,0.1894381780022125,-0.6700667585090265
-0.018588924780488,1.3161838054656982,0.0292976796627044,0.0297309663146734,0.0410624258220195,-0.0089677777141332,0.0,0.0,-0.0143821239471435,-0.2274724245071411
-0.0182370189577341,1.3165521621704102,0.0356596559286117,0.0163856241852045,0.0406018123030662,-0.0092123625800013,0.0,0.0,0.0336681604385376,-0.1071472764015197
-0.017891502007842,1.3173688650131226,0.0352805778384208,0.0363155342638492,0.0398823022842407,-0.0143903717398643,0.0,0.0,0.1305537223815918,-0.1010946035385131
-0.0175318717956542,1.3182525634765625,0.0369263067841529,0.0393005162477493,0.0389332622289657,-0.018981035798788,0.0,0.0,0.0120190382003784,-0.1541383862495422
-0.0171076767146587,1.319412350654602,0.0433683581650257,0.0515742637217044,0.0379945524036884,-0.0187743045389652,0.0,0.0,0.1395754814147949,-0.3110969066619873
-0.0166193004697561,1.3210546970367432,0.0497692339122295,0.073013812303543,0.0370699614286422,-0.018491618335247,0.0,0.0,0.2675905227661133,-0.4530300498008728
-0.0160907749086618,1.322919249534607,0.0539379231631755,0.0828937664628028,0.0360001325607299,-0.0213966090232133,0.0,0.0,-0.043426513671875,-0.2391877174377441
-0.0154871940612792,1.3244833946228027,0.0615063235163688,0.069548487663269,0.0348698794841766,-0.0226053558290004,0.0,0.0,0.0533186197280883,-0.30180823802948
-0.0148505214601755,1.3265514373779297,0.0649966672062873,0.0919392332434654,0.0335546545684337,-0.0263047162443399,0.0,0.0,0.1769413948059082,-0.7464143633842468
-0.0141860963776707,1.3289673328399658,0.0663299039006233,0.1073736771941185,0.0336700044572353,0.0023068117443472,0.0,0.0,-0.2466903328895568,0.7164466381072998
-0.0133950235322117,1.3310914039611816,0.0802658721804618,0.0944281667470932,0.0325261726975441,-0.0228768046945333,0.0,0.0,0.0164090394973754,-0.1053811311721801
-0.0124568939208984,1.3334016799926758,0.0947182923555374,0.1026992872357368,0.0316389836370945,-0.0177436284720897,0.0,0.0,-0.3552120923995971,-0.2745510339736938
-0.0114355087280273,1.3354116678237915,0.1031431704759597,0.0893541276454925,0.0306485909968614,-0.0198077075183391,0.0,0.0,0.055351972579956,0.2242693901062011
-0.0102764125913381,1.3376305103302002,0.1167301908135414,0.0986335426568985,0.0298397317528724,-0.0161772686988115,0.0,0.0,-0.283257246017456,0.2651405334472656
-0.0090312007814645,1.3395490646362305,0.1254562437534332,0.0852884203195571,0.0289104245603084,-0.0185862313956022,0.0,0.0,-0.0677496790885925,-0.3527063131332397
-0.0076987268403172,1.341167449951172,0.1343238651752472,0.0719432979822158,0.0278520863503217,-0.0211666412651538,0.0,0.0,0.0685216188430786,-0.0927758812904357
-0.0062460899353027,1.342920422554016,0.1462822407484054,0.0779289305210113,0.0268387030810117,-0.0202675983309745,0.0,0.0,-0.0821027755737304,0.4773114919662475
-0.0047037126496434,1.344373106956482,0.1554151773452758,0.06458380818367,0.0256793480366468,-0.0231870003044605,0.0,0.0,-0.1600533127784729,0.2427903413772583
-0.0030703544616699,1.3455253839492798,0.1646718978881836,0.0512386634945869,0.0243656989187002,-0.0262731723487377,0.0,0.0,-0.0497883558273315,0.3095813989639282
-0.0013448714744299,1.3463774919509888,0.1740466058254242,0.0378934852778911,0.022889519110322,-0.0295237116515636,0.0,0.0,0.1857088804244995,-0.1890168190002441
0.0005673408741131,1.34754741191864,0.1924067437648773,0.0520129837095737,0.0217189062386751,-0.0234123039990663,0.0,0.0,-0.0592458248138427,0.1971421241760254
0.0025736808311194,1.348417043685913,0.2020002901554107,0.03866783156991,0.0203697569668293,-0.0269832164049148,0.0,0.0,-0.2141613960266113,0.3830952644348144
0.0046751024201512,1.3489863872528076,0.2116948664188385,0.0253226328641176,0.0188342854380607,-0.0307094845920801,0.0,0.0,-0.134523868560791,0.345449686050415
0.0068723680451512,1.3492553234100342,0.22148497402668,0.0119773764163255,0.0171049199998378,-0.0345874242484569,0.0,0.0,-0.1021268963813781,0.4388685226440429
0.0091664316132664,1.349224090576172,0.231365293264389,-0.001367948600091,0.015174264088273,-0.0386131033301353,0.0,0.0,-0.1921629905700683,0.622260332107544
0.0115995407104492,1.348890781402588,0.2465312927961349,-0.0147839095443487,0.0119941551238298,-0.0636021643877029,0.0,0.0,-0.0972399115562439,-0.83973628282547
0.0140748023986816,1.3482640981674194,0.2495347708463668,-0.027842940762639,0.0100073767825961,-0.0397351905703544,0.0,0.0,-0.5572124719619751,0.8796347379684448
0.016734505072236,1.347342014312744,0.2703879773616791,-0.040957935154438,0.0056481743231415,-0.087184265255928,0.0,0.0,-0.7072334289550781,-0.1747563481330871
0.0194938667118549,1.346119999885559,0.2805776596069336,-0.0543047860264778,0.0010602923575788,-0.0917575433850288,0.0,0.0,-0.6296297311782837,-0.4848207831382751
0.0223532672971487,1.3445978164672852,0.2908322513103485,-0.0676518902182579,-0.0037625248078256,-0.0964560434222221,0.0,0.0,-0.8546627163887024,-0.6671677231788635
0.0252651218324899,1.3427703380584717,0.2950843274593353,-0.0812415108084678,-0.0076124654151499,-0.0769988596439361,0.0,0.0,-0.5624328851699829,0.889718770980835
0.0283370018005371,1.340646743774414,0.3128205239772796,-0.0944202616810798,-0.0131837110966444,-0.1114249676465988,0.0,0.0,-0.4650413393974304,-0.0196979045867919
0.0315103530883789,1.3382233381271362,0.3232418596744537,-0.10776849091053,-0.0190071798861026,-0.1164693981409072,0.0,0.0,-0.8419770002365112,-0.783118724822998
0.034726332873106,1.335502862930298,0.3262410461902618,-0.1209707707166671,-0.0235916431993246,-0.0916894376277923,0.0,0.0,-0.9200960993766784,-0.5034923553466797
0.0380053520202636,1.3324804306030271,0.3318120837211609,-0.1344064176082611,-0.027450606226921,-0.0771794319152832,0.0,0.0,-0.4238300919532776,0.3272426128387451
0.0413871780037879,1.3291577100753784,0.342359721660614,-0.1477536410093307,-0.0315768644213676,-0.0825251191854476,0.0,0.0,-0.8343772888183594,-0.8723148703575134
0.0448057167232036,1.3255484104156494,0.3446136713027954,-0.1604734510183334,-0.0343006215989589,-0.0544751994311809,0.0,0.0,-0.9154840707778932,0.8598895072937012
0.0484045967459678,1.3216251134872437,0.364897221326828,-0.1744982153177261,-0.0392453745007514,-0.09889517724514,0.0,0.0,-0.7245677709579468,-0.9658355116844176
0.0520343780517578,1.3174171447753906,0.3664091229438782,-0.1871105879545211,-0.0426336452364921,-0.0677655935287475,0.0,0.0,-0.8017250895500183,-0.8666601777076721
0.0556885711848735,1.312910556793213,0.3671132922172546,-0.2003431767225265,-0.0443128682672977,-0.0335845798254013,0.0,0.0,-0.8526263236999512,0.0004903078079223
0.0594466216862201,1.3081037998199463,0.3777858912944793,-0.2136898338794708,-0.0462796874344348,-0.0393361039459705,0.0,0.0,-0.9398936629295348,-0.9450342059135436
0.0632375702261924,1.3030037879943848,0.3795818388462066,-0.2266831845045089,-0.0467529632151126,-0.0094657922163605,0.0,0.0,-0.941904067993164,-0.1835968494415283
0.0671325698494911,1.2976038455963137,0.3902752697467804,-0.2400297224521637,-0.0475203841924667,-0.0153484772890806,0.0,0.0,-0.7462936043739319,-0.9127539396286012
0.0710681900382042,1.2919080257415771,0.3930245339870453,-0.2531243860721588,-0.0469904504716396,0.0105986734852194,0.0,0.0,-0.9456097483634948,-0.9475971460342408
0.0750284194946289,1.2859104871749878,0.3937738537788391,-0.2664884626865387,-0.0447707064449787,0.0443949103355407,0.0,0.0,-0.9112240672111512,-0.9348804950714112
0.0790266022086143,1.2796075344085691,0.39621102809906,-0.2800287902355194,-0.0412050746381282,0.0713126361370086,0.0,0.0,-0.0982409119606018,-0.9906550645828248
0.0830458626151084,1.2730000019073486,0.3965240120887756,-0.2935308814048767,-0.0358715765178203,0.1066699847579002,0.0,0.0,-0.9404746294021606,-0.9932868480682372
0.0870893448591232,1.266106128692627,0.3972228467464447,-0.3062416911125183,-0.0288407988846302,0.1406155526638031,0.0,0.0,-0.9749454855918884,-0.9681097865104676
0.0911699309945106,1.2589253187179563,0.3995627164840698,-0.319002240896225,-0.0204486697912216,0.1678427159786224,0.0,0.0,-0.8545308709144592,-0.9897350668907166
0.0952609032392501,1.2514585256576538,0.3985503613948822,-0.331753134727478,-0.0100318323820829,0.2083366215229034,0.0,0.0,-0.933895707130432,-0.9727581143379213
0.0993612259626388,1.2436845302581787,0.3974130749702453,-0.3454755842685699,0.0024217993486672,0.249072641134262,0.0,0.0,-0.7151910662651062,-0.9805961847305298
0.103491686284542,1.2356208562850952,0.3988983333110809,-0.3584595620632171,0.0163801424205303,0.2791670262813568,0.0,0.0,-0.8399308323860168,-0.9594857096672058
0.1076354011893272,1.2272577285766602,0.3983036577701568,-0.3719459474086761,0.0322517342865467,0.3174315690994262,0.0,0.0,-0.8407909870147705,-0.9683777093887328
0.1117971390485763,1.2185978889465332,0.3983013927936554,-0.3853563070297241,0.0499070957303047,0.3531073629856109,0.0,0.0,-0.8999705910682678,-0.7817281484603882
0.1159968376159668,1.2096413373947144,0.4008258879184723,-0.3988127112388611,0.0688297525048255,0.3784532248973846,0.0,0.0,-0.7182579636573792,-0.9433573484420776
0.1202331557869911,1.2003830671310425,0.4032243192195892,-0.4125459790229797,0.0890392810106277,0.4041904807090759,0.0,0.0,-0.4436243772506714,-0.924885392189026
0.1244997978210449,1.190811276435852,0.4048225283622741,-0.4268496334552765,0.1107020452618599,0.4332554340362549,0.0,0.0,-0.4676603674888611,-0.3386385440826416
0.1288652420043945,1.1809449195861816,0.4150898456573486,-0.4402311444282532,0.132044032216072,0.4268396496772766,0.0,0.0,-0.5770842432975769,-0.6549177169799805
0.133290097117424,1.170776128768921,0.420414537191391,-0.4540500044822693,0.154053583741188,0.4401909708976745,0.0,0.0,-0.4122403860092163,-0.7971940636634827
0.1377650201320648,1.1602957248687744,0.4245809614658355,-0.4683224856853485,0.1769709289073944,0.4583467543125152,0.0,0.0,-0.647422194480896,-0.5406659841537476
0.14229317009449,1.1495139598846436,0.4292305111885071,-0.4821704030036926,0.2006583511829376,0.4737483859062195,0.0,0.0,-0.5568209886550903,-0.5216866731643677
0.1468773782253265,1.138430953025818,0.4342994093894958,-0.4960373044013977,0.2250158488750457,0.4871498644351959,0.0,0.0,-0.0203351974487304,-0.3325663208961487
0.1515555381774902,1.1270540952682495,0.4441356658935547,-0.5094252824783325,0.2490520179271698,0.4807237982749939,0.0,0.0,-0.1301257014274597,-0.1614785194396972
0.1563263833522796,1.1153833866119385,0.4538606107234955,-0.5228111147880554,0.2727673947811126,0.4743075370788574,0.0,0.0,-0.0299487709999084,-0.3006881475448608
0.1611886024475097,1.1034185886383057,0.4634650349617004,-0.5361946821212769,0.2961626052856445,0.4679039418697357,0.0,0.0,0.1197705268859863,0.4420986175537109
0.1660250723361969,1.0920230150222778,0.4611039161682129,-0.511224627494812,0.3195036649703979,0.4668220579624176,0.0,0.0,0.5610549449920654,0.5179929733276367
0.1707975417375564,1.081106185913086,0.4562562108039856,-0.4899797737598419,0.3414084911346435,0.4380962252616882,0.0,0.0,0.4548796415328979,0.4060134887695312
0.1753194779157638,1.070828557014465,0.4321420788764953,-0.461678683757782,0.3624890744686126,0.4216119349002838,0.0,0.0,0.5808254480361938,0.6450858116149902
0.1798216849565506,1.0612688064575195,0.4316893219947815,-0.4296801686286926,0.382117748260498,0.3925732672214508,0.0,0.0,0.6270078420639038,0.6168011426925659
0.1841233223676681,1.0524394512176514,0.4133889079093933,-0.397016704082489,0.4000234603881836,0.3581148087978363,0.0,0.0,0.6291928291320801,-0.4370978474617004
0.1881446838378906,1.0442843437194824,0.3861212432384491,-0.3670548498630523,0.4172385632991791,0.344302237033844,0.0,0.0,0.583625316619873,0.8750667572021484
0.1920922249555587,1.0365079641342163,0.3808507323265075,-0.3497999310493469,0.4322947561740875,0.301124095916748,0.0,0.0,0.5014750957489014,0.1217148303985595
0.1957929581403732,1.0291099548339844,0.3570055365562439,-0.3328884541988373,0.4465504884719848,0.28511443734169,0.0,0.0,0.7226972579956055,0.1572879552841186
0.1991927176713943,1.0220494270324707,0.327930599451065,-0.3177052438259125,0.4597720801830292,0.2644321322441101,0.0,0.0,0.7403571605682373,0.8135010004043579
0.2024961411952972,1.0158345699310305,0.3200056850910187,-0.2796745300292969,0.471194863319397,0.2284557819366455,0.0,0.0,0.7872860431671143,0.5287704467773438
0.2057912796735763,1.0099245309829712,0.3203122615814209,-0.2658224701881408,0.481404960155487,0.2042021453380584,0.0,0.0,0.804358720779419,0.5995566844940186
0.2089600563049316,1.0049759149551392,0.3087419867515564,-0.2228000909090042,0.4904748201370239,0.181397408246994,0.0,0.0,0.915004014968872,0.4729589223861694
0.2117479294538498,1.0008975267410278,0.2710594534873962,-0.1840355992317199,0.4991215765476227,0.1729355156421661,0.0,0.0,0.7617611885070801,0.842212438583374
0.2143642455339431,0.9978939294815063,0.2555701434612274,-0.1357215195894241,0.5059617757797241,0.1368037313222885,0.0,0.0,0.953726291656494,0.1870955228805542
0.2167873382568359,0.9955536127090454,0.2361486703157425,-0.1063097640872001,0.5129234790802002,0.1392343789339065,0.0,0.0,0.9004130363464355,0.6865990161895752
0.2188425958156585,0.9941775798797609,0.200957179069519,-0.0628758817911148,0.5181079506874084,0.1036890596151351,0.0,0.0,0.9665405750274658,0.7904614210128784
0.2206059396266937,0.9938313961029052,0.1733646094799041,-0.0165170021355152,0.5214823484420776,0.0674885362386703,0.0,0.0,0.9906988143920898,0.8226248025894165
0.2222919464111328,0.9940251111984252,0.1672266572713852,0.0080791544169187,0.523047924041748,0.0313113331794738,0.0,0.0,0.9882453680038452,0.9125083684921264
0.2235727310180664,0.9948170185089112,0.1288960874080658,0.0355171076953411,0.5221038460731506,-0.0188820827752351,0.0,0.0,0.9866501092910768,0.972797989845276
0.2245046645402908,0.9960386753082277,0.096318669617176,0.0554934628307819,0.5185457468032837,-0.0711623579263687,0.0,0.0,0.9373835325241088,0.9708346128463744
0.2251873016357422,0.997855007648468,0.0734959244728088,0.0826958268880844,0.5126106142997742,-0.1187030225992202,0.0,0.0,0.6328704357147217,0.9509937763214112
0.2257338464260101,1.0001332759857178,0.0618994943797588,0.1039482802152633,0.5044235587120056,-0.1637427657842636,0.0,0.0,-0.8398422598838806,-0.6501747965812683
0.2262749671936035,1.002076268196106,0.0606639459729194,0.0887461230158805,0.4970490634441376,-0.1474901735782623,0.0,0.0,-0.6064733862876892,0.8034183979034424
0.2269015312194824,1.0037733316421509,0.0712344199419021,0.0784985721111297,0.48743337392807,-0.1923140734434127,0.0,0.0,-0.8290610909461975,0.4687719345092773
0.2275455445051193,1.0051695108413696,0.0732642114162445,0.0651567354798317,0.4775538742542267,-0.1975899636745453,0.0,0.0,-0.9148855209350586,0.1759198904037475
0.2282020598649978,1.0062651634216309,0.0747860446572303,0.0518141388893127,0.4674147367477417,-0.2027823626995086,0.0,0.0,-0.9199986457824708,-0.2957485318183899
0.2288657128810882,1.007060170173645,0.0757894963026046,0.0384707450866699,0.4570203721523285,-0.2078871428966522,0.0,0.0,-0.7212599515914917,-0.8530676960945129
