x_pos,y_pos,x_vel,y_vel,angle,ang_vel,leg_1,leg_2,main_booster,lat_booster
-0.0016061782371252,1.4030390977859497,-0.1633245944976806,-0.3502689898014068,0.0024265684187412,0.0479155108332634,0.0,0.0,0.5130674543585461,0.7642287313993205
-0.0031821250449866,1.3952263593673706,-0.1591427624225616,-0.3472419679164886,0.0039537390694022,0.0305469892919063,0.0,0.0,-0.8555737639808796,-0.732723279998271
-0.0048827170394361,1.386821746826172,-0.1732933521270752,-0.3735411465167999,0.0071547836996614,0.0640269443392753,0.0,0.0,-0.4879794424731292,0.6749261554189497
-0.0066186906769871,1.3778305053710938,-0.1762707382440567,-0.3996338546276092,0.0098003186285495,0.0529157221317291,0.0,0.0,0.0174781429537314,0.8810142218186037
-0.0082710264250636,1.368861198425293,-0.1666566431522369,-0.398639976978302,0.0111983465030789,0.0279631353914737,0.0,0.0,0.2038652530776794,0.9765797190096714
-0.0098075866699218,1.359902024269104,-0.1536110490560531,-0.3981857001781463,0.0111584905534982,-0.0007971672457642,0.0,0.0,-0.0019275406717995,0.6024086806496939
-0.0113701820373535,1.350358247756958,-0.1554890125989914,-0.4241645634174347,0.0103936940431594,-0.0152973234653472,0.0,0.0,0.6359586720674417,0.7324518185554529
-0.0127889635041356,1.341195583343506,-0.1403798162937164,-0.4072193503379822,0.00891241338104,-0.0296284202486276,0.0,0.0,-0.2377582357649206,0.9406861391619652
-0.0142020229250192,1.3314586877822876,-0.138324037194252,-0.4327376186847687,0.005956370383501,-0.0591263957321643,0.0,0.0,0.0120277443526808,-0.6806144268498373
-0.0157362930476665,1.321807622909546,-0.1521099358797073,-0.4289281964302063,0.0046623302623629,-0.0258830096572637,0.0,0.0,-0.4233277150299552,-0.6313011583245276
-0.0173746105283498,1.3115713596343994,-0.1638851165771484,-0.4549489915370941,0.0047137355431914,0.0010281144641339,0.0,0.0,0.90442601284308,0.635630918274104
-0.0189369209110736,1.3016626834869385,-0.155480608344078,-0.4403828680515289,0.0039768288843333,-0.0147395012900233,0.0,0.0,0.9276485514615368,0.8369090289059525
-0.0203255657106637,1.2923983335494995,-0.1370012611150741,-0.4117455780506134,0.0021334229968488,-0.0368716716766357,0.0,0.0,0.538937017513583,0.9867332993572596
-0.0216160770505666,1.2830359935760498,-0.1254326403141021,-0.4161010980606079,-0.0014368329429998,-0.0714119151234626,0.0,0.0,0.5332292485930774,-0.7148249492480747
-0.0228664390742778,1.2742431163787842,-0.1232513934373855,-0.3907939195632934,-0.0031961742788553,-0.0351899452507495,0.0,0.0,0.1773269221704776,-0.6132521478356957
-0.0241228099912405,1.2651751041412354,-0.1253005117177963,-0.4030236005783081,-0.0035298990551382,-0.0066750608384609,0.0,0.0,-0.7014903267403383,-0.8214490609118933
-0.0254708286374807,1.2555315494537354,-0.1357550621032714,-0.4286001324653625,-0.0025857179425656,0.0188854187726974,0.0,0.0,0.0751490026459444,0.64542258306594
-0.0267003066837787,1.2456623315811155,-0.1227186918258667,-0.4386352300643921,-0.0028139264322817,-0.0045644580386579,0.0,0.0,0.8210981239766808,0.6145106701739822
-0.0277976989746093,1.2365399599075315,-0.108518436551094,-0.4054425656795501,-0.004022863227874,-0.0241809450089931,0.0,0.0,0.1847473973725841,-0.8606935762263953
-0.0290582664310932,1.2274410724639893,-0.12641341984272,-0.4043909311294555,-0.0036720803473144,0.0070162401534616,0.0,0.0,0.6667787449609319,0.6695275036735808
-0.0301489830017089,1.2188986539840698,-0.1082517132163047,-0.3796722292900085,-0.0044829323887825,-0.0162184946238994,0.0,0.0,-0.7641803045642135,-0.9749204294478956
-0.0313368812203407,1.2097654342651367,-0.1197001114487648,-0.4059149026870727,-0.0035846813116222,0.01796655356884,0.0,0.0,-0.5085165851014537,0.6420672543972697
-0.032480526715517,1.200045824050903,-0.1134671419858932,-0.4319878220558166,-0.0044688652269542,-0.0176852755248546,0.0,0.0,0.4859488569949317,-0.7091594638048444
-0.0336227416992187,1.190153956413269,-0.1146138906478881,-0.4396391808986664,-0.0040832385420799,0.0077133169397711,0.0,0.0,0.4817457846044977,0.7231498742078375
-0.0348551757633686,1.1805447340011597,-0.1216108575463295,-0.4270733892917633,-0.0056943804956972,-0.0322258099913597,0.0,0.0,0.2418719874274175,0.7478199212584353
-0.0361538901925087,1.1711273193359375,-0.1262362152338028,-0.418571263551712,-0.0092807188630104,-0.0717268884181976,0.0,0.0,0.7577247801133282,-0.7651833403463004
-0.0375018119812011,1.1622893810272217,-0.1323294937610626,-0.3928098976612091,-0.0117129273712635,-0.0486440882086753,0.0,0.0,0.2391114154517579,0.6829537153104013
-0.038894273340702,1.1538028717041016,-0.1348289251327514,-0.3772189319133758,-0.0160711649805307,-0.0871648266911506,0.0,0.0,0.3748775376263504,0.6998775276448398
-0.0403334610164165,1.1457058191299438,-0.1374450922012329,-0.359960526227951,-0.0224623847752809,-0.1278243958950042,0.0,0.0,-0.382387492281723,-0.8458903924858019
-0.0418298728764057,1.137022852897644,-0.1444558650255203,-0.3859932124614715,-0.0275830775499343,-0.1024136543273925,0.0,0.0,0.2042599876148674,-0.6774950264900687
-0.0433313362300396,1.1286897659301758,-0.1458426862955093,-0.370452344417572,-0.0318325236439704,-0.0849891155958175,0.0,0.0,-0.1365895030700865,-0.8959971090630308
-0.0448929779231548,1.1197699308395386,-0.1533672958612442,-0.3964913487434387,-0.0345945730805397,-0.0552411563694477,0.0,0.0,-0.7712919415594635,-0.9731436868169256
-0.0465182289481163,1.110278844833374,-0.1613963097333908,-0.4218512177467346,-0.0357035584747791,-0.0221796408295631,0.0,0.0,0.6645974955975418,-0.8439122595143981
-0.0482412353157997,1.1007472276687622,-0.1721737831830978,-0.4236335754394531,-0.0358266457915306,-0.0024619528558105,0.0,0.0,0.2193896610542767,0.776358169722221
-0.0498415939509868,1.0913220643997192,-0.1577578485012054,-0.4189542829990387,-0.038074217736721,-0.0449514798820018,0.0,0.0,0.748224483727254,-0.8022380502771459
-0.0514192581176757,1.082519769668579,-0.1565228402614593,-0.3912403285503387,-0.0392988137900829,-0.0244921259582042,0.0,0.0,-0.4109988052707527,0.8566164781812388
-0.0528945922851562,1.0731245279312134,-0.1440018117427826,-0.4176672697067261,-0.0427872091531753,-0.0697677284479141,0.0,0.0,-0.3735136539465984,0.654343205990354
-0.0542739853262901,1.0631459951400757,-0.1323518455028534,-0.443660706281662,-0.0483098700642585,-0.110453113913536,0.0,0.0,-0.345492464498649,-0.9185721616677478
-0.0556866638362407,1.052598476409912,-0.1369761526584625,-0.4689170718193054,-0.0525509603321552,-0.0848215371370315,0.0,0.0,-0.2887836474450815,-0.9965971193318356
-0.0571277625858783,1.0414737462997437,-0.1410420536994934,-0.4945519864559173,-0.0555842518806457,-0.0606656856834888,0.0,0.0,0.8301827122024712,-0.8076860703532988
-0.0586645118892192,1.031078577041626,-0.1512742340564727,-0.4620902836322784,-0.0579677745699882,-0.0476706773042678,0.0,0.0,-0.8992552757263184,-0.8461538553237915
-0.0602027885615825,1.020101547241211,-0.1520495116710662,-0.4879380464553833,-0.0597225800156593,-0.0350960567593574,0.0,0.0,-0.986289381980896,-0.2702263593673706
-0.0616868026554584,1.008539795875549,-0.1458947956562042,-0.513958752155304,-0.0621992759406566,-0.0495338067412376,0.0,0.0,-0.9949301481246948,0.3963133096694946
-0.0631142631173133,0.9963933229446412,-0.139500543475151,-0.5399799942970276,-0.0654090717434883,-0.0641960650682449,0.0,0.0,-0.9615526795387268,-0.2079801559448242
-0.064483068883419,0.9836623072624208,-0.1328807771205902,-0.5660017728805542,-0.0693623349070549,-0.0790657550096511,0.0,0.0,-0.9950710535049438,-0.6265082359313965
-0.0658371001482009,0.9703452587127686,-0.1318109333515167,-0.5920420289039612,-0.0729180723428726,-0.0711144208908081,0.0,0.0,-0.9990763068199158,-0.8661041855812073
-0.0671901702880859,0.9564456939697266,-0.1325113475322723,-0.6178992986679077,-0.0756869986653328,-0.0553787425160408,0.0,0.0,0.0630261898040771,-0.2351146340370178
-0.0685104355216026,0.9427723288536072,-0.1281089335680008,-0.6079117059707642,-0.0795606076717376,-0.0774719640612602,0.0,0.0,-0.9755538702011108,-0.2894644737243652
-0.0697645172476768,0.9285145401954652,-0.1207171902060508,-0.6339349150657654,-0.0842117741703987,-0.09302319586277,0.0,0.0,-0.860609233379364,-0.9139389991760254
-0.0710257515311241,0.9136794209480286,-0.1225378289818763,-0.6595491170883179,-0.0877634733915329,-0.0710340291261673,0.0,0.0,-0.9707241654396056,-0.8861004114151001
-0.0722710639238357,0.8982666730880737,-0.1215090751647949,-0.685191810131073,-0.0907611027359962,-0.0599522814154624,0.0,0.0,-0.5375440716743469,-0.7474753260612488
-0.0735101699829101,0.8822832703590393,-0.1217284351587295,-0.7105034589767456,-0.0929217785596847,-0.043213628232479,0.0,0.0,-0.0689349770545959,-0.829984724521637
-0.0747312530875206,0.8657185435295105,-0.1204919070005416,-0.7363142371177673,-0.0945321843028068,-0.0322078391909599,0.0,0.0,-0.0284486413002014,-0.7046170234680176
-0.075934313237667,0.8485836982727051,-0.119275614619255,-0.7616121172904968,-0.0955503582954406,-0.0203637741506099,0.0,0.0,0.4533324241638183,-0.8679079413414001
-0.0769435912370681,0.8314903974533081,-0.1010047644376754,-0.7596995234489441,-0.0954729542136192,0.0015482946764677,0.0,0.0,0.1224452257156372,-0.5908131003379822
-0.0779659301042556,0.8143050670623779,-0.1025709360837936,-0.7637694478034973,-0.0951478481292724,0.0065020518377423,0.0,0.0,-0.5974459052085876,-0.2566174864768982
-0.0789123550057411,0.7965354323387146,-0.0941496342420578,-0.7897929549217224,-0.0956420451402664,-0.0098838927224278,0.0,0.0,0.8531780242919922,-0.0792068243026733
-0.0795557051897049,0.7792888879776001,-0.0637240335345268,-0.7665521502494812,-0.0962429717183113,-0.0120183397084474,0.0,0.0,0.3809250593185425,-0.6855325698852539
-0.0800397843122482,0.7624903917312622,-0.0484789423644542,-0.7465966939926147,-0.0961815044283866,0.0012294354382902,0.0,0.0,-0.1916360855102539,-0.5464746952056885
-0.0804938301444053,0.7451192736625671,-0.0458621606230735,-0.7720178961753845,-0.0957198590040206,0.0092326430603861,0.0,0.0,0.5138769149780273,-0.2525187730789184
-0.0807896628975868,0.7276638746261597,-0.0294266529381275,-0.7758083343505859,-0.0958723202347755,-0.0030491836369037,0.0,0.0,-0.0745156407356262,-0.689554750919342
-0.0810688957571983,0.7096366882324219,-0.0285500045865774,-0.8011637926101685,-0.095253437757492,0.012377580627799,0.0,0.0,0.651301383972168,-0.1937962174415588
-0.0810958892107009,0.691779613494873,-0.0030563201289623,-0.7936288714408875,-0.0948987603187561,0.0070934542454779,0.0,0.0,0.8451824188232422,-0.7842645049095154
-0.0810103416442871,0.6743661761283875,0.0074032768607139,-0.7738543748855591,-0.0937569737434387,0.0228359289467334,0.0,0.0,-0.4163906574249267,-0.0023181438446044
-0.0808436423540115,0.6563684344291687,0.0163656007498502,-0.799877941608429,-0.0934535861015319,0.0060679325833916,0.0,0.0,-0.2082963585853576,-0.812630295753479
-0.0806724578142166,0.6377977132797241,0.0156874693930149,-0.8252758383750916,-0.0920371413230896,0.0283288918435573,0.0,0.0,0.5170059204101562,-0.3575148582458496
-0.0803275108337402,0.6198137402534485,0.0338250920176506,-0.7992490530014038,-0.0913703143596649,0.0133365271613001,0.0,0.0,0.6028405427932739,-0.7930790781974792
-0.0798496231436729,0.6016562581062317,0.0462178364396095,-0.8069039583206177,-0.0898147299885749,0.0311117358505725,0.0,0.0,0.3970775604248047,-0.5742492079734802
-0.0792445167899131,0.5840023159980774,0.0585835389792919,-0.7845059633255005,-0.0879006087779998,0.0382824651896953,0.0,0.0,0.0465190410614013,-0.6362022757530212
-0.0786477103829383,0.5662247538566589,0.0573915727436542,-0.7899801135063171,-0.0856399983167648,0.0452122129499912,0.0,0.0,0.5381629467010498,-0.517952024936676
-0.0780462250113487,0.5488241910934448,0.0579208731651306,-0.7732318639755249,-0.083427794277668,0.0442437715828418,0.0,0.0,-0.3059995174407959,-0.5162493586540222
-0.0774001106619834,0.5308451056480408,0.062241893261671,-0.7989418506622314,-0.0810823068022728,0.0469100475311279,0.0,0.0,0.8042117357254028,-0.1017477512359619
-0.0767362564802169,0.5136775374412537,0.0655250251293182,-0.7629583477973938,-0.0802303999662399,0.0170381609350442,0.0,0.0,0.468034029006958,-0.788786768913269
-0.0759374648332595,0.496691346168518,0.0781707987189292,-0.7548479437828064,-0.078539490699768,0.0338182747364044,0.0,0.0,0.5246517658233643,-0.8954652547836304
-0.0751329436898231,0.4796660244464874,0.0778375416994094,-0.756547749042511,-0.0759530067443847,0.0517296083271503,0.0,0.0,0.867286205291748,-0.8871656656265259
-0.0742030143737793,0.4625947475433349,0.089279904961586,-0.758539080619812,-0.0722874477505683,0.0733113139867782,0.0,0.0,0.5282547473907471,-0.8685089945793152
-0.0732688903808593,0.445411205291748,0.0888604074716568,-0.7634978890419006,-0.0677794590592384,0.0901599079370498,0.0,0.0,0.9031176567077636,-0.6463589072227478
-0.072250559926033,0.4290229082107544,0.096847154200077,-0.7281541228294373,-0.0628491714596748,0.098605528473854,0.0,0.0,0.6949148178100586,-0.6310973167419434
-0.071057416498661,0.4133057594299316,0.1136886328458786,-0.698315441608429,-0.0572863183915615,0.1112571582198143,0.0,0.0,0.5809946060180664,-0.8277990818023682
-0.0699208229780197,0.3981997668743133,0.1074009910225868,-0.6711499691009521,-0.051100417971611,0.123718038201332,0.0,0.0,0.2452180385589599,-0.2632429599761963
-0.0687859505414962,0.3828907907009125,0.1085304245352745,-0.680235743522644,-0.0462002009153366,0.0980041474103927,0.0,0.0,0.5940775871276855,-0.6149681210517883
-0.0675394088029861,0.368146151304245,0.1192026734352111,-0.6551593542098999,-0.0408101752400398,0.1078004613518714,0.0,0.0,0.6875410079956055,-0.7279402613639832
-0.0663569420576095,0.353708416223526,0.1123995184898376,-0.641529381275177,-0.0350376404821872,0.1154508590698242,0.0,0.0,0.7999237775802612,-0.7089949250221252
-0.0651871711015701,0.3398025035858154,0.1106930971145629,-0.6179071664810181,-0.0288304463028907,0.124143898487091,0.0,0.0,0.4650939702987671,-0.40506112575531
-0.0639281272888183,0.3262421786785126,0.1205021739006042,-0.6025867462158203,-0.0234977547079324,0.1066540852189064,0.0,0.0,0.6599044799804688,0.000982642173767
-0.0624861717224121,0.3129705190658569,0.1392199099063873,-0.5897799730300903,-0.0185822825878858,0.0983093082904815,0.0,0.0,0.4165921211242676,-0.645729660987854
-0.060986328870058,0.2995487451553345,0.1444915980100631,-0.5964672565460205,-0.0131589109078049,0.1084674447774887,0.0,0.0,0.6257317066192627,-0.3882900476455688
-0.0593091025948524,0.2861344814300537,0.1626253426074981,-0.596152126789093,-0.0081291077658534,0.1005962863564491,0.0,0.0,0.827918291091919,-0.7708820700645447
-0.0574296005070209,0.273081511259079,0.1817355751991272,-0.5801147222518921,-0.0020000296644866,0.1225814223289489,0.0,0.0,0.8225071430206299,-0.5310336947441101
-0.0553478226065635,0.2600918114185333,0.2012408077716827,-0.5773259997367859,0.0048438808880746,0.1368780732154846,0.0,0.0,0.8429065942764282,-0.7696284651756287
-0.0532586090266704,0.2477795481681823,0.2012763768434524,-0.5472574234008789,0.0123995477333664,0.1511133164167404,0.0,0.0,0.7606973648071289,-0.6709781885147095
-0.0511178970336914,0.2360997796058654,0.2057929337024688,-0.5191894173622131,0.0205742325633764,0.1634939014911651,0.0,0.0,0.5126074552536011,-0.8280952572822571
-0.0488493926823139,0.2247564643621444,0.2175126075744629,-0.504305899143219,0.029788477346301,0.1842847168445587,0.0,0.0,0.578899621963501,-0.8108808994293213
-0.0464694984257221,0.2132896333932876,0.2276487052440643,-0.5098689794540405,0.0400037951767444,0.2043064087629318,0.0,0.0,0.6918132305145264,-0.6466336250305176
-0.0441428199410438,0.202011689543724,0.2219621837139129,-0.5015602707862854,0.0505864806473255,0.2116535902023315,0.0,0.0,0.7799466848373413,-0.8617683053016663
-0.041754625737667,0.1915547251701355,0.2269812524318695,-0.4651914536952972,0.0622863881289958,0.2339982986450195,0.0,0.0,0.4949128627777099,-0.8221756219863892
-0.0394115447998046,0.1812762171030044,0.2216417044401168,-0.4573988616466522,0.0748189985752105,0.2506523430347442,0.0,0.0,0.576467752456665,-0.6022162437438965
-0.0372264869511127,0.1715347915887832,0.2057090699672699,-0.4336403608322143,0.0874853283166885,0.2533266246318817,0.0,0.0,0.356452465057373,-0.459428071975708
-0.0349466316401958,0.1620745956897735,0.2156462222337722,-0.4212174117565155,0.0997273102402687,0.2448398172855377,0.0,0.0,0.4989615678787231,-0.3996877074241638
-0.0327097885310649,0.1530386954545974,0.2123242318630218,-0.4023924171924591,0.1109977886080741,0.2254096716642379,0.0,0.0,-0.4233565926551819,-0.5802204608917236
-0.0304532051086425,0.1434134989976883,0.2137392461299896,-0.4287130236625671,0.1228450611233711,0.236945241689682,0.0,0.0,0.5666859149932861,-0.6647557616233826
-0.0282609947025775,0.1338900923728943,0.2067714631557464,-0.4243329465389251,0.1352371126413345,0.247841402888298,0.0,0.0,0.616086483001709,-0.4766285419464111
-0.0261911395937204,0.124633252620697,0.1958054900169372,-0.4124713242053985,0.1463820189237594,0.222898319363594,0.0,0.0,0.4443845748901367,-0.4224849343299866
-0.0242492668330669,0.1154416427016258,0.1843476295471191,-0.4095093309879303,0.1562094688415527,0.1965486258268356,0.0,0.0,0.6857917308807373,-0.5769169926643372
-0.0222842209041118,0.1067710220813751,0.1859223991632461,-0.3865078687667846,0.1667883247137069,0.2115769386291504,0.0,0.0,0.7678792476654053,-0.4273051023483276
-0.0202532764524221,0.0981152132153511,0.1929152458906173,-0.3858753740787506,0.1769842803478241,0.2039195299148559,0.0,0.0,0.5093041658401489,-0.4251978397369385
-0.0181490890681743,0.0899379849433898,0.2003239095211029,-0.3646696209907532,0.1871187835931778,0.2026900798082351,0.0,0.0,0.5596083402633667,-0.6988112330436707
-0.0161952022463083,0.0822385400533676,0.1846333742141723,-0.3435941636562347,0.1979434341192245,0.216493085026741,0.0,0.0,0.3662974834442138,-0.5087114572525024
-0.0142323495820164,0.0750244706869125,0.1848750859498977,-0.3221921622753143,0.2094412893056869,0.2299575358629226,0.0,0.0,0.3269311189651489,-0.4308300018310547
-0.012244701385498,0.067927062511444,0.1877291649580001,-0.3170424997806549,0.2205884903669357,0.2229441702365875,0.0,0.0,0.463670015335083,-0.1927966475486755
-0.0103612896054983,0.0613006465137004,0.1779767423868179,-0.296092689037323,0.2310868352651596,0.2099669426679611,0.0,0.0,0.3801449537277221,-0.0487345457077026
-0.0085203172639012,0.0550664030015468,0.1741210371255874,-0.2786741554737091,0.2412157952785492,0.2025789469480514,0.0,0.0,0.3976876735687256,-0.3402605652809143
-0.0066482545807957,0.0488356687128543,0.1775124818086624,-0.2785433232784271,0.2510724663734436,0.1971333622932434,0.0,0.0,0.5274839401245117,0.1242603063583374
-0.0049717901274561,0.0428071357309818,0.1590511798858642,-0.2694255709648132,0.2598353028297424,0.1752568036317825,0.0,0.0,0.7924418449401855,-0.3444271087646484
-0.0035189627669751,0.0369481891393661,0.1378846019506454,-0.2617279887199402,0.2674007415771484,0.1513093709945678,0.0,0.0,0.8971889019012451,0.5250915288925171
-0.0021695136092603,0.0314447991549968,0.1291982382535934,-0.2456571012735366,0.2732917070388794,0.1178187727928161,0.0,0.0,0.9893953800201416,0.172940969467163
-0.0009119033929891,0.0262950286269187,0.1203858852386474,-0.2298948317766189,0.2788111865520477,0.1103895679116249,0.0,1.0,0.993274450302124,0.9873435497283936
0.0004421234189067,0.0222620591521263,0.1474129259586334,-0.1776847690343856,0.2647640705108642,-0.2834591865539551,0.0,1.0,0.99538254737854,-0.0364105701446533
0.0015626907115802,0.0196292027831077,0.1431712061166763,-0.111748494207859,0.232940673828125,-0.6366246342658997,0.0,1.0,0.8872052431106567,-0.7222105860710144
0.0023788451217114,0.0181882474571466,0.1216722577810287,-0.0582429431378841,0.1923676133155822,-0.811601996421814,0.0,1.0,0.539086103439331,-0.8663269281387329
0.0031311034690588,0.0166731923818588,0.1153998151421547,-0.0626481622457504,0.152018129825592,-0.8071081042289734,0.0,1.0,0.3921554088592529,-0.8835633397102356
