x_pos,y_pos,x_vel,y_vel,angle,ang_vel,leg_1,leg_2,main_booster,lat_booster
-0.0015195846790447,1.4035028219223022,-0.1534003019332885,-0.329657107591629,0.0012854149099439,0.0253206584602594,0.0,0.0,-0.3681353330612182,0.5877349376678467
-0.002985858824104,1.395984411239624,-0.1461212635040283,-0.3341578841209411,0.000792512379121,-0.0098583158105611,0.0,0.0,-0.1180402040481567,0.0809292793273925
-0.0044491766020655,1.3883435726165771,-0.1453476995229721,-0.3395879864692688,-0.000182558374945,-0.01950329169631,0.0,0.0,0.4016293287277221,0.452131986618042
-0.0060114860534667,1.3812168836593628,-0.1542539894580841,-0.3167382180690765,-0.0021244892850518,-0.038842286914587,0.0,0.0,-0.4401838779449463,-0.1022950410842895
-0.0075722695328295,1.3739686012268066,-0.1536231487989425,-0.3221502304077148,-0.0045471745543181,-0.0484583750367164,0.0,0.0,-0.432956337928772,-0.7586678862571716
-0.0091785434633493,1.366598129272461,-0.1588609665632248,-0.327585756778717,-0.0062902108766138,-0.0348642207682132,0.0,0.0,-0.0805889964103698,0.0459038019180297
-0.0107851028442382,1.3591060638427734,-0.1584049314260482,-0.3329925835132599,-0.008513175882399,-0.0444635711610317,0.0,0.0,-0.606719970703125,0.8083555698394775
-0.0123134609311819,1.3514938354492188,-0.1480831801891327,-0.3383517265319824,-0.0132107222452759,-0.0939597338438034,0.0,0.0,-0.5721597075462341,0.2709676027297973
-0.0138440132141113,1.3437604904174805,-0.1478178650140762,-0.3437601923942566,-0.0183835607022047,-0.1034662276506424,0.0,0.0,0.0003373622894287,0.3344849348068237
-0.0153700830414891,1.336565613746643,-0.1468979269266128,-0.3198525309562683,-0.0240333974361419,-0.113007090985775,0.0,0.0,-0.2678229808807373,0.3756650686264038
-0.0169005393981933,1.3292497396469116,-0.1468564569950103,-0.325267881155014,-0.0301553737372159,-0.1224508062005043,0.0,0.0,-0.3975877165794372,0.0884113311767578
-0.0184365268796682,1.3218127489089966,-0.1469358503818512,-0.3306765854358673,-0.0367471687495708,-0.1318477392196655,0.0,0.0,-0.5699306726455688,0.2709351778030395
-0.0199792869389057,1.3142552375793457,-0.1471425592899322,-0.3360873162746429,-0.0438060835003852,-0.1411915123462677,0.0,0.0,-0.5811210870742798,0.2472450733184814
-0.0215301513671875,1.30657696723938,-0.1474825292825698,-0.3414994478225708,-0.0513292662799358,-0.1504773050546646,0.0,0.0,-0.422020673751831,0.6231956481933594
-0.0230296142399311,1.298779845237732,-0.1403388530015945,-0.3468872010707855,-0.0608386695384979,-0.1902054250240326,0.0,0.0,-0.4968158006668091,0.0043299198150634
-0.0245397575199604,1.290862798690796,-0.1409580260515213,-0.3523038625717163,-0.0708048343658447,-0.1993411481380462,0.0,0.0,-0.7729743123054504,0.1862615346908569
-0.0260621067136526,1.282825946807861,-0.1417277604341507,-0.3577218353748321,-0.0812249630689621,-0.2084212005138397,0.0,0.0,-0.8461555242538452,-0.1954880952835083
-0.0275980941951274,1.2746694087982178,-0.1426531970500946,-0.3631409406661987,-0.0920947790145874,-0.2174160480499267,0.0,0.0,-0.8641884922981262,0.1825640201568603
-0.0291494373232126,1.2663933038711548,-0.1437389850616455,-0.3685615658760071,-0.1034100502729415,-0.2263258248567581,0.0,0.0,-0.7809835076332092,-0.4405718445777893
-0.0307174678891897,1.257997989654541,-0.1449900269508361,-0.3739838302135467,-0.1151662543416023,-0.2351449728012085,0.0,0.0,-0.3751329183578491,-0.3905471563339233
-0.0323040001094341,1.249483585357666,-0.1464107781648636,-0.3794078230857849,-0.1273585706949234,-0.2438682615756988,0.0,0.0,-0.871013343334198,0.111893892288208
-0.0339105613529682,1.2408502101898191,-0.1480053961277008,-0.3848335444927215,-0.1399819105863571,-0.2524892389774322,0.0,0.0,-0.7554623484611511,-0.4725483655929565
-0.0355388633906841,1.23209810256958,-0.1497777253389358,-0.390261173248291,-0.1530308872461319,-0.2610027194023132,0.0,0.0,-0.8647012710571289,-0.7927495241165161
-0.037246324121952,1.223231077194214,-0.1586944162845611,-0.39537113904953,-0.1651030778884887,-0.2414653599262237,0.0,0.0,-0.6647677421569824,-0.3485540151596069
-0.0389791503548622,1.214245319366455,-0.1608361154794693,-0.4007991850376129,-0.1775901913642883,-0.2497642040252685,0.0,0.0,-0.8873293995857239,-0.7282508611679077
-0.0408116355538368,1.205142378807068,-0.1722131669521331,-0.405940979719162,-0.1886703670024871,-0.2216033488512039,0.0,0.0,-0.9166668057441713,-0.6498911380767822
-0.0427230820059776,1.1959384679794312,-0.1810148954391479,-0.4103832840919494,-0.1988556087017059,-0.2037048637866974,0.0,0.0,-0.880530059337616,-0.5732391476631165
-0.0447190292179584,1.1866374015808103,-0.1904735267162323,-0.4146313667297363,-0.2080325186252594,-0.1835383027791977,0.0,0.0,-0.7096816301345825,-0.5747377872467041
-0.0468011870980262,1.177238702774048,-0.2001416236162185,-0.4188871383666992,-0.2161904722452163,-0.1631591618061065,0.0,0.0,-0.5171799659729004,-0.4368396997451782
-0.0489184372127056,1.1677201986312866,-0.2032733857631683,-0.4243043661117553,-0.2247321754693985,-0.1708340346813202,0.0,0.0,-0.4971065521240234,-0.0296628475189209
-0.0510725975036621,1.1580822467803955,-0.206600621342659,-0.429722249507904,-0.233650341629982,-0.1783639937639236,0.0,0.0,-0.8131921291351318,-0.6074186563491821
-0.0533185005187988,1.1483402252197266,-0.2168056070804596,-0.4342425465583801,-0.2415571957826614,-0.158137559890747,0.0,0.0,-0.7540718913078308,-0.5305578112602234
-0.0556504242122173,1.1385002136230469,-0.2262628823518753,-0.4384889602661133,-0.2486033588647842,-0.140923410654068,0.0,0.0,-0.7562341094017029,0.0465705394744873
-0.0580247864127159,1.1285405158996582,-0.2301747798919677,-0.4439051449298858,-0.256002813577652,-0.1479893624782562,0.0,0.0,-0.819238543510437,-0.3122881650924682
-0.0604434013366699,1.118461012840271,-0.2342804223299026,-0.4493217766284942,-0.2637473344802856,-0.1548905223608017,0.0,0.0,-0.6023527979850769,-0.8494365215301514
-0.06296968460083,1.1082931756973269,-0.2463686764240265,-0.4530433416366577,-0.270155131816864,-0.1281556189060211,0.0,0.0,-0.6370168328285217,-0.6809449195861816
-0.0655985847115516,1.0980243682861328,-0.2577212750911712,-0.4573522806167602,-0.2754543423652649,-0.1059840694069862,0.0,0.0,0.490809679031372,-0.3884943723678589
-0.0680574402213096,1.0886130332946775,-0.2405623197555542,-0.4192956686019897,-0.2809135317802429,-0.1091834902763366,0.0,0.0,-0.5054134130477905,-0.5773476362228394
-0.0706131905317306,1.0791078805923462,-0.2511764466762543,-0.423306792974472,-0.2854283154010772,-0.0902957394719123,0.0,0.0,-0.0147651433944702,-0.2511146664619446
-0.0732221603393554,1.069482445716858,-0.2562201619148254,-0.4287203848361969,-0.2902434170246124,-0.0963021218776702,0.0,0.0,-0.7281656265258789,-0.5220288634300232
-0.0759316459298133,1.059761643409729,-0.2672105133533478,-0.4327817261219024,-0.294096291065216,-0.0770574137568473,0.0,0.0,0.0041028261184692,-0.6441646218299866
-0.0785726532340049,1.0503607988357544,-0.2614410817623138,-0.4183551371097564,-0.2968435287475586,-0.0549445152282714,0.0,0.0,0.0172147750854492,-0.0018157362937927
-0.0811582580208778,1.0410900115966797,-0.2559119164943695,-0.4125694036483764,-0.2995849251747131,-0.0548281595110893,0.0,0.0,-0.4797127246856689,0.5723273754119873
-0.0837539657950401,1.0316747426986694,-0.2553463280200958,-0.419334352016449,-0.3039445579051971,-0.0871929004788398,0.0,0.0,-0.01408052444458,-0.6638530492782593
-0.086465835571289,1.0221563577651978,-0.2681257426738739,-0.4236763119697571,-0.3071202039718628,-0.0635125488042831,0.0,0.0,-0.0333380699157714,-0.6037038564682007
-0.0892839431762695,1.0125317573547363,-0.2795954048633575,-0.4282323718070984,-0.3094065189361572,-0.0457260236144065,0.0,0.0,0.0954508781433105,0.3970857858657837
-0.0920375809073448,1.003191351890564,-0.2731204628944397,-0.4156103432178497,-0.3117350041866302,-0.0465704537928104,0.0,0.0,0.4054007530212402,0.2007167339324951
-0.0947304740548133,0.9947868585586548,-0.2664100527763366,-0.3741534054279327,-0.3147243857383728,-0.0597877576947212,0.0,0.0,0.2335795164108276,-0.4970664978027344
-0.0974025726318359,0.9871472120285034,-0.2636882662773132,-0.3403116166591644,-0.3183798193931579,-0.0731085836887359,0.0,0.0,0.1912136077880859,-0.1878475546836853
-0.1000428199768066,0.979916512966156,-0.2602486908435821,-0.3221993148326874,-0.3223027884960174,-0.0784595385193824,0.0,0.0,-0.2575557231903076,-0.1169743537902832
-0.1027527824044227,0.9725651144981384,-0.2670454978942871,-0.3276103734970093,-0.3264118432998657,-0.082181379199028,0.0,0.0,0.0116244554519653,-0.6837568283081055
-0.1054771393537521,0.9657835364341736,-0.2696451544761657,-0.302035242319107,-0.3293239772319793,-0.058242779225111,0.0,0.0,-0.2089977264404297,0.1806285381317138
-0.1082736030220985,0.958881139755249,-0.2767002284526825,-0.307445228099823,-0.3324003219604492,-0.0615271627902984,0.0,0.0,0.4132933616638183,-0.0944994091987609
-0.1109180450439453,0.9528242349624634,-0.2613620460033417,-0.269910991191864,-0.3356173038482666,-0.0643394440412521,0.0,0.0,0.2551221847534179,0.3354971408843994
-0.1134078055620193,0.9471150636672974,-0.2462679147720337,-0.2543739080429077,-0.3384530246257782,-0.0567141249775886,0.0,0.0,0.8770630359649658,0.1523171663284301
-0.115897461771965,0.9420965313911438,-0.2456572353839874,-0.223827838897705,-0.341922402381897,-0.0693874806165695,0.0,0.0,0.7988158464431763,0.2706992626190185
-0.1180760413408279,0.938131868839264,-0.2148797959089279,-0.1769175380468368,-0.3450389504432678,-0.0623309500515461,0.0,0.0,0.967872142791748,0.6633899211883545
-0.11984433978796,0.9350666999816896,-0.1728903353214264,-0.1371749937534332,-0.3491726517677307,-0.0826741755008697,0.0,0.0,0.8562583923339844,0.7663648128509521
-0.1212296485900878,0.933114230632782,-0.1332096457481384,-0.0880833342671394,-0.3547744452953338,-0.1120356172323226,0.0,0.0,0.9380733966827391,0.7366833686828613
-0.122408390045166,0.9323639273643494,-0.110831893980503,-0.0351091623306274,-0.3621914982795715,-0.1483413577079773,0.0,0.0,0.8979885578155518,-0.779308557510376
-0.1235149353742599,0.9320816397666932,-0.1051949635148048,-0.0139315435662865,-0.3679584860801697,-0.1153400689363479,0.0,0.0,0.7772892713546753,-0.5272275805473328
-0.1245753318071365,0.93282151222229,-0.101258136332035,0.0316402688622474,-0.3730251491069793,-0.1013338714838028,0.0,0.0,0.8456480503082275,-0.7859815359115601
-0.1254239976406097,0.9341968297958374,-0.081839844584465,0.0603299587965011,-0.3762290179729461,-0.0640771463513374,0.0,0.0,-0.1926409602165222,-0.5035898089408875
-0.1263895034790039,0.9354724287986756,-0.0944233536720275,0.0561315901577472,-0.3784847259521484,-0.0451139546930789,0.0,0.0,-0.1319718360900879,-0.4292373657226562
-0.1274373084306717,0.9366265535354614,-0.102622389793396,0.050725057721138,-0.380780279636383,-0.0459108427166938,0.0,0.0,0.2239037752151489,-0.5200234055519104
-0.1285361349582672,0.93834787607193,-0.1085060834884643,0.0761379972100257,-0.3822380602359772,-0.029155746102333,0.0,0.0,-0.2218794226646423,-0.6408835649490356
-0.1297614127397537,0.9399818181991576,-0.1223465949296951,0.0725680887699127,-0.3824339509010315,-0.0039176112040877,0.0,0.0,-0.0788032412528991,-0.2846614122390747
-0.1310707032680511,0.9414941668510436,-0.1307304799556732,0.067162774503231,-0.3826427459716797,-0.0041756108403205,0.0,0.0,-0.034357726573944,-0.074057936668396
-0.1324644088745117,0.9428848624229432,-0.1391679495573043,0.0617577396333217,-0.3828559815883636,-0.0042647621594369,0.0,0.0,0.1771507263183593,-0.3232604265213012
-0.1338790953159332,0.9446608424186708,-0.1409831345081329,0.0788010358810424,-0.3833757042884826,-0.0103941783308982,0.0,0.0,0.194932222366333,-0.056434690952301
-0.1352573335170745,0.9470338225364684,-0.1370667219161987,0.1052537634968757,-0.3841911256313324,-0.0163083467632532,0.0,0.0,-0.3367862701416015,-0.0688986778259277
-0.1367213279008865,0.949284851551056,-0.1456419676542282,0.0998493954539299,-0.3849875330924988,-0.0159286055713892,0.0,0.0,-0.2859129309654236,-0.2152047753334045
-0.1382711380720138,0.9514142870903016,-0.1542556583881378,0.0944452732801437,-0.3857578337192535,-0.0154058877378702,0.0,0.0,-0.3545109033584595,-0.1483021974563598
-0.1399070769548416,0.9534220099449158,-0.1629041582345962,0.0890413746237754,-0.3864951729774475,-0.014747031033039,0.0,0.0,-0.2297552227973938,-0.3033521175384521
-0.1416295021772384,0.9553079009056092,-0.171583890914917,0.0836376845836639,-0.3871931135654449,-0.0139590743929147,0.0,0.0,0.1395883560180664,-0.1606925129890442
-0.1433104574680328,0.9573566317558287,-0.1676845401525497,0.0909499898552894,-0.3876286149024963,-0.0087097343057394,0.0,0.0,-0.2501636147499084,-0.5183792114257812
-0.1451191902160644,0.9593033194541932,-0.181565910577774,0.0867001116275787,-0.3868935406208038,0.0147016253322362,0.0,0.0,-0.0631271600723266,-0.1294728517532348
-0.1470149010419845,0.9611279368400574,-0.1903184354305267,0.0812969580292701,-0.3861018419265747,0.0158338937908411,0.0,0.0,0.0862398147583007,0.0525333881378173
-0.1487471610307693,0.9635462164878844,-0.1742420941591262,0.1077587381005287,-0.3850050568580627,0.02193552441895,0.0,0.0,-0.1483571529388427,-0.205812394618988
-0.1505664885044098,0.965842604637146,-0.1830259263515472,0.1023558303713798,-0.3838420212268829,0.0232609473168849,0.0,0.0,-0.28207528591156,-0.1726118922233581
-0.1524730622768402,0.9680169820785522,-0.1918202489614486,0.0969530344009399,-0.3826084434986114,0.0246715731918811,0.0,0.0,-0.4146465063095093,-0.4497202634811401
-0.1544671058654785,0.9700694680213928,-0.2006216794252395,0.0915503501892089,-0.3813004493713379,0.0261596590280532,0.0,0.0,-0.2994973063468933,-0.3132499456405639
-0.1565483063459396,0.9719999432563782,-0.2094267606735229,0.0861477553844451,-0.3799145817756653,0.027717525139451,0.0,0.0,0.1132622957229614,-0.3747140169143677
-0.1585817337036132,0.974465310573578,-0.2045626938343048,0.1098931804299354,-0.3786185681819916,0.025920134037733,0.0,0.0,-0.2711743116378784,-0.2861524820327759
-0.1607024222612381,0.9768086075782776,-0.2133646011352539,0.1044907420873642,-0.3772388696670532,0.0275941304862499,0.0,0.0,-0.3505429029464721,-0.4688997268676758
-0.1629101783037185,0.979029893875122,-0.2221595346927642,0.0990883484482765,-0.375773161649704,0.0293144080787897,0.0,0.0,-0.3407850265502929,-0.4943834543228149
-0.1652049124240875,0.9811291694641112,-0.2309438735246658,0.0936859846115112,-0.3742194771766662,0.0310732387006282,0.0,0.0,-0.1173516511917114,-0.6289345026016235
-0.1676266640424728,0.9831251502037048,-0.2447471916675567,0.0893813818693161,-0.371486634016037,0.0546566732227802,0.0,0.0,-0.2138456106185913,-0.3111816644668579
-0.1701349318027496,0.9849991202354432,-0.2534993290901184,0.0839786529541015,-0.3686631619930267,0.0564696192741394,0.0,0.0,-0.2564131021499634,-0.2146831750869751
-0.1727296859025955,0.9867512583732604,-0.2622294127941131,0.0785758793354034,-0.365748256444931,0.0582981780171394,0.0,0.0,0.0567324161529541,-0.2910147905349731
-0.1752421408891677,0.9890563488006592,-0.254068911075592,0.1031709164381027,-0.3627582490444183,0.0597998909652233,0.0,0.0,-0.1374759674072265,-0.6695164442062378
-0.1778857260942459,0.9912709593772888,-0.2685238122940063,0.0994723737239837,-0.3583653569221496,0.0878580510616302,0.0,0.0,-0.1855894923210144,-0.1885695457458496
-0.1806147545576095,0.9933637976646424,-0.2771632373332977,0.0940686389803886,-0.3538809716701507,0.0896875858306884,0.0,0.0,-0.2751399874687195,-0.3365931510925293
-0.1834288537502288,0.9953348636627196,-0.2857634127140045,0.0886647924780845,-0.3493058383464813,0.0915024429559707,0.0,0.0,-0.3759671449661255,-0.1933993101119995
-0.186327651143074,0.9971840977668762,-0.2943196594715118,0.0832608118653297,-0.3446410894393921,0.0932950899004936,0.0,0.0,-0.3610804677009582,-0.1488959789276123
-0.1893106400966644,0.9989117383956908,-0.3028269410133362,0.0778566896915435,-0.33988818526268,0.0950578898191452,0.0,0.0,-0.1759149432182312,-0.0708756446838378
-0.1923771798610687,1.0005176067352295,-0.3112801015377044,0.0724524185061454,-0.335049033164978,0.0967833250761032,0.0,0.0,0.0026423931121826,0.0380091667175293
-0.1954392492771148,1.0027228593826294,-0.3105955421924591,0.099020816385746,-0.3304751515388489,0.0914773792028427,0.0,0.0,-0.3391220569610595,-0.1456283330917358
-0.1985838860273361,1.0048065185546875,-0.3189236223697662,0.0936164706945419,-0.3258198499679565,0.0931057408452034,0.0,0.0,-0.5095789432525635,0.1459594964981079
-0.201810210943222,1.0067684650421145,-0.32718026638031,0.0882119610905647,-0.3210861384868622,0.0946744307875633,0.0,0.0,-0.4288163185119629,0.1580193042755127
-0.2051175534725189,1.0086086988449097,-0.3353591561317444,0.0828072652220726,-0.3162773251533508,0.0961762517690658,0.0,0.0,-0.3602133393287658,0.3204559087753296
-0.2085050046443939,1.0103273391723633,-0.343453586101532,0.0774023830890655,-0.3113971054553985,0.0976041257381439,0.0,0.0,-0.4571695327758789,0.5391581058502197
-0.2119391411542892,1.011909008026123,-0.3473337292671203,0.0711379274725914,-0.3073349297046661,0.081243447959423,0.0,0.0,-0.3811429738998413,0.1792052984237671
-0.2154516726732254,1.01336932182312,-0.3552370965480804,0.0657333061099052,-0.3032098412513733,0.0825020223855972,0.0,0.0,-0.3590003848075866,0.2874150276184082
-0.2190415859222412,1.0147078037261963,-0.3630333542823791,0.0603285059332847,-0.2990265786647796,0.083665445446968,0.0,0.0,-0.5298475027084351,0.7670896053314209
-0.2226454764604568,1.015889048576355,-0.3628199100494385,0.052989438176155,-0.296516478061676,0.0502021498978138,0.0,0.0,-0.3564434051513672,0.6478774547576904
-0.2262628525495529,1.01692533493042,-0.3626397252082824,0.0462434217333793,-0.2955884635448456,0.018560430034995,0.0,0.0,-0.0089332461357116,0.0113862752914428
-0.2299540936946869,1.017839789390564,-0.3700621426105499,0.0408394783735275,-0.2946186065673828,0.0193973835557699,0.0,0.0,-0.3608676791191101,0.6926462650299072
-0.2336515486240387,1.0186108350753784,-0.3690409064292907,0.0341296829283237,-0.2953466773033142,-0.014561653137207,0.0,0.0,-0.0274017453193664,0.4245475530624389
-0.237419992685318,1.019260287284851,-0.3761662244796753,0.0287254583090543,-0.2960454523563385,-0.0139757171273231,0.0,0.0,0.2143577337265014,0.4979023933410644
-0.2410877645015716,1.0206514596939087,-0.3661001324653625,0.0616870075464248,-0.296746164560318,-0.0140143483877182,0.0,0.0,-0.3759946823120117,0.2841618061065674
-0.2448233067989349,1.0219208002090454,-0.3728849589824676,0.0562824495136737,-0.2974313497543335,-0.0137036349624395,0.0,0.0,0.0235532522201538,0.5765864849090576
-0.2484450787305832,1.0234285593032837,-0.3604534864425659,0.0666615813970565,-0.2992098331451416,-0.0355698727071285,0.0,0.0,0.1323280334472656,0.2606860399246216
-0.2520859241485595,1.0254594087600708,-0.3619930446147918,0.0898225679993629,-0.3013754487037658,-0.0433121919631958,0.0,0.0,-0.0854449272155761,-0.4023115634918213
-0.2557887136936188,1.0273685455322266,-0.3681767880916595,0.0844171121716499,-0.3035482466220855,-0.0434562042355537,0.0,0.0,0.0186381340026855,0.0234506130218505
-0.2594599723815918,1.029659867286682,-0.3649514615535736,0.1013753786683082,-0.3057977855205536,-0.044990349560976,0.0,0.0,-0.3789960741996765,-0.4810683727264404
-0.2631886005401611,1.031829595565796,-0.3706682324409485,0.0959694758057594,-0.3080709278583526,-0.0454628989100456,0.0,0.0,-0.2194374799728393,-0.1691848039627075
-0.266972154378891,1.0338778495788574,-0.3761304318904876,0.0905633494257927,-0.3103762567043304,-0.0461065508425235,0.0,0.0,-0.1509050130844116,-0.0385998487472534
-0.2708079814910888,1.0358048677444458,-0.3813234269618988,0.0851569846272468,-0.3127225339412689,-0.0469254329800605,0.0,0.0,-0.4885265827178955,0.1709035634994506
-0.2746934294700622,1.0376105308532717,-0.3862324953079223,0.0797503665089607,-0.3151187002658844,-0.0479234792292118,0.0,0.0,-0.3767006397247314,0.4432295560836792
