x_pos,y_pos,x_vel,y_vel,angle,ang_vel,leg_1,leg_2,main_booster,lat_booster
-0.0015086174244061,1.403120756149292,-0.1525528281927108,-0.3466427028179168,0.0015077306888997,0.029722686856985,0.0,0.0,-0.1582877972035166,0.6881150335243227
-0.0029426575638353,1.3948373794555664,-0.1431562602519989,-0.3681487739086151,0.001259192242287,-0.0049706054851412,0.0,0.0,0.0520130333487873,-0.965699286892364
-0.0043339729309082,1.3864285945892334,-0.1405760645866394,-0.3737257719039917,0.0026812369469553,0.0284437984228134,0.0,0.0,-0.6652407423738269,0.8143467230079744
-0.005655956454575,1.3775132894515991,-0.1321089714765548,-0.3962315917015075,0.0025979697238653,-0.001665394520387,0.0,0.0,-0.115038137713358,0.8225873199994642
-0.0068802833557128,1.3680973052978516,-0.1201516538858413,-0.4184907376766205,0.0003451458469498,-0.0450607575476169,0.0,0.0,0.457490703575141,0.7293339402933798
-0.0078929904848337,1.3588950634002686,-0.0976120680570602,-0.408983826637268,-0.0032790682744234,-0.0724909752607345,0.0,0.0,0.9757740521836612,0.774227902814101
-0.0088506694883108,1.3502252101898191,-0.090313583612442,-0.385353535413742,-0.0086703849956393,-0.107836402952671,0.0,0.0,-0.3849852694121578,-0.8657407628865887
-0.0098373414948582,1.3410546779632568,-0.0943765118718147,-0.4076041281223297,-0.0129169058054685,-0.084938071668148,0.0,0.0,0.7737809726071432,-0.734551905851678
-0.0108612058684229,1.3327375650405884,-0.0993985459208488,-0.3696737587451935,-0.0158706922084093,-0.0590810775756835,0.0,0.0,0.2109881693283226,-0.9136030367050426
-0.0119251254945993,1.3247225284576416,-0.1051230579614639,-0.3562376797199249,-0.0171266794204711,-0.0251217428594827,0.0,0.0,0.2980050520946369,0.705608192828939
-0.0128248212859034,1.316901445388794,-0.0873148441314697,-0.3476415276527405,-0.0197545308619737,-0.0525621958076953,0.0,0.0,0.9221245605859334,-0.7336694973895489
-0.0136553766205906,1.3094958066940308,-0.08200453966856,-0.329159528017044,-0.0207850541919469,-0.0206121820956468,0.0,0.0,-0.9280181133244448,-0.6005426797146858
-0.0144961355254054,1.3015903234481812,-0.0839234367012977,-0.3513558208942413,-0.0209420770406723,-0.0031407647766172,0.0,0.0,-0.784288361537925,-0.8510474616478869
-0.0153689384460449,1.2931751012802124,-0.088588498532772,-0.3739929795265198,-0.0196467172354459,0.0259097721427679,0.0,0.0,0.7495560323273311,-0.8067380267595241
-0.0160954482853412,1.285570740699768,-0.075886532664299,-0.3379315137863159,-0.0164456740021705,0.0640267729759216,0.0,0.0,0.3671445200019281,-0.6266425159328743
-0.0167385097593069,1.277822971343994,-0.0690029188990593,-0.3443047106266022,-0.0118088265880942,0.0927452445030212,0.0,0.0,-0.5541340620370476,-0.7923918424568933
-0.0173999778926372,1.269581913948059,-0.0720673650503158,-0.3662388026714325,-0.0059486594982445,0.1172138303518295,0.0,0.0,-0.2758589946528291,-0.952593648599922
-0.0180881507694721,1.2608299255371094,-0.0762391164898872,-0.3889638781547546,0.0013821746688336,0.1466300636529922,0.0,0.0,-0.8693880326364369,-0.7455985860987144
-0.0187944415956735,1.251581788063049,-0.0793461948633194,-0.4110535085201263,0.0099976928904652,0.1723261326551437,0.0,0.0,-0.6211238192112216,0.7396140369549506
-0.0194181445986032,1.2418313026428225,-0.0698543339967727,-0.4334257245063782,0.0174001883715391,0.1480634063482284,0.0,0.0,-0.528265521188217,-0.6050836857720014
-0.0200468059629201,1.2315809726715088,-0.071389228105545,-0.4556814730167389,0.0258261412382125,0.1685340255498886,0.0,0.0,-0.0908735127366064,0.7996834118484029
-0.0205776207149028,1.2208259105682373,-0.0600547604262828,-0.4781420826911926,0.0327224545180797,0.1379387527704239,0.0,0.0,0.3714819846077226,-0.8044664369039326
-0.0210312847048044,1.210247039794922,-0.0542275309562683,-0.4703849554061889,0.041481114923954,0.1751891523599624,0.0,0.0,-0.7751295656776727,0.7808616184701636
-0.0213813781738281,1.1991608142852783,-0.0422296747565269,-0.4929366409778595,0.0486265160143375,0.1429206877946853,0.0,0.0,-0.8613596689031529,-0.6770241586611131
-0.021762466058135,1.1875689029693604,-0.0471510961651802,-0.5155184268951416,0.0575710646808147,0.1789069920778274,0.0,0.0,0.0134473051244659,0.9094814119945784
-0.0221669189631938,1.1761012077331543,-0.0478323176503181,-0.509976327419281,0.0648756846785545,0.1460925340652465,0.0,0.0,0.0864953395658492,0.7801664960101069
-0.0225017555058002,1.1648567914962769,-0.039457481354475,-0.5000267624855042,0.070788562297821,0.1182576417922973,0.0,0.0,-0.2054976289006493,0.8808622226111701
-0.0227457992732524,1.1531238555908203,-0.029163708910346,-0.5216928124427795,0.0754987969994545,0.0942046493291854,0.0,0.0,0.9580905833494776,0.6843754578942397
-0.0231340415775775,1.142253875732422,-0.0419713221490383,-0.4832808375358581,0.0786091387271881,0.0622070431709289,0.0,0.0,0.0736806018031239,-0.8050614490240192
-0.0235888473689556,1.1313416957855225,-0.0504276752471923,-0.4852499961853027,0.0835125222802162,0.0980675294995307,0.0,0.0,0.4334576253421374,-0.729910414914321
-0.0241069793701171,1.121027946472168,-0.0584720782935619,-0.4587829709053039,0.0901038646697998,0.1318270415067672,0.0,0.0,0.3574734184258796,0.7698283280437399
-0.0246299747377634,1.1107429265975952,-0.0575200095772743,-0.4574361443519592,0.09528149664402,0.1035529971122741,0.0,0.0,0.0593446143635691,0.6982687173750829
-0.0251690857112407,1.1007277965545654,-0.0578984096646308,-0.4453699290752411,0.099236860871315,0.0791071280837059,0.0,0.0,0.3352661861905428,-0.8268596161039435
-0.0258211139589548,1.0906189680099487,-0.0710264965891838,-0.4496824443340301,0.1050144508481025,0.1155514493584632,0.0,0.0,-0.6377464131876056,-0.8580013039199559
-0.026500130072236,1.0799987316131592,-0.0756416395306587,-0.472578227519989,0.112699493765831,0.153700977563858,0.0,0.0,0.1064012112848604,-0.7520396741497306
-0.0272428505122661,1.0696287155151367,-0.0837730467319488,-0.4616301357746124,0.1221449226140976,0.188908576965332,0.0,0.0,-0.4897561258933924,0.8970189409426967
-0.0278788562864065,1.0587644577026367,-0.0716280192136764,-0.4835413694381714,0.1301382929086685,0.1598676145076751,0.0,0.0,-0.5363802059089082,-0.6437625090097652
-0.0285234451293945,1.0473933219909668,-0.0739577338099479,-0.5062398314476013,0.1395996361970901,0.1892268508672714,0.0,0.0,0.3218556330148752,-0.9342320789107648
-0.0293328277766704,1.0365091562271118,-0.0925435796380043,-0.4848727285861969,0.1511717140674591,0.2314413040876388,0.0,0.0,-0.7434710502769339,0.7903681606675115
-0.0300387386232614,1.025139093399048,-0.0807889923453331,-0.50640869140625,0.1613664031028747,0.2038938552141189,0.0,0.0,0.198946895765641,0.8412973347213302
-0.0308195110410451,1.0141050815582275,-0.086816981434822,-0.491375058889389,0.1700971573591232,0.1746154576539993,0.0,0.0,-0.9452658295631408,0.9824891090393066
-0.0314690582454204,1.0025901794433594,-0.0715908259153366,-0.5125465989112854,0.1767471134662628,0.1329992264509201,0.0,0.0,-0.9828013777732848,0.8943250179290771
-0.0319977775216102,0.9905845522880554,-0.0577273666858673,-0.5341687798500061,0.1816160529851913,0.0973787084221839,0.0,0.0,-0.9065521955490112,0.8346378803253174
-0.0324121490120887,0.9780952334403992,-0.0446388870477676,-0.5554777979850769,0.1848357915878296,0.0643949136137962,0.0,0.0,-0.9659776091575624,0.8544745445251465
-0.0327248573303222,0.9651103019714355,-0.0331931449472904,-0.5773470401763916,0.1867677569389343,0.0386394560337066,0.0,0.0,-0.913697361946106,0.9273993968963624
-0.0329207405447959,0.9516351819038392,-0.0198233611881732,-0.5989286303520203,0.1870114058256149,0.0048729847185313,0.0,0.0,-0.8266628384590149,0.9871153831481934
-0.0329936034977436,0.9376756548881532,-0.0056708408519625,-0.620221734046936,0.1853893399238586,-0.0324414335191249,0.0,0.0,-0.8856553435325623,0.9944714307785034
-0.0329675674438476,0.923241376876831,0.0055326507426798,-0.6411634683609009,0.1824531406164169,-0.0587241351604461,0.0,0.0,-0.7320595383644104,0.4626576900482178
-0.0329043380916118,0.9083041548728944,0.0089265098795294,-0.6635595560073853,0.179836168885231,-0.0523393228650093,0.0,0.0,-0.6015852093696594,0.502959132194519
-0.0327666290104389,0.8928727507591248,0.017031131312251,-0.6854442954063416,0.1765692979097366,-0.0653374940156936,0.0,0.0,-0.3646459579467773,0.422954797744751
-0.0325926765799522,0.8769385814666748,0.0203234907239675,-0.707840621471405,0.1736277043819427,-0.0588319823145866,0.0,0.0,-0.2958782911300659,0.7991883754730225
-0.032327651977539,0.8605214953422546,0.0305675528943538,-0.7291764616966248,0.1695621162652969,-0.081311710178852,0.0,0.0,-0.6844068169593811,-0.0491887927055358
-0.032027531415224,0.843601644039154,0.0337394215166568,-0.7515730261802673,0.1658270210027694,-0.0747019797563552,0.0,0.0,-0.3101219534873962,0.5336273908615112
-0.0316518768668174,0.8261942267417908,0.0420445315539836,-0.7731672525405884,0.1613473147153854,-0.0895939916372299,0.0,0.0,0.4658737182617187,0.3762180805206299
-0.0311815254390239,0.8089563846588135,0.0505649372935295,-0.7657487392425537,0.1578141003847122,-0.0706639438867569,0.0,0.0,0.2531132698059082,0.9268791675567628
-0.0307447426021099,0.7917384505271912,0.0487715899944305,-0.7647079229354858,0.1527240723371505,-0.1018006205558776,0.0,0.0,-0.1694992780685424,0.1650145053863525
-0.0302759166806936,0.774017870426178,0.0516412742435932,-0.7871050238609314,0.147972822189331,-0.0950248837471008,0.0,0.0,0.3197702169418335,0.3637144565582275
-0.0297462455928325,0.7566178441047668,0.0568733625113964,-0.7729437351226807,0.1440720111131668,-0.0780161693692207,0.0,0.0,0.8133318424224854,0.7983174324035645
-0.0291655547916889,0.74009770154953,0.0630650967359542,-0.7337562441825867,0.1390940845012664,-0.0995587036013603,0.0,0.0,0.2854567766189575,0.1819231510162353
-0.0286989212036132,0.7239705920219421,0.0515824146568775,-0.7163091897964478,0.1341854333877563,-0.0981727242469787,0.0,0.0,-0.2138255834579467,0.5174353122711182
-0.0281598083674907,0.707345187664032,0.0596269145607948,-0.738406240940094,0.1285019516944885,-0.1136699169874191,0.0,0.0,-0.2699909806251526,0.404219388961792
-0.0275935176759958,0.6902167797088623,0.0619943849742412,-0.76080322265625,0.1231643110513687,-0.1067528873682022,0.0,0.0,0.3652268648147583,0.7917265892028809
-0.0268774032592773,0.6732527613639832,0.0780686736106872,-0.7534401416778564,0.1167416349053382,-0.1284535825252533,0.0,0.0,0.4877674579620361,-0.5520225167274475
-0.0262215621769428,0.6566053628921509,0.0705382078886032,-0.7395059466362,0.1118231043219566,-0.0983709469437599,0.0,0.0,-0.1121036410331726,0.4717551469802856
-0.0255422592163085,0.6394549608230591,0.072533294558525,-0.7619019150733948,0.107253149151802,-0.091399148106575,0.0,0.0,0.2546486854553222,0.5579252243041992
-0.0249475482851266,0.6224619150161743,0.0650541260838508,-0.754858672618866,0.1017133668065071,-0.110795721411705,0.0,0.0,0.0353171825408935,0.3573222160339355
-0.0243732444941997,0.6057681441307068,0.0626028180122375,-0.7415997385978699,0.0965856611728668,-0.1025539636611938,0.0,0.0,-0.1558692455291748,0.6792657375335693
-0.0237184520810842,0.5885722041130066,0.0718520358204841,-0.7638614773750305,0.0902724415063858,-0.1262643337249755,0.0,0.0,0.8245720863342285,0.2868118286132812
-0.0231011398136615,0.572286069393158,0.0676040574908256,-0.7234906554222107,0.0844479501247406,-0.1164897456765174,0.0,0.0,0.058282732963562,0.7553722858428955
-0.0225029941648244,0.555945634841919,0.0669012665748596,-0.725857675075531,0.077426753938198,-0.1404240429401397,0.0,0.0,0.606497049331665,0.250960111618042
-0.0220304485410451,0.540076732635498,0.0544140934944152,-0.7049306035041809,0.0703435540199279,-0.141663521528244,0.0,0.0,0.5741946697235107,-0.4939054250717163
-0.021557617932558,0.5245953798294067,0.0539524853229522,-0.6877613067626953,0.0637470260262489,-0.1319307684898376,0.0,0.0,0.0904901027679443,-0.5749932527542114
-0.0212495811283588,0.5094384551048279,0.0361124016344547,-0.6734238862991333,0.058496031910181,-0.1050199493765831,0.0,0.0,0.0717077255249023,0.6041948795318604
-0.0208531375974416,0.4943482875823974,0.0457382500171661,-0.6704488396644592,0.0524668879806995,-0.1205829754471778,0.0,0.0,-0.0527439713478088,-0.5818384885787964
-0.0204978939145803,0.4787465631961822,0.0400344803929328,-0.693259060382843,0.048011589795351,-0.089105948805809,0.0,0.0,-0.2760927677154541,-0.4943537712097168
-0.0201372150331735,0.4626415073871612,0.0402166023850441,-0.7156527638435364,0.0439061522483825,-0.082109048962593,0.0,0.0,0.5999280214309692,-0.2257052659988403
-0.0198182109743356,0.4465236663818359,0.0358484908938407,-0.7162389755249023,0.0400083735585212,-0.0779557079076767,0.0,0.0,0.6365119218826294,-0.2070165872573852
-0.0195374488830566,0.4310795068740845,0.0317083932459354,-0.6863153576850891,0.0364207178354263,-0.0717530623078346,0.0,0.0,0.8569191694259644,-0.5674534440040588
-0.0192398075014352,0.4165146648883819,0.031633872538805,-0.6472815275192261,0.0345747023820877,-0.0369200557470321,0.0,0.0,-0.3863028287887573,0.6877801418304443
-0.0189006812870502,0.4014555215835571,0.036555927246809,-0.669238269329071,0.0319610834121704,-0.0522723607718944,0.0,0.0,0.11451256275177,-0.0101212263107299
-0.0186607353389263,0.3862236738204956,0.0267057828605175,-0.6769191026687622,0.029288986697793,-0.0534419789910316,0.0,0.0,0.8790097236633301,0.0956451892852783
-0.0184080116450786,0.3718381524085998,0.0274179987609386,-0.6393147706985474,0.0271729920059442,-0.0423201546072959,0.0,0.0,0.480718731880188,-0.0532314777374267
-0.0182689670473337,0.3577187955379486,0.0161280538886785,-0.6274895071983337,0.0249791983515024,-0.0438757762312889,0.0,0.0,0.8907525539398193,0.5949902534484863
-0.0181802753359079,0.3442608118057251,0.0121337715536355,-0.5980821847915649,0.0217598546296358,-0.0643869265913963,0.0,0.0,0.8420591354370117,0.5104876756668091
-0.0180953983217477,0.3314719796180725,0.0124780759215354,-0.5683401823043823,0.0178221128880977,-0.07875507324934,0.0,0.0,-0.2030016779899597,-0.1648542284965515
-0.0180256851017475,0.3181796669960022,0.0106159951537847,-0.5907325744628906,0.0142208794131875,-0.0720247849822044,0.0,0.0,0.5979442596435547,-0.3291495442390442
-0.0179551132023334,0.3048807680606842,0.0102630015462636,-0.591034471988678,0.0110598839819431,-0.0632200837135315,0.0,0.0,0.9495408535003662,0.0883558988571167
-0.0177996642887592,0.2917927503585815,0.0178999602794647,-0.581676185131073,0.0087369084358215,-0.046459674835205,0.0,0.0,0.9267215728759766,-0.3656468987464905
-0.0174997337162494,0.2792020142078399,0.0312001761049032,-0.5595768690109253,0.0075365169905126,-0.0240077953785657,0.0,0.0,0.7779724597930908,-0.4272257089614868
-0.0170765873044729,0.2667459845542907,0.0425085239112377,-0.5536013245582581,0.0073560550808906,-0.0036094468086957,0.0,0.0,0.7592101097106934,-0.5443021059036255
-0.0167340282350778,0.2549894750118255,0.0330238863825798,-0.5225167870521545,0.0085628256201744,0.0241354592144489,0.0,0.0,0.6392645835876465,-0.2394647598266601
-0.0163946151733398,0.2438586503267288,0.0322510562837123,-0.4947167336940765,0.0102309715002775,0.0333630219101905,0.0,0.0,0.3874344825744629,-0.1179922819137573
-0.0159855838865041,0.2330659478902816,0.0384049676358699,-0.4796956181526184,0.0126986373215913,0.0493533015251159,0.0,0.0,0.0611627101898193,0.4611008167266845
-0.0155454631894826,0.2220852673053741,0.0408893302083015,-0.488057941198349,0.0157777853310108,0.0615829639136791,0.0,0.0,0.264667272567749,0.1571834087371826
-0.0151845933869481,0.2111847698688507,0.0328426361083984,-0.4845060408115387,0.0189786031842231,0.0640163645148277,0.0,0.0,0.3748524188995361,0.6982793807983398
-0.014738654717803,0.2008695006370544,0.0423211492598056,-0.4584852755069732,0.0212240908294916,0.0449100360274314,0.0,0.0,0.274167537689209,-0.0154061913490295
-0.014356231316924,0.1907083541154861,0.0357432700693607,-0.45164555311203,0.0236852131783962,0.0492225363850593,0.0,0.0,0.7236464023590088,-0.3623997569084167
-0.014161204919219,0.1812835037708282,0.0173171572387218,-0.4189187586307525,0.0258398279547691,0.0430921986699104,0.0,0.0,0.3557524681091308,0.5273107290267944
-0.0139014245942235,0.1722210049629211,0.0243866723030805,-0.4028071761131286,0.0274131968617439,0.031467281281948,0.0,0.0,0.2725782394409179,0.0395910739898681
-0.0137396808713674,0.1635196954011917,0.0144846411421895,-0.3867578506469726,0.0290795285254716,0.0333265289664268,0.0,0.0,0.5665328502655029,0.0484319925308227
-0.0137194637209177,0.1553758680820465,0.0004182861594017,-0.3619811236858368,0.0306612476706504,0.0316343754529953,0.0,0.0,0.3955444097518921,-0.1691120862960815
-0.013777065090835,0.1473580747842788,-0.0075357020832598,-0.3563844561576843,0.032418318092823,0.0351415053009986,0.0,0.0,0.1309931278228759,-0.3900347948074341
-0.0139729501679539,0.1394499838352203,-0.0212683267891407,-0.3515083193778991,0.0340725965797901,0.0330856218934059,0.0,0.0,-0.0814230442047119,0.7237200736999512
-0.0141724590212106,0.1310387998819351,-0.0207894183695316,-0.3738498389720917,0.0349077358841896,0.0167026631534099,0.0,0.0,0.3632521629333496,0.6994843482971191
-0.0142879486083984,0.1230250000953674,-0.0114053813740611,-0.356166809797287,0.0347647368907928,-0.0028601391240954,0.0,0.0,0.4253942966461181,0.6450424194335938
-0.014354133978486,0.1149847358465194,-0.0055388952605426,-0.3573183417320251,0.03370126709342,-0.0212692581117153,0.0,0.0,0.4160623550415039,-0.131346583366394
-0.0143679622560739,0.1074274182319641,-0.0011359257623553,-0.3358743488788605,0.0334541127085685,-0.0049430881626904,0.0,0.0,0.6053502559661865,-0.0510517358779907
-0.0144802089780569,0.1004957258701324,-0.0111098745837807,-0.3080710470676422,0.0333385840058326,-0.0023104399442672,0.0,0.0,0.4330618381500244,0.846966028213501
-0.0144628528505563,0.0941918194293975,0.0031595050822943,-0.2801465392112732,0.0319380238652229,-0.0280114114284515,0.0,0.0,-0.0118688344955444,-0.5754011273384094
-0.0145380971953272,0.0873823016881942,-0.0073424503207206,-0.3026418685913086,0.0317575074732303,-0.0036100279539823,0.0,0.0,0.1456029415130615,0.2944521903991699
-0.0146901132538914,0.0809176042675972,-0.0152108445763587,-0.2873187959194183,0.0317673794925212,0.0001972671889234,0.0,0.0,-0.0471452474594116,0.8190079927444458
-0.0148256300017237,0.0739598125219345,-0.011951264925301,-0.3092001080513,0.0301894601434469,-0.0315582305192947,0.0,0.0,0.6266825199127197,0.7487978935241699
-0.0148835182189941,0.067178189754486,-0.003064788877964,-0.3013545274734497,0.0274892728775739,-0.0540035367012023,0.0,0.0,0.68343186378479,-0.2426077127456665
-0.0151395797729492,0.0608324371278286,-0.0224808622151613,-0.2819782197475433,0.0244043208658695,-0.0616989731788635,0.0,0.0,0.5749902725219727,0.7449228763580322
-0.0155404089018702,0.0547142848372459,-0.0353899076581001,-0.2718467116355896,0.0197720862925052,-0.0926444306969642,0.0,0.0,0.7156277894973755,0.9543317556381226
-0.0159598346799612,0.0489717088639736,-0.0354735776782035,-0.2551531195640564,0.0133833903819322,-0.1277740001678466,0.0,0.0,0.6169334650039673,0.3769096136093139
-0.0164190288633108,0.043509516865015,-0.0397369228303432,-0.2427233904600143,0.007281947415322,-0.1220289692282676,0.0,0.0,0.5598586797714233,0.7289379835128784
-0.0167459491640329,0.0380488261580467,-0.0254598464816808,-0.242679625749588,0.0001494714233558,-0.1426495909690857,0.0,0.0,0.4651401042938232,-0.1080589294433593
-0.01704578474164,0.0329946130514144,-0.0233159307390451,-0.2246481776237487,-0.006428113207221,-0.1315518021583557,0.0,0.0,0.5387189388275146,0.472691535949707
-0.0173771865665912,0.0285637471824884,-0.0267381370067596,-0.1969687640666961,-0.0127499578520655,-0.1264370530843734,0.0,0.0,-0.0917457938194274,0.1123052835464477
-0.0177689548581838,0.023629555478692,-0.0329117476940155,-0.2193625569343567,-0.0189312025904655,-0.1236249059438705,0.0,0.0,0.8342564105987549,0.1205253601074218
