x_pos,y_pos,x_vel,y_vel,angle,ang_vel,leg_1,leg_2,main_booster,lat_booster
-0.0015179633628576,1.4030450582504272,-0.1537088900804519,-0.3499988615512848,0.0017109183827415,0.0337455160915851,0.0,0.0,-0.2713580102588164,-0.9308761051877638
-0.0030973434913903,1.3946092128753662,-0.1612549126148224,-0.3749307692050934,0.0049951463006436,0.0656912699341774,0.0,0.0,-0.6604089857735986,-0.9708572969797152
-0.0047306059859693,1.3855863809585571,-0.1680759191513061,-0.4010415077209472,0.0096996184438467,0.0940982326865196,0.0,0.0,-0.3010819489193874,0.7708080877696102
-0.0063096047379076,1.3759825229644775,-0.1613359302282333,-0.4268669486045837,0.0130973914638161,0.0679617747664451,0.0,0.0,-0.3337339566685873,-0.7514562715939116
-0.0079295160248875,1.365800857543945,-0.1665247827768325,-0.4525621235370636,0.0175744704902172,0.0895498842000961,0.0,0.0,0.7322284034294289,-0.8927927062084895
-0.0094644548371434,1.3558954000473022,-0.1599937975406646,-0.4403317868709564,0.0240046381950378,0.1286151111125946,0.0,0.0,0.9658362224448478,0.6013909566832195
-0.0109918592497706,1.3464419841766355,-0.1578421592712402,-0.4202437400817871,0.0290511138737201,0.1009385958313942,0.0,0.0,0.5581213270354219,-0.7739357666554031
-0.0124366758391261,1.3373308181762695,-0.1513065248727798,-0.4050906300544739,0.0358064509928226,0.1351194977760315,0.0,0.0,0.982360005340654,0.8940940541614363
-0.0138579364866018,1.3291583061218262,-0.147000566124916,-0.3633440732955932,0.0406283549964427,0.0964470729231834,0.0,0.0,-0.0657091832616809,-0.6210968801312371
-0.0153230670839548,1.3204076290130615,-0.1524920761585235,-0.3890967965126037,0.0465492941439151,0.1184295564889907,0.0,0.0,0.9077827965574798,-0.9340780753169976
-0.0167785640805959,1.3121100664138794,-0.1534663736820221,-0.3690492212772369,0.0543852299451828,0.156733363866806,0.0,0.0,-0.4352971058357093,-0.8582466827128401
-0.01828851737082,1.3032269477844238,-0.1602839529514312,-0.3951605260372162,0.0635712295770645,0.1837368756532669,0.0,0.0,0.6260411878845817,-0.7294481567178195
-0.019754696637392,1.2948081493377686,-0.1574739217758178,-0.3746649324893951,0.0743360146880149,0.2153156697750091,0.0,0.0,-0.4819067922442259,-0.6408712056884096
-0.0212603565305471,1.2858003377914429,-0.1623892039060592,-0.4009730219841003,0.0860585272312164,0.2344714403152465,0.0,0.0,-0.9151216300068044,0.7287892180623581
-0.0226913448423147,1.276231288909912,-0.1529102772474289,-0.4258840978145599,0.0958124920725822,0.1950971037149429,0.0,0.0,-0.4413912150313122,0.8284734519567166
-0.0240399353206157,1.266084909439087,-0.1425365209579467,-0.4514521956443786,0.1034364253282547,0.1524924784898758,0.0,0.0,0.3635386868469141,-0.678998111353289
-0.0253852847963571,1.2564324140548706,-0.1435911655426025,-0.4296501576900482,0.1124389469623565,0.1800666153430938,0.0,0.0,0.4962336349914866,0.8060212217795818
-0.0265572555363178,1.2467349767684937,-0.1246551498770713,-0.4315789341926574,0.1198593452572822,0.1484214812517166,0.0,0.0,0.404128064065993,0.6922018569789214
-0.0276618003845214,1.2375069856643677,-0.1164700537919998,-0.4106243252754211,0.1258504092693328,0.1198320984840393,0.0,0.0,-0.8238813930779174,-0.8324924057273605
-0.0288356784731149,1.2276852130889893,-0.1250660270452499,-0.4371815323829651,0.1335046142339706,0.1530978679656982,0.0,0.0,-0.8644948597039888,0.6557698737189122
-0.0299434661865234,1.217301845550537,-0.1166206374764442,-0.4620201885700226,0.1393420696258545,0.1167594045400619,0.0,0.0,0.7551055538414742,0.7169922056636479
-0.0310420989990234,1.2070478200912476,-0.1140694990754127,-0.4561348855495453,0.1435457617044448,0.0840808600187301,0.0,0.0,-0.7658448048946127,0.722874054300239
-0.0320673957467079,1.1962279081344604,-0.1047383174300193,-0.4811012148857116,0.1457522213459015,0.0441329181194305,0.0,0.0,0.945693101130224,0.8287234552614073
-0.0329869277775287,1.1853985786437988,-0.0924492329359054,-0.4813532531261444,0.1462478339672088,0.0099131911993026,0.0,0.0,-0.7589300077586054,-0.965849092157603
-0.0339955314993858,1.17397141456604,-0.103492222726345,-0.5081369876861572,0.1488725394010543,0.0524985082447528,0.0,0.0,0.9028963768517472,-0.7947625180889013
-0.0353614799678325,1.1630957126617432,-0.1401660293340683,-0.4837255477905273,0.1524288207292556,0.0711263641715049,0.0,0.0,0.565754951792699,-0.7613823382642501
-0.0368837341666221,1.1526530981063845,-0.1570422947406768,-0.4646205306053161,0.1572432368993759,0.0962884575128555,0.0,0.0,0.9320768481860312,-0.9807658440352612
-0.038797952234745,1.1430128812789917,-0.1976432651281356,-0.4291278719902038,0.163457840681076,0.1242921575903892,0.0,0.0,-0.7341037907955692,0.9949044533304156
-0.0406482703983783,1.1328160762786863,-0.189385637640953,-0.4536736905574798,0.1678250283002853,0.0873435959219932,0.0,0.0,0.518777455491958,0.7902199004608556
-0.0425284393131732,1.1227097511291504,-0.1904756426811218,-0.4494478404521942,0.170289009809494,0.0492796562612056,0.0,0.0,-0.2149012119474613,0.6612844818418292
-0.044352151453495,1.1120446920394895,-0.1831766068935394,-0.4740988910198211,0.1710889041423797,0.0159978866577148,0.0,0.0,-0.7685968939620118,0.6948451982850294
-0.0461241714656353,1.100807785987854,-0.176500603556633,-0.4993367493152618,0.1703801304101944,-0.0141751645132899,0.0,0.0,-0.1878041810815756,0.8642163710557234
-0.0478350631892681,1.089013934135437,-0.1685843616724014,-0.5238861441612244,0.1678685992956161,-0.0502306409180164,0.0,0.0,-0.9551614752455388,-0.8614433221447263
-0.0496152862906456,1.0766135454177856,-0.1771177053451538,-0.551025927066803,0.1669617444276809,-0.0181370135396718,0.0,0.0,0.3542047156590626,-0.6603291186396709
-0.0515141487121582,1.0643856525421145,-0.1900070309638977,-0.5434760451316833,0.1670899838209152,0.0025648174341768,0.0,0.0,0.9636083200111224,-0.8595038713288161
-0.0536028854548931,1.0529026985168457,-0.2104510962963104,-0.5105306506156921,0.168667197227478,0.0315444208681583,0.0,0.0,0.466009315792846,-0.8546180190439386
-0.0558474548161029,1.0414093732833862,-0.2273980379104614,-0.5111523270606995,0.1716055274009704,0.0587668642401695,0.0,0.0,-0.9478121734318086,-0.6469729021240185
-0.0581360831856727,1.02932870388031,-0.2326815575361251,-0.5373621582984924,0.175431415438652,0.076518103480339,0.0,0.0,-0.3500104460184294,0.6109785141955022
-0.0603773109614849,1.0166866779327393,-0.2264736443758011,-0.5621481537818909,0.1777813881635666,0.0469997562468051,0.0,0.0,-0.3941923597159915,-0.8926731602890687
-0.0626812949776649,1.0034480094909668,-0.2341035157442093,-0.5888367891311646,0.1815067380666732,0.0745069682598114,0.0,0.0,0.5559909010178781,-0.925090892478686
-0.0652983635663986,0.990668535232544,-0.266800194978714,-0.5686092376708984,0.1866140812635421,0.10214713960886,0.0,0.0,-0.9918496012687684,0.8768528699874878
-0.0678296089172363,0.977330446243286,-0.2557691037654876,-0.5931414365768433,0.1892684400081634,0.0530871227383613,0.0,0.0,-0.9144018292427064,0.9899070262908936
-0.0702667236328125,0.9634270071983336,-0.2437269389629364,-0.6179290413856506,0.1892868429422378,0.0003677854547277,0.0,0.0,-0.9972045421600342,0.9984294176101683
-0.0726098045706749,0.9489673972129822,-0.2316679656505584,-0.6423105001449585,0.1866350024938583,-0.0530371665954589,0.0,0.0,-0.99717515707016,0.9974164962768556
-0.0748756378889083,0.933936893939972,-0.2217603623867035,-0.6674262881278992,0.1817864030599594,-0.0969716161489486,0.0,0.0,-0.9938604831695556,0.9979234933853148
-0.0770534500479698,0.918339729309082,-0.2104655504226684,-0.6923288702964783,0.1744513660669326,-0.1467011421918869,0.0,0.0,-0.9635843634605408,0.9994832277297974
-0.079141616821289,0.9021808505058287,-0.1989586949348449,-0.7170494794845581,0.1645743995904922,-0.1975391954183578,0.0,0.0,-0.9865686893463136,0.9846575260162354
-0.0811655074357986,0.8854693174362183,-0.1905528306961059,-0.7414669394493103,0.1527485102415084,-0.2365182936191558,0.0,0.0,-0.9919949173927308,0.898874044418335
-0.0831323638558387,0.8682003021240234,-0.1830840557813644,-0.7661661505699158,0.1391778141260147,-0.271414041519165,0.0,0.0,-0.974535584449768,0.9386053085327148
-0.0850251168012619,0.8503665328025818,-0.1734882295131683,-0.7912114858627319,0.1234611943364143,-0.3143330216407776,0.0,0.0,-0.9867536425590516,0.921656370162964
-0.0868254676461219,0.8319733142852783,-0.1615810394287109,-0.8160556554794312,0.1051303967833519,-0.3666158318519592,0.0,0.0,-0.907968819141388,-0.5037661194801331
-0.088666632771492,0.8130010366439819,-0.1664023697376251,-0.8420621156692505,0.0875651538372039,-0.3513052761554718,0.0,0.0,-0.7255727648735046,0.0182397365570068
-0.0905049294233322,0.7934530973434448,-0.165758728981018,-0.8678320646286011,0.0696681216359138,-0.3579408228397369,0.0,0.0,0.3708761930465698,0.5881252288818359
-0.0923374146223068,0.774331271648407,-0.1636451482772827,-0.849059522151947,0.0502755232155323,-0.3878518044948578,0.0,0.0,0.75350022315979,-0.6434970498085022
-0.0940733924508094,0.7554165124893188,-0.1553585231304168,-0.8401445150375366,0.0322524644434452,-0.3604610562324524,0.0,0.0,-0.4928109645843506,-0.986181139945984
-0.0958969146013259,0.735917329788208,-0.1660748124122619,-0.866356611251831,0.0161800738424062,-0.3214477300643921,0.0,0.0,0.603626012802124,-0.7026852369308472
-0.0976859107613563,0.7170097231864929,-0.1639181673526764,-0.8402408957481384,0.0013897673925384,-0.2958059906959533,0.0,0.0,-0.0773127079010009,-0.7610434889793396
-0.0995186790823936,0.6975284218788147,-0.1691528111696243,-0.8658738732337952,-0.0125485323369503,-0.2787660360336303,0.0,0.0,0.9048140048980712,-0.8491981625556946
-0.1013094931840896,0.6789025664329529,-0.1665484607219696,-0.8279764652252197,-0.0249185096472501,-0.2473997622728347,0.0,0.0,0.2441924810409546,-0.6640850305557251
-0.1031993851065635,0.6605967879295349,-0.177389770746231,-0.8138262629508972,-0.0363698825240135,-0.229027435183525,0.0,0.0,0.3955240249633789,-0.7053950428962708
-0.1050832718610763,0.6421765089035034,-0.1780034452676773,-0.8189620971679688,-0.0466366484761238,-0.2053353041410446,0.0,0.0,0.9566285610198976,-0.6877127885818481
-0.1071080192923545,0.6244395971298218,-0.1928485333919525,-0.7886407971382141,-0.0561481341719627,-0.1902298927307129,0.0,0.0,0.0049093961715698,-0.2707003355026245
-0.1090377792716026,0.6065894961357117,-0.1834179461002349,-0.7937260270118713,-0.0655973702669143,-0.1889848411083221,0.0,0.0,0.7546031475067139,0.3777847290039062
-0.1108976379036903,0.5891334414482117,-0.1762720793485641,-0.7762818932533264,-0.0752087011933326,-0.1922264546155929,0.0,0.0,0.0136076211929321,-0.4899737238883972
-0.1127321273088455,0.5714668035507202,-0.1734910905361175,-0.7857120633125305,-0.0850676819682121,-0.1971797496080398,0.0,0.0,0.2025167942047119,-0.7144503593444824
-0.1146857291460037,0.553885817527771,-0.1864563971757888,-0.7819050550460815,-0.0938887000083923,-0.1764201670885086,0.0,0.0,0.817389965057373,-0.2384562492370605
-0.116525650024414,0.5371295213699341,-0.1749543845653534,-0.7453169226646423,-0.1028527691960334,-0.1792815029621124,0.0,0.0,0.0227998495101928,0.0773426294326782
-0.1182946190237999,0.5200576186180115,-0.1678690761327743,-0.7593980431556702,-0.1118244230747222,-0.1794328987598419,0.0,0.0,0.9062793254852296,-0.6590485572814941
-0.1199700385332107,0.5038867592811584,-0.1596929132938385,-0.7193163633346558,-0.119625374674797,-0.1560188680887222,0.0,0.0,-0.1418075561523437,-0.10403972864151
-0.1216441169381141,0.4871376752853393,-0.1593376696109771,-0.7450702786445618,-0.1276479214429855,-0.1604510396718979,0.0,0.0,0.7350552082061768,-0.4878413081169128
-0.1233221068978309,0.4708869755268097,-0.1590732783079147,-0.7230232954025269,-0.136326789855957,-0.1735776960849762,0.0,0.0,0.8410043716430664,-0.8858516216278076
-0.1249363869428634,0.4550969302654266,-0.1543677896261215,-0.7024408578872681,-0.1433648765087127,-0.140762060880661,0.0,0.0,0.1050595045089721,-0.1501721143722534
-0.126554399728775,0.43958580493927,-0.1541584432125091,-0.6901393532752991,-0.150987222790718,-0.1524467915296554,0.0,0.0,0.1144973039627075,-0.8295502662658691
-0.1281209886074066,0.4240757822990417,-0.1505452841520309,-0.6899668574333191,-0.1570958495140075,-0.1221726685762405,0.0,0.0,-0.0465332269668579,-0.3419877290725708
-0.1296872198581695,0.4079872369766235,-0.1503464877605438,-0.7157186269760132,-0.1633632481098175,-0.1253477931022644,0.0,0.0,0.9110617637634276,-0.7582807540893555
-0.1311676949262619,0.3918625116348266,-0.1433462798595428,-0.7171773910522461,-0.1680689603090286,-0.0941141843795776,0.0,0.0,0.9484487771987916,-0.7953677773475647
-0.1326840370893478,0.3757691979408264,-0.1483068168163299,-0.7156412601470947,-0.1714044213294983,-0.0667090788483619,0.0,0.0,0.982550859451294,-0.5334729552268982
-0.1340896636247635,0.3605219423770904,-0.1381585299968719,-0.6779348254203796,-0.1738136559724807,-0.0481846258044242,0.0,0.0,0.9658145904541016,-0.4481004476547241
-0.1352339684963226,0.3461049795150757,-0.1123737096786499,-0.6409947872161865,-0.1758804023265838,-0.0413349792361259,0.0,0.0,0.9055672883987428,-0.0642604231834411
-0.1363414824008941,0.3325352072715759,-0.1080051511526107,-0.6034265160560608,-0.1786273270845413,-0.0549385659396648,0.0,0.0,0.2394447326660156,-0.5350039601325989
-0.137552261352539,0.3187872767448425,-0.1191324219107627,-0.6112534403800964,-0.1805879026651382,-0.0392115823924541,0.0,0.0,0.914435863494873,-0.9129996299743652
-0.1386189460754394,0.305825412273407,-0.1065786927938461,-0.5760918855667114,-0.1806655824184417,-0.0015535972779616,0.0,0.0,0.6044431924819946,0.4224724769592285
-0.1396830528974533,0.2931355535984039,-0.1058578267693519,-0.5640623569488525,-0.1812272667884826,-0.011233708821237,0.0,0.0,0.6326185464859009,0.3929516077041626
-0.1406812667846679,0.2808692753314972,-0.0989962667226791,-0.5452662706375122,-0.1820499151945114,-0.0164532475173473,0.0,0.0,0.3503623008728027,0.2591851949691772
-0.1415871679782867,0.2688695192337036,-0.0897345170378685,-0.5334272980690002,-0.1829093694686889,-0.0171888228505849,0.0,0.0,-0.2952950000762939,-0.1031473278999328
-0.1424948722124099,0.2562904357910156,-0.089941881597042,-0.5591735243797302,-0.1837411820888519,-0.0166362505406141,0.0,0.0,0.9885683059692384,-0.3294686079025268
-0.1433012038469314,0.2437316924333572,-0.0799818933010101,-0.5582459568977356,-0.1843939423561096,-0.0130551187321543,0.0,0.0,0.9803402423858644,0.3675656318664551
-0.1439118385314941,0.2312745898962021,-0.0609891526401042,-0.5536572933197021,-0.1844655126333236,-0.0014314902946352,0.0,0.0,0.9899208545684814,0.1141110658645629
-0.1442242562770843,0.2192033678293228,-0.0320770367980003,-0.536392867565155,-0.1836306005716323,0.0166978910565376,0.0,0.0,0.9966870546340942,-0.1254447698593139
-0.1442864388227462,0.2072095274925232,-0.0079254265874624,-0.5328509211540222,-0.1819095015525818,0.03442208096385,0.0,0.0,0.9933269023895264,-0.8107013702392578
-0.1442565023899078,0.1959984600543975,-0.000460099952761,-0.4978488683700561,-0.178447812795639,0.0692338496446609,0.0,0.0,0.988316774368286,0.2425354719161987
-0.1440303772687912,0.1855456382036209,0.0188389457762241,-0.4641208052635193,-0.1746664941310882,0.0756263509392738,0.0,0.0,0.9028303623199464,-0.1002749800682067
-0.1435321867465973,0.1756108850240707,0.0452277287840843,-0.4410103261470794,-0.1700540035963058,0.0922499224543571,0.0,0.0,0.8190819025039673,0.1711009740829467
-0.1428661346435547,0.1655998826026916,0.0612882561981678,-0.4443343877792358,-0.1647399216890335,0.1062815189361572,0.0,0.0,0.9478991031646729,-0.4916841983795166
-0.1421654671430587,0.1559130996465683,0.0648318231105804,-0.4299502074718475,-0.1595043540000915,0.1047114133834838,0.0,0.0,0.8487601280212402,-0.4007481932640075
-0.1412206590175628,0.1470542997121811,0.0885791853070259,-0.3931049108505249,-0.1536026746034622,0.1180335283279419,0.0,0.0,0.3379225730895996,-0.4252195954322815
-0.1402266472578048,0.1383036524057388,0.0933291092514991,-0.388303279876709,-0.1475405544042587,0.1212423220276832,0.0,0.0,0.7683694362640381,-0.6524036526679993
-0.1393029242753982,0.1302861273288726,0.0850720927119255,-0.3556293249130249,-0.1402498185634613,0.1458146870136261,0.0,0.0,0.1549179553985595,0.6137679815292358
-0.1381979882717132,0.1223924979567527,0.1040078252553939,-0.3502289652824402,-0.1337938457727432,0.1291193813085556,0.0,0.0,0.6913890838623047,-0.4958571791648865
-0.137047678232193,0.1150724962353706,0.108497180044651,-0.3247624635696411,-0.1272861361503601,0.1301542073488235,0.0,0.0,0.2484095096588134,-0.3761389255523681
-0.1358900964260101,0.1080269441008567,0.1091729179024696,-0.3125892281532287,-0.120743915438652,0.1308445632457733,0.0,0.0,0.3627156019210815,-0.6054758429527283
-0.1347558051347732,0.1010245904326438,0.1053351536393165,-0.3105821013450622,-0.1126972511410713,0.1609331518411636,0.0,0.0,0.484278917312622,0.2156950235366821
-0.1336674690246582,0.0942662805318832,0.1008581146597862,-0.2997902929782867,-0.1047761961817741,0.1584210842847824,0.0,0.0,0.1023968458175659,0.6532113552093506
-0.1326065063476562,0.0874583348631858,0.0991839617490768,-0.3021052479743957,-0.0979211553931236,0.1371011435985565,0.0,0.0,0.8061070442199707,-0.0719508528709411
-0.1313560456037521,0.0812270939350128,0.1171975582838058,-0.2764504551887512,-0.0901377573609352,0.1556678414344787,0.0,0.0,0.5825295448303223,0.4413655996322632
-0.1300177574157714,0.07493706792593,0.125293344259262,-0.2790688276290893,-0.0816738903522491,0.1692772209644317,0.0,0.0,0.0078144073486328,-0.026379644870758
-0.1285556852817535,0.068753108382225,0.1368216723203659,-0.2743548452854156,-0.0723767131567001,0.1859435737133026,0.0,0.0,0.5203472375869751,0.1650125980377197
-0.1270651817321777,0.0630612447857856,0.1393012553453445,-0.2525258958339691,-0.0627380833029747,0.1927726566791534,0.0,0.0,0.1051337718963623,0.3360850811004638
-0.125445932149887,0.0576378218829631,0.1512719541788101,-0.2406273037195205,-0.0522049106657505,0.2106637209653854,0.0,0.0,0.3231984376907348,0.1289308071136474
-0.1237437278032302,0.0523269027471542,0.1588092744350433,-0.2356784790754318,-0.04092238843441,0.225650355219841,0.0,0.0,0.5848276615142822,0.2316412925720214
-0.1220185309648513,0.0476125106215477,0.1606471240520477,-0.2092457562685012,-0.0291921645402908,0.2346043884754181,0.0,0.0,0.6704308986663818,0.2203550338745117
-0.1202107444405555,0.0435118041932582,0.1681006699800491,-0.1820529550313949,-0.0166860986500978,0.2501213848590851,0.0,0.0,0.5814287662506104,0.7530653476715088
-0.1182532310485839,0.0394844152033329,0.1839341670274734,-0.1789016276597976,-0.0050175213254988,0.233371615409851,0.0,0.0,0.3635239601135254,-0.5406477451324463
-0.1164476424455642,0.0356472842395305,0.1673827767372131,-0.1705452501773834,0.0079929493367671,0.2602094113826751,0.0,0.0,0.4744441509246826,-0.087587296962738
-0.1147622093558311,0.0319208726286888,0.1553638279438018,-0.1657389849424362,0.0209995862096548,0.2601327896118164,0.0,0.0,0.6414382457733154,0.5141785144805908
-0.1130727753043174,0.0284576751291751,0.1563338786363601,-0.1541433483362198,0.0334574729204177,0.2491576969623565,0.0,0.0,0.5255088806152344,0.0810754299163818
-0.1113777160644531,0.0251572709530591,0.1562281548976898,-0.1470343619585037,0.0465721525251865,0.2622936964035034,0.0,0.0,0.3684682846069336,0.4356565475463867
-0.1095903366804122,0.0217342004179954,0.1643940955400467,-0.1526420265436172,0.0607421733438968,0.2834005355834961,0.0,0.0,0.4052067995071411,0.36971116065979
-0.1077574715018272,0.0186134669929742,0.1680014729499817,-0.1393880695104599,0.0758592337369918,0.3023411929607391,0.0,0.0,-0.0539742708206176,-0.214188277721405
-0.1059267073869705,0.0149171687662601,0.1672474592924118,-0.1651574075222015,0.0915479660034179,0.3137747645378113,0.0,0.0,0.4895151853561401,0.5111110210418701
-0.1040214523673057,0.0110738845542073,0.1749917566776275,-0.171832799911499,0.1069570407271385,0.3081814646720886,0.0,0.0,0.701836109161377,0.3559961318969726
