x_pos,y_pos,x_vel,y_vel,angle,ang_vel,leg_1,leg_2,main_booster,lat_booster
-0.0015678405761718,1.4033751487731934,-0.1586300879716873,-0.3353382647037506,0.0016542142257094,0.032622504979372,0.0,0.0,-0.2440807819366455,0.5708485841751099
-0.0031307220924645,1.3956010341644287,-0.1565144211053848,-0.3455153703689575,0.0018868813058361,0.0046546198427677,0.0,0.0,0.2138674259185791,0.396763801574707
-0.0046383859589695,1.3880224227905271,-0.1513191163539886,-0.3368259370326996,0.00243063387461,0.0108758006244897,0.0,0.0,-0.1333107352256775,0.4463720321655273
-0.0061874389648437,1.3801941871643066,-0.1552911698818206,-0.3479207456111908,0.0028072278946638,0.0075329998508095,0.0,0.0,-0.3759809136390686,0.4963706731796264
-0.0077767372131347,1.3721165657043457,-0.1591412723064422,-0.3590070903301239,0.0030112995300441,0.0040819179266691,0.0,0.0,0.219389796257019,0.1527470350265503
-0.0093050003051757,1.3643910884857178,-0.1533413231372833,-0.3433521091938019,0.0035208945628255,0.0101929539814591,0.0,0.0,0.0100826025009155,0.914924383163452
-0.0108167650178074,1.3569461107254028,-0.1496680080890655,-0.3308898508548736,0.002036225516349,-0.0296963863074779,0.0,0.0,-0.3984323143959045,0.6550414562225342
-0.0123002054169774,1.3492536544799805,-0.1450299173593521,-0.3418838381767273,-0.0012554468121379,-0.0658394023776054,0.0,0.0,0.3113827705383301,0.2951599359512329
-0.0138273239135742,1.3423084020614624,-0.14913110435009,-0.3086873292922973,-0.0047875419259071,-0.0706483274698257,0.0,0.0,-0.4548594951629638,0.0782879590988159
-0.0153874401003122,1.3351136445999146,-0.1522411406040191,-0.3197842538356781,-0.0085202772170305,-0.0746618434786796,0.0,0.0,-0.0654002428054809,0.3013474941253662
-0.0169790275394916,1.3276697397232056,-0.1551787555217743,-0.3308698534965515,-0.0124585954472422,-0.078773483633995,0.0,0.0,-0.600023090839386,0.1542071104049682
-0.0186003688722848,1.319976568222046,-0.1579349786043167,-0.3419583439826965,-0.0166074261069297,-0.0829841569066047,0.0,0.0,-0.0851355195045471,0.5666966438293457
-0.0201951973140239,1.3120359182357788,-0.1536825001239776,-0.3529944121837616,-0.0223377216607332,-0.1146162897348404,0.0,0.0,-0.2195571064949035,0.5480725765228271
-0.0217677112668752,1.3038396835327148,-0.1500098407268524,-0.3644022345542907,-0.0294991116970777,-0.1432411968708038,0.0,0.0,-0.5251328945159912,-0.0439079999923706
-0.0233639720827341,1.295394778251648,-0.1521601378917694,-0.3754949569702148,-0.036884568631649,-0.1477225124835968,0.0,0.0,-0.1355453729629516,0.6424448490142822
-0.0249222759157419,1.2866904735565186,-0.1466008126735687,-0.3871078789234161,-0.0460068956017494,-0.182463064789772,0.0,0.0,-0.3145692348480224,0.5634200572967529
-0.0264450069516897,1.2777409553527832,-0.1414366215467453,-0.3981221616268158,-0.0567347779870033,-0.2145774662494659,0.0,0.0,-0.4140982627868652,0.3016172647476196
-0.027984619140625,1.268543720245361,-0.1429032534360885,-0.4092208743095398,-0.0676992982625961,-0.2193102538585662,0.0,0.0,-0.4574141502380371,-0.5171692967414856
-0.029572868719697,1.259106993675232,-0.1483963876962661,-0.4199104011058807,-0.0780416652560234,-0.2068656384944915,0.0,0.0,-0.7443819046020508,0.2267534732818603
-0.0311733242124319,1.249422550201416,-0.1493777334690094,-0.4310097694396972,-0.088629700243473,-0.2117796391248703,0.0,0.0,-0.6994956135749817,0.6212441921234131
-0.0327239036560058,1.2394872903823853,-0.1426436603069305,-0.4423494637012481,-0.1009638458490371,-0.2467048913240432,0.0,0.0,-0.7065163254737854,0.0620986223220825
-0.0342815406620502,1.2293049097061155,-0.1431078016757965,-0.4534539878368377,-0.1135502755641937,-0.2517513632774353,0.0,0.0,-0.5458248853683472,-0.3138625621795654
-0.0358436591923236,1.2188754081726074,-0.1433091461658477,-0.4645597040653229,-0.1263937503099441,-0.2568923234939575,0.0,0.0,-0.0126808285713195,-0.5432491898536682
-0.0374456420540809,1.208200216293335,-0.1480223834514618,-0.4755328595638275,-0.1385418474674224,-0.2429830729961395,0.0,0.0,-0.1965803503990173,-0.2331039309501648
-0.039046861231327,1.1972779035568235,-0.1476909816265106,-0.486639142036438,-0.1509546190500259,-0.2482776939868927,0.0,0.0,-0.7532128095626831,-0.2923231124877929
-0.040646743029356,1.1860873699188232,-0.1473036706447601,-0.4986898303031921,-0.163636177778244,-0.2536309361457824,0.0,0.0,-0.6761549115180969,-0.108027696609497
-0.042240809649229,1.1746503114700315,-0.1464670002460479,-0.5097929239273071,-0.1765908747911453,-0.2590941786766052,0.0,0.0,-0.8035358786582947,-0.7220507860183716
-0.0438936240971088,1.162992000579834,-0.1538660377264022,-0.5195466876029968,-0.1880557835102081,-0.2292983531951904,0.0,0.0,-0.0563167333602905,-0.6953767538070679
-0.0456002242863178,1.1511106491088867,-0.1606774628162384,-0.5293499231338501,-0.198098748922348,-0.2008589804172516,0.0,0.0,-0.1178501844406127,-0.8259871006011963
-0.0473598465323448,1.1389989852905271,-0.1674059778451919,-0.5394706130027771,-0.2067095935344696,-0.1722172498703003,0.0,0.0,0.236255407333374,-0.5259958505630493
-0.048997975885868,1.1275832653045654,-0.1560739427804947,-0.5084643959999084,-0.2145125418901443,-0.1560590863227844,0.0,0.0,-0.7791460752487183,-0.7433398365974426
-0.0506826415657997,1.115936517715454,-0.1621320694684982,-0.518565833568573,-0.2209183722734451,-0.1281166970729828,0.0,0.0,0.0489829778671264,-0.4196663498878479
-0.0522857680916786,1.1048040390014648,-0.1534564942121505,-0.4958241283893585,-0.2278580963611602,-0.1387945860624313,0.0,0.0,-0.1130837798118591,-0.726131796836853
-0.0539280883967876,1.0934385061264038,-0.1586885452270507,-0.506004273891449,-0.2334787100553512,-0.1124124079942703,0.0,0.0,-0.2119719386100769,-0.7509891986846924
-0.0556004531681537,1.0818462371826172,-0.162856325507164,-0.5159114599227905,-0.2379208654165268,-0.0888430327177047,0.0,0.0,-0.2086292505264282,-0.6628805994987488
-0.0572932250797748,1.0700284242630005,-0.1658908724784851,-0.5257870554924011,-0.241360455751419,-0.068791776895523,0.0,0.0,-0.0323519706726074,-0.7761952877044678
-0.0590186119079589,1.0579813718795776,-0.1704578250646591,-0.5357695817947388,-0.2434691041707992,-0.0421731770038604,0.0,0.0,0.618220329284668,-0.9110811352729796
-0.0605599395930767,1.0467888116836548,-0.1536338627338409,-0.4975294768810272,-0.2439789772033691,-0.0101973349228501,0.0,0.0,0.2209410667419433,-0.5452898740768433
-0.061988353729248,1.0362870693206787,-0.1430709511041641,-0.4667018353939056,-0.2437499463558197,0.0045805014669895,0.0,0.0,-0.4340925216674804,-0.0743762254714965
-0.0633808150887489,1.0255370140075684,-0.1391732990741729,-0.4777940511703491,-0.2438273876905441,-0.0015484157484024,0.0,0.0,0.1626613140106201,-0.0058093667030334
-0.064676284790039,1.015363335609436,-0.1288189888000488,-0.4522849023342132,-0.2445604652166366,-0.0146612059324979,0.0,0.0,-0.2151228189468383,-0.2276449203491211
-0.0659322738647461,1.00494122505188,-0.1245775073766708,-0.4633772075176239,-0.2456030696630478,-0.0208524465560913,0.0,0.0,-0.6991344690322876,-0.7372164130210876
-0.0671960860490799,0.9942804574966432,-0.1262671053409576,-0.4738258123397827,-0.2457149028778076,-0.0022368079517036,0.0,0.0,-0.756609320640564,-0.58495032787323
-0.0684550255537033,0.983384370803833,-0.1264462023973465,-0.4841829538345337,-0.2451533526182174,0.0112311337143182,0.0,0.0,-0.6503697037696838,-0.6089533567428589
-0.0697212219238281,0.9722514152526855,-0.1281407624483108,-0.4945420920848846,-0.2435984462499618,0.0310976915061473,0.0,0.0,-0.0694249272346496,-0.7425653338432312
-0.0709960907697677,0.960882306098938,-0.1300584822893142,-0.504865825176239,-0.2409793585538864,0.0523817650973796,0.0,0.0,-0.5020469427108765,-0.4745131731033325
-0.0722246170043945,0.9492649435997008,-0.1251218914985656,-0.5159586668014526,-0.2386754751205444,0.0460775308310985,0.0,0.0,-0.8709172606468201,-0.6544106602668762
-0.0734641104936599,0.9374277591705322,-0.1274568438529968,-0.5255321264266968,-0.2351147830486297,0.0712138041853904,0.0,0.0,-0.9905733466148376,-0.433379590511322
-0.0746551528573036,0.9253423810005188,-0.1223022118210792,-0.536625325679779,-0.2318707704544067,0.0648802891373634,0.0,0.0,-0.9978115558624268,-0.1943665742874145
-0.0757967978715896,0.9130085110664368,-0.1170497685670852,-0.547718346118927,-0.2289440184831619,0.0585349313914775,0.0,0.0,-0.982288122177124,-0.2219622135162353
-0.0768880844116211,0.9004263281822205,-0.1117065697908401,-0.5588111281394958,-0.2263350039720535,0.0521803200244903,0.0,0.0,-0.9954940676689148,-0.7519497275352478
-0.0779909119009971,0.8876226544380188,-0.1141788735985755,-0.5684621930122375,-0.2223800867795944,0.0790983512997627,0.0,0.0,-0.9992108345031738,-0.6113232970237732
-0.0790807753801345,0.8745803833007812,-0.1135711073875427,-0.5789722204208374,-0.2177384197711944,0.0928329676389694,0.0,0.0,-0.9808690547943116,-0.0737320780754089
-0.0801178961992263,0.861289918422699,-0.1079945564270019,-0.5900657773017883,-0.2134152799844741,0.0864628627896308,0.0,0.0,-0.9939730167388916,0.3419185876846313
-0.0811017006635665,0.8477510213851929,-0.102351501584053,-0.6011589169502258,-0.2094106823205948,0.0800918340682983,0.0,0.0,-0.989215850830078,-0.7192015051841736
-0.082096479833126,0.833981454372406,-0.1047869697213172,-0.6112440228462219,-0.2040509432554245,0.1071945652365684,0.0,0.0,-0.9670248031616212,-0.0409088134765625
-0.0830367058515548,0.8199634552001953,-0.0990263074636459,-0.6223377585411072,-0.1990095525979995,0.1008278727531433,0.0,0.0,-0.971068263053894,-0.2202646136283874
-0.0839219093322753,0.8056972622871399,-0.0932134389877319,-0.6334311366081238,-0.1942862272262573,0.0944665968418121,0.0,0.0,-0.9536073803901672,-0.6216717958450317
-0.0847928971052169,0.7912015914916992,-0.0925769060850143,-0.6435487270355225,-0.1887827217578888,0.1100700050592422,0.0,0.0,-0.9716379046440125,0.3141745328903198
-0.0856080055236816,0.7764576077461243,-0.0866720080375671,-0.6546422243118286,-0.1835964024066925,0.1037263646721839,0.0,0.0,-0.9347728490829468,0.1806995868682861
-0.0863667502999305,0.7614652514457703,-0.0807263851165771,-0.6657352447509766,-0.1787266433238983,0.0973951146006584,0.0,0.0,-0.8828591108322144,-0.7424639463424683
-0.0871355980634689,0.7462466359138489,-0.0831623524427414,-0.6756399273872375,-0.1724336743354797,0.1258596926927566,0.0,0.0,-0.4546424150466919,0.4650167226791382
-0.0878473296761512,0.7307798266410828,-0.0771453455090522,-0.686733603477478,-0.1664556711912155,0.119560420513153,0.0,0.0,-0.9142401218414308,0.124035358428955
-0.0885016471147537,0.7150646448135376,-0.071096733212471,-0.6978269815444946,-0.1607916355133056,0.1132811456918716,0.0,0.0,-0.9127154350280762,0.089579701423645
-0.0890983566641807,0.6991011500358582,-0.0650191456079483,-0.7089198231697083,-0.1554403752088546,0.1070247888565063,0.0,0.0,-0.5270587801933289,0.0924131870269775
-0.0896370857954025,0.6828892827033997,-0.0589149892330169,-0.7200123071670532,-0.1504006534814834,0.1007943376898765,0.0,0.0,-0.5192241072654724,0.2983036041259765
-0.0901175513863563,0.666428804397583,-0.0527865178883075,-0.7311042547225952,-0.1456709951162338,0.0945930033922195,0.0,0.0,0.5238577127456665,0.3105683326721191
-0.0904254913330078,0.6501035094261169,-0.0355794914066791,-0.7251022458076477,-0.140899583697319,0.0954284444451332,0.0,0.0,-0.4526700973510742,0.2186822891235351
-0.0906747803092002,0.6335299015045166,-0.0294085144996643,-0.736193835735321,-0.13643479347229,0.0892956405878067,0.0,0.0,-0.0570680499076843,0.4772399663925171
-0.0908652320504188,0.6167075037956238,-0.0232190024107694,-0.747285008430481,-0.1322746574878692,0.0832026973366737,0.0,0.0,0.3035604953765869,-0.3023003339767456
-0.0909979790449142,0.600445032119751,-0.0168100614100694,-0.7224626541137695,-0.1287521123886108,0.0704509764909744,0.0,0.0,0.3031585216522217,-0.0749039649963378
-0.0909844413399696,0.5846593976020813,-0.0019901259802281,-0.7012956142425537,-0.1254173666238784,0.0666949898004531,0.0,0.0,-0.1278702616691589,-0.7212767601013184
-0.0909793823957443,0.5686461329460144,-0.0043139224871993,-0.711304783821106,-0.1206281334161758,0.0957846343517303,0.0,0.0,0.1060996055603027,-0.5393782258033752
-0.0908566489815712,0.5529578328132629,0.0065740407444536,-0.6968076229095459,-0.114960566163063,0.1133512258529663,0.0,0.0,0.2955701351165771,-0.1117485165596008
-0.0906653404235839,0.537482500076294,0.0138485236093401,-0.6873958110809326,-0.1097066700458526,0.1050779372453689,0.0,0.0,0.0649043321609497,0.0159062147140502
-0.0903475731611251,0.522063672542572,0.0265650786459445,-0.6849074959754944,-0.1045379489660263,0.1033744066953659,0.0,0.0,0.0390594005584716,-0.2581980228424072
-0.0899673476815223,0.5067177414894104,0.0331875570118427,-0.6817125082015991,-0.0997453182935714,0.0958522707223892,0.0,0.0,-0.4072778224945068,-0.1621685028076172
-0.0895271301269531,0.4911229908466339,0.0394736342132091,-0.6928027272224426,-0.0952328145503997,0.0902501717209816,0.0,0.0,0.5047469139099121,-0.4625110626220703
-0.0888834968209266,0.4763785004615783,0.0597510412335395,-0.6550246477127075,-0.0906587839126586,0.0914803892374038,0.0,0.0,0.2754145860671997,-0.7137245535850525
-0.0882750526070594,0.4623558521270752,0.0552110783755779,-0.6228997707366943,-0.0850667059421539,0.1118414998054504,0.0,0.0,-0.4563620090484619,0.3054449558258056
-0.0876061469316482,0.4480844140052795,0.0615148246288299,-0.6339902877807617,-0.0797403380274772,0.106527030467987,0.0,0.0,0.0083620548248291,0.2935056686401367
-0.0868137329816818,0.4342826306819916,0.0740068256855011,-0.6131426692008972,-0.0745602399110794,0.1036020368337631,0.0,0.0,-0.463381290435791,-0.1852560043334961
-0.0859607681632042,0.4202319383621216,0.0803179517388343,-0.6242323517799377,-0.0696342289447784,0.098520427942276,0.0,0.0,-0.2963991165161133,-0.3670113086700439
-0.085047148168087,0.4059323966503143,0.0866314694285392,-0.6353217959403992,-0.0649557709693908,0.0935690104961395,0.0,0.0,0.1101311445236206,-0.7693164944648743
-0.0841120705008506,0.3920981287956238,0.0874762907624244,-0.6146084666252136,-0.0589922666549682,0.1192700266838073,0.0,0.0,0.1020318269729614,-0.193100094795227
-0.0830352753400802,0.3785910308361053,0.1016156524419784,-0.6000894904136658,-0.052992794662714,0.1199895367026329,0.0,0.0,0.0033435821533203,0.3484504222869873
-0.0818720832467079,0.3651453554630279,0.1104031801223754,-0.5973888039588928,-0.0471517816185951,0.1168203502893447,0.0,0.0,0.5049920082092285,-0.0395538210868835
-0.0805462822318077,0.3519943952560425,0.1264935731887817,-0.584306538105011,-0.041136335581541,0.1203089207410812,0.0,0.0,-0.154033362865448,-0.3577772378921509
-0.0791593566536903,0.3385946452617645,0.1328066885471344,-0.5953961610794067,-0.0353282019495964,0.1161627173423767,0.0,0.0,0.446129560470581,-0.2542027235031128
-0.0775772109627723,0.3254570364952087,0.1519608050584793,-0.5837594866752625,-0.0291532501578331,0.1234990954399108,0.0,0.0,0.157935619354248,-0.2143804430961609
-0.0759225860238075,0.3128602504730224,0.1594261080026626,-0.5597540140151978,-0.0231840088963508,0.1193847432732582,0.0,0.0,0.4337005615234375,-0.6037960648536682
-0.0742096900939941,0.3010068833827972,0.164137378334999,-0.526719331741333,-0.0161275677382946,0.1411290168762207,0.0,0.0,-0.7325634360313416,-0.0681673288345336
-0.0724355727434158,0.2889048159122467,0.1704353988170623,-0.5378096699714661,-0.0092361094430089,0.1378290802240371,0.0,0.0,0.4534170627593994,-0.2847051620483398
-0.070508673787117,0.2769835889339447,0.1854499280452728,-0.5298077464103699,-0.002087284810841,0.1429768502712249,0.0,0.0,0.0560605525970459,-0.2219377160072326
-0.0685532540082931,0.2653018832206726,0.1886027753353119,-0.5191929936408997,0.0047656809911131,0.137059211730957,0.0,0.0,0.3409147262573242,-0.6392546892166138
-0.0665144920349121,0.2544296979904175,0.1956387758255005,-0.4832566082477569,0.01290122885257,0.162710815668106,0.0,0.0,-0.1228395700454711,-0.7262187600135803
-0.0644738227128982,0.2433076947927475,0.1944182515144348,-0.4944238066673279,0.0224228203296661,0.1904315650463104,0.0,0.0,0.4147498607635498,0.1273140907287597
-0.0624934211373329,0.2329553663730621,0.1889979988336563,-0.4602667093276977,0.0313513614237308,0.1785707771778106,0.0,0.0,-0.0087754130363464,-0.3350664377212524
-0.0604514107108116,0.2223545610904693,0.1952458918094635,-0.4713592231273651,0.0401940196752548,0.1768529713153839,0.0,0.0,0.086794376373291,-0.4347065687179565
-0.0584029182791709,0.2122428566217422,0.1961461454629898,-0.4496655166149139,0.0488024316728115,0.1721683293581009,0.0,0.0,0.1178600788116455,-0.8711210489273071
-0.0564517974853515,0.2026384025812149,0.1847231984138488,-0.4272372126579284,0.0590656362473964,0.2052643299102783,0.0,0.0,-0.4882220029830932,-0.3902680873870849
-0.0544391646981239,0.1927858144044876,0.1909311115741729,-0.4383318722248077,0.0692872032523155,0.2044311463832855,0.0,0.0,0.3302552700042724,0.1449487209320068
-0.0524921417236328,0.1833999454975128,0.1848403364419937,-0.4176348745822906,0.0790475830435752,0.1952075064182281,0.0,0.0,-0.4576547145843506,-0.5661951303482056
-0.0505393967032432,0.1737580895423889,0.1840161383152008,-0.4291552305221557,0.0902062281966209,0.2231727540493011,0.0,0.0,-0.0966097712516784,-0.2361419796943664
-0.048525046557188,0.1638685315847396,0.1901714503765106,-0.4402516782283783,0.101368136703968,0.2232381105422973,0.0,0.0,0.3238118886947632,-0.8224074840545654
-0.046488095074892,0.1541641503572464,0.1907275021076202,-0.432235836982727,0.1142508164048194,0.2576536238193512,0.0,0.0,0.3793915510177612,-0.219112753868103
-0.0443421378731727,0.1451826244592666,0.2010481059551239,-0.4002704620361328,0.127726212143898,0.2695078551769256,0.0,0.0,-0.1279910802841186,0.3092987537384033
-0.0421349518001079,0.1359541714191436,0.2071357667446136,-0.4113721251487732,0.1412483602762222,0.2704433500766754,0.0,0.0,0.246984601020813,-0.4772747755050659
-0.0398510918021202,0.1274594366550445,0.2142817974090576,-0.3789416551589966,0.1553293466567993,0.2816200852394104,0.0,0.0,-0.1838526129722595,0.1290290355682373
-0.0375063903629779,0.1187180131673812,0.2203133553266525,-0.3900451064109802,0.169484481215477,0.283102810382843,0.0,0.0,0.323937177658081,0.4281239509582519
-0.0352171882987022,0.1106958463788032,0.2147361487150192,-0.3582167625427246,0.1837000399827957,0.2843112349510193,0.0,0.0,0.2363511323928833,0.4212995767593384
-0.0329306609928607,0.1033088266849517,0.214191049337387,-0.3301638066768646,0.1982252895832061,0.290504902601242,0.0,0.0,-0.2463242411613464,-0.3515011072158813
-0.0305843353271484,0.0956754758954048,0.2201176881790161,-0.3412690162658691,0.2128622084856033,0.2927386164665222,0.0,0.0,-0.234892725944519,-0.0978078246116638
-0.028178310021758,0.0877958610653877,0.2260027825832367,-0.3523747622966766,0.2276222854852676,0.2952014803886413,0.0,0.0,0.2238591909408569,0.1048389673233032
-0.025891875848174,0.0801949799060821,0.2144091874361038,-0.3400787115097046,0.2420765906572342,0.2890857458114624,0.0,0.0,0.2931398153305053,-0.3679342269897461
-0.0236685760319232,0.0729844197630882,0.208063393831253,-0.3228834271430969,0.2565973103046417,0.2904142439365387,0.0,0.0,-0.0338672995567321,-0.0588827729225158
-0.0213870052248239,0.0655277371406555,0.2137990295886993,-0.3339898884296417,0.271272212266922,0.2934979796409607,0.0,0.0,0.4759964942932129,-0.1828557252883911
-0.0190213210880756,0.0583361946046352,0.221582144498825,-0.322476178407669,0.2866501808166504,0.3075596988201141,0.0,0.0,0.571982741355896,-0.1484060883522033
-0.0166935920715332,0.051874503493309,0.217280313372612,-0.29031503200531,0.3026292026042938,0.3195807337760925,0.0,0.0,0.5688812732696533,0.0056924819946289
-0.0145149230957031,0.0462746955454349,0.2021617144346237,-0.2522295713424682,0.3188985586166382,0.3253875374794006,0.0,0.0,-0.121320903301239,-0.2892749309539795
