x_pos,y_pos,x_vel,y_vel,angle,ang_vel,leg_1,leg_2,main_booster,lat_booster
-0.001533031463623,1.403351068496704,-0.1552858501672744,-0.3364062309265136,0.0017757263267412,0.035028550773859,0.0,0.0,-0.2062149047851562,0.5677626132965088
-0.0030269622802734,1.3955289125442505,-0.1498946100473404,-0.347649872303009,0.0022804085165262,0.0100952284410595,0.0,0.0,-0.041956603527069,0.0232914686203002
-0.0045294761657714,1.3874328136444092,-0.150753304362297,-0.3598288297653198,0.0027737012133002,0.009866751730442,0.0,0.0,-0.0488618612289428,0.791702151298523
-0.0059904097579419,1.3790607452392578,-0.1453008949756622,-0.372090995311737,0.0019943176303058,-0.0155892195180058,0.0,0.0,0.2411797046661377,0.6104778051376343
-0.007304954342544,1.371152400970459,-0.1296357959508896,-0.3514798879623413,0.0001943985553225,-0.0360016152262687,0.0,0.0,-0.2413428425788879,0.2316421270370483
-0.0086270328611135,1.3629704713821411,-0.1303559392690658,-0.3636417090892792,-0.0016283350996673,-0.0364583060145378,0.0,0.0,0.1077991724014282,0.2957706451416015
-0.0099705699831247,1.3550958633422852,-0.1324052363634109,-0.3499786555767059,-0.0035501548554748,-0.0384401865303516,0.0,0.0,-0.3771388530731201,0.6886669397354126
-0.0112528800964355,1.346949577331543,-0.1245403885841369,-0.3620702922344208,-0.0072033074684441,-0.0730699300765991,0.0,0.0,-0.1623432636260986,0.6183664798736572
-0.0124934194609522,1.338536262512207,-0.1191127076745033,-0.3739549219608307,-0.0120894005522131,-0.0977308377623558,0.0,0.0,0.0250276327133178,0.2436933517456054
-0.0137343406677246,1.3305258750915527,-0.119117870926857,-0.3560695648193359,-0.0170145351439714,-0.0985115468502044,0.0,0.0,-0.7860068678855896,0.0935910940170288
-0.0149802211672067,1.322242021560669,-0.1195649355649948,-0.368232786655426,-0.021980008110404,-0.0993186682462692,0.0,0.0,-0.7222126126289368,0.4702889919281006
-0.0162303932011127,1.313685178756714,-0.1199525371193885,-0.3803886473178863,-0.0269888397306203,-0.1001855283975601,0.0,0.0,-0.1932920217514038,0.0717281103134155
-0.0174841880798339,1.304855227470398,-0.1202789694070816,-0.3925459086894989,-0.0320440530776977,-0.1011135801672935,0.0,0.0,-0.4985310435295105,0.0404112339019775
-0.01874122582376,1.2957521677017212,-0.1205424070358276,-0.4047039747238159,-0.0371486246585845,-0.1021008044481277,0.0,0.0,0.1228771209716796,0.2788395881652832
-0.0198841094970703,1.287210464477539,-0.1095332726836204,-0.3797608017921448,-0.041853729635477,-0.0941105186939239,0.0,0.0,-0.5002779960632324,-0.183714747428894
-0.0210289005190134,1.278395175933838,-0.1096678227186203,-0.3919253051280975,-0.0466141775250434,-0.0952175557613372,0.0,0.0,-0.9232551455497742,-0.0080820322036743
-0.0221748352050781,1.269307017326355,-0.109734334051609,-0.4040810763835907,-0.0514320693910121,-0.0963662639260292,0.0,0.0,-0.5602015852928162,0.2573508024215698
-0.0233214385807514,1.2599456310272217,-0.1097328811883926,-0.4162388145923614,-0.0563100576400756,-0.0975684076547622,0.0,0.0,0.183287501335144,0.5023667812347412
-0.0243199355900287,1.251167058944702,-0.0940190553665161,-0.3903844654560089,-0.0620831362903118,-0.1154723167419433,0.0,0.0,-0.9676869511604308,-0.4820438623428345
-0.0253176689147949,1.242115497589111,-0.0938771814107894,-0.4025506377220154,-0.0679206624627113,-0.116761103272438,0.0,0.0,-0.9921839833259584,0.1139101982116699
-0.0263137817382812,1.2327909469604492,-0.0936649963259697,-0.4147078692913055,-0.0738251581788063,-0.1181003302335739,0.0,0.0,-0.8829050064086914,-0.0177346467971801
-0.0273078922182321,1.2231934070587158,-0.0933834016323089,-0.4268673062324524,-0.0797985717654228,-0.1194789186120033,0.0,0.0,-0.4915581941604614,-0.4806392192840576
-0.0282991416752338,1.2133228778839111,-0.0930325239896774,-0.4390274882316589,-0.0858428925275802,-0.120897352695465,0.0,0.0,-0.9295097589492798,-0.5690931081771851
-0.0293269157409667,1.2031781673431396,-0.0976230502128601,-0.4511831104755401,-0.0909600034356117,-0.1023516505956649,0.0,0.0,-0.7435781955718994,-0.4611587524414062
-0.0303505901247262,1.1927602291107178,-0.0971387699246406,-0.4633429646492004,-0.0961523056030273,-0.103855088353157,0.0,0.0,-0.597844660282135,0.3610540628433227
-0.0313709266483783,1.1820480823516846,-0.0967242792248725,-0.4764523506164551,-0.1014212965965271,-0.1053797006607055,0.0,0.0,-0.1764192581176757,-0.4305078983306885
-0.032386016100645,1.171062707901001,-0.0961225107312202,-0.4886094033718109,-0.1067690998315811,-0.1069560647010803,0.0,0.0,-0.8305774927139282,-0.5719425678253174
-0.033449649810791,1.1598191261291504,-0.1022878512740135,-0.5000131130218506,-0.1108066961169242,-0.0807520896196365,0.0,0.0,-0.605255663394928,-0.5973448157310486
-0.0345634445548057,1.148316740989685,-0.1086975187063217,-0.5114193558692932,-0.1134742125868797,-0.0533502772450447,0.0,0.0,-0.5712195038795471,-0.9424291253089904
-0.0357471480965614,1.1365506649017334,-0.1175599843263626,-0.5230005383491516,-0.1142802909016609,-0.0161217022687196,0.0,0.0,0.2049362659454345,0.3017702102661133
-0.0368393883109092,1.1254290342330933,-0.1083805412054061,-0.4943585395812988,-0.1151075661182403,-0.016545470803976,0.0,0.0,-0.8069736361503601,0.3770333528518677
-0.0379233360290527,1.1140339374542236,-0.1074810028076171,-0.5065134763717651,-0.1160202845931053,-0.0182544011622667,0.0,0.0,-0.6349704265594482,-0.2257993817329406
-0.0389986038208007,1.1023657321929932,-0.1065285056829452,-0.5186684727668762,-0.1170195341110229,-0.0199848152697086,0.0,0.0,-0.2249696850776672,-0.2892199754714966
-0.0400648117065429,1.0904242992401123,-0.1055254712700843,-0.5308234095573425,-0.118106298148632,-0.0217351783066988,0.0,0.0,-0.71598219871521,-0.6177071928977966
-0.0411684028804302,1.078218936920166,-0.1103908643126487,-0.5424527525901794,-0.1180814504623413,0.0004969607689417,0.0,0.0,-0.8327341675758362,-0.8531510829925537
-0.0423265472054481,1.065758466720581,-0.1174028664827346,-0.5536802411079407,-0.1164919063448906,0.0317906960844993,0.0,0.0,-0.9179337620735168,0.5885610580444336
-0.0434300415217876,1.053013801574707,-0.1107338443398475,-0.566401481628418,-0.1161170899868011,0.007496346719563,0.0,0.0,-0.4516885280609131,0.9101262092590332
-0.0444461815059185,1.0399894714355469,-0.0999543890357017,-0.5789893269538879,-0.1177612319588661,-0.0328829102218151,0.0,0.0,-0.8385679125785828,-0.4420000314712524
-0.0454509742558002,1.0266917943954468,-0.0987351536750793,-0.5911445617675781,-0.1194967776536941,-0.0347109250724315,0.0,0.0,-0.8228572010993958,-0.4357619285583496
-0.0464441291987896,1.0131210088729858,-0.0974798202514648,-0.6032997965812683,-0.12132428586483,-0.0365504249930381,0.0,0.0,-0.2140587568283081,-0.6413132548332214
-0.0474842078983783,0.9992929697036744,-0.103589653968811,-0.6146116256713867,-0.1217348054051399,-0.0082102473825216,0.0,0.0,-0.8938294053077698,-0.4341365098953247
-0.0485119819641113,0.985191524028778,-0.1022687405347824,-0.6267667412757874,-0.1222382560372352,-0.0100690554827451,0.0,0.0,-0.8861977458000183,-0.6560724377632141
-0.0495709404349327,0.9708177447319032,-0.1063999682664871,-0.6387975811958313,-0.1217398047447204,0.0099689047783613,0.0,0.0,-0.9693506956100464,-0.0741752386093139
-0.0506171211600303,0.956170618534088,-0.1050219163298606,-0.6509526371955872,-0.1213350370526313,0.0080953445285558,0.0,0.0,-0.9288671612739564,0.4949345588684082
-0.0516501441597938,0.9412500858306884,-0.1036181822419166,-0.6631077527999878,-0.1210242211818695,0.0062161604873836,0.0,0.0,-0.8557208776473999,0.1485954523086547
-0.0526698119938373,0.9260562062263488,-0.10219057649374,-0.6752628087997437,-0.1208076253533363,0.0043321764096617,0.0,0.0,-0.8092126250267029,-0.9365312457084656
-0.0537425056099891,0.9105960726737976,-0.1090786233544349,-0.6869725584983826,-0.1190075650811195,0.036001082509756,0.0,0.0,-0.9126256704330444,0.4577441215515136
-0.0548014640808105,0.8948627710342407,-0.1076083183288574,-0.6991279125213623,-0.1173020079731941,0.0341108366847038,0.0,0.0,-0.8103155493736267,-0.0044851303100585
-0.0558464042842388,0.8788560628890991,-0.1061189919710159,-0.7112831473350525,-0.115691065788269,0.0322189442813396,0.0,0.0,-0.5072453618049622,-0.3733401298522949
-0.0568772330880165,0.8625759482383728,-0.1046120151877403,-0.7234383225440979,-0.1141747534275055,0.0303263403475284,0.0,0.0,-0.2316434383392334,-0.0946825146675109
-0.0578938499093055,0.8460226655006409,-0.1030887514352798,-0.7355935573577881,-0.1127530485391616,0.0284339692443609,0.0,0.0,-0.1559062600135803,-0.4264261126518249
-0.058895967900753,0.8291959762573242,-0.1015504002571106,-0.7477486729621887,-0.1114259138703346,0.0265427771955728,0.0,0.0,0.3997409343719482,-0.3629032969474792
-0.0597496032714843,0.8126422762870789,-0.0870354026556015,-0.7356036305427551,-0.1097647994756698,0.0332222990691661,0.0,0.0,-0.0622165203094482,-0.1491437554359436
-0.0605884566903114,0.7958151698112488,-0.0854703485965728,-0.7477588057518005,-0.1081979945302009,0.0313362181186676,0.0,0.0,-0.242813766002655,-0.504492461681366
-0.0614425651729106,0.7787176966667175,-0.0876550450921058,-0.7597264647483826,-0.1059687659144401,0.0445847958326339,0.0,0.0,-0.4328908920288086,-0.2623498439788818
-0.0622817054390907,0.7613468170166016,-0.0860673040151596,-0.7718818187713623,-0.1038333848118782,0.0427074283361434,0.0,0.0,0.4795746803283691,0.1594256162643432
-0.0629480332136154,0.7447544932365417,-0.0690873861312866,-0.7372649312019348,-0.1014021337032318,0.048624999821186,0.0,0.0,-0.7026708126068115,-0.055157721042633
-0.0635993033647537,0.7278890013694763,-0.0674804002046585,-0.7494203448295593,-0.0990641266107559,0.0467598177492618,0.0,0.0,-0.1173110604286193,-0.2550781369209289
-0.0642353072762489,0.7107502222061157,-0.0658649355173111,-0.7615755796432495,-0.0968190357089042,0.0449020788073539,0.0,0.0,0.5619057416915894,-0.1386547088623047
-0.0648557692766189,0.6944577097892761,-0.0638887360692024,-0.723995566368103,-0.0949994996190071,0.0363907776772975,0.0,0.0,-0.0015919804573059,-0.5194163918495178
-0.0654987320303917,0.6778926253318787,-0.0669846013188362,-0.7360517382621765,-0.0923262238502502,0.0534657165408134,0.0,0.0,-0.391656756401062,0.3069336414337158
-0.0661261528730392,0.6610543727874756,-0.0653476491570472,-0.7482072114944458,-0.089744433760643,0.0516356453299522,0.0,0.0,0.3727233409881592,0.591679573059082
-0.0665411949157714,0.6445620059967041,-0.0430667772889137,-0.732904314994812,-0.0882003232836723,0.0308823231607675,0.0,0.0,-0.2163396477699279,0.1250853538513183
-0.0669406875967979,0.6277961134910583,-0.0414182841777801,-0.7450592517852783,-0.0867465659976005,0.0290752798318862,0.0,0.0,-0.0639206767082214,0.4433220624923706
-0.0673246383666992,0.6107571721076965,-0.0397647805511951,-0.7572141885757446,-0.0853824988007545,0.0272810962051153,0.0,0.0,0.5924619436264038,-0.5081545114517212
-0.0678113922476768,0.5943178534507751,-0.0506376214325428,-0.7305240631103516,-0.083438828587532,0.0388732925057411,0.0,0.0,0.4939584732055664,-0.2131496667861938
-0.0681985840201377,0.5787596106529236,-0.040679432451725,-0.6913701891899109,-0.0814936459064483,0.038903459906578,0.0,0.0,-0.5039978623390198,-0.3720804452896118
-0.068570040166378,0.5629280209541321,-0.0390134677290916,-0.703525185585022,-0.0796359777450561,0.0371534116566181,0.0,0.0,-0.1239439845085144,-0.4336864352226257
-0.0689255744218826,0.5468230843544006,-0.0373440906405448,-0.7156801223754883,-0.0778649672865867,0.0354199260473251,0.0,0.0,0.5065312385559082,-0.5281758308410645
-0.0693655014038086,0.5311037302017212,-0.0465249456465244,-0.6985098719596863,-0.0753610655665397,0.05007816106081,0.0,0.0,0.4004751443862915,-0.2895680665969848
-0.0698239356279373,0.5159783363342285,-0.0479246154427528,-0.6721360087394714,-0.0733021348714828,0.0411788746714592,0.0,0.0,0.236656904220581,-0.3656503558158874
-0.0702093094587326,0.5012739896774292,-0.0406449101865291,-0.653425395488739,-0.0712205991148948,0.0416305363178253,0.0,0.0,0.4034667015075683,0.1620646715164184
-0.0706368461251258,0.4873813390731811,-0.0442615710198879,-0.6173788905143738,-0.0697282031178474,0.0298479851335287,0.0,0.0,-0.3866394162178039,-0.3174521923065185
-0.0710484534502029,0.4732153415679931,-0.0425799116492271,-0.629533588886261,-0.068317599594593,0.0282117519527673,0.0,0.0,-0.073647916316986,0.3697446584701538
-0.0714439377188682,0.4587759971618652,-0.0408966243267059,-0.6416882276535034,-0.0669877156615257,0.026597823947668,0.0,0.0,0.6345577239990234,0.2824234962463379
-0.0717347115278244,0.4445378184318542,-0.0306599084287881,-0.6327367424964905,-0.0654261633753776,0.0312311444431543,0.0,0.0,0.3856689929962158,0.5678389072418213
-0.0719751343131065,0.4304451942443847,-0.0243258737027645,-0.6263269782066345,-0.065138004720211,0.0057628499343991,0.0,0.0,0.7459163665771484,0.5263775587081909
-0.0721123665571212,0.4173354208469391,-0.0128573356196284,-0.5826950073242188,-0.0660001561045646,-0.0172429643571376,0.0,0.0,0.1193933486938476,0.5474997758865356
-0.0720937699079513,0.4047747552394867,0.0038047477137297,-0.558337390422821,-0.0679208189249038,-0.0384130552411079,0.0,0.0,-0.0744184851646423,-0.8318201899528503
-0.0721364989876747,0.3919570744037628,-0.0042458581738173,-0.5696782469749451,-0.0679491832852363,-0.0005673441337421,0.0,0.0,-0.577648937702179,0.1902773380279541
-0.0721630081534385,0.378865897655487,-0.0025577715132385,-0.5818327069282532,-0.0680505856871604,-0.0020275474525988,0.0,0.0,0.4947099685668945,-0.3075398206710815
-0.0720884352922439,0.3665679395198822,0.0074664400890469,-0.5465770363807678,-0.0680547133088111,-8.268195961136371e-05,0.0,0.0,0.4804122447967529,0.2918903827667236
-0.0720531493425369,0.3547775149345398,0.0040287743322551,-0.5240394473075867,-0.0685489550232887,-0.0098850578069686,0.0,0.0,-0.1255624890327453,0.2186846733093261
-0.0720017403364181,0.3427138030529022,0.0057163010351359,-0.5361939072608948,-0.0691117718815803,-0.0112563269212841,0.0,0.0,0.7281672954559326,0.2722651958465576
-0.0718960762023925,0.3314724862575531,0.011267090216279,-0.4996466934680938,-0.0697994977235794,-0.013754772953689,0.0,0.0,0.1689995527267456,-0.7751510143280029
-0.071736142039299,0.3205729126930237,0.015126472339034,-0.4843849241733551,-0.0689473748207092,0.0170426648110151,0.0,0.0,-0.1635624170303344,0.611358642578125
-0.0715102180838584,0.3093887567520141,0.0230787340551614,-0.4970963597297668,-0.0694256946444511,-0.0095663601532578,0.0,0.0,0.3645541667938232,-0.4930945038795471
-0.0711686164140701,0.2984208762645721,0.034355841577053,-0.4874714612960815,-0.0696117207407951,-0.0037206814158707,0.0,0.0,-0.3173906803131103,-0.6610069870948792
-0.0708500891923904,0.2871834933757782,0.0310893896967172,-0.4994038045406341,-0.0688637048006057,0.0149601250886917,0.0,0.0,0.3868579864501953,-0.599476158618927
-0.0704125389456749,0.2761552333831787,0.0415914431214332,-0.4900452792644501,-0.0667170137166976,0.0429337844252586,0.0,0.0,-0.0040079355239868,-0.7676230669021606
-0.0700196251273155,0.2648654282093048,0.0356178507208824,-0.501610279083252,-0.0630834028124809,0.0726720988750457,0.0,0.0,0.6828384399414062,0.0130056142807006
-0.0695302933454513,0.254456102848053,0.0451653264462947,-0.4624847173690796,-0.0593592822551727,0.0744824707508087,0.0,0.0,-0.5200440883636475,0.1378856897354126
-0.069024845957756,0.2437734752893448,0.0468387193977832,-0.4746402502059936,-0.0556886009871959,0.073413535952568,0.0,0.0,0.4452972412109375,0.3217072486877441
-0.0683990493416786,0.2332379668951034,0.0584960095584392,-0.468099296092987,-0.0516614727675914,0.0805426239967346,0.0,0.0,-0.2966017723083496,0.1127997636795044
-0.0677571296691894,0.2224292308092117,0.0601632706820964,-0.4802549481391907,-0.0476842001080513,0.0795455873012542,0.0,0.0,0.2794519662857055,-0.3589140772819519
-0.0670017227530479,0.2123437076807022,0.0712543278932571,-0.4481157958507538,-0.0434517860412597,0.0846484303474426,0.0,0.0,0.0060296058654785,-0.0043576955795288
-0.0662293434143066,0.2025052160024643,0.0730686336755752,-0.4371500611305237,-0.0393312834203243,0.0824100524187088,0.0,0.0,-0.3383733034133911,-0.287271499633789
-0.0654408484697341,0.192393496632576,0.0747240483760833,-0.4493056833744049,-0.0352551862597465,0.0815217941999435,0.0,0.0,-0.0125116109848022,-0.5144850611686707
-0.0646710395812988,0.182013064622879,0.0720134451985359,-0.4612433314323425,-0.0303459204733371,0.0981852635741233,0.0,0.0,0.5873653888702393,-0.2980982661247253
-0.0639146789908409,0.1724426597356796,0.070947952568531,-0.425265371799469,-0.0257154107093811,0.0926100015640258,0.0,0.0,-0.0179824829101562,-0.5127401351928711
-0.0631884559988975,0.1626046001911163,0.0668052807450294,-0.4371585547924042,-0.0199637413024902,0.1150333657860755,0.0,0.0,0.2316204309463501,-0.2772128582000732
-0.0624572746455669,0.1530507951974868,0.0674138441681861,-0.4245485663414001,-0.0143350912258028,0.112573005259037,0.0,0.0,0.5064394474029541,0.1269162893295288
-0.0618086829781532,0.1440486460924148,0.0596900656819343,-0.400054395198822,-0.0092340158298611,0.1020216718316078,0.0,0.0,0.2670314311981201,0.0192973613739013
-0.061255931854248,0.1353774666786193,0.0506820790469646,-0.3853662312030792,-0.0047004935331642,0.0906705260276794,0.0,0.0,0.2983361482620239,0.5559935569763184
-0.0605497360229492,0.1272824108600616,0.0669871047139167,-0.35977303981781,-0.0011139622656628,0.0717307031154632,0.0,0.0,-0.2024224996566772,-0.9444175958633424
-0.0598949417471885,0.118905983865261,0.0601660087704658,-0.372288703918457,0.0041289119981229,0.1048575192689895,0.0,0.0,0.240121841430664,0.5928847789764404
-0.0590598098933696,0.1111210659146308,0.0792048275470733,-0.3460144400596618,0.0083837583661079,0.0850969478487968,0.0,0.0,-0.2267534136772155,-0.4424742460250854
-0.0582091324031353,0.1030628532171249,0.0807856768369674,-0.3581700026988983,0.0126116489991545,0.0845576226711273,0.0,0.0,0.3546572923660278,0.5927138328552246
-0.0571768768131732,0.0957924947142601,0.0998977646231651,-0.3231588900089264,0.0158970374614,0.0657078325748443,0.0,0.0,-0.5953924655914307,-0.8993662595748901
-0.0561914443969726,0.0882474780082702,0.0936561375856399,-0.3353929817676544,0.0207205209881067,0.0964696854352951,0.0,0.0,0.138362169265747,0.1666674613952636
-0.0552074424922466,0.0812728032469749,0.0935609117150306,-0.3100587725639343,0.0254987496882677,0.0955647155642509,0.0,0.0,-0.1548747420310974,0.0365816354751586
-0.0542082786560058,0.0740250423550605,0.0950873643159866,-0.3222147226333618,0.0302562098950147,0.0951494127511978,0.0,0.0,0.4237537384033203,-0.7787992358207703
-0.0531902313232421,0.0670933574438095,0.0953308716416359,-0.3082165718078613,0.0366577208042144,0.1280302554368972,0.0,0.0,0.6665093898773193,0.9628764390945436
-0.0522428527474403,0.060821708291769,0.0903965905308723,-0.2788506746292114,0.0409439243376255,0.0857239812612533,0.0,0.0,0.0332093238830566,0.8456234931945801
-0.0513216964900493,0.0547554120421409,0.0895133316516876,-0.2696899771690368,0.0435188151895999,0.0514978244900703,0.0,0.0,0.0667270421981811,-0.2574846148490906
-0.0504158958792686,0.0489601232111454,0.0880557522177696,-0.2576407194137573,0.0460141524672508,0.0499067567288875,0.0,0.0,-0.1012606620788574,0.3762174844741821
-0.0494958870112896,0.0428915359079837,0.0894805416464805,-0.2697952687740326,0.0484955571591854,0.0496282503008842,0.0,0.0,0.7468416690826416,0.0890027284622192
-0.0484426505863666,0.0371292196214199,0.1021830663084983,-0.2562068998813629,0.0516030043363571,0.0621490962803363,0.0,0.0,0.7389342784881592,-0.3631277084350586
-0.0473104491829872,0.0321797244250774,0.1096084713935852,-0.2201093733310699,0.0551734715700149,0.0714095383882522,0.0,0.0,0.3522918224334717,0.6029198169708252
-0.0461314208805561,0.027957210317254,0.1154665201902389,-0.1877571791410446,0.0575774423778057,0.0480792596936225,0.0,0.0,-0.0873257517814636,-0.9123345017433168
