x_pos,y_pos,x_vel,y_vel,angle,ang_vel,leg_1,leg_2,main_booster,lat_booster
-0.0014855384360998,1.403285264968872,-0.1505385339260101,-0.3393327891826629,0.0017790016718208,0.035093430429697,0.0,0.0,-0.3507149219512939,-0.2753324508666992
-0.0029335976578295,1.395334005355835,-0.146601527929306,-0.3533878624439239,0.0035480055958032,0.0353842675685882,0.0,0.0,-0.514145016670227,0.9618575572967528
-0.0042527196928858,1.3870365619659424,-0.1313855350017547,-0.3687772750854492,0.0030317110940814,-0.0103268474340438,0.0,0.0,-0.2474424839019775,0.6180243492126465
-0.0054969787597656,1.378397822380066,-0.1229467242956161,-0.3839428126811981,0.0015766604337841,-0.0291038956493139,0.0,0.0,0.2037632465362548,0.4190948009490967
-0.0066130636259913,1.370132565498352,-0.1106327921152114,-0.367340624332428,0.0006163524813018,-0.0192079544067382,0.0,0.0,-0.0941370725631713,0.0026543140411376
-0.007695198059082,1.361527919769287,-0.1072978600859642,-0.382428914308548,-0.0002963665756396,-0.0182560719549655,0.0,0.0,-0.5354146361351013,0.3581908941268921
-0.0087447166442871,1.352583885192871,-0.1040779948234558,-0.397509217262268,-0.0011574233649298,-0.017222698777914,0.0,0.0,-0.4412492513656616,-0.0270700454711914
-0.0097627639770507,1.3433005809783936,-0.1009802967309951,-0.4125909507274627,-0.0019635767675936,-0.0161248724907636,0.0,0.0,-0.5091991424560547,0.6852664947509766
-0.0106974598020315,1.333685278892517,-0.0913759618997573,-0.4273513257503509,-0.0040414608083665,-0.0415615700185298,0.0,0.0,-0.7141321897506714,0.0950914621353149
-0.0116032604128122,1.323730707168579,-0.088539034128189,-0.4424342215061188,-0.006056800018996,-0.0403105281293392,0.0,0.0,-0.6446046233177185,0.5137100219726562
-0.0124351503327488,1.31343674659729,-0.0800414979457855,-0.457524299621582,-0.0091703403741121,-0.0622769109904766,0.0,0.0,-0.9178224205970764,-0.5193413496017456
-0.0132770538330078,1.3028030395507812,-0.0820272788405418,-0.4726277887821197,-0.011305658146739,-0.042710043489933,0.0,0.0,-0.3012104034423828,0.3348925113677978
-0.0140943527221679,1.2918298244476318,-0.079638734459877,-0.4877107441425323,-0.013369089923799,-0.041272647678852,0.0,0.0,-0.7560207843780518,-0.402886152267456
-0.0148885725066065,1.280517339706421,-0.0774124413728714,-0.5027937293052673,-0.0153562994673848,-0.0397479273378849,0.0,0.0,-0.7787904739379883,-0.6564252376556396
-0.0157011039555072,1.2688734531402588,-0.0803237929940223,-0.5175240635871887,-0.0162661504000425,-0.0181986186653375,0.0,0.0,-0.3008654117584228,-0.5165347456932068
-0.0165273658931255,1.2568846940994265,-0.0826331377029419,-0.5328312516212463,-0.0162553153932094,0.0002164020843338,0.0,0.0,-0.351819634437561,-0.4947279691696167
-0.0173357017338275,1.2445566654205322,-0.0809341520071029,-0.547913670539856,-0.0161582864820957,0.0019405055791139,0.0,0.0,-0.6825997233390808,-0.8151411414146423
-0.0181772224605083,1.2318834066390991,-0.08559200912714,-0.5632378458976746,-0.0147359268739819,0.0284501276910305,0.0,0.0,-0.0947529673576355,-0.2944029569625854
-0.0190045349299907,1.2188708782196045,-0.0842684432864189,-0.5783208012580872,-0.0132208680734038,0.0303039215505123,0.0,0.0,-0.525033175945282,0.3549606800079345
-0.0198195464909076,1.2055190801620483,-0.0831357538700103,-0.5934037566184998,-0.0116088632494211,0.0322432853281497,0.0,0.0,0.1536215543746948,-0.0676995515823364
-0.0205289833247661,1.19261372089386,-0.0730978548526763,-0.5735539197921753,-0.009481101296842,0.0425591692328453,0.0,0.0,-0.7596886157989502,0.1686999797821045
-0.0212299339473247,1.1793689727783203,-0.0723559334874153,-0.5886427760124207,-0.0072501725517213,0.04462281614542,0.0,0.0,-0.613554835319519,0.4756221771240234
-0.0219244007021188,1.1657850742340088,-0.071810245513916,-0.6037244200706482,-0.0049121384508907,0.046764925122261,0.0,0.0,-0.0987280011177063,0.1987148523330688
-0.0226141922175884,1.1518616676330566,-0.0714616328477859,-0.6188061237335205,-0.0024638343602418,0.0489705428481102,0.0,0.0,-0.6477377414703369,0.6611214876174927
-0.02326126024127,1.1376007795333862,-0.066294215619564,-0.633816659450531,-0.0009064714540727,0.0311503522098064,0.0,0.0,-0.8490671515464783,-0.5712496042251587
-0.0239638332277536,1.1229822635650637,-0.0733796581625938,-0.6497147083282471,0.0021791022736579,0.0617114715278148,0.0,0.0,-0.4393931031227112,0.7301075458526611
-0.0246091838926076,1.1080292463302612,-0.0663128793239593,-0.6645830869674683,0.003923911601305,0.0348964929580688,0.0,0.0,-0.7946097254753113,0.1160688400268554
-0.0252575874328613,1.092736840248108,-0.0667312145233154,-0.6796640753746033,0.0057922317646443,0.0373662784695625,0.0,0.0,-0.5210097432136536,0.3248786926269531
-0.025910759344697,1.0771052837371826,-0.0673361271619796,-0.6947451233863831,0.0077870339155197,0.0398960933089256,0.0,0.0,-0.3555775880813598,0.0679918527603149
-0.0265704151242971,1.0611345767974854,-0.0681236609816551,-0.7098262906074524,0.0099112093448638,0.0424837656319141,0.0,0.0,0.0241084098815917,0.1548895835876464
-0.0272320751100778,1.04561185836792,-0.0685023814439773,-0.689915120601654,0.012221192009747,0.0461994968354702,0.0,0.0,-0.4009644985198974,0.2522313594818115
-0.027903651818633,1.0297499895095823,-0.0696411505341529,-0.7049965262413025,0.0146660087630152,0.0488964766263961,0.0,0.0,-0.2887589931488037,0.2078392505645752
-0.0285869594663381,1.0135489702224731,-0.0709476694464683,-0.7200779318809509,0.0172482468187809,0.0516447126865386,0.0,0.0,0.1080905199050903,0.4697134494781494
-0.0293304435908794,0.997370183467865,-0.0769072100520134,-0.7190817594528198,0.0197725482285022,0.0504862368106842,0.0,0.0,-0.6311907768249512,0.1244864463806152
-0.0300888065248727,0.9808523654937744,-0.0785318464040756,-0.7341631650924683,0.0224390625953674,0.0533301420509815,0.0,0.0,0.1758949756622314,0.6093820333480835
-0.0308128353208303,0.9648093581199646,-0.0740537345409393,-0.7130510210990906,0.0240608640015125,0.0324361138045787,0.0,0.0,-0.5735259652137756,-0.3753310441970825
-0.0315546989440918,0.948427140712738,-0.0759718865156173,-0.7281323075294495,0.025829192250967,0.0353665836155414,0.0,0.0,-0.2141602039337158,0.7267239093780518
-0.0322545059025287,0.9317134618759156,-0.0703669488430023,-0.7428328990936279,0.026208721101284,0.0075906491838395,0.0,0.0,-0.0623002648353576,-0.5339579582214355
-0.0330198295414447,0.9146647453308104,-0.0782096534967422,-0.7577491998672485,0.0278694126754999,0.0332138016819953,0.0,0.0,-0.3728672862052917,0.7271292209625244
-0.0337464325129985,0.8972803354263306,-0.0729658305644989,-0.7726488709449768,0.0281680393964052,0.0059725744649767,0.0,0.0,-0.1415493488311767,-0.5302607417106628
-0.0345452316105365,0.8795589804649353,-0.0815990418195724,-0.7876479029655457,0.0298616290092468,0.0338719859719276,0.0,0.0,0.5535423755645752,0.6538972854614258
-0.0352042205631732,0.862243115901947,-0.0667276978492736,-0.769616425037384,0.0306804068386554,0.0163756757974624,0.0,0.0,-0.4028926491737366,0.5250676870346069
-0.035839844495058,0.8445842862129211,-0.0633103400468826,-0.7848318219184875,0.0304437633603811,-0.0047330576926469,0.0,0.0,0.8489689826965332,-0.4234582185745239
-0.0364080443978309,0.8274782299995422,-0.0572695545852184,-0.7602760791778564,0.0308792032301425,0.008708712644875,0.0,0.0,0.5077135562896729,0.8163892030715942
-0.0369880683720111,0.8104273676872253,-0.0568971149623394,-0.7577962875366211,0.0297892522066831,-0.0217990316450595,0.0,0.0,0.4698531627655029,-0.3080378174781799
-0.0375638008117675,0.7934848666191101,-0.0568166971206665,-0.7529899477958679,0.0290488675236701,-0.0148079367354512,0.0,0.0,0.6263022422790527,-0.7545818090438843
-0.0381741523742675,0.7768587470054626,-0.062106680124998,-0.7389599084854126,0.0300969462841749,0.0209615975618362,0.0,0.0,-0.0892302393913269,0.4126864671707153
-0.0388138778507709,0.7598934173583984,-0.065197005867958,-0.7540411353111267,0.0313074700534343,0.0242106653749942,0.0,0.0,-0.0482541322708129,0.0775344371795654
-0.0394835472106933,0.7425886988639832,-0.0683604255318641,-0.7691225409507751,0.032681293785572,0.0274763908237218,0.0,0.0,0.4906654357910156,0.7368273735046387
-0.0401616096496582,0.7256326675415039,-0.0678489431738853,-0.7536056637763977,0.0327168814837932,0.0007117938948795,0.0,0.0,0.0833598375320434,0.2673500776290893
-0.0407893173396587,0.7089032530784607,-0.0634075999259948,-0.7435410022735596,0.0333522409200668,0.012707220390439,0.0,0.0,-0.1025238037109375,0.889984130859375
-0.0413852706551551,0.6918436884880066,-0.0587877035140991,-0.7581807971000671,0.0325510203838348,-0.0160244349390268,0.0,0.0,0.1719975471496582,-0.3469153642654419
-0.0419464111328125,0.6749216318130493,-0.055835772305727,-0.7520880103111267,0.032274205237627,-0.0055364114232361,0.0,0.0,0.2170346975326538,0.5336124897003174
-0.0425148010253906,0.6585482954978943,-0.0556540600955486,-0.7276772856712341,0.0311066657304763,-0.0233506672084331,0.0,0.0,-0.3153809309005737,0.3588351011276245
-0.0431165695190429,0.6418357491493225,-0.05916378647089,-0.7427586913108826,0.0301054883748292,-0.0200238320976495,0.0,0.0,0.2876564264297485,0.7026729583740234
-0.0437908172607421,0.6253302097320557,-0.0650431290268898,-0.733531653881073,0.0277507714927196,-0.0470943190157413,0.0,0.0,-0.5406854748725891,0.7685328722000122
-0.0444293022155761,0.6084955334663391,-0.0598313584923744,-0.7481359243392944,0.0237947069108486,-0.0791211649775505,0.0,0.0,0.4590461254119873,0.5793033838272095
-0.0449382774531841,0.5922237634658813,-0.0462005548179149,-0.7231206893920898,0.0191526506096124,-0.0928409844636917,0.0,0.0,-0.0085355043411254,0.8137304782867432
-0.0454099662601947,0.5756236910820007,-0.0407968796789646,-0.737714946269989,0.0128574641421437,-0.12590391933918,0.0,0.0,-0.0764412283897399,0.3326011896133423
-0.0459170341491699,0.558684766292572,-0.0444953627884388,-0.7527992129325867,0.0067286873236298,-0.1225753873586654,0.0,0.0,0.6477503776550293,-0.3411612510681152
-0.0464111343026161,0.5419616103172302,-0.0436036251485347,-0.7432399988174438,0.0010022461647167,-0.1145288124680519,0.0,0.0,0.7264012098312378,-0.2774486541748047
-0.0470464713871479,0.5259987115859985,-0.0574155747890472,-0.709466278553009,-0.0050431578420102,-0.1209078580141067,0.0,0.0,0.7391599416732788,0.0327851772308349
-0.0475851073861122,0.51051265001297,-0.0485241748392581,-0.688297688961029,-0.0103217875584959,-0.1055726185441017,0.0,0.0,-0.3350809812545776,-0.1215289235115051
-0.0481601729989051,0.4946876168251037,-0.0523227080702781,-0.7033806443214417,-0.0154356285929679,-0.102276787161827,0.0,0.0,0.0965224504470825,0.3629422187805176
-0.0487624183297157,0.4789223670959472,-0.0552338883280754,-0.7007342576980591,-0.0203613340854644,-0.0985141918063163,0.0,0.0,0.8010642528533936,-0.000180184841156
-0.0495230667293071,0.463788628578186,-0.0706142634153366,-0.6726979613304138,-0.025747986510396,-0.1077330335974693,0.0,0.0,0.1772915124893188,0.6519534587860107
-0.0502360351383686,0.4492353200912475,-0.0647178143262863,-0.6469407677650452,-0.0322436094284057,-0.1299126297235489,0.0,0.0,0.7797732353210449,0.4851499795913696
-0.050887394696474,0.4348111152648926,-0.0591382384300231,-0.64121413230896,-0.0381686687469482,-0.1185013204813003,0.0,0.0,0.3089089393615722,-0.030432105064392
-0.051528550684452,0.4210606217384338,-0.0583869144320488,-0.6112934350967407,-0.0438342802226543,-0.1133119836449623,0.0,0.0,0.1222807168960571,0.3078519105911255
-0.0522567741572856,0.4074571132659912,-0.0669439807534217,-0.6047824621200562,-0.0496363900601863,-0.1160423532128334,0.0,0.0,0.1290838718414306,0.3706874847412109
-0.0530618652701377,0.3942125737667084,-0.0745069459080696,-0.5888555645942688,-0.0555709451436996,-0.1186914294958114,0.0,0.0,-0.1830464601516723,0.7502326965332031
-0.0538418777287006,0.3806254863739013,-0.0705744326114654,-0.6041658520698547,-0.0629182457923889,-0.1469459235668182,0.0,0.0,-0.5287545323371887,-0.367874264717102
-0.054659366607666,0.366699606180191,-0.0744683593511581,-0.6192502379417419,-0.0701107382774353,-0.1438501924276352,0.0,0.0,0.4096627235412597,-0.2265293598175048
-0.0554170608520507,0.3531656861305237,-0.0689489692449569,-0.6018461585044861,-0.0768602341413497,-0.1349901705980301,0.0,0.0,-0.3036988973617553,-0.8734414577484131
-0.0562851913273334,0.3392942249774933,-0.0820092931389808,-0.6167634129524231,-0.0816235914826393,-0.0952671691775322,0.0,0.0,0.8316043615341187,-0.5088598132133484
-0.0571222305297851,0.3256120383739471,-0.0802958458662033,-0.6082853078842163,-0.0849915966391563,-0.067360058426857,0.0,0.0,0.3980865478515625,-0.1744554042816162
-0.0579988472163677,0.312023252248764,-0.084283098578453,-0.6041419506072998,-0.0883365049958229,-0.066898226737976,0.0,0.0,0.9277352094650269,-0.851397693157196
-0.0589083656668663,0.2994959056377411,-0.0894160419702529,-0.5568631291389465,-0.0898597761988639,-0.0304654687643051,0.0,0.0,0.901342272758484,-0.3945798873901367
-0.059679128229618,0.2880191802978515,-0.0761168226599693,-0.5101328492164612,-0.0908151417970657,-0.0191071722656488,0.0,0.0,-0.4058219194412231,-0.5678489804267883
-0.0605398193001747,0.2762159705162048,-0.0866078212857246,-0.5245556235313416,-0.0902870744466781,0.010561404749751,0.0,0.0,0.2590508460998535,0.569622278213501
-0.0614782348275184,0.2644530236721039,-0.0931554287672042,-0.522838294506073,-0.0909721627831459,-0.0137016158550977,0.0,0.0,-0.0426273345947265,0.4877614974975586
-0.062453843653202,0.2523506879806518,-0.0969948768615722,-0.5379180312156677,-0.0915242210030555,-0.0110412184149026,0.0,0.0,0.8806805610656738,0.1214637756347656
-0.0635212883353233,0.240903154015541,-0.1057778820395469,-0.5088361501693726,-0.092480219900608,-0.0191199593245983,0.0,0.0,-0.5366283059120178,-0.0034199953079223
-0.064625546336174,0.2291162312030792,-0.109586201608181,-0.5239160656929016,-0.093310110270977,-0.0165979173034429,0.0,0.0,0.669633150100708,0.6147041320800781
-0.0656648650765419,0.2180433571338653,-0.1019603013992309,-0.4922506213188171,-0.0952735021710395,-0.0392676293849945,0.0,0.0,-0.1882986426353454,0.969048261642456
-0.0666534453630447,0.2066188603639602,-0.0947628319263458,-0.5080216526985168,-0.0993298888206482,-0.0811277478933334,0.0,0.0,0.7335265874862671,-0.3355187177658081
-0.0676179900765419,0.1953874975442886,-0.0925894975662231,-0.4994332194328308,-0.1031572148203849,-0.0765467137098312,0.0,0.0,0.7320719957351685,-0.3487522602081299
-0.0684783011674881,0.184431567788124,-0.0827454179525375,-0.4871585965156555,-0.1064251810312271,-0.0653591305017471,0.0,0.0,0.079976201057434,-0.4354109764099121
-0.0692393332719802,0.1736778318881988,-0.0733630508184433,-0.4781437814235687,-0.1091434955596923,-0.0543663725256919,0.0,0.0,0.6971287727355957,-0.4072850346565246
-0.0698495879769325,0.1631652861833572,-0.0590525940060615,-0.4673674702644348,-0.1110996380448341,-0.0391228012740612,0.0,0.0,-0.0220189094543457,-0.8290048241615295
-0.0705605521798133,0.1523303836584091,-0.0709085762500763,-0.4815668761730194,-0.1112894862890243,-0.0037967804819345,0.0,0.0,0.8211899995803833,0.7809748649597168
-0.0711149200797081,0.1423918306827545,-0.0538519322872161,-0.4418299496173858,-0.1128683611750602,-0.0315775163471698,0.0,0.0,0.623084306716919,-0.174234390258789
-0.0715088844299316,0.1330700516700744,-0.0384586676955223,-0.4143746495246887,-0.113797940313816,-0.0185916777700185,0.0,0.0,0.4212695360183716,-0.8714298605918884
-0.0718771964311599,0.1238132119178772,-0.037821426987648,-0.411340057849884,-0.1128050312399864,0.0198580026626586,0.0,0.0,0.7902225255966187,-0.6588655114173889
-0.0723305717110633,0.1150566935539245,-0.0475877523422241,-0.3890096545219421,-0.1105759218335151,0.0445822179317474,0.0,0.0,0.581589937210083,-0.103035569190979
-0.0726463347673416,0.1071787923574447,-0.0342605262994766,-0.3499320447444916,-0.1079073026776313,0.0533723533153533,0.0,0.0,0.2695307731628418,-0.3988937139511108
-0.0729662925004959,0.0996166765689849,-0.0346707664430141,-0.3359044194221496,-0.1052634939551353,0.0528765991330146,0.0,0.0,0.0496077537536621,0.2033922672271728
-0.0733451843261718,0.092481642961502,-0.0402327962219715,-0.31695157289505,-0.1029340848326683,0.046587985008955,0.0,0.0,-0.0368053913116455,0.5549513101577759
-0.0737067237496376,0.0850022882223129,-0.0372741892933845,-0.3323407471179962,-0.101825974881649,0.0221622548997402,0.0,0.0,0.8570253849029541,0.8393588066101074
-0.0740142837166786,0.0784479677677154,-0.0300956573337316,-0.2913488745689392,-0.102481834590435,-0.0131171960383653,0.0,0.0,0.2515977621078491,0.0347472429275512
-0.074358269572258,0.0724103525280952,-0.0334695801138877,-0.2684033215045929,-0.103397823870182,-0.018319733440876,0.0,0.0,0.0943307876586914,0.2770721912384033
-0.0747161880135536,0.0665280222892761,-0.0348106101155281,-0.2615038156509399,-0.1043676137924194,-0.0193962976336479,0.0,0.0,0.1568814516067505,0.6738414764404297
-0.0750997513532638,0.0609414428472518,-0.0359258279204368,-0.2484666556119918,-0.1067837253212928,-0.0483221597969532,0.0,0.0,0.0474442243576049,0.3985664844512939
-0.075573444366455,0.055526029318571,-0.0445011816918849,-0.2408908754587173,-0.1096338629722595,-0.0570027716457843,0.0,0.0,0.4207254648208618,-0.2878962755203247
-0.0759190544486045,0.0506778806447982,-0.0321234725415706,-0.2156557291746139,-0.1120629981160163,-0.0485824160277843,0.0,0.0,0.149661898612976,0.9398536682128906
-0.0761425048112869,0.0458441823720932,-0.0180044025182724,-0.2151601016521453,-0.1163720563054084,-0.086181029677391,0.0,0.0,0.0551950931549072,0.4897952079772949
-0.0762463584542274,0.0413813441991806,-0.0064674569293856,-0.1986614763736724,-0.1202680617570877,-0.0779203325510025,0.0,0.0,0.1605300903320312,-0.082521915435791
-0.076329231262207,0.0373940803110599,-0.0042744940146803,-0.1775431036949157,-0.1242614910006523,-0.0798685029149055,0.0,0.0,-0.1626009345054626,0.6995183229446411
-0.0763714760541915,0.0330631360411644,0.0015568903181701,-0.1929773539304733,-0.1300094574689865,-0.1149594634771347,0.0,0.0,0.4372377395629883,-0.3109104633331299
-0.0763097777962684,0.0291304439306259,0.0116742085665464,-0.1752771884202957,-0.135488286614418,-0.1095766425132751,0.0,0.0,0.442156434059143,-0.2486089468002319
-0.0761846527457237,0.025919446721673,0.018085254356265,-0.1432289779186248,-0.1410413533449173,-0.111061155796051,0.0,0.0,0.0907709598541259,-0.3189918994903564
-0.0759727507829666,0.0231333822011947,0.0266241673380136,-0.1243504732847213,-0.1464612782001495,-0.1083984971046447,0.0,0.0,0.2016470432281494,-0.2461811900138855
-0.0756794959306716,0.0204904414713382,0.0345394499599933,-0.1179848536849021,-0.1516691446304321,-0.1041571274399757,0.0,0.0,0.1145939826965332,-0.7501060366630554
-0.0754998177289962,0.0181632861495018,0.0218185037374496,-0.1038278490304946,-0.1555183678865432,-0.076984517276287,0.0,0.0,0.1628651618957519,0.3680998086929321
-0.0753003135323524,0.0167616698890924,0.0075422427617013,-0.0610449463129043,-0.1431336998939514,0.2476935386657714,1.0,0.0,0.0799896717071533,0.1317725181579589
-0.0750619918107986,0.0155728431418538,0.0114689162001013,-0.0516950339078903,-0.130814179778099,0.2463904172182083,0.0,0.0,-0.773568332195282,0.6576980352401733
-0.074793055653572,0.0140348291024565,0.015962041914463,-0.0674352124333381,-0.1199441403150558,0.2174007594585418,0.0,0.0,-0.6299526691436768,0.2955938577651977
-0.0745276436209678,0.012317500077188,0.0117594571784138,-0.0752050951123237,-0.1052635014057159,0.2936130166053772,1.0,0.0,0.3812793493270874,0.5607064962387085
-0.0740695968270301,0.0110977748408913,0.0319397822022438,-0.0532900057733058,-0.0915044397115707,0.2751810848712921,1.0,0.0,-0.3485609292984009,0.1111303567886352
-0.0736112594604492,0.0095412349328398,0.0319374464452266,-0.0683865770697593,-0.0777455791831016,0.2751774787902832,0.0,0.0,-0.6320465803146362,0.9514105319976808
