x_pos,y_pos,x_vel,y_vel,angle,ang_vel,leg_1,leg_2,main_booster,lat_booster
-0.0015069007640704,1.4035025835037231,-0.152961790561676,-0.3296689093112945,0.0020299521274864,0.04006277769804,0.0,0.0,-0.3661844134330749,0.8685476779937744
-0.0029230117797851,1.395982265472412,-0.1419956386089325,-0.3342352509498596,0.0024121140595525,0.0076446100138127,0.0,0.0,-0.4959219694137573,0.417581558227539
-0.0043220520019531,1.3883394002914429,-0.1405618637800216,-0.3396770060062408,0.0030619199387729,0.0129975378513336,0.0,0.0,0.0519676208496093,0.7268986701965332
-0.0057350159622728,1.381049394607544,-0.1406839787960052,-0.3239986002445221,0.0024607323575764,-0.0120251681655645,0.0,0.0,-0.0813877582550048,0.4518606662750244
-0.0071307183243334,1.3736374378204346,-0.1392384171485901,-0.3294209837913513,0.0021279451902955,-0.0066562136635184,0.0,0.0,-0.3768734335899353,0.5349688529968262
-0.0084576606750488,1.366103172302246,-0.1313120871782302,-0.3348625600337982,0.0007629019673913,-0.0273034386336803,0.0,0.0,-0.4801445603370666,0.4426037073135376
-0.009767341427505,1.358446717262268,-0.1298627406358719,-0.3402811586856842,-0.0003339784452691,-0.0219397041946649,0.0,0.0,-0.176900565624237,0.1345782279968261
-0.011059951968491,1.3506684303283691,-0.1284163296222686,-0.345699667930603,-0.0011636962881311,-0.0165960174053907,0.0,0.0,-0.2119044065475464,0.7497671842575073
-0.0122775081545114,1.3427762985229492,-0.1197151318192482,-0.3507617115974426,-0.003181385109201,-0.0403575487434864,0.0,0.0,-0.5915613770484924,0.5874667167663574
-0.0134316440671682,1.334765911102295,-0.1124767437577247,-0.3560298979282379,-0.0060933725908398,-0.0582450255751609,0.0,0.0,-0.4358806610107422,0.0659221410751342
-0.01456880569458,1.3266335725784302,-0.1110424399375915,-0.3614490628242492,-0.0087378798052668,-0.0528950616717338,0.0,0.0,-0.6801016330718994,0.4085019826889038
-0.0156890861690044,1.3183794021606443,-0.1096188575029373,-0.3668679893016815,-0.0111156171187758,-0.0475587323307991,0.0,0.0,-0.872638463973999,0.3755946159362793
-0.0167924873530864,1.3100032806396484,-0.1082080751657486,-0.3722868263721466,-0.0132265286520123,-0.0422220043838024,0.0,0.0,-0.2521678805351257,0.7383005619049072
-0.0178143493831157,1.3014973402023315,-0.09867724776268,-0.378083199262619,-0.0167029779404401,-0.0695352852344513,0.0,0.0,-0.718325138092041,0.5681357383728027
-0.0187644008547067,1.2928739786148071,-0.0903485938906669,-0.383318543434143,-0.0213025137782096,-0.0919990465044975,0.0,0.0,-0.8734760880470276,0.6317172050476074
-0.0196391101926565,1.2841196060180664,-0.0816000327467918,-0.3891738057136535,-0.0271173268556594,-0.11630679666996,0.0,0.0,-0.9706645011901855,-0.621803343296051
-0.0205353740602731,1.2752524614334106,-0.0849824324250221,-0.394187182188034,-0.0317127928137779,-0.0919175222516059,0.0,0.0,-0.9750394225120544,-0.5073690414428711
-0.0214463230222463,1.2662607431411743,-0.0875016748905181,-0.3997179269790649,-0.0352743901312351,-0.0712382569909095,0.0,0.0,-0.9908757209777832,-0.1413099765777588
-0.0223416332155466,1.257146954536438,-0.0862029418349266,-0.4051373600959778,-0.0385708287358284,-0.0659344717860221,0.0,0.0,-0.9753048419952391,-0.1385668516159057
-0.0232215877622365,1.2479112148284912,-0.0849320143461227,-0.410556435585022,-0.0416022092103958,-0.0606331005692482,0.0,0.0,-0.9153012633323668,-0.4109663963317871
-0.024086570367217,1.238553524017334,-0.0836912468075752,-0.4159754812717438,-0.0443691425025463,-0.0553434267640113,0.0,0.0,-0.9346255660057068,-0.1057671904563903
-0.0249366760253906,1.2290738821029663,-0.0824831798672676,-0.4213943481445312,-0.0468720681965351,-0.0500630363821983,0.0,0.0,-0.921087086200714,0.3422273397445678
-0.025772476568818,1.2194722890853882,-0.0813101753592491,-0.4268130660057068,-0.0491114519536495,-0.0447919443249702,0.0,0.0,-0.9590124487876892,-0.4342925548553467
-0.0265942569822073,1.2097485065460205,-0.0801747068762779,-0.4322316944599151,-0.0510878339409828,-0.0395313128829002,0.0,0.0,-0.9464874267578124,0.2813583612442016
-0.0274023059755563,1.199902892112732,-0.0790792778134346,-0.4376501441001892,-0.0528017841279506,-0.0342819020152092,0.0,0.0,-0.9465675354003906,0.0157067775726318
-0.028197955340147,1.189913630485535,-0.0781011432409286,-0.4440208077430725,-0.0542539842426776,-0.0290439836680889,0.0,0.0,-0.9929080009460448,0.0439634323120117
-0.0289810188114643,1.1798022985458374,-0.0770969092845916,-0.4494365751743316,-0.0554450675845146,-0.0238215550780296,0.0,0.0,-0.9322128295898438,-0.1665546894073486
-0.0297518726438283,1.16956889629364,-0.0761393383145332,-0.4548522531986236,-0.0563755668699741,-0.0186099223792552,0.0,0.0,-0.9823679327964784,0.6256067752838135
-0.0304719917476177,1.159215211868286,-0.0703533366322517,-0.460221379995346,-0.0580203533172607,-0.0328958593308925,0.0,0.0,-0.865274965763092,-0.882068932056427
-0.0312531478703022,1.1487427949905396,-0.0785584896802902,-0.4654342532157898,-0.057589802891016,0.0086113801226019,0.0,0.0,-0.9467155933380128,-0.239154577255249
-0.0320237167179584,1.138148069381714,-0.077756829559803,-0.4708498418331146,-0.0569006763398647,0.0137825431302189,0.0,0.0,-0.9417608976364136,-0.2099406719207763
-0.0327842719852924,1.1274312734603882,-0.0770124942064285,-0.4762654602527618,-0.0559538155794143,0.0189371220767498,0.0,0.0,-0.9719586372375488,0.7011884450912476
-0.033487319946289,1.1165950298309326,-0.0703049004077911,-0.4816128611564636,-0.0559530444443225,1.5695510228397325e-05,0.0,0.0,-0.9686679244041444,0.4441910982131958
-0.034181497991085,1.1056365966796875,-0.0696831420063972,-0.4870285093784332,-0.0556964762508869,0.0051316050812602,0.0,0.0,-0.8781769871711731,-0.5818948149681091
-0.0349123962223529,1.0945613384246826,-0.0747351795434951,-0.4921817481517792,-0.0540582351386547,0.0327646657824516,0.0,0.0,-0.981177568435669,0.7816441059112549
-0.0355718620121479,1.0833643674850464,-0.0662410408258438,-0.4976256489753723,-0.0537679754197597,0.0058049517683684,0.0,0.0,-0.8755085468292236,0.2758280038833618
-0.0362245552241802,1.0720454454421997,-0.0658226311206817,-0.5030413269996643,-0.053225677460432,0.0108459945768117,0.0,0.0,-0.9614874720573424,-0.2636061906814575
-0.0368713364005088,1.060604691505432,-0.0654769837856292,-0.5084570646286011,-0.0524328239262104,0.0158567707985639,0.0,0.0,-0.9487611651420592,0.8391369581222534
-0.0374505035579204,1.0490461587905884,-0.0573965720832347,-0.5137311220169067,-0.0529501773416996,-0.0103469183668494,0.0,0.0,-0.9123955965042114,0.2745606899261474
-0.0380252823233604,1.037365436553955,-0.0572034232318401,-0.5191468000411987,-0.0532204881310462,-0.005406251642853,0.0,0.0,-0.9580552577972412,0.7788338661193848
-0.0385456085205078,1.0255653858184814,-0.0507130399346351,-0.5244967937469482,-0.0545196682214736,-0.0259837247431278,0.0,0.0,-0.9072844386100768,-0.7793729901313782
-0.0391120910644531,1.0136455297470093,-0.0568308234214782,-0.5297673940658569,-0.0543433278799057,0.0035271178930997,0.0,0.0,-0.9567698240280152,0.4957818984985351
-0.0396767631173133,1.0016034841537476,-0.0568822212517261,-0.5351831912994385,-0.0539266020059585,0.0083342930302023,0.0,0.0,-0.9489513039588928,0.3102543354034424
-0.0402402877807617,0.9894394278526306,-0.0570187456905841,-0.5405989289283752,-0.0532721951603889,0.0130883054807782,0.0,0.0,-0.9667965173721312,0.5066723823547363
-0.0407666191458702,0.9771444797515868,-0.0525781884789466,-0.5464478731155396,-0.0533244051039218,-0.0010440720943734,0.0,0.0,-0.9446174502372742,0.1701734066009521
-0.0412937179207801,0.9647273421287536,-0.0528893955051898,-0.5518636107444763,-0.0531449951231479,0.0035881779622286,0.0,0.0,-0.958547592163086,0.1118758916854858
-0.0418225303292274,0.9521881937980652,-0.0532897487282753,-0.5572794079780579,-0.052737433463335,0.0081511596217751,0.0,0.0,-0.8932715058326721,0.0890578031539917
-0.0423539169132709,0.9395272135734558,-0.0537801682949066,-0.5626952052116394,-0.0521054975688457,0.012638846412301,0.0,0.0,-0.9984468817710876,0.0391391515731811
-0.0428888313472271,0.926743984222412,-0.0543613545596599,-0.5681110620498657,-0.0512532629072666,0.0170448180288076,0.0,0.0,-0.9987147450447084,-0.1937792301177978
-0.0434284210205078,0.913838803768158,-0.0550337620079517,-0.5735270380973816,-0.050185140222311,0.0213623493909835,0.0,0.0,-0.9916436672210692,-0.1782563924789428
-0.0439734458923339,0.9008116722106934,-0.0557975992560386,-0.5789430141448975,-0.0489059202373027,0.0255843065679073,0.0,0.0,-0.9743977785110474,-0.1466796994209289
-0.0445249564945697,0.887662410736084,-0.0566528514027595,-0.5843590497970581,-0.0474207699298858,0.0297032501548528,0.0,0.0,-0.985055446624756,0.2554621696472168
-0.0450839027762413,0.8743912577629089,-0.0575992465019226,-0.5897752046585083,-0.0457351803779602,0.0337114967405796,0.0,0.0,-0.930136740207672,0.4061731100082397
-0.0456511490046978,0.8609980940818787,-0.0586362592875957,-0.5951915979385376,-0.0438551381230354,0.0376010797917842,0.0,0.0,-0.996830403804779,0.2429869174957275
-0.0462279319763183,0.8474830985069275,-0.0597631447017192,-0.6006079912185669,-0.0417869389057159,0.0413638055324554,0.0,0.0,-0.822842538356781,0.0034157037734985
-0.0468149185180664,0.8338462710380554,-0.060978926718235,-0.6060245633125305,-0.0395373627543449,0.0449913516640663,0.0,0.0,-0.989906370639801,-0.1441606879234314
-0.0474132522940635,0.8200874924659729,-0.0622823722660541,-0.6114413142204285,-0.0371135994791984,0.0484753437340259,0.0,0.0,-0.9634268283843994,0.7030560970306396
-0.047955323010683,0.806205689907074,-0.0550898239016532,-0.6169434189796448,-0.036241952329874,0.0174327623099088,0.0,0.0,-0.959240972995758,-0.3206396102905273
-0.0485105514526367,0.7922021150588989,-0.0565641224384307,-0.6223596930503845,-0.0352117381989955,0.0206044409424066,0.0,0.0,-0.9802533984184264,0.1581134796142578
-0.049079705029726,0.7780763506889343,-0.058121234178543,-0.6277762055397034,-0.034031368792057,0.0236075613647699,0.0,0.0,-0.9430257081985474,-0.0782185196876525
-0.0496639236807823,0.7638289332389832,-0.0597591884434223,-0.6331927180290222,-0.0327096618711948,0.0264341719448566,0.0,0.0,-0.8788637518882751,-0.7890045046806335
-0.0503366477787494,0.749467134475708,-0.0706007778644561,-0.6382281184196472,-0.0294246841222047,0.0656995773315429,0.0,0.0,-0.9224599003791808,0.7214847803115845
-0.0509573929011821,0.7349787950515747,-0.0637676939368248,-0.6438958644866943,-0.02774672023952,0.0335591584444046,0.0,0.0,-0.929026186466217,-0.4693408012390136
-0.0515955910086631,0.7203685641288757,-0.0656349211931228,-0.6493126153945923,-0.0259560998529195,0.0358123704791069,0.0,0.0,-0.774848997592926,-0.0467946529388427
-0.0522521957755088,0.7056362628936768,-0.0675737783312797,-0.6547295451164246,-0.0240630116313695,0.0378615781664848,0.0,0.0,-0.9186060428619384,0.6984165906906128
-0.052884005010128,0.6907811164855957,-0.0640731230378151,-0.6602172255516052,-0.0231814458966255,0.0176313742995262,0.0,0.0,-0.8260683417320251,-0.4169795513153076
-0.0535357482731342,0.675804078578949,-0.0661475732922554,-0.6656339764595032,-0.0222185757011175,0.0192574057728052,0.0,0.0,-0.7744364142417908,0.0986750125885009
-0.0542080886662006,0.6607052087783813,-0.0682858973741531,-0.6710507869720459,-0.0211852826178073,0.0206659249961376,0.0,0.0,-0.8974977135658264,-0.2250933647155761
-0.0549018867313861,0.6454842686653137,-0.0704854577779769,-0.6764675974845886,-0.0200925767421722,0.0218541137874126,0.0,0.0,-0.8099396824836731,0.0094135999679565
-0.0556178092956543,0.6301416158676147,-0.0727435871958732,-0.6818844676017761,-0.0189515631645917,0.0228200890123844,0.0,0.0,-0.6831210851669312,0.6810929775238037
-0.0563107505440712,0.6146785020828247,-0.069323182106018,-0.6872473955154419,-0.0189212337136268,0.0006066343630664,0.0,0.0,-0.7299891710281372,0.4697315692901611
-0.0570270530879497,0.5990934371948242,-0.0716905519366264,-0.6926641464233398,-0.018864918500185,0.0011264360509812,0.0,0.0,-0.5501861572265625,0.8941071033477783
-0.0577116981148719,0.5833950638771057,-0.0671181008219719,-0.6977240443229675,-0.0201908685266971,-0.02651890181005,0.0,0.0,-0.0377767086029052,0.8508518934249878
-0.0583454146981239,0.5675725936889648,-0.0601067021489143,-0.7032685875892639,-0.0234115701168775,-0.0644141137599945,0.0,0.0,-0.467385470867157,0.4821082353591919
-0.0590043067932128,0.5516284108161926,-0.0626187771558761,-0.7086862325668335,-0.0266392678022384,-0.064553789794445,0.0,0.0,0.5648913383483887,0.5882725715637207
-0.0595645904541015,0.5360133647918701,-0.0517282113432884,-0.6940854787826538,-0.0308894664049148,-0.0850039422512054,0.0,0.0,0.4242045879364013,0.4634225368499756
-0.0601693168282508,0.5207166075706482,-0.0560151264071464,-0.6799530386924744,-0.0352938398718833,-0.0880875587463378,0.0,0.0,0.6394786834716797,0.3325785398483276
-0.0607812888920307,0.5064786076545715,-0.056661169975996,-0.6329113245010376,-0.0397750437259674,-0.0896239802241325,0.0,0.0,-0.8141536712646484,-0.2110767364501953
-0.0614205375313758,0.4921191334724426,-0.0593328475952148,-0.6383299231529236,-0.0443045422434806,-0.0905901119112968,0.0,0.0,-0.2562308311462402,0.6173012256622314
-0.0620474815368652,0.4776416420936584,-0.057038027793169,-0.643620491027832,-0.0498903505504131,-0.1117161884903907,0.0,0.0,-0.7301793098449707,-0.5608551502227783
-0.0627565383911132,0.4630409181118011,-0.0665528327226638,-0.6490723490715027,-0.054188672453165,-0.0859666913747787,0.0,0.0,0.8423471450805664,-0.6204633712768555
-0.0634468048810958,0.4496444463729858,-0.0659826174378395,-0.5955117344856262,-0.0572021417319774,-0.060269545763731,0.0,0.0,-0.6913857460021973,0.7375960350036621
-0.064117431640625,0.4361221194267273,-0.0626983493566513,-0.6011645197868347,-0.0615215115249156,-0.086387425661087,0.0,0.0,0.5560537576675415,0.5592554807662964
-0.0647892951965332,0.4234375655651092,-0.0614594928920269,-0.5640048384666443,-0.0671842545270919,-0.1132548302412033,0.0,0.0,-0.7774686217308044,0.3346774578094482
-0.0654905289411544,0.4106315374374389,-0.0643092021346092,-0.5694248080253601,-0.0729479491710662,-0.1152740493416786,0.0,0.0,-0.9726863503456116,-0.7841325998306274
-0.0662746429443359,0.3977101743221283,-0.0738226622343063,-0.5745152235031128,-0.0774847716093063,-0.0907365754246711,0.0,0.0,0.5477375984191895,0.0550086498260498
-0.0670418739318847,0.3851442635059356,-0.07212445884943,-0.5587297081947327,-0.0820345357060432,-0.0909952223300933,0.0,0.0,-0.7714132070541382,0.5197373628616333
-0.0677923187613487,0.3724474012851715,-0.0691248029470443,-0.5646430253982544,-0.0879026725888252,-0.1173628717660904,0.0,0.0,-0.785071611404419,-0.2354168891906738
-0.0685733780264854,0.3596291542053222,-0.0720598623156547,-0.5700636506080627,-0.0938996076583862,-0.1199388951063156,0.0,0.0,0.4192326068878174,-0.6559938788414001
-0.0692744255065918,0.3471794128417969,-0.0654866248369216,-0.5536211729049683,-0.098474383354187,-0.0914954543113708,0.0,0.0,-0.1692306995391845,-0.5034897923469543
-0.0700462311506271,0.3346176743507385,-0.073454275727272,-0.5585479140281677,-0.1021752804517746,-0.0740178972482681,0.0,0.0,-0.3708250522613525,-0.7116636037826538
-0.0709021538496017,0.3219479918479919,-0.0830711275339126,-0.5632725954055786,-0.1046740785241127,-0.0499761812388896,0.0,0.0,0.7748409509658813,-0.6304789185523987
-0.0716207474470138,0.3102132976055145,-0.0708202272653579,-0.5216164588928223,-0.1057069599628448,-0.0206574164330959,0.0,0.0,-0.5411617159843445,0.5885047912597656
-0.0723175033926963,0.2983421981334686,-0.0670908465981483,-0.5277882218360901,-0.1082682684063911,-0.051226157695055,0.0,0.0,-0.3291029334068298,-0.1198222637176513
-0.073046013712883,0.2863496541976928,-0.0701151937246322,-0.5332071185112,-0.1109898015856742,-0.0544309839606285,0.0,0.0,0.3872846364974975,-0.6210278868675232
-0.073696993291378,0.2753180265426636,-0.0636046230792999,-0.4904061555862427,-0.1124793738126754,-0.0297912992537021,0.0,0.0,0.1145230531692504,-0.0317976474761962
-0.074352741241455,0.2647397518157959,-0.0638295114040374,-0.470278650522232,-0.1142100393772125,-0.0346131026744842,0.0,0.0,-0.6036549210548401,0.6105289459228516
-0.0750021934509277,0.2540389001369476,-0.0620637312531471,-0.4758164286613464,-0.1170769035816192,-0.0573372356593608,0.0,0.0,-0.8275076746940613,-0.1773329973220825
-0.0756840705871582,0.2432164996862411,-0.0651275590062141,-0.4812356531620025,-0.120119109749794,-0.0608440227806568,0.0,0.0,0.3504749536514282,-0.7217632532119751
-0.0764297470450401,0.2332102209329605,-0.0726957321166992,-0.4448772072792053,-0.121971309185028,-0.0370442494750022,0.0,0.0,-0.9744675159454346,-0.1940523982048034
-0.0772078484296798,0.2230823338031768,-0.0757741928100586,-0.4502961039543152,-0.1240049675107002,-0.0406730026006698,0.0,0.0,-0.9199084043502808,-0.1441105008125305
-0.0780187621712684,0.2128329426050186,-0.0788588523864746,-0.4557151794433594,-0.1262227743864059,-0.0443562753498554,0.0,0.0,-0.6041392087936401,0.3232693672180176
-0.0788623839616775,0.2024620920419693,-0.0819489881396293,-0.4611343443393707,-0.1286273002624511,-0.0480900779366493,0.0,0.0,-0.7254077196121216,-0.4997677803039551
-0.0797388106584549,0.1919697076082229,-0.0850438922643661,-0.4665536284446716,-0.1312208324670791,-0.0518706254661083,0.0,0.0,-0.158875823020935,-0.4808844327926636
-0.0806482285261154,0.1813558936119079,-0.08814287930727,-0.4719730615615845,-0.1340055465698242,-0.0556943714618682,0.0,0.0,0.0460519790649414,-0.4279963970184326
-0.0815208405256271,0.1709601432085037,-0.084454208612442,-0.462287575006485,-0.1368037909269333,-0.0559648461639881,0.0,0.0,-0.081167459487915,0.3991031646728515
-0.0824264511466026,0.1604430228471756,-0.0875592976808548,-0.4677072465419769,-0.139797031879425,-0.0598649270832538,0.0,0.0,0.5545246601104736,-0.0667687058448791
-0.0832846611738205,0.1508935838937759,-0.082521453499794,-0.4247332513332367,-0.1430865675210952,-0.0657909065485,0.0,0.0,0.1594679355621338,-0.6835513114929199
-0.0840312987565994,0.1421083062887191,-0.0726810917258262,-0.3906486928462982,-0.1450643837451934,-0.0395559929311275,0.0,0.0,-0.4373671412467956,-0.8404184579849243
-0.0848684310913086,0.1332142502069473,-0.083001509308815,-0.3953625559806824,-0.1457742601633072,-0.014197526499629,0.0,0.0,0.4094774723052978,0.3184890747070312
-0.0856434851884841,0.1252337843179702,-0.076570525765419,-0.3547808229923248,-0.1467135101556778,-0.0187848545610904,0.0,0.0,-0.435637354850769,-0.4974204897880554
-0.0864517241716384,0.1171317920088768,-0.0796792358160018,-0.3602001368999481,-0.1478547304868698,-0.0228244103491306,0.0,0.0,0.1495753526687622,-0.720304012298584
-0.0872397422790527,0.1093766316771507,-0.0789639502763748,-0.3446581661701202,-0.1476937085390091,0.0032202142756432,0.0,0.0,0.5418412685394287,0.8791489601135254
-0.0880338698625564,0.1023705601692199,-0.0774412006139755,-0.311576783657074,-0.1496650129556656,-0.0394260883331298,0.0,0.0,0.2733626365661621,-0.8924074769020081
-0.0889846831560134,0.0958704575896263,-0.0946060419082641,-0.2889395952224731,-0.1501344591379165,-0.009388880804181,0.0,0.0,-0.0658226013183593,0.923159122467041
-0.0898989662528038,0.0892326682806015,-0.0889700800180435,-0.2952638566493988,-0.152590125799179,-0.0491132326424121,0.0,0.0,0.4917800426483154,0.783898115158081
-0.0906860381364822,0.0831661522388458,-0.0745221003890037,-0.2700584828853607,-0.1567800492048263,-0.0837985277175903,0.0,0.0,0.4116908311843872,-0.073287546634674
-0.0913479775190353,0.0774074867367744,-0.0623089484870433,-0.2563537657260895,-0.1606601625680923,-0.0776023119688034,0.0,0.0,0.627382755279541,-0.6599011421203613
-0.091883085668087,0.0725152119994163,-0.0509754233062267,-0.2177122086286544,-0.1631940454244613,-0.0506772212684154,0.0,0.0,0.2728786468505859,0.8149088621139526
-0.0922638922929763,0.0684081390500068,-0.0337369479238987,-0.1830210238695144,-0.1675408780574798,-0.0869372636079788,0.0,0.0,0.4137556552886963,0.1875712871551513
