x_pos,y_pos,x_vel,y_vel,angle,ang_vel,leg_1,leg_2,main_booster,lat_booster
-0.0015177726745605,1.403206706047058,-0.1532058417797088,,0.0012786972802132,0.0251876655966043,0.0,0.0,-0.2203432113783645,-0.6409116745970695
-0.003075695130974,1.3950953483581543,-0.1577357947826385,-0.3605066537857055,0.0031964608933776,0.0383595153689384,0.0,0.0,-0.8368937876432965,-0.8893368975715781
-0.0046821595169603,1.386559009552002,-0.1634696125984192,-0.379402220249176,0.0060002920217812,0.0560819432139396,0.0,0.0,-0.9242187737436496,0.833786559688926
-0.0062295915558934,1.377602458000183,-0.1557651460170745,-0.3980705440044403,0.0069996733218431,0.0199895128607749,0.0,0.0,0.5003883354928231,0.7940733826576444
-0.0075820921920239,1.369120955467224,-0.1344108879566192,-0.3769536316394806,0.0061770961619913,-0.0164530202746391,0.0,0.0,0.0063613881681292,0.8746318222119887
-0.008761977776885,1.3607177734375,-0.114937700331211,-0.3734561204910278,0.0031566531397402,-0.0604147315025329,0.0,0.0,0.1954520947102971,0.6545300610454218
-0.0099032400175929,1.3525242805480957,-0.1092658042907714,-0.3641602694988251,-0.0016578971408307,-0.0962995737791061,0.0,0.0,0.5009642123041056,0.7829322796208757
-0.0108242034912109,1.3447965383529663,-0.0854499712586402,-0.3434742987155914,-0.0082241827622056,-0.1313375681638717,0.0,0.0,-0.5815459534390877,-0.7705555058877888
-0.0118000032380223,1.336660623550415,-0.0920518413186073,-0.361637681722641,-0.0136937806382775,-0.109402060508728,0.0,0.0,-0.4472701290482426,-0.7619051159418684
-0.0128288269042968,1.328113317489624,-0.0984273552894592,-0.3799275755882263,-0.0181081742048263,-0.0882960930466651,0.0,0.0,-0.3626993694377074,-0.9292432043156998
-0.0139135364443063,1.3191509246826172,-0.1051390171051025,-0.3983754217624664,-0.0213949214667081,-0.0657412260770797,0.0,0.0,0.8525952934220973,-0.9345980004048412
-0.0149641036987304,1.3106567859649658,-0.1033209115266799,-0.3775436282157898,-0.0231162048876285,-0.0344284437596797,0.0,0.0,-0.967149932261024,-0.6197029677014845
-0.0160459522157907,1.3017492294311523,-0.1069636195898056,-0.395907312631607,-0.0243132449686527,-0.0239431224763393,0.0,0.0,-0.8890423739658762,-0.8333955144146401
-0.017178725451231,1.2924185991287231,-0.1131176203489303,-0.4147017300128937,-0.024479130282998,-0.0033179274760186,0.0,0.0,0.4661453655265151,-0.8078638491538828
-0.0182099342346191,1.2837727069854736,-0.1043587476015091,-0.3842380940914154,-0.023251598700881,0.0245527029037475,0.0,0.0,0.6956494908604349,0.8601661222380947
-0.0190341956913471,1.2751498222351074,-0.0817368105053901,-0.3832550346851349,-0.0239298231899738,-0.0135659156367182,0.0,0.0,-0.1776630796781291,-0.6019211779944988
-0.0198874473571777,1.2661175727844238,-0.0851634293794632,-0.4014408886432647,-0.0240920595824718,-0.0032448968850076,0.0,0.0,0.177543246824962,0.8325720996449252
-0.020544147118926,1.2570542097091677,-0.0635117515921592,-0.4028454422950744,-0.0262202657759189,-0.0425681546330452,0.0,0.0,-0.7509999520852759,-0.9068403459564388
-0.0212529189884662,1.2475842237472534,-0.0698698014020919,-0.4209083914756775,-0.0272229257971048,-0.0200550220906734,0.0,0.0,-0.7414117377093079,-0.8666581657543857
-0.0220316890627145,1.237699270248413,-0.0784499868750572,-0.4393203556537628,-0.0266497414559125,0.0114646013826131,0.0,0.0,-0.9513382744931648,0.8654531048787519
-0.0227195732295513,1.2273997068405151,-0.066894806921482,-0.4577951431274414,-0.0285227671265602,-0.0374638475477695,0.0,0.0,-0.2762131958131002,0.9466178036539592
-0.0233231540769338,1.2166738510131836,-0.0561826936900615,-0.4767869412899017,-0.0326618328690528,-0.0827888250350952,0.0,0.0,-0.0131691460183174,0.9414058569214784
-0.0238281246274709,1.2055251598358154,-0.0436820685863494,-0.4956649839878082,-0.0394095331430435,-0.1349658817052841,0.0,0.0,0.1404238142572407,-0.8719463410070446
-0.0243292804807424,1.1942733526229858,-0.0447475500404834,-0.500236988067627,-0.0447195172309875,-0.1062090620398521,0.0,0.0,-0.0887772744175465,0.9393509787502826
-0.0247651096433401,1.1826030015945437,-0.0364708788692951,-0.518911600112915,-0.0517601035535335,-0.1408239901065826,0.0,0.0,0.7468486060055846,-0.7326812151188753
-0.0253802295774221,1.171630620956421,-0.0552199594676494,-0.4878852665424347,-0.0579856671392917,-0.1245111227035522,0.0,0.0,0.0599333167789462,-0.8311786031501429
-0.0260224342346191,1.16094970703125,-0.0593276806175708,-0.47490194439888,-0.0628208667039871,-0.0967038571834564,0.0,0.0,-0.8576370313177699,-0.7020498680720729
-0.0267230980098247,1.1498651504516602,-0.066647931933403,-0.4927951395511627,-0.0661994665861129,-0.0675721317529678,0.0,0.0,0.4215638132378656,-0.6587596523404322
-0.0275459289550781,1.1393835544586182,-0.0797249525785446,-0.4659660756587982,-0.0687251910567283,-0.0505144894123077,0.0,0.0,0.6802426148245353,0.9940389000609358
-0.0282713882625103,1.1292171478271484,-0.0677632316946983,-0.452064961194992,-0.0734632834792137,-0.0947616025805473,0.0,0.0,0.5712914954949995,-0.8431438080668473
-0.0289748199284076,1.1198525428771973,-0.0671139061450958,-0.4163654148578644,-0.0766690671443939,-0.0641156882047653,0.0,0.0,-0.5688241599870962,0.6945191310786059
-0.0296216960996389,1.1100610494613647,-0.0600680783390998,-0.4354219138622284,-0.0812357664108276,-0.0913341641426086,0.0,0.0,0.0975586803294967,-0.9294839556595188
-0.0303534511476755,1.1006736755371094,-0.0703026205301284,-0.4173702001571655,-0.0840787068009376,-0.0568588972091674,0.0,0.0,0.8631680967537503,-0.6294615278950693
-0.0311683658510446,1.091487169265747,-0.0795784965157508,-0.4084023535251617,-0.0859740078449249,-0.0379058308899402,0.0,0.0,0.208487160030631,-0.8095781117105549
-0.0319844260811805,1.0825766324996948,-0.0812498480081558,-0.3960407674312591,-0.0863230377435684,-0.0069808065891265,0.0,0.0,-0.7498190259304216,0.8284295877596835
-0.0327230468392372,1.0732460021972656,-0.071744292974472,-0.4148217141628265,-0.0884227901697158,-0.041995383799076,0.0,0.0,0.0425607191825714,0.6460820740070495
-0.0333944335579872,1.0639193058013916,-0.0636741891503334,-0.4147259593009949,-0.0918568968772888,-0.0686819404363632,0.0,0.0,-0.6258871620755115,0.7321407713952808
-0.0339941978454589,1.0541720390319824,-0.0549474731087684,-0.4335185885429382,-0.0968389511108398,-0.0996411368250846,0.0,0.0,0.5130139106888458,-0.6288925967530432
-0.0345973968505859,1.0451794862747192,-0.0565021224319934,-0.39992755651474,-0.1006212309002876,-0.0756458193063736,0.0,0.0,0.648975492113351,0.6652746279873034
-0.0350464805960655,1.0366629362106323,-0.0398842245340347,-0.3788599371910095,-0.1056063324213028,-0.0997020080685615,0.0,0.0,0.9210200703658348,0.681119607097417
-0.0354687683284282,1.0290976762771606,-0.0355919823050498,-0.3367156386375427,-0.1121997013688087,-0.1318674236536026,0.0,0.0,-0.9606770277023317,-0.566228449344635
-0.035916231572628,1.0211197137832642,-0.0391244702041149,-0.3550095558166504,-0.1177881956100463,-0.1117698103189468,0.0,0.0,-0.9722598791122437,-0.0802083015441894
-0.036353301256895,1.0127240419387815,-0.0382268354296684,-0.3735792934894562,-0.1232442706823349,-0.1091215461492538,0.0,0.0,-0.9485065937042236,-0.5298801064491272
-0.0368148796260356,1.0039160251617432,-0.0417218282818794,-0.3918362855911255,-0.1276605725288391,-0.0883261486887931,0.0,0.0,-0.9981769919395448,-0.5846759676933289
-0.0373157486319541,0.994692862033844,-0.0470770113170146,-0.4101840257644653,-0.1306533068418502,-0.0598545745015144,0.0,0.0,-0.99355286359787,0.0792081356048584
-0.0378062240779399,0.9850515127182008,-0.0462515465915203,-0.4287509620189667,-0.1334431022405624,-0.0557963065803051,0.0,0.0,-0.9465578198432922,-0.7862163782119751
-0.038342285901308,0.9749990105628968,-0.0524449422955513,-0.4468847215175628,-0.1345989108085632,-0.0231160521507263,0.0,0.0,-0.9112685322761536,-0.3623316884040832
-0.0388681404292583,0.964528262615204,-0.0516744665801525,-0.4654504656791687,-0.1355097144842147,-0.0182159319519996,0.0,0.0,-0.971339225769043,-0.7108709216117859
-0.0394513122737407,0.9536592364311218,-0.0594130270183086,-0.4829637408256531,-0.1344197541475296,0.0217993631958961,0.0,0.0,-0.9671791195869446,0.480340838432312
-0.0400246605277061,0.9423720240592957,-0.0587036125361919,-0.5015290379524231,-0.1330470144748687,0.0274547152221202,0.0,0.0,-0.9239664673805236,-0.0842782258987426
-0.0405881889164447,0.930666446685791,-0.0580270960927009,-0.5200942754745483,-0.1313742697238922,0.0334547311067581,0.0,0.0,-0.985765814781189,0.2449927330017089
-0.0411419868469238,0.918542742729187,-0.0573851242661476,-0.5386594533920288,-0.1293853521347046,0.039778683334589,0.0,0.0,-0.9912042617797852,-0.0803560018539428
-0.0416865348815918,0.906000554561615,-0.0567793734371662,-0.5572245717048645,-0.1270651668310165,0.0464033111929893,0.0,0.0,-0.9817897081375122,0.588341474533081
-0.0421749129891395,0.8930367231369019,-0.0503395423293113,-0.5760466456413269,-0.1255784481763839,0.0297347791492939,0.0,0.0,-0.9755651950836182,0.0982911586761474
-0.0426544174551963,0.879654586315155,-0.0498113259673118,-0.594611406326294,-0.1237333491444587,0.036902017891407,0.0,0.0,-0.9709914922714232,-0.1217393279075622
-0.0431254394352436,0.8658539652824402,-0.0493245050311088,-0.6131762266159058,-0.1215177625417709,0.0443118177354335,0.0,0.0,-0.9418354630470276,-0.4849594831466675
-0.0435881614685058,0.8516351580619812,-0.0488808080554008,-0.6317411661148071,-0.1189204305410385,0.0519463345408439,0.0,0.0,-0.9702150821685792,0.3232591152191162
-0.0440429672598838,0.8369979858398438,-0.0484819561243057,-0.6503062844276428,-0.1159309893846511,0.0597885772585868,0.0,0.0,-0.9428971409797668,-0.4085237979888916
-0.0444901473820209,0.8219425678253174,-0.0481296256184577,-0.6688715219497681,-0.1125398427248001,0.0678228512406349,0.0,0.0,-0.8814311027526855,-0.1227533221244812
-0.0449300780892372,0.8064689040184021,-0.0478254407644271,-0.6874369382858276,-0.1087381392717361,0.07603420317173,0.0,0.0,-0.8196607828140259,0.4650925397872925
-0.0453633293509483,0.7905768752098083,-0.0475709252059459,-0.7060026526451111,-0.104517713189125,0.0844088867306709,0.0,0.0,-0.8429533839225769,0.3181313276290893
-0.0457900986075401,0.7742668986320496,-0.0473675280809402,-0.724568784236908,-0.0998710021376609,0.0929341092705726,0.0,0.0,-0.6225172877311707,0.70623779296875
-0.0461441986262798,0.7575269341468811,-0.0388188585638999,-0.7437760829925537,-0.0964886546134948,0.0676472559571266,0.0,0.0,-0.5876374840736389,0.6892528533935547
-0.0464364066720008,0.7403615117073059,-0.0316354446113109,-0.7627533674240112,-0.0940941423177719,0.0478905513882637,0.0,0.0,-0.2634398341178894,0.0820987224578857
-0.0467236526310443,0.722777783870697,-0.0315924063324928,-0.7813186645507812,-0.0912541449069976,0.0567998960614204,0.0,0.0,-0.2705159187316894,0.0633726119995117
-0.0470065101981163,0.7047758102416992,-0.0316048078238964,-0.7998842000961304,-0.08796326816082,0.0658175572752952,0.0,0.0,-0.0533916354179382,0.6870194673538208
-0.0472288131713867,0.6863564252853394,-0.0245883800089359,-0.8185091614723206,-0.085631787776947,0.0466295108199119,0.0,0.0,0.4963235855102539,0.3290674686431885
-0.0473509803414344,0.6679049730300903,-0.0153870433568954,-0.819885790348053,-0.0824959352612495,0.0627171918749809,0.0,0.0,-0.3065100908279419,0.8350049257278442
-0.0474010482430458,0.6490363478660583,-0.0068813459947705,-0.8384996056556702,-0.0806306675076484,0.0373053587973117,0.0,0.0,-0.0894372463226318,0.3752232789993286
-0.0474487319588661,0.6297494769096375,-0.0071196681819856,-0.8570650815963745,-0.0782968029379844,0.0466770827770233,0.0,0.0,0.4712903499603271,0.3181449174880981
-0.0475288406014442,0.6109558939933777,-0.0104665327817201,-0.835147500038147,-0.075869046151638,0.0485552474856376,0.0,0.0,0.5388329029083252,0.3599023818969726
-0.0475351326167583,0.592607855796814,-0.0036985613405704,-0.8153178095817566,-0.0728332623839378,0.06071587651968,0.0,0.0,0.5158476829528809,0.006717562675476
-0.0476021766662597,0.5750137567520142,-0.0096993874758481,-0.7818168997764587,-0.0698656812310218,0.0593518130481243,0.0,0.0,-0.0910559296607971,0.1267513036727905
-0.0476688370108604,0.557001531124115,-0.0101600689813494,-0.8003832697868347,-0.0664167627692222,0.0689782425761222,0.0,0.0,0.457040786743164,0.520334005355835
-0.04770402982831,0.5390825271606445,-0.0063628749921917,-0.7962773442268372,-0.0636003762483596,0.0563275925815105,0.0,0.0,0.6054277420043945,0.498245358467102
-0.0476538650691509,0.5212120413780212,0.0013652538182213,-0.794094979763031,-0.0599920414388179,0.0721666738390922,0.0,0.0,0.6983747482299805,-0.311680793762207
-0.0476164817810058,0.5034488439559937,-0.0002490355982445,-0.7893182039260864,-0.0560455210506916,0.0789305046200752,0.0,0.0,0.5343512296676636,-0.1639466285705566
-0.0475472435355186,0.4863716959953308,0.0024743340909481,-0.758825421333313,-0.0516444966197013,0.0880205333232879,0.0,0.0,0.8367903232574463,-0.2810234427452087
-0.0473443977534771,0.470228374004364,0.0149161797016859,-0.7173025012016296,-0.0463395081460475,0.1060997992753982,0.0,0.0,0.5762437582015991,-0.3438780307769775
-0.047214888036251,0.4548432826995849,0.0075783631764352,-0.683626115322113,-0.0410357937216758,0.1060743704438209,0.0,0.0,-0.240602970123291,0.1827807426452636
-0.0470884330570697,0.4390405118465423,0.006775845773518,-0.7021951675415039,-0.0352365374565124,0.1159847751259803,0.0,0.0,0.8807089328765869,0.4679262638092041
-0.0468877777457237,0.4241667687892914,0.0134791359305381,-0.6609141230583191,-0.0287279244512319,0.1301724016666412,0.0,0.0,0.3129293918609619,0.3650345802307129
-0.0467582717537879,0.4095648229122162,0.006238505244255,-0.648860514163971,-0.0220935735851526,0.132687047123909,0.0,0.0,0.7287516593933105,0.8120473623275757
-0.0466159805655479,0.3956124782562256,0.0087528973817825,-0.6200355887413025,-0.0166929420083761,0.1080124750733375,0.0,0.0,0.3054485321044922,0.6424961090087891
-0.0464285835623741,0.3820734620094299,0.0140750873833894,-0.6016892790794373,-0.0120877930894494,0.0921033099293708,0.0,0.0,0.7070868015289307,0.8526709079742432
-0.0460714325308799,0.3690155446529388,0.032092273235321,-0.5803253054618835,-0.0085056331008672,0.07164316624403,0.0,0.0,-0.2791907787322998,0.4437854290008545
-0.0457193367183208,0.3555400371551513,0.0310697648674249,-0.5988944172859192,-0.0044212467037141,0.0816878303885459,0.0,0.0,0.8796944618225098,0.6941413879394531
-0.0452016815543174,0.3423278331756592,0.0482341162860393,-0.5872031450271606,-0.000938715878874,0.0696508735418319,0.0,0.0,0.8294278383255005,0.5308456420898438
-0.044473934918642,0.3296459913253784,0.0693025663495063,-0.5636375546455383,0.0024875663220882,0.0685258358716964,0.0,0.0,-0.0134646296501159,0.246397852897644
-0.0437520965933799,0.3165466785430908,0.0681962296366691,-0.5822069644927979,0.0064180865883827,0.0786105170845985,0.0,0.0,0.7116858959197998,0.6881544589996338
-0.0429934486746788,0.3042026460170746,0.0727755278348922,-0.5486391186714172,0.0094704767689108,0.0610477998852729,0.0,0.0,0.4885183572769165,0.2931264638900757
-0.0422197356820106,0.2924665808677673,0.0736341178417205,-0.5216320157051086,0.0131569979712367,0.07373046875,0.0,0.0,-0.0561107397079467,0.5830776691436768
-0.0413970947265625,0.2803161740303039,0.0794442296028137,-0.5400434732437134,0.0159496068954467,0.0558519437909126,0.0,0.0,0.4295163154602051,0.3373167514801025
-0.0404984466731548,0.2681739926338196,0.0861169397830963,-0.5396970510482788,0.0196516383439302,0.0740406289696693,0.0,0.0,0.5009527206420898,-0.0055015683174133
-0.0396635048091411,0.2563068270683288,0.0794476270675659,-0.5274903774261475,0.0236387960612773,0.0797434598207473,0.0,0.0,0.394244909286499,0.639570951461792
-0.0387240424752235,0.2451262325048446,0.0905351489782333,-0.4969730377197265,0.0270109847187995,0.0674437955021858,0.0,0.0,-0.3725738525390625,-0.3709635138511657
-0.0377918258309364,0.2335282117128372,0.0892900750041008,-0.5155435800552368,0.0308892969042062,0.0775662139058113,0.0,0.0,0.3568698167800903,-0.1568560600280761
-0.0369894988834857,0.222487598657608,0.0762785077095031,-0.4907800555229187,0.0348010025918483,0.0782338008284568,0.0,0.0,0.7164433002471924,-0.3851463198661804
-0.0361295714974403,0.2121212631464004,0.0810993760824203,-0.4608463943004608,0.0396370254456996,0.0967204645276069,0.0,0.0,0.3633928298950195,-0.7072107195854187
-0.0354070663452148,0.2022647410631179,0.0655013993382453,-0.4382602274417877,0.0463057123124599,0.1333736032247543,0.0,0.0,-0.0530818104743957,0.7858873605728149
-0.0346389785408973,0.1920006871223449,0.0709122866392135,-0.4563760757446289,0.0521301515400409,0.116488792002201,0.0,0.0,0.6109702587127686,-0.2147438526153564
-0.0339283943176269,0.182045117020607,0.0647681877017021,-0.4427027106285095,0.0583477243781089,0.1243513077497482,0.0,0.0,0.4535766839981079,0.0501738786697387
-0.0333592407405376,0.1724560409784317,0.0506011173129081,-0.4264422059059143,0.0645954385399818,0.124954380095005,0.0,0.0,0.7573283910751343,0.5189142227172852
-0.0329630859196186,0.1632701456546783,0.03431948274374,-0.4084959626197815,0.0698326006531715,0.1047433167695999,0.0,0.0,0.5698511600494385,0.3688609600067138
-0.0325223915278911,0.1546997427940368,0.0377936586737632,-0.3812125623226166,0.0760392919182777,0.1241337805986404,0.0,0.0,-0.1000431776046752,0.2644743919372558
-0.0320901870727539,0.1457126289606094,0.0364526621997356,-0.3997873663902282,0.0827492848038673,0.1341998726129531,0.0,0.0,0.3329169750213623,0.5478401184082031
-0.0315472595393657,0.1372543722391128,0.0478397645056247,-0.3762938678264618,0.0891476646065712,0.1279677152633667,0.0,0.0,0.1084967851638794,-0.1032955646514892
-0.031074333935976,0.1291553080081939,0.0403946079313755,-0.360382616519928,0.0959768369793891,0.1365836709737777,0.0,0.0,0.1253694295883178,0.942374587059021
-0.0304780956357717,0.1215467751026153,0.054133266210556,-0.3385184407234192,0.1014290601015091,0.1090445145964622,0.0,0.0,-0.1604306101799011,0.8209524154663086
-0.0298176761716604,0.1135326921939849,0.061905700713396,-0.3564702272415161,0.1055368185043335,0.0821549519896507,0.0,0.0,0.1733779907226562,0.3787856101989746
-0.0292321201413869,0.1059658601880073,0.0539436563849449,-0.3366352617740631,0.1101196929812431,0.0916576385498046,0.0,0.0,0.3994110822677612,-0.3037347793579101
-0.0286774635314941,0.0989853963255882,0.0501083619892597,-0.310647189617157,0.1154378801584243,0.1063635572791099,0.0,0.0,0.1818642616271972,0.736081600189209
-0.0280463211238384,0.0920946896076202,0.0586714260280132,-0.3066067397594452,0.1198550164699554,0.0883427932858467,0.0,0.0,0.1332244873046875,0.8257008790969849
-0.0275065414607524,0.0854143500328064,0.0507569424808025,-0.2971648573875427,0.1230647936463356,0.0641954019665718,0.0,0.0,0.2457474470138549,0.889143705368042
-0.0270642284303903,0.0788849890232086,0.0423667654395103,-0.2903481423854828,0.1249242052435875,0.0371881499886512,0.0,0.0,0.7250845432281494,0.971410870552063
-0.0266529079526662,0.0728238448500633,0.0407536253333091,-0.2694165408611297,0.1253009289503097,0.0075345775112509,0.0,0.0,0.4710468053817749,0.7047626972198486
-0.026229191571474,0.0670665353536605,0.0428688414394855,-0.255838543176651,0.1248066872358322,-0.0098848128691315,0.0,0.0,0.3347771167755127,0.6865963935852051
-0.025679875165224,0.0613504983484745,0.0561225041747093,-0.2539478242397308,0.1236224323511123,-0.0236851014196872,0.0,0.0,0.3003286123275757,0.6032183170318604
-0.0250750537961721,0.0560456626117229,0.0622337758541107,-0.2356251329183578,0.1218775734305381,-0.0348970033228397,0.0,0.0,-0.0265989899635314,0.0550017356872558
-0.0244793891906738,0.0503238998353481,0.0608365610241889,-0.2541987001895904,0.1206152737140655,-0.0252460781484842,0.0,0.0,0.4480576515197754,0.6662552356719971
-0.023811912164092,0.0446055047214031,0.0687506347894668,-0.253989040851593,0.1186235919594764,-0.0398338362574577,0.0,0.0,0.5735843181610107,0.7456448078155518
