x_pos,y_pos,x_vel,y_vel,angle,ang_vel,leg_1,leg_2,main_booster,lat_booster
-0.0015467643970623,1.403251051902771,-0.156242236495018,-0.3408493399620056,0.0013941652141511,0.0274740662425756,0.0,0.0,-0.8364313989356296,0.763033396758455
-0.0030515671242028,1.3952280282974243,-0.1498068869113922,-0.3565778434276581,0.0007256607059389,-0.0133706349879503,0.0,0.0,-0.2834719676023018,0.8559909229321084
-0.0044965744018554,1.3868249654769895,-0.1413549482822418,-0.3734713494777679,-0.0023931146133691,-0.0623816326260566,0.0,0.0,-0.0611362091253786,0.7219052636345188
-0.005917930509895,1.3780460357666016,-0.1374431699514389,-0.3901880085468292,-0.0070360801182687,-0.092867761850357,0.0,0.0,-0.4757874126821946,0.8315205133004531
-0.0072813034057617,1.3688960075378418,-0.1292380392551422,-0.4067193865776062,-0.0140487737953662,-0.1402669847011566,0.0,0.0,-0.1335930776173488,0.8890864591299374
-0.0085793491452932,1.359370470046997,-0.120164930820465,-0.4234795570373535,-0.023587979376316,-0.1908017098903656,0.0,0.0,0.0570356610224287,0.9002175917849693
-0.0098349573090672,1.3500251770019531,-0.1137466207146644,-0.415573388338089,-0.0352725014090538,-0.2337120771408081,0.0,0.0,-0.9887327844253064,-0.7134322593836777
-0.0111519815400242,1.3403124809265137,-0.1206075549125671,-0.431970477104187,-0.0462476573884487,-0.2195232659578323,0.0,0.0,0.6790672681039862,0.6255323222633775
-0.0124119762331247,1.3315072059631348,-0.1132768243551254,-0.3917887508869171,-0.0588436461985111,-0.2519430220127105,0.0,0.0,0.2907263695542643,-0.7214107000303298
-0.0137135507538914,1.3231894969940186,-0.1185400336980819,-0.3701625168323517,-0.0703487396240234,-0.230122834444046,0.0,0.0,-0.1160835263498938,0.7404852561211925
-0.014965534210205,1.3144946098327637,-0.1115579381585121,-0.3871439099311828,-0.0838663130998611,-0.2703763246536255,0.0,0.0,0.1488857736588102,-0.6450274213569493
-0.0161983482539653,1.3059759140014648,-0.1107137650251388,-0.3793587386608124,-0.0963435694575309,-0.2495677471160888,0.0,0.0,0.4297893617508475,-0.6428959078963365
-0.0173150058835744,1.2979824542999268,-0.1003478989005088,-0.3560318648815155,-0.1076008901000022,-0.2251666486263275,0.0,0.0,0.1487002818278286,0.67275526081884
-0.0183133129030466,1.2899625301361084,-0.0869411751627922,-0.3574185073375702,-0.1204311326146125,-0.2566279768943786,0.0,0.0,0.9663782826270256,-0.7440703448484296
-0.019084071740508,1.2830183506011963,-0.065841756761074,-0.3095844984054565,-0.1316256076097488,-0.2239096611738205,0.0,0.0,-0.299682395397846,-0.7704156211785606
-0.0199170112609863,1.275702953338623,-0.0730481669306755,-0.3260610997676849,-0.1418526917695999,-0.2045599222183227,0.0,0.0,-0.7140465774330875,-0.9260480188906436
-0.0208157543092966,1.2680385112762451,-0.0807922929525375,-0.3415262103080749,-0.1509205251932144,-0.181373193860054,0.0,0.0,-0.791255686507867,0.622004686760796
-0.021664809435606,1.2599836587905884,-0.0740564987063407,-0.3591329753398895,-0.161785751581192,-0.2173237800598144,0.0,0.0,0.2321335804259752,-0.9323569548528924
-0.022414494305849,0.0,-0.0657889097929,-0.3358800709247589,-0.1709870398044586,-0.1840425729751587,0.0,0.0,0.3091205730405193,-0.6130500782114136
-0.0232125278562307,1.245235800743103,-0.0714830756187439,-0.3215770125389099,-0.1793276816606521,-0.1668278574943542,0.0,0.0,0.8551337189416282,-0.6541644686995545
-0.0237645152956247,1.2388731241226196,-0.0483867041766643,-0.2836132645606994,-0.1861787885427475,-0.1370347887277603,0.0,0.0,0.2071224545532834,-0.8311049457366821
-0.0243171695619821,1.2326254844665527,-0.0499169118702411,-0.2783572375774383,-0.1915589123964309,-0.1076124459505081,0.0,0.0,0.1518268146275583,0.9094208386915132
-0.0246269218623638,1.22651207447052,-0.0236722268164157,-0.2726612687110901,-0.1989190131425857,-0.1472148895263672,0.0,0.0,0.151912699964726,-0.8712939674463245
-0.02490920946002,1.2203402519226074,-0.0225247759371995,-0.2750754058361053,-0.204675480723381,-0.1151397824287414,0.0,0.0,-0.0240396145019023,-0.613162007856608
-0.0252509117126464,1.213815689086914,-0.0298426859080791,-0.2905887365341186,-0.2090536653995514,-0.0875710844993591,0.0,0.0,0.9060244116511388,0.8434498698423091
-0.0255414005368948,1.208130121231079,-0.022547397762537,-0.2536187469959259,-0.2156180590391159,-0.1312878429889679,0.0,0.0,0.6246760032506928,0.8027347022464897
-0.0256109237670898,1.2031023502349854,0.001234853058122,-0.224677100777626,-0.2238931804895401,-0.165502518415451,0.0,0.0,0.0344780150239671,-0.9348203785150556
-0.025728702545166,1.1985244750976562,-0.0054229358211159,-0.2044435441493988,-0.2303325980901718,-0.1287882030010223,0.0,0.0,-0.9421486297332288,-0.6730411541359482
-0.0259044654667377,1.193601131439209,-0.0128019107505679,-0.2195667326450348,-0.235180526971817,-0.0969582647085189,0.0,0.0,-0.8851522490514319,-0.8393809564852394
-0.0261421203613281,1.1883257627487185,-0.0206795781850814,-0.2349629998207092,-0.2383209019899368,-0.0628071650862693,0.0,0.0,-0.8013423308278351,0.625026966839618
-0.0263228416442871,1.1826659440994265,-0.0136840101331472,-0.2522642612457275,-0.2427757084369659,-0.0890961736440658,0.0,0.0,0.9892637304248504,0.9874114881815323
-0.026395034044981,1.1774051189422607,-0.0007016986492089,-0.2349040806293487,-0.2494022101163864,-0.1325307339429855,0.0,0.0,0.7398580502718111,-0.7331859789333572
-0.0263965614140033,1.173061490058899,0.0050507811829447,-0.1939437836408615,-0.2547155916690826,-0.1062677875161171,0.0,0.0,-0.1438057360308702,-0.9289578825816844
-0.0264680869877338,1.1683669090270996,-0.0040169362910091,-0.209191232919693,-0.257912129163742,-0.0639311000704765,0.0,0.0,-0.2682182376467867,0.9614564174463588
-0.0264529231935739,1.163271188735962,0.0065374327823519,-0.227369487285614,-0.2630348801612854,-0.1024558991193771,0.0,0.0,0.8915364799521721,0.9240811396149172
-0.0261064525693655,1.1590256690979004,0.0413405857980251,-0.1899094432592392,-0.2698908150196075,-0.1371185183525085,0.0,0.0,-0.9037919865607444,-0.6890881461055267
-0.0258021354675292,1.154426097869873,0.035587839782238,-0.2053893059492111,-0.2751804888248443,-0.105793222784996,0.0,0.0,-0.5552204371146199,0.6137525937416226
-0.0254334453493356,1.149436593055725,0.0431806854903698,-0.2229578047990799,-0.2816551029682159,-0.1294915527105331,0.0,0.0,-0.4174679345716927,-0.6199511559821826
-0.025098418816924,1.144101858139038,0.0383423194289207,-0.2380447834730148,-0.2866289019584656,-0.0994765609502792,0.0,0.0,-0.5822309124439711,-0.6798133721106718
-0.0247963909059762,1.1384155750274658,0.0335874259471893,-0.2533897161483764,-0.2901127636432647,-0.0696764141321182,0.0,0.0,-0.396154035901296,0.902824514905098
-0.024420166388154,1.1323376893997192,0.0422669425606727,-0.2710662484169006,-0.2949056625366211,-0.0958579033613205,0.0,0.0,-0.93230801820755,-0.993049144744873
-0.0240866653621196,1.1259105205535889,0.0362391173839569,-0.2862358391284942,-0.2978853583335876,-0.0595937557518482,0.0,0.0,-0.596969485282898,-0.9938432574272156
-0.0238000862300395,1.119127631187439,0.0296832658350467,-0.3016749918460846,-0.2989534437656402,-0.0213615279644727,0.0,0.0,-0.4869218468666076,-0.9937386512756348
-0.0235579498112201,1.111997365951538,0.0233878139406442,-0.3167338371276855,-0.2980916500091553,0.0172361396253108,0.0,0.0,-0.8480992913246155,-0.9990203380584716
-0.0233792308717966,1.1045184135437012,0.014698602259159,-0.3317537605762481,-0.2948136329650879,0.0655600801110267,0.0,0.0,-0.9580032229423524,-0.9807624816894532
-0.0232509616762399,1.096686601638794,0.0076052984222769,-0.3470271825790405,-0.2894303500652313,0.1076653972268104,0.0,0.0,-0.8679798245429993,-0.9488850235939026
-0.0231677051633596,1.0885047912597656,0.0011375839821994,-0.3622291386127472,-0.2820328176021576,0.1479504406452179,0.0,0.0,-0.7988632321357727,-0.9636403322219848
-0.0231480598449707,1.0799968242645264,-0.0077971247956156,-0.3762739598751068,-0.2720050811767578,0.2005539238452911,0.0,0.0,-0.9328980445861816,-0.5177424550056458
-0.0231537818908691,1.0711402893066406,-0.0119438795372843,-0.3915522992610931,-0.2603813111782074,0.2324754893779754,0.0,0.0,-0.8896371126174927,-0.6977548599243164
-0.0231929775327444,1.0619313716888428,-0.0170637071132659,-0.4070084691047668,-0.2469756007194519,0.2681144475936889,0.0,0.0,-0.9182981848716736,-0.0513110160827636
-0.0232096668332815,1.0523501634597778,-0.0151888504624366,-0.4236133694648742,-0.233237475156784,0.2747624218463897,0.0,0.0,-0.8399470448493958,-0.4933560490608215
-0.0232035629451274,1.0423972606658936,-0.0132876113057136,-0.4402191936969757,-0.2191576361656189,0.2815970778465271,0.0,0.0,-0.9612728357315063,0.0367605686187744
-0.0231741908937692,1.0320723056793213,-0.0113620404154062,-0.4568260908126831,-0.2047274559736251,0.2886039018630981,0.0,0.0,-0.963636040687561,0.4043534994125366
-0.0231215469539165,1.0213757753372192,-0.0094140283763408,-0.4734341502189636,-0.1899389922618866,0.2957693338394165,0.0,0.0,-0.9799704551696776,0.670454740524292
-0.0229805000126361,1.0102863311767578,0.0006803967407904,-0.4911992251873016,-0.1764654964208603,0.2694700360298157,0.0,0.0,-0.9854910373687744,0.825028657913208
-0.0227621085941791,0.9988067150115968,0.0094134239479899,-0.5087734460830688,-0.1640135496854782,0.2490390092134475,0.0,0.0,-0.9550217390060424,0.7622798681259155
-0.0224500652402639,0.9869447946548462,0.0201316010206937,-0.5260233879089355,-0.152943879365921,0.221393272280693,0.0,0.0,-0.9116811752319336,0.6081738471984863
-0.0220550540834665,0.9746989011764526,0.0295180529356002,-0.5432711839675903,-0.1429843604564666,0.1991906017065048,0.0,0.0,-0.9389725923538208,0.659900426864624
-0.021576976403594,0.9620742201805116,0.0389131195843219,-0.5602725744247437,-0.1341149508953094,0.1773878186941146,0.0,0.0,-0.9669944047927856,-0.3356848955154419
-0.0210742000490427,0.9490764141082764,0.040966298431158,-0.5768718123435974,-0.1248513758182525,0.185271605849266,0.0,0.0,-0.9374160766601562,0.1295567750930786
-0.0205467231571674,0.9357057213783264,0.0430317632853984,-0.593471884727478,-0.1151892766356468,0.1932420134544372,0.0,0.0,-0.8814527988433838,0.5065658092498779
-0.0199609752744436,0.921959102153778,0.0492936819791793,-0.6102780699729919,-0.105966180562973,0.1844619810581207,0.0,0.0,-0.9414567351341248,0.011562705039978
-0.0193500518798828,0.9078394770622252,0.0513808540999889,-0.6268786787986755,-0.0963369607925415,0.1925841569900512,0.0,0.0,-0.9679377675056458,0.2610013484954834
-0.0187139511108398,0.8933472633361816,0.0534773841500282,-0.6434802412986755,-0.086298368871212,0.2007723748683929,0.0,0.0,-0.742518424987793,0.4803179502487182
-0.0180525779724121,0.8784825205802917,0.0555823966860771,-0.6600828170776367,-0.0758473202586174,0.2090208232402801,0.0,0.0,-0.7749849557876587,0.8456974029541016
-0.0173128135502338,0.8632397055625916,0.0643500834703445,-0.6770021319389343,-0.0663190633058548,0.1905650794506073,0.0,0.0,-0.8666759729385376,0.8722789287567139
-0.0164757724851369,0.8476271033287048,0.0754657760262489,-0.6935496926307678,-0.0581692345440387,0.162996619939804,0.0,0.0,-0.9511486291885376,0.5917611122131348
-0.0155603410676121,0.8316299915313721,0.0842308551073074,-0.7107226848602295,-0.0509392023086547,0.144600436091423,0.0,0.0,-0.9588124752044678,0.3768445253372192
-0.0146192554384469,0.8152596354484558,0.0863630175590515,-0.7273223400115967,-0.043287057429552,0.1530433744192123,0.0,0.0,-0.941862940788269,0.5592098236083984
-0.0136152263730764,0.7985116839408875,0.093173898756504,-0.744166374206543,-0.0361499413847923,0.1427423059940338,0.0,0.0,-0.9626246094703674,0.6355807781219482
-0.0125428196042776,0.7813908457756042,0.1006672233343124,-0.760777473449707,-0.0296582393348217,0.1298341304063797,0.0,0.0,-0.8854153752326965,0.496472954750061
-0.0114445686340332,0.7638971209526062,0.1028125137090683,-0.7773770689964294,-0.0227391142398118,0.1383824646472931,0.0,0.0,-0.920457661151886,0.8685697317123413
-0.0102663990110158,0.7460383772850037,0.1117539033293724,-0.7936483025550842,-0.0167483035475015,0.1198161467909812,0.0,0.0,-0.856293797492981,0.8020644187927246
-0.0089910505339503,0.7278044819831848,0.1228400096297264,-0.8103475570678711,-0.0121170254424214,0.0926255732774734,0.0,0.0,-0.782543957233429,-0.105619728565216
-0.007689761929214,0.7091974020004272,0.1249933689832687,-0.8269460201263428,-0.0070543368346989,0.1012540012598037,0.0,0.0,-0.7484274506568909,0.3278827667236328
-0.0063627241179347,0.6902173757553101,0.1271483600139618,-0.8435450196266174,-0.0015590988332405,0.1099043935537338,0.0,0.0,-0.7332721948623657,0.4846405982971191
-0.0050095557235181,0.6708642840385437,0.1293045133352279,-0.8601446151733398,0.0043696304783225,0.1185747236013412,0.0,0.0,0.1419769525527954,-0.1863018274307251
-0.0036386488936841,0.6519606113433838,0.1306723207235336,-0.8401957154273987,0.0107060307636857,0.1267281025648117,0.0,0.0,-0.5563768744468689,0.002897024154663
-0.0022417069412767,0.6326841711997986,0.132829412817955,-0.8567965626716614,0.0174776837229728,0.1354329288005828,0.0,0.0,0.2487207651138305,-0.1652325391769409
-0.000914478325285,0.6139592528343201,0.1258256584405899,-0.8323146104812622,0.0242930389940738,0.1363070756196975,0.0,0.0,0.5096466541290283,0.3976351022720337
0.0003132820129394,0.595311164855957,0.115982174873352,-0.828927755355835,0.0309981647878885,0.1341028064489364,0.0,0.0,0.5539438724517822,0.0117403268814086
0.0015818595420569,0.5774070024490356,0.1194501370191574,-0.7959110736846924,0.0383160933852195,0.1463585942983627,0.0,0.0,-0.0888183712959289,0.8959262371063232
0.0029353140853345,0.5591336488723755,0.1289980411529541,-0.8123284578323364,0.0445893853902816,0.1254656761884689,0.0,0.0,0.2342772483825683,0.4460687637329101
0.0042512891814112,0.5412436723709106,0.1249942332506179,-0.7953211665153503,0.0511115528643131,0.1304433345794677,0.0,0.0,0.1752809286117553,0.6599318981170654
0.0056102750822901,0.5237328410148621,0.1301966160535812,-0.77846360206604,0.0567452982068061,0.1126747578382492,0.0,0.0,-0.0915329456329345,0.4466745853424072
0.0069951056502759,0.5058494210243225,0.1323422938585281,-0.7950654625892639,0.0628181248903274,0.121456541121006,0.0,0.0,0.8753049373626709,0.738915205001831
0.0084691997617483,0.4881759285926819,0.1422473788261413,-0.7857126593589783,0.067927673459053,0.1021909117698669,0.0,0.0,0.8968489170074463,-0.169025182723999
0.010044002905488,0.4708325564861297,0.1513774096965789,-0.7711070775985718,0.0739695727825164,0.1208380684256553,0.0,0.0,0.674431324005127,0.5811669826507568
0.0118077276274561,0.454005092382431,0.1705716699361801,-0.7481848001480103,0.0797010064125061,0.114628866314888,0.0,0.0,0.4338666200637817,-0.2364861965179443
0.0136903766542673,0.4373314082622528,0.1814710199832916,-0.741428792476654,0.0864321812987327,0.1346236616373062,0.0,0.0,0.5931169986724854,-0.4889686703681946
0.0155306812375783,0.4213674068450928,0.1768235713243484,-0.7099478840827942,0.093578353524208,0.1429232954978943,0.0,0.0,0.4743595123291015,0.0129097700119018
0.0173608772456645,0.4060459733009338,0.1752373725175857,-0.6814575791358948,0.1012926027178764,0.1542849242687225,0.0,0.0,0.4002251625061035,0.3849078416824341
0.0192644111812114,0.3912122845649719,0.1816411018371582,-0.6598878502845764,0.1099355146288871,0.1728580445051193,0.0,0.0,0.2303886413574218,0.6157243251800537
0.0212982185184955,0.3763845264911651,0.1953354179859161,-0.6596262454986572,0.1179347857832908,0.1599853485822677,0.0,0.0,0.4080170392990112,-0.2933290004730224
0.023261833935976,0.3618234395980835,0.1880859136581421,-0.6478357911109924,0.1261673420667648,0.1646509170532226,0.0,0.0,0.4032630920410156,0.1423397064208984
0.0252297408878803,0.3479945957660675,0.1877499371767044,-0.6154021620750427,0.1351727694272995,0.1801086813211441,0.0,0.0,0.6769230365753174,0.5137333869934082
0.0271602626889944,0.3346557319164276,0.1846691817045211,-0.5936204195022583,0.143522247672081,0.1669900119304657,0.0,0.0,0.2876336574554443,0.6601917743682861
0.0289713852107524,0.32185959815979,0.1738111674785614,-0.5694401860237122,0.1508129686117172,0.1458137184381485,0.0,0.0,-0.094460129737854,-0.3415622115135193
0.0308074001222848,0.3086915910243988,0.1758651435375213,-0.5860472917556763,0.1585435569286346,0.1546116769313812,0.0,0.0,0.5747420787811279,0.6057528257369995
0.0325474739074707,0.2962135970592499,0.1671831607818603,-0.5553203821182251,0.1653705388307571,0.1365395933389663,0.0,0.0,0.409369945526123,-0.0386456251144409
0.0341374389827251,0.2842914164066314,0.1520639359951019,-0.530661940574646,0.1723104566335678,0.1387984305620193,0.0,0.0,0.0650793313980102,0.4758263826370239
0.0356809608638286,0.2724677324295044,0.1470697969198227,-0.5263590812683105,0.1796152591705322,0.1460957825183868,0.0,0.0,0.1317343711853027,0.5507370233535767
0.0371310226619243,0.2608688771724701,0.1385495513677597,-0.5163020491600037,0.1860981881618499,0.1296586692333221,0.0,0.0,-0.1432351469993591,0.8384816646575928
0.0386543273925781,0.2489100843667984,0.1466956585645675,-0.5322213768959045,0.1917584389448166,0.113205075263977,0.0,0.0,0.7033078670501709,0.1594560146331787
0.0401675216853618,0.2377015948295593,0.144762709736824,-0.4990190267562866,0.1983615010976791,0.1320615112781524,0.0,0.0,0.2615723609924316,0.8596283197402954
0.0417693145573139,0.2265641987323761,0.1548587828874588,-0.4957165718078613,0.203720673918724,0.1071829944849014,0.0,0.0,0.6143624782562256,0.847681999206543
0.0434630401432514,0.2162246108055114,0.1650813519954681,-0.4601341485977173,0.208052709698677,0.0866409689188003,0.0,0.0,0.6683650016784668,-0.1685944199562072
0.0449956879019737,0.2066560536623001,0.1486502587795257,-0.4259267449378967,0.2127135992050171,0.0932182073593139,0.0,0.0,0.8499162197113037,0.7378525733947754
0.0465749725699424,0.1982001662254333,0.1539662778377533,-0.376392662525177,0.2167055755853653,0.0798398926854133,0.0,0.0,0.8550491333007812,-0.8864322304725647
0.0480609908699989,0.1903337836265564,0.1423009932041168,-0.3505551218986511,0.2230859100818634,0.1276062577962875,0.0,0.0,0.856998085975647,-0.0090134739875793
0.0493586547672748,0.183435633778572,0.1230846792459487,-0.3076120316982269,0.2298616468906402,0.1355148702859878,0.0,0.0,0.9498357772827148,-0.0702324509620666
0.0505366325378418,0.1775480806827545,0.1103661209344863,-0.2628483474254608,0.2374003231525421,0.1507739424705505,0.0,0.0,0.9573760032653807,0.347801923751831
0.0517016425728797,0.1721148639917373,0.1082206815481185,-0.2428348213434219,0.2458110898733139,0.1682157069444656,0.0,0.0,0.7445199489593506,0.7561120986938477
0.052649974822998,0.1672316640615463,0.087934486567974,-0.2181992381811142,0.2528355121612549,0.1404886990785598,0.0,0.0,0.5187821388244629,0.2412608861923217
0.0533869750797748,0.1626201272010803,0.0669314935803413,-0.206140249967575,0.2597417831420898,0.138125404715538,0.0,0.0,0.8343175649642944,-0.0059912800788879
0.0539609901607036,0.1585353761911392,0.0503459870815277,-0.1828141063451767,0.2669634521007538,0.1444336026906967,0.0,0.0,-0.0260670781135559,0.0964515209197998
0.0545557029545307,0.154079332947731,0.0520013496279716,-0.1994248330593109,0.274609237909317,0.1529159247875213,0.0,0.0,0.5223509073257446,0.2122025489807129
0.0551965720951557,0.1497795730829239,0.055676482617855,-0.1927003711462021,0.2832337319850921,0.1724897921085357,0.0,0.0,-0.0168148279190063,0.4388401508331299
0.0558570846915245,0.145109012722969,0.0572580620646476,-0.2093133181333542,0.2922780513763428,0.180886223912239,0.0,0.0,-0.1008206605911254,0.7319875955581665
0.0565928444266319,0.1401000767946243,0.0659198611974716,-0.2241726368665695,0.3001831471920013,0.1581017822027206,0.0,0.0,-0.0262585878372192,0.2877840995788574
0.0573473945260047,0.1347202807664871,0.0674192607402801,-0.2407850623130798,0.3085028827190399,0.1663947403430938,0.0,0.0,0.4557783603668213,0.702944278717041
