x_pos,y_pos,x_vel,y_vel,angle,ang_vel,leg_1,leg_2,main_booster,lat_booster
-0.00152587890625,1.4029409885406494,-0.1538764387369156,-0.3546275198459625,0.0011500085238367,0.0226396564394235,0.0,0.0,0.2439585924148559,0.414283275604248
-0.0030153275001794,1.3948224782943726,-0.1496588885784149,-0.360819399356842,0.001853194553405,0.0140657033771276,0.0,0.0,0.1534738540649414,0.6749560832977295
-0.0043492317199707,1.3864386081695557,-0.1323145925998687,-0.3726169168949127,0.0007882010540924,-0.0213015414774417,0.0,0.0,-0.5613948702812195,0.4554414749145508
-0.0056848526000976,1.377371072769165,-0.1319123655557632,-0.4029988050460815,-0.0008415589109063,-0.0325984507799148,0.0,0.0,0.489814281463623,0.5080761909484863
-0.0068566324189305,1.3685036897659302,-0.1143068894743919,-0.3941105008125305,-0.0036782755050808,-0.056739754974842,0.0,0.0,0.0235388278961181,0.6140985488891602
-0.0078840255737304,1.359455943107605,-0.0982465520501136,-0.4021415114402771,-0.008120416663587,-0.088851012289524,0.0,0.0,-0.1541908383369445,-0.6075102090835571
-0.0089619634672999,1.349725604057312,-0.1040603145956993,-0.4324870705604553,-0.0118099926039576,-0.0737985670566558,0.0,0.0,-0.2899007797241211,0.3063628673553467
-0.0100404741242527,1.3393120765686035,-0.1036565154790878,-0.4628630876541137,-0.0159691777080297,-0.0831913128495216,0.0,0.0,-0.2171578407287597,0.3780257701873779
-0.0111195566132664,1.328215479850769,-0.1032527312636375,-0.4932415783405304,-0.020568611100316,-0.0919969752430915,0.0,0.0,0.4887075424194336,-0.2757498621940613
-0.0121858594939112,1.3174173831939695,-0.1015709489583969,-0.4799932837486267,-0.0255818217992782,-0.1002732515335083,0.0,0.0,0.4692193269729614,0.6432530879974365
-0.0131040569394826,1.3067243099212646,-0.0852543115615844,-0.4753769636154175,-0.0320669114589691,-0.1297136694192886,0.0,0.0,-0.8416390419006348,-0.7499223351478577
-0.0140738487243652,1.295349359512329,-0.0913982465863227,-0.5056894421577454,-0.0375841706991195,-0.1103553771972656,0.0,0.0,0.2297289371490478,-0.6324184536933899
-0.0149651523679494,1.2840715646743774,-0.0847084745764732,-0.5013465285301208,-0.041969820857048,-0.0877209454774856,0.0,0.0,-0.3701459169387817,-0.909515142440796
-0.0159191135317087,1.2721061706542969,-0.0923053622245788,-0.5318858027458191,-0.045032761991024,-0.0612639412283897,0.0,0.0,-0.7644872069358826,0.0174645185470581
-0.0168716423213481,1.25945782661438,-0.0919243991374969,-0.5622614622116089,-0.0483313053846359,-0.065976858139038,0.0,0.0,0.5271508693695068,-0.6153348088264465
-0.0177478790283203,1.246525764465332,-0.0855796113610267,-0.5748146772384644,-0.0503506362438201,-0.040390096604824,0.0,0.0,-0.3056635856628418,-0.8100665211677551
-0.0186709407716989,1.2329236268997192,-0.0913601294159889,-0.6045699715614319,-0.0512838140130043,-0.0186654664576053,0.0,0.0,-0.5006502866744995,-0.2060005664825439
-0.0195916183292865,1.218638300895691,-0.0909989923238754,-0.6349459886550903,-0.0523315630853176,-0.0209568087011575,0.0,0.0,0.3672026395797729,-0.6473182439804077
-0.0204368587583303,1.204667568206787,-0.0848703682422638,-0.6209061741828918,-0.0519952960312366,0.0067261168733239,0.0,0.0,-0.1932605504989624,-0.5954532623291016
-0.0213322639465332,1.1900172233581543,-0.0912079960107803,-0.6510722637176514,-0.0503483116626739,0.0329425558447837,0.0,0.0,-0.3539295196533203,-0.3869913816452026
-0.0222241394221782,1.1746835708618164,-0.0908699259161949,-0.6814452409744263,-0.0486893095076084,0.0331833139061927,0.0,0.0,-0.1177920699119567,-0.3015980124473572
-0.0231122020632028,1.1586662530899048,-0.0905374735593795,-0.7118222117424011,-0.0469753108918666,0.0342829972505569,0.0,0.0,-0.1619605422019958,-0.5511494278907776
-0.0240302085876464,1.1419671773910522,-0.0944982022047042,-0.7420989274978638,-0.0443048253655433,0.0534143969416618,0.0,0.0,0.5541576147079468,0.1222356557846069
-0.0248649604618549,1.1250202655792236,-0.0866218730807304,-0.7531036138534546,-0.0411912985146045,0.0622760951519012,0.0,0.0,0.0755610466003418,0.353996992111206
-0.0257699005305767,1.1080235242843628,-0.0933913961052894,-0.7553330063819885,-0.038327544927597,0.0572801157832145,0.0,0.0,0.4120219945907593,-0.17812180519104
-0.0267715454101562,1.091230869293213,-0.1026980280876159,-0.7462729215621948,-0.0358207412064075,0.0501359328627586,0.0,0.0,0.6570487022399902,-0.505002498626709
-0.0277771949768066,1.0748521089553833,-0.1043856590986251,-0.7278547286987305,-0.0320400148630142,0.0756142884492874,0.0,0.0,-0.2739192247390747,0.5480754375457764
-0.0287426952272653,1.0577940940856934,-0.0998122543096542,-0.7580683827400208,-0.028817530721426,0.0644498169422149,0.0,0.0,0.3851771354675293,-0.6567246913909912
-0.0298555381596088,1.0410394668579102,-0.1159865260124206,-0.7445724606513977,-0.0241809636354446,0.0927313864231109,0.0,0.0,-0.2881851196289062,0.6040704250335693
-0.0309158321470022,1.0235974788665771,-0.1099116057157516,-0.7751430869102478,-0.0203397274017334,0.0768246576189994,0.0,0.0,0.6647052764892578,0.5071967840194702
-0.0318914428353309,1.006755232810974,-0.1008919104933738,-0.7484995722770691,-0.0170541852712631,0.0657106265425682,0.0,0.0,0.346454381942749,-0.4693397283554077
-0.0329171195626258,0.9897670149803162,-0.1060433164238929,-0.754999577999115,-0.0136346500366926,0.0683908388018608,0.0,0.0,0.6277854442596436,0.4047803878784179
-0.034006118774414,0.9732815623283386,-0.1124415546655654,-0.7326557636260986,-0.0101352781057357,0.0699874311685562,0.0,0.0,-0.7848647236824036,0.264533519744873
-0.0350874885916709,0.9561129808425904,-0.1121709495782852,-0.7630316019058228,-0.0061527583748102,0.0796504616737365,0.0,0.0,-0.7879738211631775,0.9289116859436036
-0.0360855087637901,0.9382620453834534,-0.1024316400289535,-0.7933605909347534,-0.003558880649507,0.0518775396049022,0.0,0.0,0.5608760118484497,0.72110915184021
-0.0369969382882118,0.920804798603058,-0.0928988307714462,-0.7758800387382507,-0.0018306656274944,0.0345642492175102,0.0,0.0,0.1968778371810913,-0.0904526114463806
-0.0379186645150184,0.9031588435173036,-0.0943934768438339,-0.7842637300491333,0.0003636230248957,0.0438858084380626,0.0,0.0,0.7358002662658691,0.4580371379852295
-0.0387924201786518,0.886029064655304,-0.0903568938374519,-0.7613219618797302,0.0033173556439578,0.0590743832290172,0.0,0.0,-0.4790496230125427,0.5776398181915283
-0.0396148674190044,0.8682226538658142,-0.0847508683800697,-0.7914010286331177,0.0057905334979295,0.0494634471833705,0.0,0.0,-0.2078115940093994,0.7876923084259033
-0.0403635017573833,0.8497345447540283,-0.0763212367892265,-0.8217008113861084,0.0072343507781624,0.028876144438982,0.0,0.0,0.9453631639480592,0.7332137823104858
-0.0411879532039165,0.831943690776825,-0.0827413871884346,-0.7907112836837769,0.0075234472751617,0.0057819047942757,0.0,0.0,0.744736909866333,0.7742226123809814
-0.0418035499751567,0.8142990469932556,-0.0612370297312736,-0.78420090675354,0.0072017251513898,-0.0064342841506004,0.0,0.0,0.8441634178161621,0.5362269878387451
-0.0422550216317176,0.7964920401573181,-0.0447387807071208,-0.791423499584198,0.0067984159104526,-0.0080661252140998,0.0,0.0,0.3752361536026001,0.6422810554504395
-0.0425585731863975,0.7786619067192078,-0.0295085161924362,-0.7924537062644958,0.0059570204466581,-0.0168277658522129,0.0,0.0,0.0912220478057861,-0.2801918387413025
-0.0428812019526958,0.7604395747184753,-0.0319667309522628,-0.8098723292350769,0.0056702545844018,-0.0057355081662535,0.0,0.0,0.4665193557739258,0.0248944759368896
-0.0431555733084678,0.7419794201850891,-0.0280370023101568,-0.8204594254493713,0.0062613603658974,0.0118222096934914,0.0,0.0,0.1492055654525756,0.6270902156829834
-0.0433256141841411,0.723299503326416,-0.0171230491250753,-0.8302190899848938,0.0063743134960532,0.0022591000888496,0.0,0.0,0.6932015419006348,0.5089378356933594
-0.0435744300484657,0.7052227258682251,-0.0243375897407531,-0.8034151792526245,0.005838724784553,-0.0107117006555199,0.0,0.0,0.3515801429748535,-0.7356213331222534
-0.0439973846077919,0.6874344348907471,-0.0437809005379676,-0.7905935049057007,0.007301562000066,0.0292567815631628,0.0,0.0,0.8299392461776733,0.6164698600769043
-0.0443916320800781,0.6698062419891357,-0.040332656353712,-0.7834730744361877,0.0081961406394839,0.0178914703428745,0.0,0.0,0.5454068183898926,0.6697458028793335
-0.0445813164114952,0.6522983908653259,-0.0195679701864719,-0.7781325578689575,0.0087919561192393,0.0119162276387214,0.0,0.0,0.1361056566238403,0.247305154800415
-0.0448058135807514,0.6348664164543152,-0.0236152447760105,-0.7747587561607361,0.0099403662607073,0.0229683574289083,0.0,0.0,0.5783263444900513,0.4041283130645752
-0.0449210181832313,0.6173898577690125,-0.0139198284596204,-0.7767561078071594,0.01231325045228,0.047457717359066,0.0,0.0,0.5343058109283447,0.8357746601104736
-0.0449667945504188,0.6003500819206238,-0.0060563492588698,-0.7573360204696655,0.0137751214206218,0.0292372889816761,0.0,0.0,0.021634817123413,0.4752753973007202
-0.0449153892695903,0.5830811262130737,0.0024559129960834,-0.7675334215164185,0.0164143368601799,0.0527845509350299,0.0,0.0,0.1661010980606079,0.866541862487793
-0.0448702797293663,0.5656237602233887,0.0028621656820178,-0.7759038805961609,0.0180473495274782,0.0326602905988693,0.0,0.0,-0.0418620705604553,0.8747279644012451
-0.0447362884879112,0.5474933981895447,0.0130190178751945,-0.805802047252655,0.0184279065579175,0.0076110651716589,0.0,0.0,0.7604162693023682,-0.1448148488998413
-0.0444595329463481,0.529761552810669,0.0258266571909189,-0.7881046533584595,0.0202515814453363,0.0364737138152122,0.0,0.0,0.638237714767456,0.5049161911010742
-0.0440714843571186,0.5125796794891357,0.0369694046676158,-0.7636626958847046,0.0220549870282411,0.0360681414604187,0.0,0.0,0.4883689880371094,0.7611453533172607
-0.0437065139412879,0.4957823753356933,0.0355571880936622,-0.746561586856842,0.0229872707277536,0.0186453349888324,0.0,0.0,0.0887658596038818,0.4473223686218261
-0.0433048233389854,0.4786689579486847,0.0382937863469123,-0.7606241106987,0.0248474366962909,0.0372032113373279,0.0,0.0,0.8622900247573853,0.4423245191574096
-0.043027114123106,0.4620538651943207,0.0256316512823104,-0.7384857535362244,0.0269590597599744,0.0422327741980552,0.0,0.0,-0.2586525082588196,0.640333890914917
-0.0426798835396766,0.4447564780712127,0.0333512350916862,-0.7687973380088806,0.0283125918358564,0.0270705576986074,0.0,0.0,0.9514168500900269,-0.2622435092926025
-0.042317010462284,0.4278627038002014,0.0340000018477439,-0.7508783340454102,0.0305735040456056,0.0452183485031127,0.0,0.0,0.9616897106170654,0.5931665897369385
-0.0419034957885742,0.4109976887702942,0.0394343398511409,-0.7495956420898438,0.0324631817638874,0.0377933904528617,0.0,0.0,0.9874639511108398,0.4481673240661621
-0.0416539199650287,0.3945083320140838,0.0229588169604539,-0.7329065799713135,0.0344461910426616,0.0396602042019367,0.0,0.0,0.9947543144226074,0.8533705472946167
-0.0413362495601177,0.3788998126983642,0.0306230876594781,-0.6937394738197327,0.0355735309422016,0.0225467551499605,0.0,0.0,0.993948221206665,0.6890764236450195
-0.0408620834350585,0.3631376326084137,0.0465826764702796,-0.7005593776702881,0.0363877192139625,0.0162839330732822,0.0,0.0,0.9705822467803956,0.6235370635986328
-0.0403337478637695,0.3482305705547333,0.0523736402392387,-0.6625480651855469,0.0368404202163219,0.0090541737154126,0.0,0.0,0.98317289352417,0.7781497240066528
-0.0398797020316123,0.3334853649139404,0.0460041314363479,-0.6553261280059814,0.0362524278461933,-0.0117600765079259,0.0,0.0,0.9497134685516356,0.4552128314971924
-0.0395554527640342,0.3192491233348846,0.0327314361929893,-0.6327161192893982,0.0359515622258186,-0.0060173044912517,0.0,0.0,0.9862873554229736,0.7173528671264648
-0.0391542427241802,0.3054579198360443,0.0409745164215564,-0.612920343875885,0.0351109728217124,-0.0168117228895425,0.0,0.0,0.9825901985168456,0.785497784614563
-0.0388873107731342,0.2925062179565429,0.028715306892991,-0.57558673620224,0.0331159234046936,-0.0399010963737964,0.0,0.0,0.917076826095581,0.7315645217895508
-0.038485337048769,0.2798834443092346,0.042665459215641,-0.5609578490257263,0.0306731965392828,-0.0488544143736362,0.0,0.0,0.900909423828125,0.3853098154067993
-0.0381292328238487,0.2672505378723144,0.0374744534492492,-0.5614266991615295,0.0288422368466854,-0.0366193726658821,0.0,0.0,0.9507601261138916,0.5880924463272095
-0.0376452431082725,0.2545094490051269,0.050395805388689,-0.5662307739257812,0.0268731601536273,-0.0393815673887729,0.0,0.0,0.9557111263275146,-0.2099561691284179
-0.0372028350830078,0.2416863590478897,0.0456080138683319,-0.5698949694633484,0.0255229901522398,-0.0270033981651067,0.0,0.0,0.9899635314941406,-0.1468503475189209
-0.0367883667349815,0.229612186551094,0.0420532748103141,-0.5366167426109314,0.0249183792620897,-0.0120920063927769,0.0,0.0,0.9102776050567628,0.442638635635376
-0.0362986549735069,0.2182728201150894,0.0483515039086341,-0.5039842128753662,0.0255342572927474,0.0123174553737044,0.0,0.0,0.8736016750335693,0.5164258480072021
-0.0359204299747943,0.2076417505741119,0.0378384664654731,-0.4724929630756378,0.0255175586789846,-0.000333718053298,0.0,0.0,0.8407090902328491,0.1949784755706787
-0.035689640790224,0.1968752890825271,0.0229635555297136,-0.4785093963146209,0.025626290589571,0.0021749229636043,0.0,0.0,0.7177338600158691,0.7030923366546631
-0.0353728309273719,0.1866683065891266,0.0320818200707435,-0.4536375403404236,0.025228526443243,-0.0079553816467523,0.0,0.0,0.7077997922897339,0.8165316581726074
-0.0351161956787109,0.1766682416200637,0.0271215848624706,-0.4444245100021362,0.0237873271107673,-0.0288239475339651,0.0,0.0,0.882845401763916,-0.1328791379928589
-0.0349347107112407,0.1671411097049713,0.019099436700344,-0.4234123229980469,0.0228486321866512,-0.0187737345695495,0.0,0.0,0.6554244756698608,0.636275053024292
-0.034726332873106,0.1579860597848892,0.0222998447716236,-0.4068692624568939,0.0214048996567726,-0.0288748182356357,0.0,0.0,0.5873682498931885,-0.2593995928764343
-0.03444080427289,0.1489887833595276,0.0288334097713232,-0.3998742699623108,0.0211391355842351,-0.0053152879700064,0.0,0.0,0.2490465641021728,0.0916988849639892
-0.0341373458504676,0.1396969705820083,0.0297295600175857,-0.4129780828952789,0.0217459611594676,0.0121364425867795,0.0,0.0,0.5532563924789429,-0.1320974826812744
-0.0337496772408485,0.1302924305200576,0.0369439758360385,-0.4180036783218384,0.0235451124608516,0.03598303347826,0.0,0.0,0.8323525190353394,-0.1771899461746215
-0.0332086570560932,0.1211603954434394,0.0507204420864582,-0.4059256911277771,0.0268870741128921,0.0668390244245529,0.0,0.0,0.8873846530914307,-0.1757460236549377
-0.032515525817871,0.1120275110006332,0.0643926784396171,-0.4060057699680328,0.0317525900900363,0.0973102450370788,0.0,0.0,0.8576877117156982,-0.4545689821243286
-0.0318505279719829,0.1034779846668243,0.0608072355389595,-0.3801105916500091,0.0373743176460266,0.1124345511198043,0.0,0.0,0.7057918310165405,0.1584372520446777
-0.0311779975891113,0.0954216346144676,0.0606198012828826,-0.3582389950752258,0.0439281500875949,0.1310764253139495,0.0,0.0,0.7505159378051758,0.6053065061569214
-0.0303421970456838,0.0877568125724792,0.0770104303956031,-0.3408651649951935,0.0504214763641357,0.1298663914203643,0.0,0.0,0.5358443260192871,0.5061501264572144
-0.0293764118105173,0.0798696130514144,0.0899653956294059,-0.350781112909317,0.056954737752676,0.1306652724742889,0.0,0.0,0.7899246215820312,0.2159290313720703
-0.0284943580627441,0.0721214637160301,0.0810839906334877,-0.3446484208106994,0.0640039518475532,0.1409842222929,0.0,0.0,0.8731708526611328,0.6679704189300537
-0.0275146476924419,0.0651784762740135,0.0911435037851333,-0.3088842928409576,0.0707558169960975,0.1350376456975937,0.0,0.0,0.4236252307891845,-0.4733332395553589
-0.0265851970762014,0.0582851283252239,0.0854319930076599,-0.3067454397678375,0.0781897976994514,0.1486792862415313,0.0,0.0,0.8553311824798584,0.1140912771224975
-0.0258604995906353,0.0520293563604354,0.0648377761244773,-0.2784492075443268,0.0857499614357948,0.1512032449245453,0.0,0.0,0.5815550088882446,0.8506555557250977
-0.025029182434082,0.0461149774491786,0.0762950032949447,-0.2632670402526855,0.0925242751836776,0.1354863792657852,0.0,0.0,0.3251533508300781,0.4488019943237304
-0.0242920871824026,0.0404116734862327,0.0663130208849906,-0.2539567947387695,0.0998669490218162,0.1468532681465149,0.0,0.0,0.7288267612457275,0.3672326803207397
-0.0237150192260742,0.0351831540465354,0.0499410964548587,-0.232914537191391,0.1075729206204414,0.1541192829608917,0.0,0.0,0.5742517709732056,0.6601158380508423
-0.0231584552675485,0.0299828145653009,0.0485107824206352,-0.2316600978374481,0.1146680265665054,0.1419021785259246,0.0,0.0,0.8780252933502197,0.5292967557907104
-0.022774314507842,0.0251029822975397,0.0319819711148738,-0.2173879742622375,0.121054321527481,0.1277259439229965,0.0,0.0,0.8226758241653442,0.8482306003570557
-0.0225707050412893,0.0203789323568344,0.015225457958877,-0.2103842794895172,0.1261556446552276,0.1020266637206077,0.0,0.0,0.9373384714126588,0.8283296823501587
-0.0222702026367187,0.0162697881460189,0.0255623906850814,-0.1830174028873443,0.130632147192955,0.0895299762487411,0.0,0.0,0.8672205209732056,0.7881883382797241
-0.0218826290220022,0.0121190166100859,0.0349288210272789,-0.1848189830780029,0.1344407051801681,0.0761714205145835,0.0,1.0,0.956108808517456,0.984261989593506
-0.0214354507625103,0.0094728926196694,0.0604780986905097,-0.1166419461369514,0.1176201701164245,-0.3379144072532654,0.0,1.0,0.4632149934768677,0.2763229608535766
-0.0211936943233013,0.0077062463387846,0.0558778531849384,-0.0763372406363487,0.086086668074131,-0.6307557821273804,0.0,1.0,0.5778063535690308,-0.1642823219299316
-0.0209221839904785,0.0067045665346086,0.0636887922883033,-0.0428285114467144,0.0498728826642036,-0.7243514657020569,0.0,1.0,0.3532593250274658,-0.891973078250885
-0.0206418987363576,0.0056999181397259,0.0609619803726673,-0.0438764728605747,0.017353918403387,-0.6503795981407166,0.0,1.0,0.1471641063690185,-0.6447170972824097
-0.0204282756894826,0.0048804855905473,0.0530216693878173,-0.0363466404378414,-0.0138907954096794,-0.6248950958251953,0.0,0.0,-0.3218728899955749,-0.9545437097549438
-0.0202785488218069,0.0033992624375969,0.0441347658634185,-0.0663528516888618,-0.042688101530075,-0.5759468078613281,0.0,0.0,0.2361011505126953,-0.9203324913978576
-0.0200254432857036,0.0024750805459916,0.032656755298376,-0.0413168631494045,-0.0498892180621624,-0.1439468711614608,1.0,0.0,-0.0591391324996948,-0.2534278631210327
-0.0196590423583984,0.0015486096963286,0.0250669233500957,-0.0408414416015148,-0.0383867658674716,0.2301149666309356,1.0,0.0,-0.2421442866325378,-0.0054850578308105
-0.0192090030759573,0.0004499769129324,0.0192828904837369,-0.0483764074742794,-0.0129395779222249,0.5090049505233765,1.0,0.0,-0.0271496176719665,-0.2758685350418091
-0.0187769886106252,-0.001353254308924,0.0185449589043855,-0.0801109448075294,0.0113942679017782,0.4866763651371002,1.0,1.0,0.8465499877929688,0.8149218559265137
-0.0183082576841115,-0.0025012039113789,0.0348458066582679,-0.0514150857925415,0.0221112389117479,0.21287402510643,0.0,1.0,-0.7403625249862671,0.6151783466339111
-0.0178905483335256,-0.003782155457884,0.0485328063368797,-0.0568538755178451,0.0154025657102465,-0.1342260539531707,0.0,1.0,-0.476752758026123,-0.1694343090057373
-0.0175295826047658,-0.0045132543891668,0.0431482121348381,-0.0324534103274345,0.0084949834272265,-0.1380907297134399,1.0,1.0,-0.1410483121871948,-0.7513993382453918
-0.0173357017338275,-0.0047698165290057,0.0254162885248661,-0.0113952364772558,0.0025827074423432,-0.1182000488042831,1.0,1.0,0.1827515363693237,-0.4509425163269043
-0.0171490665525198,-0.0042949579656124,0.0233907662332057,0.0210944544523954,-0.0020593530498445,-0.0928131788969039,1.0,1.0,-0.2643349170684814,-0.6715837717056274
