x_pos,y_pos,x_vel,y_vel,angle,ang_vel,leg_1,leg_2,main_booster,lat_booster
-0.0015259742503985,1.4029496908187866,-0.1542086899280548,-0.3542485535144806,0.0014414835022762,0.0284110102802515,0.0,0.0,-0.6437264780959999,0.548625969425155
-0.0030076981056481,1.3943246603012085,-0.1480531990528106,-0.3833322525024414,0.0013303883606567,-0.0022216779179871,0.0,0.0,0.9512320398974784,0.8506343428813672
-0.0042529106140136,1.3857343196868896,-0.1227457076311111,-0.3817968070507049,-0.0004200496186967,-0.0350122116506099,0.0,0.0,0.6381054039992429,0.5756437051339961
-0.0055818557739257,1.377210021018982,-0.1292762160301208,-0.3788598775863647,-0.0039989496581256,-0.071584828197956,0.0,0.0,-0.6264764680846902,-0.8905632175935116
-0.0069680213928222,1.3680139780044556,-0.1360430419445037,-0.4087199568748474,-0.0065439553000032,-0.0509045012295246,0.0,0.0,0.1677508143188524,0.5936866364598113
-0.0081995008513331,1.3587167263031006,-0.1192247420549392,-0.4132340550422668,-0.0104255797341465,-0.0776399224996566,0.0,0.0,0.2925989055011184,-0.6524007117143971
-0.0094993589445948,1.3494234085083008,-0.1269664019346237,-0.4130611419677734,-0.0134124597534537,-0.0597429648041725,0.0,0.0,-0.1918087251695734,0.6505265274121667
-0.0107375141233205,1.3394559621810913,-0.1188026890158653,-0.4430510103702545,-0.0183721594512462,-0.0992029160261154,0.0,0.0,-0.1718994816576557,0.7003579762806793
-0.0119236949831247,1.3288202285766602,-0.1118599772453308,-0.4727935492992401,-0.0250584091991186,-0.1337372362613678,0.0,0.0,-0.9717212838472212,0.7686853801757068
-0.0130515098571777,1.3175132274627686,-0.10411187261343,-0.5027093887329102,-0.0336365550756454,-0.1715788543224334,0.0,0.0,0.7942722406734932,0.8628903770120622
-0.0139885898679494,1.3064923286437988,-0.0831271782517433,-0.4900887906551361,-0.0440992154181003,-0.2092726677656173,0.0,0.0,0.5483105571570908,0.9668362531957996
-0.0147547721862792,1.2955281734466553,-0.0638158693909645,-0.4877208471298218,-0.0567669197916984,-0.2533771991729736,0.0,0.0,0.6828932503571545,0.9313976705850464
-0.0152607914060354,1.284944772720337,-0.0357924178242683,-0.4710020720958709,-0.0714319348335266,-0.2933273017406463,0.0,0.0,-0.5224247022244,0.5866241352741899
-0.0157176963984966,1.2736788988113403,-0.0292115621268749,-0.5015753507614136,-0.0877771005034446,-0.3269329667091369,0.0,0.0,-0.3525138293951166,-0.5869840738670871
-0.0162117965519428,1.261752724647522,-0.0334598533809185,-0.531064510345459,-0.1036086976528167,-0.3166610598564148,0.0,0.0,-0.9942353002775746,-0.5263450142765151
-0.0167423244565725,1.2491546869277954,-0.0376071296632289,-0.5610677003860474,-0.1189708560705185,-0.3072709739208221,0.0,0.0,-0.3975116580632951,0.5281752106434336
-0.0172239299863576,1.2358824014663696,-0.0310557074844837,-0.5913274884223938,-0.1360093355178833,-0.3408004939556122,0.0,0.0,0.0680261891284188,-0.8720452517570466
-0.017636489123106,1.222283959388733,-0.0255713909864425,-0.6058786511421204,-0.151678130030632,-0.3134040832519531,0.0,0.0,-0.1268746896286059,0.521379724882019
-0.0180039405822753,1.208008885383606,-0.0195005871355533,-0.6362959146499634,-0.1689438372850418,-0.3453452885150909,0.0,0.0,-0.1337743262432245,0.756898729814106
-0.0183229446411132,1.193050742149353,-0.0130193112418055,-0.6670709252357483,-0.1879106312990188,-0.3793701529502868,0.0,0.0,-0.9019548073979742,-0.993887372754976
-0.0187045093625783,1.1774470806121826,-0.0204996969550848,-0.695824384689331,-0.2056925892829895,-0.3556712865829468,0.0,0.0,-0.2338601453608826,-0.8967525816035677
-0.0191574096679687,1.1611896753311155,-0.0290692988783121,-0.7248937487602234,-0.2221049070358276,-0.3282758891582489,0.0,0.0,-0.514488102031708,0.7667358844249779
-0.0195419304072856,1.1442369222640991,-0.0200499184429645,-0.7563310861587524,-0.2407876849174499,-0.373689204454422,0.0,0.0,0.324885372405467,0.6614725201997786
-0.0197600368410348,1.1269320249557495,-0.0018986128270626,-0.772497832775116,-0.2610985040664673,-0.4062534868717193,0.0,0.0,0.3979969375993226,0.9761121274490902
-0.0198991782963275,1.109774827957153,0.0082667358219623,-0.7666619420051575,-0.283867210149765,-0.4554150700569153,0.0,0.0,0.2886248971898655,-0.507787831175836
-0.0200482364743948,1.0927917957305908,0.0068286368623375,-0.7591864466667175,-0.3062747418880462,-0.4481505751609802,0.0,0.0,0.8171869243717824,0.5315001396760219
-0.0199150089174509,1.0762672424316406,0.0362955033779144,-0.7394521236419678,-0.3301465511322021,-0.4774363934993744,0.0,0.0,-0.4740454204974842,0.8501649527345733
-0.0197339057922363,1.059059977531433,0.042568452656269,-0.7705628275871277,-0.3557674884796142,-0.5124187469482422,0.0,0.0,0.7670286168096612,-0.9959533964656756
-0.0194860454648733,1.042482614517212,0.0476498864591121,-0.7426229119300842,-0.3799357414245605,-0.4833657145500183,0.0,0.0,0.2103602207232948,-0.858349057677557
-0.0191895477473735,1.0257810354232788,0.051019262522459,-0.748150646686554,-0.402747631072998,-0.4562377035617828,0.0,0.0,0.2647189483405536,0.7166421377457872
-0.0185744278132915,1.0092729330062866,0.0843773782253265,-0.7403963208198547,-0.427411288022995,-0.4932728707790375,0.0,0.0,0.3072254657745361,-0.994869589805603
-0.0179578773677349,0.9926598072052002,0.0827819555997848,-0.7449443936347961,-0.4504315257072449,-0.4604054987430572,0.0,0.0,0.5244905948638916,-0.9950454235076904
-0.0171694755554199,0.9764949083328248,0.098252534866333,-0.724855363368988,-0.4718279838562011,-0.4279292523860931,0.0,0.0,0.3455651998519897,-0.9971515536308287
-0.0163788795471191,0.9601413011550904,0.0967858359217643,-0.7329956293106079,-0.4915653467178345,-0.3947470784187317,0.0,0.0,0.3377617597579956,-0.9965890645980836
-0.0154089927673339,0.9438368678092957,0.1130258664488792,-0.7304673790931702,-0.5095970630645752,-0.3606345951557159,0.0,0.0,0.2782237529754638,-0.9608442783355712
-0.0142087936401367,0.9276791214942932,0.1344497501850128,-0.7235926985740662,-0.525983452796936,-0.3277274668216705,0.0,0.0,0.517096996307373,-0.986159324645996
-0.0128976823762059,0.9114685654640198,0.1439629942178726,-0.7255203723907471,-0.5407067537307739,-0.2944658696651459,0.0,0.0,0.1816837787628173,-0.9788318276405334
-0.0113490102812647,0.8953285217285156,0.1661451756954193,-0.7219048738479614,-0.5537413358688354,-0.260692149400711,0.0,0.0,0.0891870260238647,-0.9917448163032532
-0.0096042631193995,0.8793213963508606,0.1841580718755722,-0.715464174747467,-0.5650238394737244,-0.2256499528884887,0.0,0.0,-0.0355734229087829,-0.9849333167076112
-0.0079296110197901,0.8627031445503235,0.1757372468709945,-0.7421069741249084,-0.5746963024139404,-0.1934494227170944,0.0,0.0,0.0133426189422607,-0.9884598255157472
-0.0061320303939282,0.8461493849754333,0.186426430940628,-0.7386360764503479,-0.5825629830360413,-0.1573335826396942,0.0,0.0,-0.1640774607658386,-0.9691627025604248
-0.0043950080871582,0.8289715647697449,0.1792923361063003,-0.7659249901771545,-0.5891781449317932,-0.1323037147521972,0.0,0.0,0.1970367431640625,-0.9886970520019532
-0.0025409697555005,0.8113917112350464,0.1895447522401809,-0.7831829786300659,-0.5941019058227539,-0.0984755307435989,0.0,0.0,0.0817208290100097,-0.9951804876327516
-0.0005041122203692,0.7935682535171509,0.206397145986557,-0.7933812737464905,-0.5973378419876099,-0.0647187083959579,0.0,0.0,0.2892801761627197,-0.9683499932289124
0.0015539169544354,0.7754430770874023,0.2071230709552765,-0.8061620593070984,-0.5989108085632324,-0.0314593873918056,0.0,0.0,-0.1454793214797973,-0.9981764554977416
0.0035373687278479,0.7566982507705688,0.1983580291271209,-0.8331037759780884,-0.5989113450050354,-1.1074032045144122e-05,0.0,0.0,-0.2828360795974731,-0.997734546661377
0.0054495809599757,0.7373358607292175,0.1899387240409851,-0.859966516494751,-0.5973856449127197,0.030513908714056,0.0,0.0,-0.0220447778701782,-0.9991790652275084
0.0072776796296238,0.7173882126808167,0.1796996891498565,-0.8851625919342041,-0.5936837196350098,0.0740390568971633,0.0,0.0,-0.3637519478797912,-0.9981439709663392
0.0090182302519679,0.696855366230011,0.1690561473369598,-0.9103333353996276,-0.5877404808998108,0.1188643723726272,0.0,0.0,0.2009488344192505,-0.9985952973365784
0.010870361700654,0.6761898994445801,0.1787079274654388,-0.915601372718811,-0.5800459384918213,0.1538907438516616,0.0,0.0,0.3835105895996094,-0.9945932626724244
0.0130226137116551,0.6554026007652283,0.207174614071846,-0.9203938841819764,-0.5705645084381104,0.1896291971206665,0.0,0.0,0.5155727863311768,-0.9935864210128784
0.0154135702177882,0.634914219379425,0.2295190840959549,-0.9065375924110411,-0.5593783855438232,0.2237222492694854,0.0,0.0,0.1781090497970581,-0.9934373497962952
0.0179696083068847,0.6141423583030701,0.2445064336061477,-0.9186233282089232,-0.5464960932731628,0.2576455175876617,0.0,0.0,0.3078171014785766,-0.9961734414100648
0.020779799669981,0.5935754179954529,0.2683039307594299,-0.9090033173561096,-0.5318678617477417,0.2925651967525482,0.0,0.0,0.4007956981658935,-0.9901360273361206
0.0238433834165334,0.5728183388710022,0.2919744849205017,-0.9169880747795104,-0.5154691338539124,0.3279746174812317,0.0,0.0,0.7593065500259399,-0.9794350266456604
0.0269731525331735,0.5521841645240784,0.2971104383468628,-0.9111889600753784,-0.4975353181362152,0.3586762249469757,0.0,0.0,0.8297162055969238,-0.996078073978424
0.0305471420288085,0.5320256948471069,0.339668720960617,-0.8896554708480835,-0.4777217805385589,0.3962704837322235,0.0,0.0,0.3592628240585327,-0.991601824760437
0.0344110503792762,0.5119051933288574,0.3668930232524872,-0.8876739144325256,-0.4561588168144226,0.4312600493431091,0.0,0.0,0.6942704916000366,-0.9952600002288818
0.0386432632803916,0.4922585487365722,0.4018555581569671,-0.8663766980171204,-0.4327893257141113,0.4673902094364166,0.0,0.0,0.0171872377395629,-0.9805563688278198
0.0429452881217002,0.4726967215538025,0.4070170819759369,-0.8624834418296814,-0.4077096581459045,0.5015937089920044,0.0,0.0,0.5070323944091797,-0.982958972454071
0.0473423972725868,0.4529418647289276,0.4146897196769714,-0.8710294961929321,-0.3809440433979034,0.5353125333786011,0.0,0.0,0.4811203479766845,-0.971920907497406
0.0517936721444129,0.4335032701492309,0.4183725416660309,-0.857052206993103,-0.3526307046413421,0.5662672519683838,0.0,0.0,0.430203914642334,-0.8597320914268494
0.0564340576529502,0.4140028357505798,0.4355378746986389,-0.8599857687950134,-0.322801262140274,0.5965889096260071,0.0,0.0,0.2976571321487427,-0.9489651322364808
0.061161708086729,0.3945523202419281,0.4424543380737304,-0.8580226302146912,-0.2913987040519714,0.628051221370697,0.0,0.0,0.6086258888244629,-0.9584348201751708
0.0659204497933387,0.3750244081020355,0.4437311291694641,-0.8618254065513611,-0.2584189176559448,0.65959632396698,0.0,0.0,0.853380560874939,0.0656309127807617
0.0706982612609863,0.3558511734008789,0.4463588297367096,-0.8469294309616089,-0.2264518737792968,0.6393411755561829,0.0,0.0,0.9691131114959716,-0.903922975063324
0.0756481140851974,0.3375337123870849,0.4618194997310638,-0.809364914894104,-0.1929687857627868,0.6696620583534241,0.0,0.0,0.9499473571777344,-0.5223799347877502
0.0807064026594162,0.3190416991710663,0.4714629054069519,-0.8177555799484253,-0.1585000455379486,0.6893751621246338,0.0,0.0,0.9979780912399292,0.0266221761703491
0.0859424620866775,0.3014124929904938,0.489255279302597,-0.7802202105522156,-0.1242406889796257,0.6851876974105835,0.0,0.0,0.9920985698699952,-0.1244176030158996
0.0911185294389724,0.2839947342872619,0.4839983880519867,-0.771666944026947,-0.0908625572919845,0.6675630807876587,0.0,0.0,0.9999444484710692,0.4968346357345581
0.0962396636605262,0.2671563327312469,0.4792722165584564,-0.7466990351676941,-0.0583503246307373,0.6502447128295898,0.0,0.0,0.999269723892212,0.1206395626068115
0.1014227867126464,0.250781774520874,0.4855783581733703,-0.7268012166023254,-0.0260129291564226,0.6467485427856445,0.0,0.0,0.9999617338180542,0.8793520927429199
0.1065118759870529,0.2352920323610305,0.4786159098148346,-0.688177764415741,0.0038876216858625,0.5980114936828613,0.0,0.0,0.9999551773071288,0.3454608917236328
0.1116671562194824,0.2201883345842361,0.4851641654968261,-0.6716242432594299,0.0338638424873352,0.5995244979858398,0.0,0.0,0.9938313961029052,0.5241442918777466
0.1167847663164138,0.2051243335008621,0.4829369187355041,-0.6704065203666687,0.062338501214981,0.5694936513900757,0.0,0.0,0.99999737739563,-0.0534871816635131
0.1219393759965896,0.1899928152561187,0.486628919839859,-0.6739603281021118,0.0908710658550262,0.5706518888473511,0.0,0.0,0.9999983310699464,0.7727415561676025
0.1270558387041092,0.1748047918081283,0.4848561882972717,-0.6768640875816345,0.1174544394016265,0.5316680669784546,0.0,0.0,0.99845552444458,0.3945198059082031
0.1320288628339767,0.1603781580924987,0.4709420204162597,-0.6434681415557861,0.1436835527420044,0.52458256483078,0.0,0.0,0.999861478805542,-0.4449292421340942
0.1369350403547287,0.1467718482017517,0.4642168581485748,-0.607483446598053,0.1700616925954818,0.5275632739067078,0.0,0.0,0.9998314380645752,0.7922055721282959
0.1415677964687347,0.1339472383260727,0.4391974508762359,-0.5729177594184875,0.1942254453897476,0.4832753539085388,0.0,0.0,0.9999833106994628,-0.4016343355178833
0.145948126912117,0.1209991797804832,0.4150591790676117,-0.5786503553390503,0.2173852622509002,0.4631960988044739,0.0,0.0,0.9994161128997804,0.7327380180358887
0.1502077132463455,0.1088252365589141,0.4046991467475891,-0.5443394184112549,0.2389229238033294,0.430753618478775,0.0,0.0,0.9945884943008424,-0.7613210678100586
0.1540944129228592,0.0969260334968566,0.3665708899497986,-0.5326004028320312,0.2614325881004333,0.4501935839653015,0.0,0.0,0.9968371391296388,-0.1285533905029297
0.1576838493347168,0.0855188444256782,0.3375149071216583,-0.5109604001045227,0.2833907902240753,0.4391640126705169,0.0,0.0,0.999882698059082,0.0338600873947143
0.1610012054443359,0.0746548995375633,0.310731828212738,-0.487067699432373,0.3050501644611358,0.4331874847412109,0.0,0.0,0.9999672174453736,0.2094578742980957
0.1641860902309417,0.064176470041275,0.297376811504364,-0.4702963531017303,0.3269798159599304,0.4385927617549896,0.0,0.0,0.9987345933914183,0.6393342018127441
0.1672946959733963,0.0536492690443992,0.2912458181381225,-0.4724467098712921,0.3474884927272796,0.4101735949516296,0.0,0.0,0.9995694160461426,0.0178576707839965
0.1703214645385742,0.0431963056325912,0.28289794921875,-0.4694951474666595,0.3683293461799621,0.4168169498443603,0.0,0.0,0.999922513961792,0.7483177185058594
0.1733125746250152,0.0331754311919212,0.2806653380393982,-0.4502392709255218,0.3879083395004272,0.3915797770023346,0.0,1.0,0.9999921321868896,0.8911932706832886
0.1764490157365799,0.0245302766561508,0.3086622953414917,-0.3865970075130462,0.3893510699272156,0.0232693757861852,0.0,1.0,0.9999982118606568,0.7613801956176758
0.1791154891252517,0.0172117091715335,0.2847183346748352,-0.320432037115097,0.3703005313873291,-0.3807838559150696,0.0,1.0,0.9999933242797852,-0.4310581684112549
0.1813674867153167,0.0112371779978275,0.2607648372650146,-0.2568019330501556,0.3329178988933563,-0.7476180195808411,0.0,1.0,0.999309539794922,-0.965542733669281
0.183335393667221,0.006404445040971,0.246542140841484,-0.2042093575000763,0.2812892496585846,-1.0326790809631348,0.0,1.0,0.9992624521255492,-0.9482484459877014
0.1851880103349685,0.0018806671723723,0.2435353249311447,-0.1909884512424469,0.2217486798763275,-1.1909524202346802,0.0,1.0,0.985649585723877,-0.8525830507278442
0.1867559403181076,-0.002351822797209,0.2162744998931884,-0.1803226023912429,0.1617942601442337,-1.1992305517196655,0.0,1.0,0.9362021684646606,-0.8649100661277771
0.1882183998823166,-0.0057279728353023,0.2030560076236724,-0.1448815464973449,0.1051594093441963,-1.1327412128448486,0.0,1.0,0.9631068706512452,-0.8437584638595581
0.1895120590925216,-0.0087435273453593,0.1848241984844207,-0.1310680508613586,0.0501913800835609,-1.099401831626892,0.0,0.0,0.7635602951049805,-0.9933956861495972
0.1905148476362228,-0.0111296204850077,0.154270201921463,-0.1051288396120071,-0.0031443159095942,-1.066754698753357,1.0,0.0,0.5972681045532227,-0.9976509213447572
0.1916451454162597,-0.0124770188704133,0.1465174555778503,-0.0605716593563556,-0.0348607152700424,-0.6326073408126831,1.0,0.0,0.802376389503479,-0.991494596004486
0.1928317993879318,-0.0126139549538493,0.1290313303470611,-0.0063644205220043,-0.0450752526521682,-0.2042636424303054,1.0,0.0,-0.9465615153312684,-0.6251482367515564
0.1941020935773849,-0.012832036241889,0.1178649812936782,-0.0094452770426869,-0.0360003896057605,0.1815305650234222,1.0,0.0,-0.978447437286377,-0.0309402346611022
0.1954631805419922,-0.0133262779563665,0.1148406416177749,-0.0215929243713617,-0.0149620454758405,0.4208159446716308,1.0,0.0,-0.9780949354171752,0.6170175075531006
0.1969031393527984,-0.0143013503402471,0.1180556043982505,-0.0432819202542305,0.0106932530179619,0.5131683945655823,1.0,0.0,-0.9095467925071716,0.3664999008178711
0.1983470916748047,-0.0159074217081069,0.117442287504673,-0.0717941671609878,0.0373523123562336,0.533246636390686,1.0,1.0,-0.9411795139312744,-0.985806167125702
0.1995463371276855,-0.0177210588008165,0.1068440228700637,-0.0809836834669113,0.0492920540273189,0.2375572919845581,1.0,1.0,-0.8606734275817871,-0.9764417409896852
0.2004974335432052,-0.019468642771244,0.092584379017353,-0.0777585804462432,0.0518012382090091,0.0501996465027332,1.0,1.0,-0.7161610126495361,-0.8789147734642029
0.2012919485569,-0.0209039822220802,0.0787502527236938,-0.0638200491666793,0.0524920709431171,0.0138342510908842,1.0,1.0,-0.9133639335632324,-0.7578995227813721
0.2019462585449218,-0.0219444651156663,0.0631893053650856,-0.0463225618004798,0.0546974912285804,0.0440986976027488,1.0,1.0,-0.99317866563797,-0.748133659362793
0.2024768888950348,-0.0225904490798711,0.0497739650309085,-0.0288349166512489,0.0579415895044803,0.0648744255304336,1.0,1.0,-0.9425328373908995,-0.7350243926048279
0.2028791457414627,-0.0228538773953914,0.0357156917452812,-0.011889467947185,0.0624013170599937,0.0891883820295333,1.0,1.0,-0.9830796122550964,-0.7095499634742737
0.20314522087574,-0.0227376129478216,0.0209479182958602,0.0049224514514207,0.0679775848984718,0.1115192994475364,1.0,1.0,-0.937470316886902,-0.4710032343864441
0.2033213675022125,-0.0222687628120183,0.0133516322821378,0.020637733861804,0.07220009714365,0.0844428017735481,1.0,1.0,-0.927325427532196,-0.3954404592514038
0.2035054266452789,-0.0215229652822017,0.0148276444524526,0.0329703539609909,0.0757411494851112,0.0708157271146774,1.0,1.0,-0.9407917261123656,-0.554879367351532
0.2036218643188476,-0.0205528996884822,0.0092570381239056,0.0429920442402362,0.0781037360429763,0.0472464822232723,1.0,1.0,-0.4698337316513061,-0.2731164693832397
0.2037218064069748,-0.0194040909409523,0.0101332440972328,0.051065556704998,0.0779495313763618,-0.0030870004557073,1.0,1.0,-0.7854500412940979,-0.555152952671051
0.2036877572536468,-0.0184028763324022,0.0035794663708657,0.0448445342481136,0.0710383951663971,-0.1382243335247039,1.0,1.0,-0.7475283741950989,-0.7272810339927673
0.2036027014255523,-0.0175287630409002,-0.0024002357386052,0.039127692580223,0.0649932697415351,-0.1209033355116844,1.0,1.0,-0.5559815764427185,-0.594606876373291
0.2034947425127029,-0.0168478041887283,-0.0060060610994696,0.030465368181467,0.0602584853768348,-0.0946962237358093,1.0,1.0,-0.6931369304656982,-0.5439090728759766
0.2033653259277343,-0.0163686890155076,-0.0095547568053007,0.0214262902736663,0.0569048970937728,-0.0670726746320724,1.0,1.0,-0.6582962870597839,-0.5278835296630859
0.2032285630702972,-0.0160592701286077,-0.0114897415041923,0.0138309560716152,0.0547397434711456,-0.0433139204978942,1.0,1.0,-0.7103868126869202,-0.486935555934906
0.2031416893005371,-0.0158418323844671,-0.0070847747847437,0.0097214123234152,0.053155206143856,-0.0316939055919647,1.0,1.0,-0.7331827878952026,-0.3717529773712158
