x_pos,y_pos,x_vel,y_vel,angle,ang_vel,leg_1,leg_2,main_booster,lat_booster
-0.0015382766723632,1.403029203414917,-0.1556510478258133,-0.3507120311260223,0.0016263290308415,0.0320707485079765,0.0,0.0,0.0049125914421555,-0.9684519479932184
-0.0031301497947424,1.3949819803237915,-0.1625528335571289,-0.3576568365097046,0.0049611874856054,0.0667040273547172,0.0,0.0,-0.267466829938914,0.8013257961383494
-0.0046600340865552,1.386333703994751,-0.1542532742023468,-0.3843727111816406,0.00621053064242,0.0249891616404056,0.0,0.0,0.1701198395901531,0.6492722083640114
-0.0062504769302904,1.3776183128356934,-0.1587150692939758,-0.3873513042926788,0.0058803912252187,-0.0066032679751515,0.0,0.0,0.7899720504221859,-0.7323111520397927
-0.0077656744979321,1.3693701028823853,-0.1528741419315338,-0.3665855228900909,0.0072181387804448,0.0267571751028299,0.0,0.0,-0.0626825361316345,0.7375407322212377
-0.009224796667695,1.3605263233184814,-0.1453133225440979,-0.3930578529834747,0.00662596616894,-0.0118444375693798,0.0,0.0,0.1950116740207435,0.9541544965705416
-0.0106457713991403,1.3517143726348877,-0.139451190829277,-0.3916357159614563,0.0040065771900117,-0.0523929111659526,0.0,0.0,-0.2598414753715961,0.7514923414581849
-0.0120079992339015,1.342309594154358,-0.1315697133541107,-0.4179806709289551,-0.0005959264235571,-0.0920586735010147,0.0,0.0,-0.1884045804408474,0.8637124075706859
-0.013318633660674,1.332319259643555,-0.1245849952101707,-0.444027304649353,-0.0069962702691555,-0.1280184835195541,0.0,0.0,-0.2843357770612289,-0.6191971248951329
-0.0146930692717432,1.3217384815216064,-0.1320892721414566,-0.4702918231487274,-0.0122839799150824,-0.1057639345526695,0.0,0.0,-0.8646231463647147,0.9736166286699608
-0.0159948356449604,1.3105621337890625,-0.1224788054823875,-0.4968149363994598,-0.0198879204690456,-0.1520925462245941,0.0,0.0,0.4112216305678586,-0.9310735240095688
-0.0173068046569824,1.2994657754898071,-0.1253441870212555,-0.4932593703269958,-0.0256794448941946,-0.1158408373594284,0.0,0.0,0.6008692481820046,0.8386599574034319
-0.0184096340090036,1.2887872457504272,-0.1028903499245643,-0.4747467041015625,-0.0329949185252189,-0.1463230848312378,0.0,0.0,0.5093985996648212,0.86321732669791
-0.0193779952824115,1.277985453605652,-0.0877159833908081,-0.4802978634834289,-0.0420114547014236,-0.1803474575281143,0.0,0.0,0.905276758409137,-0.6446381615176846
-0.0201973915100097,1.2680132389068604,-0.0745014250278472,-0.4434424340724945,-0.0493629686534404,-0.1470437943935394,0.0,0.0,-0.4350809647120484,0.9029160900921648
-0.0209476463496685,1.2574293613433838,-0.0653925389051437,-0.4707370102405548,-0.0589113719761371,-0.1909854710102081,0.0,0.0,0.6796362978727901,0.8987829165347181
-0.0214341171085834,1.247544288635254,-0.0373937375843524,-0.4398112297058105,-0.0700584948062896,-0.222962811589241,0.0,0.0,0.2857927405068401,0.8544802944801717
-0.0217211730778217,1.2374744415283203,-0.0158158633857965,-0.4482052624225616,-0.0828455537557601,-0.255763828754425,0.0,0.0,-0.5611051365904558,-0.6675727545462014
-0.0220664981752634,1.226822853088379,-0.0227140076458454,-0.4740950167179107,-0.0945657715201377,-0.2344255894422531,0.0,0.0,-0.0303829053177,-0.7006482143607484
-0.0224885940551757,1.2155861854553225,-0.0319648757576942,-0.5000874400138855,-0.1047456637024879,-0.2036160230636596,0.0,0.0,-0.8016098016642794,-0.5388626521591255
-0.0229581836611032,1.20376455783844,-0.0375429987907409,-0.526091992855072,-0.1141094490885734,-0.1872925460338592,0.0,0.0,-0.1255050776718058,0.6204929903283525
-0.0233926773071289,1.1913366317749023,-0.0327580347657203,-0.5531947016716003,-0.1247574836015701,-0.2129799127578735,0.0,0.0,-0.0585399716167436,0.9233953197752708
-0.0237534530460834,1.178297758102417,-0.0231402963399887,-0.5806487798690796,-0.1376567631959915,-0.2580083608627319,0.0,0.0,-0.0608225739140899,-0.9250934952928545
-0.0241931919008493,1.1646682024002075,-0.0326914265751838,-0.6068381667137146,-0.1489280313253402,-0.2254457175731659,0.0,0.0,0.1010387357308741,0.6167193805835796
-0.024639893323183,1.151095628738403,-0.0320307239890098,-0.6045313477516174,-0.1615723520517349,-0.2529090344905853,0.0,0.0,-0.7157962641495736,-0.8652187569673315
-0.0251861568540334,1.136933445930481,-0.0441692098975181,-0.6306080222129822,-0.1720440685749054,-0.2094339877367019,0.0,0.0,0.505336097415231,0.84850217035222
-0.0255627632141113,1.1231424808502195,-0.0255540516227483,-0.6143749356269836,-0.1841807216405868,-0.2427329272031784,0.0,0.0,-0.227017549387579,-0.5552840845563214
-0.0260049812495708,1.1087782382965088,-0.0335452929139137,-0.6397749185562134,-0.1949209719896316,-0.2148046940565109,0.0,0.0,-0.380366657153911,-0.6812441815794971
-0.02652483060956,1.0938444137573242,-0.0430134274065494,-0.6649351119995117,-0.2039460241794586,-0.1805009245872497,0.0,0.0,0.1344525000592915,0.9282033555628524
-0.0269359592348337,1.0787878036499023,-0.0303758718073368,-0.6707113981246948,-0.2147846072912216,-0.2167715579271316,0.0,0.0,-0.0671225128179637,0.8906170488463695
-0.027288531884551,1.0631237030029297,-0.022789180278778,-0.6980393528938293,-0.2273977100849151,-0.2522619962692261,0.0,0.0,-0.9634780287742616,-0.9754822254180908
-0.0277402885258197,1.0468897819519043,-0.0350023806095123,-0.7231130599975586,-0.2377202808856964,-0.2064513713121414,0.0,0.0,-0.9999520182609558,-0.9948793053627014
-0.0282909385859966,1.0301018953323364,-0.0472458265721797,-0.7474121451377869,-0.2456683963537216,-0.1589618772268295,0.0,0.0,-0.9764987826347352,-0.9973859190940856
-0.0289411544799804,1.0127419233322144,-0.0594864562153816,-0.7724897265434265,-0.2513038218021393,-0.1127092242240905,0.0,0.0,-0.9922138452529908,-0.9840126633644104
-0.0296777728945016,0.9948167204856871,-0.070131242275238,-0.7972850799560547,-0.2549014389514923,-0.0719521790742874,0.0,0.0,-0.9864581227302552,-0.978840470314026
-0.0304990764707326,0.9763312339782716,-0.0805997848510742,-0.8218429088592529,-0.2564642131328583,-0.031254805624485,0.0,0.0,-0.7142647504806519,-0.9732181429862976
-0.0314122214913368,0.9572758078575134,-0.0919079631567001,-0.8468086123466492,-0.2558608651161194,0.0120671214535832,0.0,0.0,0.0097299814224243,-0.9637252688407898
-0.0322661399841308,0.9383251070976256,-0.0880041643977165,-0.8418028950691223,-0.2531939744949341,0.0533377118408679,0.0,0.0,-0.8742787837982178,-0.6939700841903687
-0.0331885330379009,0.918808102607727,-0.0964504331350326,-0.8667023181915283,-0.2488953024148941,0.0859735608100891,0.0,0.0,0.5925754308700562,-0.1360525488853454
-0.0339532867074012,0.8995373845100403,-0.0809618532657623,-0.85572749376297,-0.2443337589502334,0.091231033205986,0.0,0.0,0.1462428569793701,-0.6563838124275208
-0.0347305312752723,0.8805117011070251,-0.0835651010274887,-0.8446270823478699,-0.2384069412946701,0.1185365319252014,0.0,0.0,-0.0710330605506897,-0.0075121521949768
-0.0355210304260253,0.860890805721283,-0.0850265100598335,-0.8710867762565613,-0.232331708073616,0.121505007147789,0.0,0.0,0.6274387836456299,0.5799596309661865
-0.0361095443367958,0.8410676717758179,-0.064082458615303,-0.8802096247673035,-0.2270235121250152,0.1061640381813049,0.0,0.0,0.5102150440216064,-0.6439655423164368
-0.0365552902221679,0.821337878704071,-0.0514575466513633,-0.8758347630500793,-0.2200543880462646,0.1393826007843017,0.0,0.0,0.0645897388458252,0.3680033683776855
-0.0369978919625282,0.8012992739677429,-0.0512059219181537,-0.8895866274833679,-0.2130435109138488,0.1402179151773452,0.0,0.0,0.1562409400939941,-0.0679934620857238
-0.0373724922537803,0.7809983491897583,-0.0447175279259681,-0.901241660118103,-0.2057168185710907,0.146533578634262,0.0,0.0,-0.2334988117218017,0.3601582050323486
-0.037759780883789,0.7601021528244019,-0.0461664423346519,-0.9277029633522034,-0.1982192695140838,0.1499510556459427,0.0,0.0,0.4183996915817261,0.7776172161102295
-0.038063146173954,0.7396852970123291,-0.0362621769309043,-0.9066312313079834,-0.1922585368156433,0.119214579463005,0.0,0.0,0.0850046873092651,-0.2079570293426513
-0.03836565092206,0.7194601893424988,-0.0359628126025199,-0.898162841796875,-0.1865232139825821,0.1147063225507736,0.0,0.0,0.1876627206802368,0.0420025587081909
-0.0386279113590717,0.69918292760849,-0.0320418998599052,-0.9004901647567749,-0.1806776672601699,0.1169110089540481,0.0,0.0,0.2274013757705688,-0.2367542386054992
-0.038721464574337,0.6789077520370483,-0.0158558953553438,-0.9003445506095886,-0.1741558313369751,0.1304364800453186,0.0,0.0,0.4515182971954345,0.3514102697372436
-0.0387649536132812,0.6590065956115723,-0.0108128581196069,-0.8837518095970154,-0.1676822304725647,0.1294724345207214,0.0,0.0,0.2606306076049804,-0.2541645765304565
-0.0386818870902061,0.6389910578727722,0.0012695894110947,-0.8887996077537537,-0.1606346517801284,0.1409513354301452,0.0,0.0,0.5523743629455566,0.0542476177215576
-0.0384880080819129,0.6194896101951599,0.0121300406754016,-0.8659668564796448,-0.1533830463886261,0.1450324356555938,0.0,0.0,-0.1378655433654785,-0.1128457188606262
-0.038306139409542,0.5993930697441101,0.0107245938852429,-0.8924285769462585,-0.145939365029335,0.1488735973834991,0.0,0.0,0.0730006694793701,-0.2455055713653564
-0.0381531715393066,0.5791692137718201,0.0079263458028435,-0.8981324434280396,-0.1385889649391174,0.1470080316066742,0.0,0.0,0.9520905017852784,-0.3269204497337341
-0.0377718918025493,0.5597264766693115,0.0300365202128887,-0.8633925318717957,-0.1305293887853622,0.1611917912960052,0.0,0.0,0.4654520750045776,0.1422449350357055
-0.037203025072813,0.5405547022819519,0.0480142310261726,-0.8513252139091492,-0.121706835925579,0.176451101899147,0.0,0.0,0.3690134286880493,-0.1875900626182556
-0.0365015044808387,0.5217928886413574,0.0607881732285022,-0.8331210017204285,-0.1123998388648033,0.1861398816108703,0.0,0.0,0.8056280612945557,0.0448975563049316
-0.0357978828251361,0.5037305951118469,0.0611821897327899,-0.8021014928817749,-0.1032786890864372,0.1824229061603546,0.0,0.0,-0.2927196621894836,-0.0428159832954406
-0.0351055152714252,0.4850739240646362,0.0598369725048542,-0.8285664916038513,-0.093957282602787,0.1864281147718429,0.0,0.0,0.4899513721466064,-0.7330188155174255
-0.0345221534371376,0.4667935669422149,0.0474309213459491,-0.8118079900741577,-0.0831474289298057,0.2161969691514969,0.0,0.0,0.928501844406128,0.6099836826324463
-0.0336981788277626,0.4487948715686798,0.0720891281962394,-0.7994027733802795,-0.0729335993528366,0.2042766064405441,0.0,0.0,0.6877946853637695,0.1943733692169189
-0.0328153595328331,0.4311361312866211,0.0776409953832626,-0.7843474745750427,-0.0624056346714496,0.2105592489242553,0.0,0.0,0.9150259494781494,0.3675360679626465
-999.0,0.4135781228542328,0.0801180973649025,-0.7799359560012817,-0.0516322925686836,0.2154669016599655,0.0,0.0,0.8523703813552856,0.4913935661315918
-0.0311099998652935,0.3964295089244842,0.0690624117851257,-0.7618314623832703,-0.0412969067692756,0.2067078799009323,0.0,0.0,0.733778715133667,0.2793135643005371
-0.0302655212581157,0.380031406879425,0.0736725255846977,-0.7285366058349609,-0.0306527819484472,0.2128825634717941,0.0,0.0,0.7906780242919922,0.4617244005203247
-0.0293325427919626,0.3635107278823852,0.0818963199853897,-0.7340572476387024,-0.0193921141326427,0.2252132147550583,0.0,0.0,0.937150239944458,0.4375351667404175
-0.028358269482851,0.3478966057300567,0.0856592506170272,-0.693848729133606,-0.0077794957906007,0.2322524040937423,0.0,0.0,0.8577785491943359,0.4126462936401367
-0.0274953842163085,0.3324885070323944,0.0748122707009315,-0.6847832798957825,0.0035493392497301,0.2265768349170684,0.0,0.0,0.9607219696044922,0.7834393978118896
-0.0267010685056448,0.3176947832107544,0.0695849806070327,-0.6575449109077454,0.0132595812901854,0.1942048370838165,0.0,0.0,0.6156103610992432,0.83048415184021
-0.0258249286562204,0.3032233715057373,0.0791913568973541,-0.6432721614837646,0.0215791445225477,0.1663913875818252,0.0,0.0,0.6930476427078247,0.6880465745925903
-0.025065517053008,0.2894600629806518,0.0690146759152412,-0.6118167042732239,0.0284181460738182,0.1367799788713455,0.0,0.0,0.885286808013916,0.8432095050811768
-0.0241745952516794,0.2760968804359436,0.0834651738405227,-0.5940381288528442,0.0339696779847145,0.1110306158661842,0.0,0.0,0.8714673519134521,0.5626767873764038
-0.0233030319213867,0.2627986967563629,0.0825807601213455,-0.5911422967910767,0.0384950526058673,0.0905075073242187,0.0,0.0,0.8840641975402832,0.321999192237854
-0.0223758704960346,0.2494656145572662,0.0875535011291503,-0.5927198529243469,0.0435857027769088,0.1018130630254745,0.0,0.0,0.829556941986084,0.2324558496475219
-0.0215075500309467,0.2360987812280655,0.0816357359290123,-0.5942445397377014,0.0487210489809513,0.1027067750692367,0.0,0.0,0.9627275466918944,0.2201333045959472
-0.0207020752131938,0.2235480397939682,0.0751951783895492,-0.5579919219017029,0.0540168620645999,0.1059165820479393,0.0,0.0,0.9008464813232422,0.393109917640686
-0.0198617931455373,0.2118158489465713,0.0780305042862892,-0.5216583013534546,0.0599449761211872,0.1185622215270996,0.0,0.0,0.8340432643890381,0.2055354118347168
-0.0192063339054584,0.2008362412452697,0.0599258430302143,-0.4882164895534515,0.0655030384659767,0.1111611872911453,0.0,0.0,0.6150354146957397,0.2719829082489013
-0.0187039375305175,0.1897341161966323,0.045005589723587,-0.4936664700508117,0.0706820487976074,0.1035801395773887,0.0,0.0,0.9098660945892334,0.053828477859497
-0.0182246211916208,0.1794093996286392,0.0422659255564212,-0.4591514468193054,0.0762825086712837,0.1120093613862991,0.0,0.0,0.8502100706100464,-0.4035622477531433
-0.0179122928529977,0.1694410145282745,0.025900462642312,-0.443322479724884,0.0815635994076728,0.1056219711899757,0.0,0.0,0.9054561853408812,0.8908429145812988
-0.0176671035587787,0.1600502878427505,0.0209036953747272,-0.4175672531127929,0.0851432383060455,0.0715927854180336,0.0,0.0,0.7465506792068481,0.920534372329712
-0.0174301154911518,0.1511815339326858,0.0217560902237892,-0.3942781984806061,0.0870701596140861,0.0385383442044258,0.0,0.0,0.7243410348892212,0.9488840103149414
-0.0170726776123046,0.1426483243703842,0.0353573262691497,-0.3792751729488373,0.0874580070376396,0.0077569321729242,0.0,0.0,0.8232141733169556,0.6260461807250977
-0.0166728980839252,0.1340885758399963,0.0405655428767204,-0.3804011046886444,0.0868763774633407,-0.0116328075528144,0.0,0.0,0.8097400665283203,-0.3511784076690674
-0.016211986541748,0.1256059259176254,0.0459982864558696,-0.3770093023777008,0.0869684591889381,0.0018418144900351,0.0,0.0,0.915212869644165,-0.4326383471488952
-0.0156398769468069,0.1175397038459777,0.0561145357787609,-0.3585640490055084,0.0880527272820472,0.0216851867735385,0.0,0.0,0.8764374256134033,-0.8715853691101074
-0.0150025365874171,0.1095550134778022,0.0603523552417755,-0.3550798594951629,0.0914089381694793,0.0671241134405136,0.0,0.0,0.6311969757080078,-0.4365928173065185
-0.014438534155488,0.1020825952291488,0.0528432950377464,-0.3323313593864441,0.0949415639042854,0.0706523209810257,0.0,0.0,0.596745491027832,-0.2067885398864746
-0.0139136314392089,0.0951142162084579,0.0485848411917686,-0.3099589943885803,0.0988142564892768,0.0774537250399589,0.0,0.0,0.0823253393173217,0.0835914611816406
-0.0133495330810546,0.0882153585553169,0.0519261471927166,-0.3069188296794891,0.1032655388116836,0.0890258699655532,0.0,0.0,0.26191246509552,-0.0962132215499877
-0.0127327917143702,0.0811057165265083,0.0566333159804344,-0.3163436353206634,0.1082738265395164,0.1001654416322708,0.0,0.0,0.5003097057342529,0.670325517654419
-0.0121627803891897,0.0740889906883239,0.0532036423683166,-0.3121330142021179,0.1120417192578315,0.0753579288721084,0.0,0.0,0.8096714019775391,-0.4707555174827575
-0.0116033554077148,0.0679016709327697,0.0515139885246753,-0.275328516960144,0.1164378970861435,0.0879236757755279,0.0,0.0,0.3177700042724609,-0.3552262783050537
-0.0111116413027048,0.0617926679551601,0.0446321554481983,-0.271870493888855,0.1209469214081764,0.0901803523302078,0.0,0.0,0.2812108993530273,0.5950672626495361
-0.0107495309785008,0.0560022443532943,0.0328794196248054,-0.2576299905776977,0.1242629289627075,0.066320389509201,0.0,0.0,0.5599775314331055,0.9738891124725342
-0.0102957729250192,0.0506341084837913,0.0436954535543918,-0.2387246042490005,0.1259288191795349,0.033318031579256,0.0,0.0,0.4623194932937622,0.7851917743682861
-0.0099117280915379,0.0456665121018886,0.0381953790783882,-0.2207982093095779,0.1261412352323532,0.0042483983561396,0.0,0.0,0.2192771434783935,-0.0832691192626953
-0.0096519468352198,0.0409147851169109,0.0258421804755926,-0.2111999988555908,0.1262673735618591,0.0025226741563528,0.0,0.0,0.1616826057434082,0.3041863441467285
-0.0094475746154785,0.0360857360064983,0.0202012695372104,-0.2146445661783218,0.1265080124139785,0.0048127570189535,0.0,0.0,0.7314105033874512,0.7070512771606445
-0.0093926433473825,0.0315856300294399,0.0067714815959334,-0.1998974382877349,0.1252389699220657,-0.0253807604312896,0.0,0.0,0.8109607696533203,0.8619248867034912
-0.0095149995759129,0.0273217055946588,-0.0090926392003893,-0.1892455965280532,0.1221106052398681,-0.0625670105218887,0.0,0.0,0.7128312587738037,0.961268663406372
-0.0095232967287302,0.0236142501235008,0.0038823026698082,-0.1643977016210556,0.1174240261316299,-0.09373140335083,0.0,0.0,0.5275825262069702,0.8219127655029297
-0.0094355586916208,0.0198358390480279,0.0148485573008656,-0.1674661189317703,0.1113874688744545,-0.1207308322191238,0.0,0.0,0.5198009014129639,-0.0224702358245849
-0.0092848781496286,0.0165311433374881,0.02033556625247,-0.1464905440807342,0.1061593368649482,-0.104562796652317,0.0,0.0,0.517681360244751,-0.0257286429405212
-0.0092218397185206,0.0136917922645807,0.0114777125418186,-0.1258385628461837,0.1010241955518722,-0.1027028188109397,0.0,0.0,-0.1837848424911499,0.6372222900390625
-0.0090881343930959,0.0102744437754154,0.0199380423873662,-0.1514487415552139,0.0945038646459579,-0.130406454205513,0.0,0.0,0.5158462524414062,0.2045414447784423
-0.0090036392211914,0.007686648517847,0.0302803013473749,-0.1137873902916908,0.0728489235043525,-0.4331309795379638,0.0,1.0,0.4555683135986328,0.0837154388427734
-0.0089784618467092,0.005584904924035,0.0244470853358507,-0.0924875885248184,0.0511637069284915,-0.433704525232315,0.0,1.0,0.5624520778656006,0.3214375972747803
-0.0089343069121241,0.004014132078737,0.0261053796857595,-0.0692105591297149,0.0297446697950363,-0.4283809065818786,0.0,1.0,0.0742577314376831,0.1519067287445068
-0.0088466648012399,0.0023034191690385,0.03021358884871,-0.0757441222667694,0.0085686789825558,-0.4235199391841888,0.0,0.0,0.3806086778640747,-0.8653998970985413
-0.0089383125305175,0.0007769918302074,0.0104830842465162,-0.0678457915782928,-0.0108221806585788,-0.3878174424171448,0.0,0.0,0.1832910776138305,-0.8272953629493713
-0.0090880393981933,-8.739471377339214e-05,-0.016412241384387,-0.0384071134030818,-0.0094078416004776,0.0282835904508829,1.0,0.0,0.1243425607681274,0.5110034942626953
-0.0091113094240427,-0.0004117632051929,-0.0185851715505123,-0.0143923889845609,0.0066463290713727,0.3210824131965637,1.0,0.0,-0.7302114963531494,0.1594847440719604
-0.0091958995908498,-0.0005456590442918,-0.009621019475162,-0.0059560490772128,0.0077729648910462,0.0225152876228094,1.0,1.0,-0.9323332905769348,0.4004858732223511
-0.0092232702299952,-0.0005453729536384,-0.0027353877667337,1.2745218555210158e-05,0.0077729634940624,-5.927150596107822e-06,1.0,1.0,-0.6575709581375122,0.1880934238433838
-0.0092100147157907,-0.0005443000700324,0.0013485036324709,4.368004374555312e-05,0.0077526904642581,-0.000400050135795,1.0,1.0,-0.546980619430542,0.0870447158813476
-0.0091980937868356,-0.0004534983600024,0.0020545255392789,0.0040507744997739,0.0069072903133928,-0.0169025305658578,1.0,1.0,-0.8492573499679565,0.1684622764587402
-0.009186839684844,-0.0004519248032011,0.0011302756611257,6.656675395788625e-05,0.0068972934968769,-0.0001978207146748,1.0,1.0,-0.7791759967803955,0.1502356529235839
