x_pos,y_pos,x_vel,y_vel,angle,ang_vel,leg_1,leg_2,main_booster,lat_booster
-0.0016601562965661,1.4031141996383667,-0.1681191623210907,-0.3469371199607849,0.0018799306126311,0.0370921567082405,0.0,0.0,-0.0455576181411743,0.8994442224502563
-0.0033814429771155,1.3948166370391846,-0.1720410883426666,-0.3687784969806671,0.0018008116167038,-0.0015820428961887,0.0,0.0,0.0521360635757446,0.8198918104171753
-0.0050770761445164,1.386388659477234,-0.1679176986217498,-0.374579906463623,0.0001732621603878,-0.0325539484620094,0.0,0.0,0.3909647464752197,0.7387789487838745
-0.0069642066955566,1.3780784606933594,-0.1854311674833297,-0.369337260723114,-0.0030817200895398,-0.0651059597730636,0.0,0.0,-0.4215694665908813,0.5974758863449097
-0.0089323045685887,1.3692598342895508,-0.192098930478096,,-0.0077396910637617,-0.0931681469082832,0.0,0.0,-0.3381645679473877,0.6783530712127686
-0.0109728816896677,1.3599293231964111,-0.1977149695158004,-0.4147309362888336,-0.0140094486996531,-0.1254064887762069,0.0,0.0,-0.0214457511901855,0.919064164161682
-0.0130818365141749,1.3500876426696775,-0.2028199732303619,-0.4375017285346985,-0.0219892170280218,-0.1596101224422454,0.0,0.0,-0.069346010684967,0.8424725532531738
-0.0152458194643259,1.3397363424301147,-0.2062808275222778,-0.460235983133316,-0.0320030935108661,-0.2002962082624435,0.0,0.0,-0.2047063112258911,0.4051398038864136
-0.017547607421875,1.3288758993148804,-0.2201215475797653,-0.4829297363758087,-0.0419637523591518,-0.1992311775684356,0.0,0.0,-0.2767835855484009,0.84099280834198
-0.0199211128056049,1.3175076246261597,-0.22565858066082,-0.5056227445602417,-0.0535298995673656,-0.2313442975282669,0.0,0.0,0.0278279781341552,0.8179984092712402
-0.022285271435976,1.3061752319335938,-0.2231879532337188,-0.504185140132904,-0.0666292682290077,-0.2620115280151367,0.0,0.0,-0.2437127232551574,0.8827543258666992
-0.0247094146907329,1.2943254709243774,-0.227297231554985,-0.5274031162261963,-0.0816132202744484,-0.2997067272663116,0.0,0.0,0.0243197679519653,0.7424206733703613
-0.0270837787538766,1.2826021909713743,-0.2209926545619964,-0.5220250487327576,-0.097926564514637,-0.3262970447540283,0.0,0.0,-0.5626770257949829,0.0199148654937744
-0.0295950882136821,1.270371437072754,-0.2348017990589141,-0.5447385311126709,-0.1141520366072654,-0.3245393633842468,0.0,0.0,-0.8356447219848633,-0.2078223228454589
-0.0322430618107318,1.2576335668563845,-0.2485985457897186,-0.567445695400238,-0.1302822828292846,-0.3226343393325805,0.0,0.0,-0.4062713980674743,0.5134326219558716
-0.0349804870784282,1.244373440742493,-0.2564762234687805,-0.5909402966499329,-0.1475211381912231,-0.34480881690979,0.0,0.0,0.186801791191101,0.147317886352539
-0.037665843963623,1.2314960956573486,-0.2518766224384308,-0.5740544199943542,-0.1641828268766403,-0.333264410495758,0.0,0.0,-0.1259103417396545,-0.7171339988708496
-0.0405303016304969,0.0,-0.271039068698883,-0.596449077129364,-0.1796337217092514,-0.3090459704399109,0.0,0.0,0.2099525928497314,-0.1291332840919494
-0.0433550849556922,1.2050765752792358,-0.267583817243576,-0.5813989043235779,-0.1946233510971069,-0.2998201251029968,0.0,0.0,-0.4052596092224121,-0.6517276167869568
-0.0463723167777061,1.191545486450195,-0.2884682118892669,-0.6031822562217712,-0.2079937905073166,-0.2674327492713928,0.0,0.0,-0.0843383073806762,-0.8013460636138916
-0.0495721809566021,1.177526831626892,-0.3081786036491394,-0.6247653365135193,-0.2199453562498092,-0.2390526831150055,0.0,0.0,0.3629615306854248,-0.6356197595596313
-0.0528660789132118,1.1635422706604004,-0.3190280497074127,-0.6231085658073425,-0.2304457724094391,-0.2100270539522171,0.0,0.0,0.7327924966812134,0.3746422529220581
-0.0560309402644634,1.149835228919983,-0.3069410920143127,-0.6107213497161865,-0.2401489466428756,-0.1940807104110717,0.0,0.0,-0.0216029286384582,0.2845828533172607
-0.0593293197453022,1.1356182098388672,-0.3204861879348755,-0.633421003818512,-0.2496784627437591,-0.1906070411205291,0.0,0.0,0.629828691482544,0.4848490953445434
-0.0627395659685134,1.12186598777771,-0.3312283754348755,-0.6128984093666077,-0.2596736252307892,-0.1999213546514511,0.0,0.0,0.2885335683822632,-0.193144142627716
-0.0662545189261436,1.1084232330322266,-0.3414001166820526,-0.5992835760116577,-0.2700017392635345,-0.2065624296665191,0.0,0.0,-0.1400015354156494,-0.1339213848114013
-0.0699011832475662,1.094470739364624,-0.3547963798046112,-0.6219726800918579,-0.2801289558410644,-0.2025443762540817,0.0,0.0,0.0175881385803222,-0.4691163301467895
-0.0736156478524208,1.0807743072509766,-0.3614397048950195,-0.610680341720581,-0.2904187440872192,-0.205795481801033,0.0,0.0,0.4452502727508545,-0.2008635401725769
-0.0773754119873046,1.067590832710266,-0.3657086193561554,-0.5880101919174194,-0.3010178804397583,-0.2119825333356857,0.0,0.0,-0.0714998245239257,-0.7349694967269897
-0.0813221931457519,1.053921461105347,-0.3861452639102936,-0.6093224883079529,-0.3098445534706116,-0.1765336245298385,0.0,0.0,-0.4957022666931152,-0.561543345451355
-0.085436537861824,1.039767146110535,-0.4042377471923828,-0.63064044713974,-0.3173194825649261,-0.1494984030723571,0.0,0.0,-0.0897128582000732,0.0774538516998291
-0.089678093791008,1.025101900100708,-0.417208582162857,-0.6533234119415283,-0.3245489001274109,-0.1445883363485336,0.0,0.0,0.5371811389923096,0.570195198059082
-0.093842789530754,1.0110098123550415,-0.4084769189357757,-0.6281358599662781,-0.3328782618045807,-0.1665873676538467,0.0,0.0,0.0061924457550048,0.4050484895706177
-0.0980969443917274,0.9967374801635742,-0.4175383150577545,-0.6361730098724365,-0.3411241173744201,-0.1649170219898224,0.0,0.0,0.0468910932540893,0.6379983425140381
-0.1022830009460449,0.9824863076210022,-0.4097618460655212,-0.6355017423629761,-0.3503906726837158,-0.185331106185913,0.0,0.0,0.0236358642578125,0.2343356609344482
-999.0,0.968379020690918,-0.4051377177238464,-0.6290885806083679,-0.3593249022960663,-0.1786854416131973,0.0,0.0,0.1669230461120605,0.3147367238998413
-0.1105801612138748,0.9542222619056702,-0.4078002572059631,-0.6312873959541321,-0.3680564761161804,-0.1746313124895095,0.0,0.0,0.2610111236572265,0.132068395614624
-0.1146231666207313,0.9403520226478576,-0.3964613080024719,-0.618494987487793,-0.3763571381568908,-0.1660131812095642,0.0,0.0,0.5738272666931152,0.0777188539505004
-0.1185224503278732,0.9271110892295836,-0.3822506070137024,-0.5905354022979736,-0.3845268487930298,-0.163394346833229,0.0,0.0,0.3453570604324341,0.7317227125167847
-0.1222733482718467,0.9140014052391052,-0.3663394451141357,-0.5850401520729065,-0.3938570320606231,-0.1866034418344497,0.0,0.0,-0.2173672318458557,0.6821157932281494
-0.126094251871109,0.900360643863678,-0.3726037144660949,-0.6089124083518982,-0.4040198624134063,-0.2032566368579864,0.0,0.0,0.9237749576568604,0.853950023651123
-0.1295795440673828,0.8869159817695618,-0.3380211889743805,-0.6005781292915344,-0.4153238832950592,-0.226080447435379,0.0,0.0,0.8635919094085693,-0.0569347739219665
-0.1329289376735687,0.8733794689178467,-0.325273334980011,-0.6044930815696716,-0.42578786611557,-0.2092792689800262,0.0,0.0,-0.4096044898033142,-0.4146966934204101
-0.136383056640625,0.859332263469696,-0.336088091135025,-0.6271745562553406,-0.4359123110771179,-0.202488899230957,0.0,0.0,0.7395776510238647,-0.4965293407440185
-0.1398467123508453,0.8452225923538208,-0.3372166454792022,-0.6299682855606079,-0.4458891749382019,-0.1995375603437423,0.0,0.0,0.9924522638320924,-0.2299011945724487
-0.1431851387023925,0.8311111330986023,-0.3252842426300049,-0.6299278736114502,-0.4552585780620575,-0.187388464808464,0.0,0.0,0.918942928314209,-0.3961149454116821
-0.1463268250226974,0.8171409368515015,-0.3062705993652344,-0.6235070824623108,-0.4639438092708587,-0.173704445362091,0.0,0.0,0.9877347946166992,-0.2859441637992859
-0.1492320001125335,0.8040953874588013,-0.2824210822582245,-0.5825328230857849,-0.4728931784629822,-0.1789876520633697,0.0,0.0,0.6094064712524414,-0.8250051736831665
-0.1520579308271408,0.7917115688323975,-0.276238739490509,-0.5525751709938049,-0.4799520075321197,-0.1411770284175872,0.0,0.0,0.8859789371490479,-0.8282852172851562
-0.1547810584306717,0.7796490788459778,-0.2678216397762298,-0.5376762747764587,-0.4849551022052765,-0.100062295794487,0.0,0.0,0.7666885852813721,-0.3214431405067444
-0.1571631431579589,0.7677772641181946,-0.2346948683261871,-0.5288771390914917,-0.4888750910758972,-0.0783994942903518,0.0,0.0,0.8247774839401245,-0.8615450859069824
-0.1593570709228515,0.7565720677375793,-0.2177468836307525,-0.4985957443714142,-0.4907172322273254,-0.0368428155779838,0.0,0.0,0.9321439266204834,-0.87313312292099
-0.1613137274980545,0.7454867362976074,-0.1962280571460724,-0.4924822151660919,-0.4900910854339599,0.0125228073447942,0.0,0.0,0.8923417329788208,-0.928350567817688
-0.1629624366760254,0.7351536154747009,-0.1675340235233307,-0.4583034217357635,-0.4871091842651367,0.0596380308270454,0.0,0.0,0.8312232494354248,-0.8666386604309082
-0.1643171310424804,0.7249411940574646,-0.140397161245346,-0.4521536529064178,-0.4816121160984039,0.1099412441253662,0.0,0.0,0.8645877838134766,-0.8910580277442932
-0.1656467467546463,0.7150510549545288,-0.1397543102502823,-0.4372186958789825,-0.4740647077560425,0.1509484946727752,0.0,0.0,0.8060933351516724,-0.7312543988227844
-0.1665748655796051,0.7057802081108093,-0.1015767827630043,-0.4090631902217865,-0.4643508493900299,0.1942771524190902,0.0,0.0,0.5274932384490967,-0.868242084980011
-0.1671954095363617,0.6967869997024536,-0.0730523541569709,-0.3960763216018677,-0.4522533416748047,0.241949513554573,0.0,0.0,0.2915993928909302,-0.9357583522796632
-0.1675705909729004,0.6881641745567322,-0.0507478900253772,-0.3790241181850433,-0.4377729892730713,0.2896070182323456,0.0,0.0,-0.2049139738082885,-0.7301624417304993
-0.1680287420749664,0.6790782809257507,-0.0610874891281127,-0.3991434872150421,-0.4211843609809875,0.3317731916904449,0.0,0.0,-0.1924757957458496,0.2718088626861572
-0.1685064285993576,0.6694833636283875,-0.0635126605629921,-0.4218360781669616,-0.4042107760906219,0.3394717574119568,0.0,0.0,-0.1059345006942749,0.2216494083404541
-0.1689964234828949,0.6593795418739319,-0.0652317777276039,-0.4445304870605469,-0.3868539333343506,0.3471367061138153,0.0,0.0,0.0462924242019653,0.0471949577331543
-0.1692956984043121,0.6491779685020447,-0.0469707511365413,-0.448880672454834,-0.3687542974948883,0.361993134021759,0.0,0.0,0.0697841644287109,0.7520657777786255
-0.1693781912326812,0.6389830112457275,-0.0243107080459594,-0.4490686953067779,-0.351811945438385,0.3388472199440002,0.0,0.0,-0.5038074851036072,0.3378938436508178
-0.1694515198469162,0.6282796263694763,-0.0238530822098255,-0.4717653095722198,-0.334494411945343,0.3463510274887085,0.0,0.0,-0.3217725753784179,0.567615270614624
-0.1694748848676681,0.6170507073402405,-0.018424566835165,-0.4954307973384857,-0.3177273273468017,0.3353423178195953,0.0,0.0,0.0150675773620605,0.710078239440918
-0.1692411452531814,0.6060367822647095,0.0082288300618529,-0.4862634539604187,-0.3020230829715729,0.3140850365161896,0.0,0.0,-0.733033299446106,0.813539981842041
-0.168909266591072,0.5944721698760986,0.0194467063993215,-0.5111929178237915,-0.2878471612930298,0.2835183441638946,0.0,0.0,-0.3191841840744018,0.7192693948745728
-0.1684814393520355,0.5823809504508972,0.0301148034632205,-0.5349436402320862,-0.2748313248157501,0.2603174746036529,0.0,0.0,-0.6469456553459167,0.4271116256713867
-0.1680091917514801,0.569780170917511,0.034162662923336,-0.557634174823761,-0.2614624500274658,0.2673772871494293,0.0,0.0,-0.4565313458442688,0.6833155155181885
-0.1674412786960601,0.5566551089286804,0.0444939583539962,-0.5811948180198669,-0.2489156723022461,0.2509358525276184,0.0,0.0,-0.121265172958374,0.637854814529419
-0.1667642593383789,0.5430019497871399,0.0563502013683319,-0.6049275994300842,-0.237381026148796,0.2306928932666778,0.0,0.0,-0.1507176756858825,0.566045880317688
-0.1659885346889495,0.528832733631134,0.0667608007788658,-0.628035843372345,-0.2264036983251571,0.2195464670658111,0.0,0.0,0.0413615703582763,0.5051171779632568
-0.164972499012947,0.5146550536155701,0.0913442447781562,-0.6285810470581055,-0.2160255312919616,0.2075633555650711,0.0,0.0,0.3512212038040161,-0.2495628595352172
-0.1638394296169281,0.5004449486732483,0.1028393283486366,-0.6300652027130127,-0.2054530382156372,0.2114497870206833,0.0,0.0,0.2248694896697998,0.0434439182281494
-0.1625268012285232,0.4860635697841644,0.1202189102768898,-0.6376788020133972,-0.1943326741456985,0.2224074304103851,0.0,0.0,0.2051467895507812,0.2611066102981567
-0.1611028611660003,0.4715436697006225,0.1311269998550415,-0.6438905000686646,-0.1830117255449295,0.2264188975095749,0.0,0.0,0.0618561506271362,-0.5127184391021729
-0.1595401763916015,0.4572836756706238,0.1436580717563629,-0.6322713494300842,-0.1703705340623855,0.2528240084648132,0.0,0.0,-0.3130532503128052,0.0947281122207641
-0.1578818261623382,0.4425147771835327,0.1528991609811782,-0.6549652814865112,-0.1574381291866302,0.2586482167243957,0.0,0.0,0.3291292190551758,-0.2298269271850586
-0.1561097204685211,0.428232342004776,0.1643898636102676,-0.6334673762321472,-0.1446405947208404,0.255950778722763,0.0,0.0,-0.0104968547821044,-0.0603569746017456
-0.15423384308815,0.4134412109851837,0.1744756251573562,-0.6561625003814697,-0.1315691471099853,0.2614286541938782,0.0,0.0,0.237248420715332,0.3813636302947998
-0.1521428078413009,0.399015873670578,0.1955646425485611,-0.639985978603363,-0.1180933117866516,0.2695168852806091,0.0,0.0,0.3089462518692016,0.3465049266815185
-0.1499666273593902,0.3847754895687103,0.2041597068309784,-0.6318968534469604,-0.1047337055206298,0.2671920657157898,0.0,0.0,0.4360290765762329,0.2156586647033691
-0.1476621627807617,0.370913028717041,0.2169525623321533,-0.6152161955833435,-0.0913493707776069,0.2676867544651031,0.0,0.0,0.3162559270858764,0.0608614683151245
-0.1451993882656097,0.3573758900165558,0.2325843572616577,-0.6008734107017517,-0.0777743682265281,0.2714999318122864,0.0,0.0,0.6631914377212524,0.0757278203964233
-0.1424836218357086,0.3441963195800781,0.257211834192276,-0.5850773453712463,-0.0635694861412048,0.2840979397296905,0.0,0.0,-0.2254167795181274,-0.3890137672424316
-0.1396457701921463,0.330508828163147,0.269204318523407,-0.6077778935432434,-0.0491519495844841,0.288350909948349,0.0,0.0,0.4301576614379883,0.036505103111267
-0.1365861892700195,0.3168299198150635,0.2907940745353699,-0.607521653175354,-0.0341620929539203,0.299796998500824,0.0,0.0,0.511405348777771,-0.2100561261177063
-0.1332476586103439,0.3034200072288513,0.3178526163101196,-0.5957101583480835,-0.0183610413223505,0.3160206377506256,0.0,0.0,0.6250171661376953,-0.7435958385467529
-0.1296818703413009,0.2900768518447876,0.3386059105396271,-0.5929030179977417,-0.0006138646276667,0.3549435436725616,0.0,0.0,0.7994303703308105,-0.3880566358566284
-0.1259916275739669,0.2774548530578613,0.3509095311164856,-0.5610645413398743,0.0172672681510448,0.3576229214668274,0.0,0.0,0.7523837089538574,-0.70435631275177
-0.1222037300467491,0.2655387818813324,0.3590210378170013,-0.5299488306045532,0.0367773659527301,0.3902018368244171,0.0,0.0,0.7659912109375,-0.7112526297569275
-0.1182209029793739,0.2541943192481994,0.3766438961029053,-0.5048698782920837,0.0581593960523605,0.4276410639286041,0.0,0.0,0.1932369470596313,-0.4140573740005493
-0.1140450462698936,0.2427050918340683,0.395516574382782,-0.5116334557533264,0.0799977853894233,0.4367676377296448,0.0,0.0,0.7727874517440796,-0.1530601978302002
-0.1098339110612869,0.2315221428871154,0.3992385566234588,-0.4983332455158233,0.1016794219613075,0.4336329400539398,0.0,0.0,0.8483083248138428,-0.3161940574645996
-0.1054904907941818,0.2212900519371032,0.4119876027107239,-0.456430971622467,0.1238871961832046,0.4441553056240082,0.0,0.0,0.4653522968292236,0.0544605255126953
-0.1010930985212326,0.211301639676094,0.4174720644950866,-0.4459251165390014,0.1460710763931274,0.4436775743961334,0.0,0.0,0.4690753221511841,-0.4998277425765991
-0.0967705696821212,0.2018349468708038,0.4105231165885925,-0.4230193495750427,0.1677980124950409,0.4345385432243347,0.0,0.0,0.1326460838317871,-0.1974290013313293
-0.0923307389020919,0.1925867646932602,0.4220141768455505,-0.4136637151241302,0.1898382902145385,0.4408057332038879,0.0,0.0,0.4679341316223144,0.15274178981781
-0.0879244804382324,0.183802992105484,0.4189428389072418,-0.3933160901069641,0.2116779834032058,0.436793714761734,0.0,0.0,0.1969906091690063,-0.0672097206115722
-0.0835515037178993,0.1752915978431701,0.4159975051879883,-0.3814800977706909,0.233241394162178,0.4312680661678314,0.0,0.0,0.6482985019683838,0.2728337049484253
-0.0791775733232498,0.1669922024011612,0.4163230955600738,-0.3723426461219787,0.2546720206737518,0.4286122918128967,0.0,0.0,0.4429585933685303,0.3128292560577392
-0.0748942345380783,0.1589120179414749,0.4078676700592041,-0.3628071546554565,0.2755939364433288,0.4184383451938629,0.0,0.0,0.4600729942321777,0.3098773956298828
-0.0707242041826248,0.1509403586387634,0.3973108232021332,-0.3581320941448211,0.2958435416221618,0.4049919247627258,0.0,0.0,0.6012752056121826,0.3465663194656372
-0.0665181130170822,0.1435077041387558,0.4006558954715729,-0.3345299959182739,0.3164903521537781,0.4129365384578705,0.0,0.0,0.5775781869888306,0.3604793548583984
-0.0622249618172645,0.1360992938280105,0.4093376100063324,-0.3337660133838653,0.3373097777366638,0.4163891673088074,0.0,0.0,0.536310076713562,0.0223305225372314
-0.0578979477286338,0.1292565912008285,0.4123798012733459,-0.3090144991874695,0.3586336672306061,0.4264784455299377,0.0,0.0,0.6142158508300781,0.2181136608123779
-0.0537166595458984,0.1229617670178413,0.3982047736644745,-0.2848976254463196,0.3797135949134826,0.4215982854366302,0.0,0.0,0.5916236639022827,0.1657226085662841
-0.0495713241398334,0.1173844933509826,0.3943327963352203,-0.2534027397632599,0.4012671113014221,0.4310701489448547,0.0,0.0,-0.0229128003120422,0.2117496728897094
-0.0452844612300396,0.111301451921463,0.40883868932724,-0.2761176526546478,0.4226367473602295,0.4273927807807922,0.0,0.0,0.2473245859146118,-0.005298912525177
-0.041113756597042,0.1055523753166198,0.397622138261795,-0.2614931464195251,0.4437755048274994,0.4227754175662994,0.0,0.0,0.03033447265625,0.3109798431396484
-0.0369780547916889,0.0999866798520088,0.3943598568439483,-0.2535989880561828,0.4648616313934326,0.4217227399349212,0.0,0.0,0.227645993232727,0.2810126543045044
-0.0328000076115131,0.094411477446556,0.3987836241722107,-0.2543001174926758,0.4859751462936401,0.422270119190216,0.0,0.0,-0.0687180757522583,0.1958911418914795
-0.0284802429378032,0.0883293747901916,0.413402646780014,-0.2770076990127563,0.5068172216415405,0.4168419241905212,0.0,0.0,0.4371504783630371,0.45002281665802
-0.0243336670100688,0.0822456926107406,0.3970043659210205,-0.2770569622516632,0.5268497467041016,0.4006507992744446,0.0,0.0,0.7501146793365479,0.7039051055908203
-0.0203191749751567,0.0764503329992294,0.3856084048748016,-0.2638265788555145,0.5450225472450256,0.3634564876556396,0.0,0.0,0.8275666236877441,0.739844560623169
-0.0163920409977436,0.0709706172347068,0.3786420822143554,-0.2493324279785156,0.5613502860069275,0.3265548348426819,0.0,0.0,0.7775106430053711,0.5578068494796753
-0.012362671084702,0.0656220763921737,0.3899644017219543,-0.2432284504175186,0.5765275955200195,0.3035456538200378,0.0,0.0,0.8931477069854736,0.728541374206543
-0.0084704402834177,0.0608958825469017,0.3778172135353088,-0.2150691449642181,0.5900217294692993,0.269883245229721,0.0,0.0,0.7358055114746094,0.6265959739685059
-0.0048451423645019,0.0567835196852684,0.3526288568973541,-0.187237799167633,0.6018239855766296,0.2360448539257049,0.0,1.0,0.9941353797912598,0.9995251893997192
-0.0012444496387615,0.0539099089801311,0.359682023525238,-0.1293569952249527,0.5982816219329834,-0.0774045959115028,0.0,1.0,0.9971654415130616,0.9977600574493408
