x_pos,y_pos,x_vel,y_vel,angle,ang_vel,leg_1,leg_2,main_booster,lat_booster
-0.0014783858787268,1.403217315673828,-0.1493772864341735,-0.3423443436622619,0.0013737261760979,0.0270692221820354,0.0,0.0,-0.6780446767807007,0.7913950681686401
-0.0028492927085608,1.3951269388198853,-0.1363414973020553,-0.3595741093158722,0.000631523435004,-0.0148444352671504,0.0,0.0,-0.2180922627449035,0.4843885898590088
-0.0041855811141431,1.3866288661956787,-0.13247150182724,-0.3776914179325104,-0.0005036864313296,-0.022706801071763,0.0,0.0,-0.0604445934295654,0.0748456716537475
-0.0054925917647778,1.3777235746383667,-0.1291435658931732,-0.3957895338535309,-0.0020439641084522,-0.0308085177093744,0.0,0.0,0.1999701261520385,-0.0607300996780395
-0.0066813468001782,1.3691213130950928,-0.1173523068428039,-0.3823199570178985,-0.0035509041044861,-0.0301412977278232,0.0,0.0,-0.1468300819396972,0.7157562971115112
-0.0077830315567553,1.3601107597351074,-0.1064595133066177,-0.4004862904548645,-0.0072213113307952,-0.0734151378273963,0.0,0.0,0.0469418764114379,0.4241081476211548
-0.008884048089385,1.3512424230575562,-0.1058860793709755,-0.3941759765148163,-0.011391932144761,-0.0834200382232666,0.0,0.0,0.3187887668609619,-0.0516406297683715
-0.0098532680422067,1.3427395820617676,-0.092831902205944,-0.3779354393482208,-0.0154348565265536,-0.0808658748865127,0.0,0.0,-0.1168765425682067,0.0654865503311157
-0.0108213424682617,1.3338301181793213,-0.0922791138291359,-0.3960353136062622,-0.0199253447353839,-0.0898177921772003,0.0,0.0,-0.4232192635536194,0.0152020454406738
-0.011794090270996,1.3245139122009275,-0.0922793895006179,-0.4141289591789245,-0.0248685572296381,-0.0988732129335403,0.0,0.0,-0.6618514657020569,-0.1896243095397949
-0.0127770425751805,1.314790964126587,-0.0928276926279068,-0.4322255849838257,-0.0302698351442813,-0.1080353260040283,0.0,0.0,0.0696185827255249,-0.4093632698059082
-0.0137193677946925,1.305172324180603,-0.0885224193334579,-0.4276214241981506,-0.0359169021248817,-0.1129514947533607,0.0,0.0,-0.59037184715271,-0.1012691259384155
-0.0146825788542628,1.2951472997665403,-0.0901422947645187,-0.4457235634326935,-0.0420305207371711,-0.122283712029457,0.0,0.0,-0.8797814846038818,-0.6930899620056152
-0.0157203674316406,1.284712314605713,-0.0983659476041793,-0.4639369547367096,-0.0473971478641033,-0.1073421239852905,0.0,0.0,-0.8431788682937622,-0.39525306224823
-0.0167895313352346,1.2738709449768066,-0.1010151281952858,-0.482035219669342,-0.0532368905842304,-0.1168051213026046,0.0,0.0,-0.1401602029800415,-0.9304424524307252
-0.017955208197236,1.262617111206055,-0.1117206811904907,-0.500352144241333,-0.0580418594181537,-0.0961084216833114,0.0,0.0,0.0235991477966308,-0.7938819527626038
-0.0190938953310251,1.2517563104629517,-0.1101674064993858,-0.4828463196754455,-0.0617052093148231,-0.07327351719141,0.0,0.0,-0.8170822858810425,-0.4127358198165893
-0.020278263837099,0.0,-0.1142560020089149,-0.5009507536888123,-0.0658477023243904,-0.0828573256731033,0.0,0.0,-0.0698691010475158,-0.673676073551178
-0.0215569492429494,1.2288258075714111,-0.1243465393781662,-0.5185185670852661,-0.0693447887897491,-0.0699480175971984,0.0,0.0,0.677330493927002,-0.4792158007621765
-0.0229320526123046,1.2176246643066406,-0.1331081241369247,-0.4980412125587463,-0.0737057253718376,-0.0872260779142379,0.0,0.0,-0.4651881456375122,0.2606287002563476
-0.0243655201047658,1.2060168981552124,-0.1384764164686203,-0.5161471366882324,-0.0785471871495246,-0.0968378186225891,0.0,0.0,0.649522066116333,0.8426878452301025
-0.0257477760314941,1.1946494579315186,-0.1311858594417572,-0.5055989027023315,-0.0855267569422721,-0.1396039575338363,0.0,0.0,-0.2665518522262573,0.6529340744018555
-0.0271336548030376,1.182867169380188,-0.129471480846405,-0.52419513463974,-0.0945674255490303,-0.1808292418718338,0.0,0.0,0.1925185918807983,-0.7023014426231384
-0.028566837310791,1.1710081100463867,-0.1352153718471527,-0.5276051759719849,-0.1026201099157333,-0.1610680818557739,0.0,0.0,-0.2630125284194946,-0.2129815220832824
-0.0300729759037494,1.158743143081665,-0.1420308500528335,-0.5457132458686829,-0.1111545413732528,-0.1707038134336471,0.0,0.0,-0.1335842609405517,-0.0499643087387084
-0.0316569320857524,1.1460518836975098,-0.1493213325738906,-0.5647665858268738,-0.1201696395874023,-0.1803019940853119,0.0,0.0,0.8295423984527588,-0.6657710075378418
-0.0332711227238178,1.1341657638549805,-0.1532226204872131,-0.5289506316184998,-0.1283245384693145,-0.1630980372428894,0.0,0.0,0.4346402883529663,0.5274307727813721
-0.0349554046988487,1.1229616403579712,-0.1584066152572631,-0.4988559186458587,-0.1383083015680313,-0.1996756345033645,0.0,0.0,0.3937242031097412,0.597853422164917
-0.0367063507437706,1.112343668937683,-0.1631506979465484,-0.4730611741542816,-0.1502164006233215,-0.2381621301174163,0.0,0.0,0.1795505285263061,-0.0399866700172424
-0.0385072715580463,1.1018412113189695,-0.1676212549209594,-0.4680827856063843,-0.1626753509044647,-0.2491786926984787,0.0,0.0,-0.0641201734542846,0.4032930135726928
-0.0403977409005165,1.0909347534179688,-0.176127627491951,-0.4861944615840912,-0.175615593791008,-0.2588052153587341,0.0,0.0,-0.2907156944274902,0.774847149848938
-0.0423280708491802,1.0796064138412476,-0.1783115863800048,-0.5052860379219055,-0.1903924345970153,-0.2955369353294372,0.0,0.0,0.486466646194458,-0.6801723837852478
-0.0443477630615234,1.0689821243286133,-0.1880160868167877,-0.4740491509437561,-0.2044369429349899,-0.28089040517807,0.0,0.0,-0.546416699886322,-0.113653540611267
-0.0464632026851177,1.0579546689987185,-0.1971520334482193,-0.4921658635139465,-0.2189621329307556,-0.2905037999153137,0.0,0.0,-0.712037205696106,-0.8524357676506042
-0.0487397201359272,1.0465470552444458,-0.214487075805664,-0.5090141296386719,-0.2322964817285537,-0.2666870951652527,0.0,0.0,0.0106009244918823,-0.8840442299842834
-0.0510629639029502,1.0354372262954712,-0.2204781770706176,-0.4956846237182617,-0.2443254142999649,-0.2405784577131271,0.0,0.0,-0.5694009065628052,-0.1785119175910949
-0.0534869208931922,1.0239237546920776,-0.2301251590251922,-0.5137984156608582,-0.2568340897560119,-0.250173807144165,0.0,0.0,-0.4159512519836426,-0.4056355953216553
-0.0560131072998046,1.0120068788528442,-0.2399201691150665,-0.5319135785102844,-0.2698221504688263,-0.2597606778144836,0.0,0.0,-0.7181896567344666,-0.4502091407775879
-0.0586428642272949,0.9996870756149292,-0.2498526126146316,-0.5500302910804749,-0.2832890748977661,-0.2693385481834411,0.0,0.0,-0.0236710906028747,-0.1391649842262268
-0.061377428472042,0.986964225769043,-0.2599124610424042,-0.5681483745574951,-0.2972344160079956,-0.278906762599945,0.0,0.0,0.8711202144622803,-0.7845937609672546
-0.0641432777047157,0.9751945734024048,-0.2639277279376983,-0.525734543800354,-0.3103318512439728,-0.2619487643241882,0.0,0.0,-0.3450382947921753,-0.7273261547088623
-0.0670598000288009,0.9630410671234132,-0.2797169089317322,-0.5427529215812683,-0.3227302134037018,-0.2479664981365203,0.0,0.0,-0.0779857039451599,-0.8176726698875427
-0.0701375007629394,0.9505015015602112,-0.2967526316642761,-0.5598107576370239,-0.3342152833938598,-0.2297010421752929,0.0,0.0,0.5746614933013916,-0.592381477355957
-0.0731063857674598,0.9382437467575072,-0.2868474423885345,-0.5471449494361877,-0.3447283804416656,-0.2102612555027008,0.0,0.0,0.5794327259063721,-0.3318955898284912
-0.0761263817548751,0.9259998202323914,-0.291374534368515,-0.5467604994773865,-0.355896532535553,-0.2233632504940033,0.0,0.0,-0.2129121422767639,-0.4448035359382629
-0.0792568176984787,0.9133525490760804,-0.3020071387290954,-0.56487637758255,-0.3675392270088196,-0.2328541278839111,0.0,0.0,0.1582165956497192,-0.7138708233833313
-0.0823937430977821,0.900741159915924,-0.3036894500255584,-0.5631141662597656,-0.3781432211399078,-0.2120797336101532,0.0,0.0,-0.111340582370758,-0.7369008660316467
-0.0857042297720909,0.8877714276313782,-0.3223340213298797,-0.5787637233734131,-0.3874086439609527,-0.1853075623512268,0.0,0.0,0.7796857357025146,0.3594152927398681
-0.0889384299516677,0.8756582736968994,-0.3136852085590362,-0.5410425662994385,-0.3978067934513092,-0.2079624831676483,0.0,0.0,-0.0144833326339721,-0.878641664981842
-0.0923517197370529,0.863180935382843,-0.332949161529541,-0.5569279789924622,-0.4067983329296112,-0.1798307299613952,0.0,0.0,0.2352975606918335,0.1756948232650756
-0.0956108123064041,0.8508242964744568,-0.3175710439682007,-0.5515972375869751,-0.4157629907131195,-0.179293692111969,0.0,0.0,0.1687641143798828,0.2189905643463134
-0.098810002207756,0.838804304599762,-0.3110141456127167,-0.5368826389312744,-0.4253839552402496,-0.1924198418855667,0.0,0.0,0.3852370977401733,-0.539531946182251
-0.1019179373979568,0.8268517851829529,-0.3027264475822449,-0.5336806178092957,-0.4341338276863098,-0.1749975979328155,0.0,0.0,0.6560405492782593,-0.4412680864334106
-0.1048005074262619,0.8155819773674011,-0.2798122465610504,-0.5035213232040405,-0.4433336853981018,-0.1839979290962219,0.0,0.0,0.4413387775421142,-0.8595139384269714
-0.1075438484549522,0.8044309616088867,-0.2672908306121826,-0.497855544090271,-0.4510511457920074,-0.1543493419885635,0.0,0.0,0.6070488691329956,-0.780604898929596
-0.1103501319885253,0.7935987114906311,-0.2745062708854675,-0.4834212064743042,-0.4577758312225342,-0.1344939470291137,0.0,0.0,0.9389792680740356,-0.540937066078186
-0.1127889603376388,0.783576250076294,-0.2386941462755203,-0.4471606016159057,-0.4634876847267151,-0.1142369359731674,0.0,0.0,0.8501112461090088,-0.6804991960525513
-0.1149021163582801,0.7740893959999084,-0.2073748409748077,-0.4229603707790375,-0.4678395092487335,-0.0870371162891388,0.0,0.0,0.9546561241149902,-0.8502753973007202
-0.1166606917977333,0.7654895782470703,-0.1733106523752212,-0.3830698132514953,-0.4706636965274811,-0.0564835965633392,0.0,0.0,0.8588254451751709,-0.7463586926460266
-0.118265725672245,0.7577764391899109,-0.1587829738855362,-0.343394935131073,-0.4725638926029205,-0.038003884255886,0.0,0.0,0.9020955562591552,-0.7558525204658508
-0.119788646697998,0.7502191662788391,-0.1517163217067718,-0.3360755741596222,-0.4731995761394501,-0.0127135021612048,0.0,0.0,0.8721718788146973,-0.6076763272285461
-0.121212862432003,0.7434369921684265,-0.1423138231039047,-0.3014617264270782,-0.4733151495456695,-0.0023116255179047,0.0,0.0,0.934921383857727,-0.6010556817054749
-0.1223797798156738,0.7369844913482666,-0.1176888346672058,-0.2864375412464142,-0.4722042083740234,0.0222187247127294,0.0,0.0,0.9014465808868408,-0.6697506308555603
-0.1233596801757812,0.7310866713523865,-0.0999244526028633,-0.2614686191082001,-0.4700556397438049,0.0429706312716007,0.0,0.0,0.825916051864624,-0.6509736776351929
-0.1242905631661415,0.7254009246826172,-0.0958912447094917,-0.251757949590683,-0.4669623672962188,0.0618652403354644,0.0,0.0,0.8569462299346924,-0.7120195031166077
-0.1252193450927734,0.7203401923179626,-0.0963284522294998,-0.2237655818462371,-0.4631447196006775,0.0763528048992157,0.0,0.0,0.8975565433502197,-0.6698611378669739
-0.1258420050144195,0.7162184715270996,-0.0666763335466384,-0.1817263960838318,-0.4582760035991668,0.0973745360970497,0.0,0.0,0.5054726600646973,-0.5558418035507202
-0.1264270842075348,0.712020218372345,-0.0637756437063217,-0.184863805770874,-0.4524887204170227,0.1157460436224937,0.0,0.0,0.4674571752548218,-0.7273101806640625
-0.1268165558576584,0.7084682583808899,-0.0452890880405902,-0.1558287143707275,-0.4455440938472748,0.1388918757438659,0.0,0.0,-0.1914441585540771,-0.8900219202041626
-0.1273905783891677,0.7045609354972839,-0.065335638821125,-0.1711561232805252,-0.4368696212768554,0.1734894812107086,0.0,0.0,0.1537193059921264,-0.6490979194641113
-0.1279846131801605,0.7009726762771606,-0.068172238767147,-0.1567755043506622,-0.4273358881473541,0.1906745135784149,0.0,0.0,0.4175186157226562,-0.2471917867660522
-0.1284424811601638,0.6976933479309082,-0.0543299838900566,-0.1431872248649597,-0.4180799424648285,0.185119166970253,0.0,0.0,-0.0815409421920776,-0.7163466811180115
-0.1290685683488845,0.6940588355064392,-0.0725214928388595,-0.1586339175701141,-0.4074021577835083,0.2135556191205978,0.0,0.0,-0.1174942851066589,-0.53678297996521
-0.1298360824584961,0.6900428533554077,-0.0872555822134018,-0.175510436296463,-0.3961351215839386,0.2253409624099731,0.0,0.0,0.455963134765625,-0.0941202640533447
-0.130604550242424,0.6861172318458557,-0.0869206115603447,-0.1716990172863006,-0.3853852450847626,0.2149979174137115,0.0,0.0,0.2821755409240722,-0.0082307457923889
-0.131334975361824,0.6821088194847107,-0.0830394029617309,-0.175488069653511,-0.3747634887695312,0.2124348580837249,0.0,0.0,-0.5708062052726746,0.1752328872680664
-0.1321702003479004,0.6776962280273438,-0.0932107120752334,-0.1936003118753433,-0.3645062148571014,0.2051456421613693,0.0,0.0,0.6028907299041748,-0.1061176061630249
-0.1328423470258712,0.6739625930786133,-0.0765703469514846,-0.1635953783988952,-0.3546427488327026,0.1972692906856537,0.0,0.0,-0.5285617113113403,0.1274803876876831
-0.1336173117160797,0.6698247194290161,-0.0865386128425598,-0.1817054152488708,-0.3451270163059234,0.1903145164251327,0.0,0.0,-0.8211655616760254,-0.3645196557044983
-0.134493738412857,0.6652822494506836,-0.0963968634605407,-0.1998144090175628,-0.33595010638237,0.18353833258152,0.0,0.0,-0.3391891717910766,-0.4542112946510315
-0.1354704797267913,0.6603352427482605,-0.1061393171548843,-0.2179224342107772,-0.3271026611328125,0.1769485622644424,0.0,0.0,0.342046856880188,-0.4759427905082702
-0.136308953166008,0.6558799147605896,-0.0921686291694641,-0.1961602121591568,-0.3184234201908111,0.1735846549272537,0.0,0.0,-0.752339243888855,0.3806880712509155
-0.1372448951005935,0.6510196328163147,-0.1016619950532913,-0.2142665982246399,-0.3100538551807403,0.1673909723758697,0.0,0.0,-0.5254802703857422,0.1554362773895263
-0.1382771432399749,0.645754337310791,-0.111021876335144,-0.2323720902204513,-0.301983505487442,0.1614070832729339,0.0,0.0,-0.5286409854888916,-0.4703300595283508
-0.1394042074680328,0.6400837898254395,-0.1202423125505447,-0.2504767477512359,-0.2942014634609222,0.1556407213211059,0.0,0.0,-0.9115077257156372,-0.9081709384918212
-0.1406830847263336,0.634035050868988,-0.136698693037033,-0.267082005739212,-0.2851175963878631,0.1816776096820831,0.0,0.0,-0.8350775241851807,-0.8897872567176819
-0.1421196907758712,0.6276015639305115,-0.1539356261491775,-0.2839690744876861,-0.2745724022388458,0.210903137922287,0.0,0.0,-0.9914758205413818,-0.0173431634902954
-0.143646240234375,0.6207633018493652,-0.1627039313316345,-0.3020760416984558,-0.2642806768417358,0.2058345824480056,0.0,0.0,0.5012693405151367,0.1899784803390503
-0.1449963599443435,0.6142191290855408,-0.1454523354768753,-0.2890091836452484,-0.2536115944385528,0.2133818119764328,0.0,0.0,-0.5061032176017761,0.126088261604309
-0.1464326828718185,0.6072700023651123,-0.1538884192705154,-0.3071155250072479,-0.2431708872318267,0.2088143527507782,0.0,0.0,-0.9040586948394777,0.690474271774292
-0.1479003876447677,0.5999010801315308,-0.1554746627807617,-0.3260946571826935,-0.2343223243951797,0.1769711822271347,0.0,0.0,0.8558335304260254,0.839195728302002
-0.1491502821445465,0.5933395624160767,-0.1319225132465362,-0.2905390858650207,-0.2272894829511642,0.1406567990779876,0.0,0.0,-0.9791114926338196,0.1301727294921875
-0.1504808366298675,0.5863720774650574,-0.1398153603076934,-0.3086389601230621,-0.2204452455043792,0.1368846893310547,0.0,0.0,-0.919938325881958,0.4953255653381347
-0.1518899947404861,0.5789986848831177,-0.1475168764591217,-0.3267382681369781,-0.2137759178876876,0.1333865076303482,0.0,0.0,-0.6111745834350586,0.7560606002807617
-0.1533228904008865,0.5711995959281921,-0.1483536809682846,-0.3459004461765289,-0.208657905459404,0.102360226213932,0.0,0.0,-0.9702007174491882,0.8721177577972412
-0.1547517776489257,0.5629798173904419,-0.145847886800766,-0.3649083375930786,-0.205679789185524,0.0595627538859844,0.0,0.0,-0.9258790016174316,0.8731201887130737
-0.1561882048845291,0.5543327927589417,-0.1447876393795013,-0.3841519951820373,-0.2045222222805023,0.0231511928141117,0.0,0.0,-0.4242846369743347,0.4742492437362671
-0.1576946228742599,0.5452790856361389,-0.1516734957695007,-0.4022464156150818,-0.2034833431243896,0.0207778364419937,0.0,0.0,-0.9521979689598083,0.6294525861740112
-0.159212589263916,0.5358044505119324,-0.1512940376996994,-0.4211663603782654,-0.2039947360754013,-0.0102279772982001,0.0,0.0,-0.7965349555015564,0.6995992660522461
-0.1607460081577301,0.5259125828742981,-0.1514788717031479,-0.4398947060108185,-0.2058739960193634,-0.037585511803627,0.0,0.0,-0.9241690039634703,-0.368701696395874
-0.1623425483703613,0.5156139135360718,-0.1577097773551941,-0.4579886198043823,-0.2078292518854141,-0.0391050055623054,0.0,0.0,-0.522986114025116,0.6286753416061401
-0.1639533936977386,0.5048917531967163,-0.1578866094350814,-0.4769968688488006,-0.2110599130392074,-0.0646132081747055,0.0,0.0,0.7347507476806641,0.88951575756073
-0.1655545234680175,0.4947105646133423,-0.154872328042984,-0.4532524049282074,-0.2163470685482025,-0.1057432070374488,0.0,0.0,-0.2018221616744995,0.9144439697265624
-0.1671587973833084,0.4841035604476928,-0.1537958532571792,-0.4724120497703552,-0.2230504155158996,-0.1340669691562652,0.0,0.0,-0.0740781426429748,0.6278433799743652
-0.1687589585781097,0.4730743765830993,-0.1519072949886322,-0.4914288520812988,-0.23125821352005,-0.1641560643911361,0.0,0.0,0.7432754039764404,-0.9234562516212464
-0.1703225076198578,0.4621998369693756,-0.1502034217119217,-0.4842957556247711,-0.2375076413154602,-0.124988853931427,0.0,0.0,0.6916830539703369,-0.1457708477973938
-0.1716063469648361,0.4520050883293152,-0.1229123696684837,-0.4539950489997864,-0.2430634945631027,-0.1111171469092369,0.0,0.0,0.9866783618927002,-0.9100549221038818
-0.1728091239929199,0.4428061842918396,-0.1165977120399475,-0.409454882144928,-0.2468134611845016,-0.0749993547797203,0.0,0.0,0.9308352470397948,-0.7950133681297302
-0.1736946105957031,0.4346180856227875,-0.0868578478693962,-0.3641985952854156,-0.2485265582799911,-0.0342618450522422,0.0,0.0,0.9238061904907228,-0.8248628973960876
-0.1744238883256912,0.4269922971725464,-0.0731280297040939,-0.3388902544975281,-0.2483285516500473,0.0039599929004907,0.0,0.0,0.428053617477417,-0.6656091213226318
-0.1750746667385101,0.4200136959552765,-0.0666466504335403,-0.3098950982093811,-0.2467359453439712,0.0318518206477165,0.0,0.0,-0.6248056292533875,-0.6828001737594604
-0.1758076697587967,0.4126514196395874,-0.0761465653777122,-0.3267339766025543,-0.2438293397426605,0.0581320151686668,0.0,0.0,0.4969781637191772,-0.0653476119041442
-0.176403135061264,0.4054601788520813,-0.0628170520067215,-0.3190697431564331,-0.2405049949884414,0.0664868429303169,0.0,0.0,-0.6683574318885803,0.1477119922637939
-0.1770298928022384,0.3978618085384369,-0.0660444051027298,-0.337161123752594,-0.2370895892381668,0.0683080703020095,0.0,0.0,0.1097382307052612,0.7298997640609741
-0.1776446402072906,0.3903727233409881,-0.0633986741304397,-0.3325356841087341,-0.2351316660642624,0.0391584411263465,0.0,0.0,0.5569851398468018,0.4103944301605224
-0.1781820356845855,0.3832584321498871,-0.055684857070446,-0.3158831894397735,-0.2331557124853134,0.0395190715789794,0.0,0.0,0.4692803621292114,-0.5436244606971741
-0.1786518990993499,0.376434326171875,-0.0501903668045997,-0.3027888834476471,-0.2299030870199203,0.0650523900985717,0.0,0.0,0.6324877738952637,0.4128438234329223
-0.1789373457431793,0.3696777820587158,-0.0324716046452522,-0.2996836006641388,-0.2259225398302078,0.079610988497734,0.0,0.0,-0.9229521751403807,0.1514345407485962
-0.179242804646492,0.3625140190124511,-0.0346202068030834,-0.3177745640277862,-0.2218020111322403,0.0824108719825744,0.0,0.0,-0.2515220642089844,0.6621074676513672
-0.1795122176408767,0.3549310863018036,-0.0297914948314428,-0.3365944325923919,-0.218917042016983,0.0576992705464363,0.0,0.0,-0.2600502967834472,0.7895996570587158
