x_pos,y_pos,x_vel,y_vel,angle,ang_vel,leg_1,leg_2,main_booster,lat_booster
-0.0016031265258789,1.4033241271972656,-0.1624180823564529,-0.3376013934612274,0.0018853261135518,0.0371989421546459,0.0,0.0,0.0135645928992249,0.9789089526595212
-0.003169345902279,1.3958709239959717,-0.1565726101398468,-0.3312536180019378,0.0018356954678893,-0.0009921659948304,0.0,0.0,0.9479446425943896,0.8351065343784375
-0.0045743943192064,1.38882577419281,-0.1392359286546707,-0.3131150901317596,0.0005878962692804,-0.0249581132084131,0.0,0.0,-0.1460558655031802,0.7687318569350141
-0.0060039521194994,1.3814777135849,-0.1405270248651504,-0.3265832364559173,-0.0018175751902163,-0.048114039003849,0.0,0.0,-0.0027633622702836,0.6926318724108533
-0.0074379919096827,1.3738315105438232,-0.1393650472164154,-0.3398453593254089,-0.0058217975310981,-0.0800918415188789,0.0,0.0,0.6185974966347141,0.7255066994870096
-0.0087326047942042,1.366680383682251,-0.1243441924452781,-0.3178561925888061,-0.0108801117166876,-0.1011755466461181,0.0,0.0,0.7764957759600251,0.6833323206381479
-0.0100584030151367,1.3601601123809814,-0.1260932385921478,-0.2898515462875366,-0.0172908902168273,-0.1282273977994918,0.0,0.0,0.7495347701146549,0.8618455980682491
-0.0111920358613133,1.3543636798858645,-0.1055591702461242,-0.2577270269393921,-0.0250097326934337,-0.1543914526700973,0.0,0.0,-0.1601493610101079,0.9585508614252438
-0.0123112676665186,1.3482751846313477,-0.1023104414343833,-0.2707788646221161,-0.0345214903354644,-0.1902526617050171,0.0,0.0,0.7252735923138869,0.8889068662700923
-0.0133919715881347,1.343027114868164,-0.0967384353280067,-0.233546569943428,-0.0457276478409767,-0.2241435796022415,0.0,0.0,0.3300783174501147,0.6972569279701961
-0.0143723487854003,1.338188886642456,-0.085523173213005,-0.2154632061719894,-0.058116253465414,-0.247794896364212,0.0,0.0,0.7042879440538883,-0.6079058054486388
-0.0153410909697413,1.3338639736175537,-0.0858583599328994,-0.1926795691251754,-0.0690271332859993,-0.2182376384735107,0.0,0.0,-0.7945502811868899,-0.8558787648779225
-0.0164097789674997,1.3292497396469116,-0.0972834303975105,-0.2055447250604629,-0.0785382837057113,-0.1902404129505157,0.0,0.0,0.6537753546593961,-0.8572653193218324
-0.0174861904233694,1.324858784675598,-0.0999645963311195,-0.1955785304307937,-0.086150899529457,-0.152265653014183,0.0,0.0,-0.8310836442934868,-0.6936313234257605
-0.0186450965702533,1.3201802968978882,-0.1093460172414779,-0.2083195894956588,-0.0926394686102867,-0.1297833323478698,0.0,0.0,-0.7689211393432582,0.9020579283341954
-0.0197586063295602,1.3151799440383911,-0.102753460407257,-0.2227924168109893,-0.1011856943368911,-0.1709401905536651,0.0,0.0,-0.0353306479531565,-0.6866700137054421
-0.0209476463496685,1.3098942041397097,-0.1114271059632301,-0.2354433983564376,-0.1086085066199302,-0.1484696865081787,0.0,0.0,0.5084400166442835,-0.9733208664606194
-0.0220601074397563,1.3047988414764404,-0.1059522852301597,-0.2268566638231277,-0.1138812899589538,-0.105465292930603,0.0,0.0,-0.849909661840522,0.8209260983015594
-0.0231249816715717,1.2993980646133425,-0.0993429496884346,-0.2405882626771927,-0.1209876388311386,-0.1421397030353546,0.0,0.0,0.3662524112707364,-0.8458560665793914
-0.02429885789752,1.2944198846817017,-0.1119238585233688,-0.2217097729444503,-0.1264301091432571,-0.108859121799469,0.0,0.0,0.2485524940046237,-0.7186946750752603
-0.0253700260072946,1.2899821996688845,-0.1033152788877487,-0.1975596100091934,-0.1302300989627838,-0.0760066658258438,0.0,0.0,-0.3399675759370977,0.9931823313564
-0.0263798721134662,1.285223126411438,-0.0952077433466911,-0.2120336890220642,-0.1359942555427551,-0.1152932271361351,0.0,0.0,-0.0725598747357998,-0.830234092253655
-0.0274546630680561,1.2801731824874878,-0.1030707582831382,-0.224851980805397,-0.140398234128952,-0.0880876705050468,0.0,0.0,-0.3058008064961635,-0.7826447490437974
-0.0285951606929302,1.2748258113861084,-0.1110641583800315,-0.2379480898380279,-0.1433679014444351,-0.0593986324965953,0.0,0.0,0.2644043131157836,-0.6900875845131733
-0.0298465732485055,1.2699487209320068,-0.1234209164977073,-0.2169234007596969,-0.1450804322957992,-0.0342538431286811,0.0,0.0,0.8854513089518044,-0.8828857280402702
-0.0312376022338867,1.2660019397735596,-0.1388754844665527,-0.1754331886768341,-0.1453135460615158,-0.0046623302623629,0.0,0.0,-0.8745586609550262,0.9628432884817242
-0.0325530059635639,1.2617441415786743,-0.1294193267822265,-0.1894465088844299,-0.1474290490150451,-0.0423101000487804,0.0,0.0,0.3493030796100549,-0.6440957821348885
-0.0339330658316612,1.2582298517227173,-0.1370124816894531,-0.1562962383031845,-0.1484167426824569,-0.0197538398206233,0.0,0.0,-0.8983125577684021,-0.8443187810086569
-0.0353870391845703,1.2544398307800293,-0.1465153992176056,-0.168332889676094,-0.1472974121570587,0.0223865769803524,0.0,0.0,-0.9489020033520958,0.8413784092830643
-0.0367690101265907,1.2503321170806885,-0.1377406418323516,-0.1826102137565612,-0.1477565914392471,-0.0091836592182517,0.0,0.0,-0.4905681240437967,0.8083313192029085
-0.0380731597542762,1.2459185123443604,-0.1283336132764816,-0.1963705569505691,-0.1498323678970337,-0.0415154173970222,0.0,0.0,-0.4288830553367391,-0.9483122452926864
-0.0394469276070594,1.241217851638794,-0.1374778151512146,-0.2089047580957412,-0.1497253626585006,0.0021399799734354,0.0,0.0,-0.3334309513579816,0.7273508420434454
-0.0407533645629882,1.2362124919891355,-0.1295355260372162,-0.2225731760263443,-0.1508279740810394,-0.0220521781593561,0.0,0.0,0.2888108474420354,0.8644088284189497
-0.0419867523014545,1.231313705444336,-0.1204942911863327,-0.2180172801017761,-0.1536704897880554,-0.0568503960967063,0.0,0.0,0.420507507191145,-0.7490985251888087
-0.0431575775146484,1.2269253730773926,-0.1158021911978721,-0.1951670497655868,-0.1549503058195114,-0.0255963318049907,0.0,0.0,-0.2199359896285435,-0.8938190736444084
-0.044369887560606,1.2222591638565063,-0.1217253357172012,-0.2073362320661544,-0.154454693198204,0.0099122142419219,0.0,0.0,-0.2658273676741292,0.6287887605627666
-0.0455076210200786,1.2172784805297852,-0.1130950823426246,-0.2214390933513641,-0.1551287025213241,-0.0134800542145967,0.0,0.0,0.2082215430026612,-0.8436782213915366
-0.0465624816715717,1.212836742401123,-0.1065589785575866,-0.1973021030426025,-0.1540549844503402,0.0214741174131631,0.0,0.0,0.7236625047443284,-0.6405499493077331
-0.0475428588688373,1.2094264030456543,-0.1003299579024314,-0.1513340920209884,-0.1517697125673294,0.045705396682024,0.0,0.0,-0.8227502534605202,0.6700945491712883
-0.0484336838126182,1.205703854560852,-0.0899882316589355,-0.1653482317924499,-0.1508569568395614,0.0182550735771656,0.0,0.0,0.6761026138605346,0.6027244650885606
-0.0492365844547748,1.2028729915618896,-0.0797484815120697,-0.1258701235055923,-0.1514057219028473,-0.0109755601733922,0.0,0.0,-0.9925362467765808,-0.4286791086196899
-0.0500007644295692,1.1997418403625488,-0.0758961588144302,-0.1392192095518112,-0.1519273221492767,-0.0104319248348474,0.0,0.0,-0.9212956428527832,-0.8896197080612183
-0.050783634185791,1.1963138580322266,-0.079278215765953,-0.1522529572248459,-0.1509361565113067,0.0198230203241109,0.0,0.0,-0.949985921382904,0.3460750579833984
-0.0515240654349327,1.1925854682922363,-0.0750594362616539,-0.1656021326780319,-0.1499212086200714,0.0202988572418689,0.0,0.0,-0.1094790697097778,0.1642603874206543
-0.0522204414010047,1.1885567903518677,-0.0706720501184463,-0.1789512932300567,-0.1488841772079467,0.0207403786480426,0.0,0.0,-0.8460749983787537,-0.7678126096725464
-0.0529273971915245,1.1842323541641235,-0.0731678754091262,-0.1919482201337814,-0.1464124321937561,0.0494345389306545,0.0,0.0,-0.8861852288246155,0.4634522199630737
-0.0535871498286724,1.179607629776001,-0.0684719532728195,-0.2052978724241256,-0.1439221203327179,0.0498063564300537,0.0,0.0,-0.8605828285217285,0.8278369903564453
-0.054144762456417,1.17467999458313,-0.0569332018494606,-0.218895822763443,-0.142756700515747,0.0233080796897411,0.0,0.0,-0.7251763939857483,0.6931345462799072
-0.0546097755432128,1.1694488525390625,-0.0465952269732952,-0.2324849516153335,-0.1426536291837692,0.0020615451503545,0.0,0.0,-0.7620630264282227,0.2510175704956054
-0.0550235733389854,1.1639173030853271,-0.041505042463541,-0.2458341717720031,-0.1425373405218124,0.0023257613647729,0.0,0.0,-0.6795241832733154,-0.1903266906738281
-0.0553853027522563,1.1580854654312134,-0.0363010838627815,-0.2591834366321563,-0.1424096971750259,0.0025531959254294,0.0,0.0,-0.9166414141654968,0.5157942771911621
-0.0556569099426269,1.1519486904144287,-0.0263736732304096,-0.2728195488452911,-0.1432033777236938,-0.0158735997974872,0.0,0.0,-0.8904534578323364,-0.5132299661636353
-0.055907629430294,1.1455157995224,-0.0251231901347637,-0.2858977615833282,-0.1431511640548706,0.0010446449741721,0.0,0.0,-0.8539981842041016,0.2773494720458984
-0.0561033263802528,1.1387827396392822,-0.0196280367672443,-0.2992470860481262,-0.1430932730436325,0.0011576933320611,0.0,0.0,-0.940371870994568,0.2471301555633545
-0.0562431327998638,1.131749153137207,-0.01405187882483,-0.3125963807106018,-0.1430317163467407,0.0012311651371419,0.0,0.0,-0.6575429439544678,0.0463882684707641
-0.0563265793025493,1.124415397644043,-0.0084024351090192,-0.3259457647800445,-0.1429685205221176,0.0012640836648643,0.0,0.0,-0.9749255776405334,-0.7250843644142151
-0.0564000122249126,1.116797924041748,-0.0086385123431682,-0.3384245634078979,-0.1416790932416916,0.0257881972938776,0.0,0.0,-0.8912797570228577,-0.5227178335189819
-0.0564471259713172,1.108889102935791,-0.0068062259815633,-0.3513040542602539,-0.1395857334136963,0.0418672412633895,0.0,0.0,-0.9107043743133544,0.307131290435791
-0.0564359650015831,1.1006799936294556,-0.0009815582307055,-0.3646539151668548,-0.1374970972537994,0.041772823780775,0.0,0.0,-0.8441351056098938,0.2610933780670166
-0.0563662536442279,1.0921705961227417,0.0048872497864067,-0.378003716468811,-0.1354153901338577,0.0416338816285133,0.0,0.0,-0.9081213474273682,-0.1497102975845337
-0.0562375076115131,1.0833609104156494,0.010793306864798,-0.3913535475730896,-0.1333429366350174,0.0414493605494499,0.0,0.0,-0.8806349039077759,0.3394460678100586
-0.0560495369136333,1.0742510557174685,0.0167298652231693,-0.4047034382820129,-0.1312820315361023,0.0412181988358497,0.0,0.0,-0.7965648174285889,-0.295947253704071
-0.0558020584285259,1.0648407936096191,0.0226903147995471,-0.4180532991886139,-0.1292350590229034,0.0409393087029457,0.0,0.0,-0.8603650331497192,-0.1633223295211792
-0.0554949752986431,1.0551302433013916,0.0286681707948446,-0.4314032196998596,-0.1272044628858566,0.0406116172671318,0.0,0.0,-0.7909215688705444,-0.3367149233818054
-0.0551281943917274,1.0451194047927856,0.034657072275877,-0.4447531104087829,-0.1251927614212036,0.0402340814471244,0.0,0.0,-0.9758232831954956,0.0158275365829467
-0.0547017082571983,1.0348083972930908,0.0406507775187492,-0.4581030607223511,-0.1232024878263473,0.0398056469857692,0.0,0.0,-0.9432571530342102,-0.1890590190887451
-0.0542154312133789,1.024196982383728,0.0466431342065334,-0.4714529812335968,-0.1212362200021743,0.0393252708017826,0.0,0.0,-0.9671050310134888,-0.7636935114860535
-0.0537221916019916,1.0132858753204346,0.046053159981966,-0.4846773445606231,-0.1179839149117469,0.0650461167097091,0.0,0.0,-0.972802758216858,0.2037081718444824
-0.0531695373356342,1.0020745992660522,0.0520246997475624,-0.498027890920639,-0.1147609800100326,0.0644587948918342,0.0,0.0,-0.9341002702713012,-0.5460807681083679
-0.0526074394583702,0.9905694127082824,0.0517301633954048,-0.5110050439834595,-0.110311210155487,0.0889953598380088,0.0,0.0,-0.9874528050422668,-0.0007057785987854
-0.0519864074885845,0.9787642359733582,0.0576574280858039,-0.5243563652038574,-0.1058963388204574,0.0882972106337547,0.0,0.0,-0.9536937475204468,0.1375342607498169
-0.0513068214058876,0.9666590094566344,0.0635540708899498,-0.5377076268196106,-0.1015191748738288,0.087543286383152,0.0,0.0,-0.9274298548698424,0.1721251010894775
-0.0505688674747943,0.954253613948822,0.0694144815206527,-0.5510590076446533,-0.0971825569868087,0.0867325440049171,0.0,0.0,-0.9745513796806335,0.4279015064239502
-0.0497732162475585,0.941548228263855,0.0752331316471099,-0.5644103288650513,-0.0928893908858299,0.0858632177114486,0.0,0.0,-0.972914218902588,-0.2598088979721069
-0.0489203445613384,0.9285427331924438,0.081004574894905,-0.5777616500854492,-0.0886425897479057,0.0849359706044197,0.0,0.0,-0.9682554602622986,-0.5236818194389343
-0.0480477325618267,0.9152365326881408,0.0820962041616439,-0.5910859704017639,-0.0835211649537086,0.1024282127618789,0.0,0.0,-0.9781087636947632,0.0840760469436645
-0.0471189506351947,0.9016303420066832,0.0877570584416389,-0.6044379472732544,-0.0784519538283348,0.101384088397026,0.0,0.0,-0.96205735206604,-0.0641997456550598
-0.0461347587406635,0.8877243399620056,0.0933548286557197,-0.6177898049354553,-0.0734378769993782,0.1002815589308738,0.0,0.0,-0.9325457215309144,0.0399696826934814
-0.0450958237051963,0.8735184073448181,0.0988843590021133,-0.6311416625976562,-0.0684818476438522,0.0991207733750343,0.0,0.0,-0.925552487373352,-0.2008280754089355
-0.0440029129385948,0.8590123057365417,0.1043405979871749,-0.6444934606552124,-0.0635867416858673,0.0979021191596984,0.0,0.0,-0.9103204011917114,-0.3398643732070923
-0.0428568832576274,0.8442063331604004,0.1097185835242271,-0.6578451991081238,-0.0587554387748241,0.0966260954737663,0.0,0.0,-0.9012655019760132,-0.642808198928833
-0.0417057052254676,0.8291104435920715,0.10909104347229,-0.6707092523574829,-0.0527959018945694,0.1191906705498695,0.0,0.0,-0.8722366690635681,-0.1503921151161193
-0.0405031219124794,0.8137145638465881,0.1142980009317398,-0.6840620636940002,-0.0469057969748973,0.1178019270300865,0.0,0.0,-0.9245826601982116,-0.0343917608261108
-0.039250086992979,0.7980186939239502,0.1194124445319175,-0.6974146366119385,-0.041087869554758,0.1163583397865295,0.0,0.0,-0.8665680885314941,-0.049103558063507
-0.0379477515816688,0.7820231318473816,0.1244298666715622,-0.7107671499252319,-0.0353448130190372,0.1148610264062881,0.0,0.0,-0.8564280271530151,0.0903283357620239
-0.0365968719124794,0.7657276391983032,0.1293458640575409,-0.7241196036338806,-0.029679249972105,0.1133113056421279,0.0,0.0,-0.8889089822769165,0.1954303979873657
-0.0351987853646278,0.7491323947906494,0.1341561824083328,-0.737471878528595,-0.0240937191992998,0.1117106527090072,0.0,0.0,-0.8185127973556519,0.4162697792053222
-0.033754538744688,0.7322370409965515,0.1388566792011261,-0.7508240938186646,-0.0185906887054443,0.1100606918334961,0.0,0.0,-0.8714868426322937,0.1546827554702758
-0.0322651863098144,0.7150417566299438,0.1434433907270431,-0.7641761898994446,-0.0131725464016199,0.1083631068468093,0.0,0.0,-0.8756020069122314,0.0942509174346923
-0.0307320598512887,0.6975464224815369,0.1479125469923019,-0.7775281071662903,-0.0078415516763925,0.1066197901964187,0.0,0.0,-0.7999508380889893,-0.0594894886016845
-0.0291563030332326,0.6797511577606201,0.1522605419158935,-0.790880024433136,-0.0025999231729656,0.1048326045274734,0.0,0.0,-0.8224574327468872,0.0669735670089721
-0.0275392532348632,0.6616559028625488,0.1564839482307434,-0.8042317032814026,0.0025502585340291,0.1030036062002182,0.0,0.0,-0.8921297788619995,-0.7076753377914429
-0.0259265899658203,0.6432632803916931,0.1550057381391525,-0.8174746632575989,0.0087231192737817,0.1234574690461158,0.0,0.0,-0.75925612449646,0.5583264827728271
-0.0242237094789743,0.6245653033256531,0.1654462069272995,-0.8310505747795105,0.0135046243667602,0.095629945397377,0.0,0.0,-0.4501538276672363,-0.32358318567276
-0.0224835388362407,0.6055675148963928,0.1692775040864944,-0.8444017171859741,0.0181890279054641,0.0936881601810455,0.0,0.0,0.3577859401702881,-0.0445377230644226
-0.0206506736576557,0.5873347520828247,0.1783142387866974,-0.8104090094566345,0.0230964161455631,0.098147727549076,0.0,0.0,-0.2469967603683471,-0.6744375824928284
-0.0188386924564838,0.5687999725341797,0.174917459487915,-0.8238779306411743,0.0292967371642589,0.1240064054727554,0.0,0.0,0.5883214473724365,-0.1926006078720092
-0.0171356201171875,0.5511066317558289,0.1646986901760101,-0.7864893674850464,0.0348418839275836,0.1109031438827514,0.0,0.0,-0.325633704662323,0.0004233121871948
-0.0154007915407419,0.5331133604049683,0.1679733395576477,-0.799841046333313,0.0402839630842208,0.108841523528099,0.0,0.0,0.7111479043960571,-0.3079029321670532
-0.0137224197387695,0.5159812569618225,0.1626968830823898,-0.7615717649459839,0.0453652031719684,0.1016246229410171,0.0,0.0,-0.0587051510810852,-0.2065666913986206
-0.0120152477174997,0.4985491335391998,0.1656834334135055,-0.7749230265617371,0.0503410100936889,0.0995160788297653,0.0,0.0,0.3382478952407837,-0.159903883934021
-0.0103211402893066,0.4814196228981018,0.1645781844854354,-0.7614814639091492,0.0551171451807022,0.0955226272344589,0.0,0.0,0.5853050947189331,-0.5669327974319458
-0.0087982174009084,0.4648412764072418,0.1467306464910507,-0.7370322942733765,0.0606147535145282,0.1099520549178123,0.0,0.0,0.2015047073364257,-0.2455436587333679
-0.0073831556364893,0.448523074388504,0.1365619003772735,-0.725458562374115,0.0654979348182678,0.0976636856794357,0.0,0.0,0.5583102703094482,0.151219367980957
-0.005889892578125,0.4329292178153991,0.1440330445766449,-0.6933037042617798,0.0707343146204948,0.1047279611229896,0.0,0.0,0.1494272947311401,0.6186801195144653
-0.0042966841720044,0.4174240529537201,0.1553123742341995,-0.6893128752708435,0.0747025161981582,0.0793642550706863,0.0,0.0,-0.0782530903816223,0.0957171916961669
-0.00268344883807,0.4016185998916626,0.1574243605136871,-0.7026628255844116,0.0785605981945991,0.0771616026759147,0.0,0.0,0.2361983060836792,-0.4521117210388183
-0.0011143684387207,0.3863791525363922,0.1532106846570968,-0.677507221698761,0.0822288393974304,0.0733647793531417,0.0,0.0,0.595189094543457,0.054828405380249
0.0005414962652139,0.3720898628234863,0.161349281668663,-0.6353203058242798,0.0864232778549194,0.083888791501522,0.0,0.0,-0.5541588068008423,0.0142903327941894
0.0022130012512207,0.357500284910202,0.1630338728427887,-0.6486703753471375,0.090506337583065,0.0816610306501388,0.0,0.0,-0.2052593231201172,-0.3958343863487243
0.0038988112937659,0.3426103591918945,0.1645795553922653,-0.6620202660560608,0.0944777205586433,0.079427495598793,0.0,0.0,0.5083713531494141,-0.6032431125640869
0.0055418969132006,0.3285011053085327,0.1590677350759506,-0.6274195313453674,0.099672757089138,0.1039008349180221,0.0,0.0,0.4658151865005493,-0.1757416725158691
0.0072272298857569,0.3147094547748565,0.1630766242742538,-0.6133342981338501,0.1050863787531852,0.1082724705338478,0.0,0.0,0.1685377359390258,0.1158945560455322
0.0087908748537302,0.3012564182281494,0.1514347344636917,-0.5982676148414612,0.1099875718355178,0.098023921251297,0.0,0.0,0.3482663631439209,0.2621166706085205
0.0102134700864553,0.2881122529506683,0.1379169523715973,-0.5845121741294861,0.1142918616533279,0.0860857293009758,0.0,0.0,0.1924881935119629,0.0295215845108032
0.011581802740693,0.2752714157104492,0.1326979249715805,-0.5710257291793823,0.1184118688106536,0.0824000164866447,0.0,0.0,0.5731897354125977,0.1290444135665893
0.0129214283078908,0.2628912627696991,0.1298103183507919,-0.5505629777908325,0.1225338131189346,0.0824389681220054,0.0,0.0,0.0725572109222412,0.4050894975662231
0.0143219949677586,0.250573992729187,0.13563272356987,-0.5478075742721558,0.1269355565309524,0.0880347937345504,0.0,0.0,0.627816915512085,0.245096206665039
0.0157368667423725,0.2389769703149795,0.1367281079292297,-0.5158320665359497,0.131669133901596,0.0946714803576469,0.0,0.0,0.5551632642745972,0.4360933303833008
0.0170785896480083,0.2282135039567947,0.1294254064559936,-0.478803813457489,0.1363994926214218,0.0946072116494178,0.0,0.0,0.7626018524169922,0.0792828798294067
0.018444538116455,0.2176582664251327,0.1316463500261306,-0.4695842862129211,0.1413318067789077,0.0986460000276565,0.0,0.0,0.5642962455749512,0.3866856098175049
