x_pos,y_pos,x_vel,y_vel,angle,ang_vel,leg_1,leg_2,main_booster,lat_booster
-0.0015293121105059,1.4034847021102903,-0.1550605744123459,-0.3304583132266998,0.0019060289487242,0.0376088880002498,0.0,0.0,-0.406374801913381,0.6849712222290456
-0.0030063628219068,1.3959296941757202,-0.1482204347848892,-0.3357774019241333,0.0024140153545886,0.0101613346487283,0.0,0.0,0.6543694401322406,0.7504001845620735
-0.0042848587036132,1.3888366222381592,-0.1273001432418823,-0.3152462542057037,0.0018638671608641,-0.0110039841383695,0.0,0.0,0.7122235122114575,0.96956924126663
-0.0056332587264478,1.3823771476745603,-0.1322301775217056,-0.2870875895023346,-0.0007150994497351,-0.0515841916203498,0.0,0.0,0.6608382898369258,0.7476787768799222
-0.0067869187332689,1.3767635822296145,-0.1116658225655555,-0.2495030611753463,-0.0043729310855269,-0.0731636956334114,0.0,0.0,-0.517894601514866,-0.6924490505251242
-0.0079896925017237,1.3710094690322876,-0.1177393570542335,-0.2557454407215118,-0.0068858382292091,-0.0502628199756145,0.0,0.0,-0.0461688222365705,0.9591950727187134
-0.009127140045166,1.3651151657104492,-0.1094367876648902,-0.2619914412498474,-0.0111494855955243,-0.0852806493639946,0.0,0.0,0.2583726262507879,0.8452851188936021
-0.0100698471069335,1.359820008277893,-0.0884618461132049,-0.2353993058204651,-0.0168880820274353,-0.1147825494408607,0.0,0.0,0.9326935844898664,-0.8298571795540021
-0.011084365658462,1.3558645248413086,-0.0973382890224456,-0.1758527159690857,-0.0209548845887184,-0.0813436210155487,0.0,0.0,0.5545525762946182,-0.7567102523115877
-0.0121529577299952,1.352800965309143,-0.1043112054467201,-0.1361996382474899,-0.0234708953648805,-0.0503245964646339,0.0,0.0,0.1220203051002337,-0.6401781698810032
-0.0132049564272165,1.350203037261963,-0.1040852069854736,-0.1154849454760551,-0.0245763380080461,-0.0221110954880714,0.0,0.0,-0.130258107314374,-0.7296241943754405
-0.0143162729218602,1.3474655151367188,-0.1113446205854415,-0.1216562315821647,-0.0243673846125602,0.0041794367134571,0.0,0.0,0.5062488043902957,-0.9313696671853082
-0.0153594966977834,1.3455475568771362,-0.1065975278615951,-0.0852146446704864,-0.0221183020621538,0.0449857786297798,0.0,0.0,0.0447355154450828,0.9785908020091908
-0.0162772182375192,1.3438129425048828,-0.0920897796750068,-0.0770877376198768,-0.0218042563647031,0.0062814690172672,0.0,0.0,-0.586423688332957,0.758762539757149
-0.0171300880610942,1.3419442176818848,-0.0837391763925552,-0.0830804333090782,-0.0233285725116729,-0.03048912063241,0.0,0.0,-0.2267447679404108,-0.650496792861414
-0.0180342681705951,1.3399295806884766,-0.0899474769830703,-0.0895448848605156,-0.0237861443310976,-0.0091522801667451,0.0,0.0,-0.5934445533494237,0.6892862602181019
-0.0188807491213083,1.3377809524536133,-0.0824917703866958,-0.0955290496349334,-0.0259199906140565,-0.0426808409392833,0.0,0.0,0.9578304600304506,0.8391823294060305
-0.0194745063781738,1.33614182472229,-0.0559458322823047,-0.0729188472032547,-0.0293228309601545,-0.0680630058050155,0.0,0.0,0.0213259844482829,-0.6731148388323049
-0.0200477596372365,1.335112690925598,-0.0552983507513999,-0.0457847751677036,-0.0313290730118751,-0.0401282683014869,0.0,0.0,-0.8913131579933207,-0.6720804767058337
-0.0206910129636526,1.3339462280273438,-0.0638058856129646,-0.0518534146249294,-0.0318339802324771,-0.0100990338250994,0.0,0.0,-0.877692107326187,0.7740118966442264
-0.0212697982788085,1.3326423168182373,-0.0554668195545673,-0.058004755526781,-0.034218568354845,-0.0476962700486183,0.0,0.0,-0.0867924932306392,-0.8901614934905085
-0.0219275467097759,1.3311972618103027,-0.0650963932275772,-0.0642400085926055,-0.0348886549472808,-0.0134029686450958,0.0,0.0,0.6839724493248136,-0.7315295566802381
-0.0224891658872365,1.3304388523101809,-0.0572275035083293,-0.0336788445711135,-0.0338288359344005,0.0211981479078531,0.0,0.0,0.7276781650248878,-0.621441374920387
-0.0230204574763774,1.330021858215332,-0.0556149296462535,-0.0184845346957445,-0.0313679166138172,0.0492227859795093,0.0,0.0,0.6090362498279374,-0.99503015768229
-0.0237777717411518,1.330418825149536,-0.0800158232450485,0.0177257340401411,-0.0271350387483835,0.0846651867032051,0.0,0.0,-0.7704379779810557,-0.983868617041474
-0.0246423725038766,1.3306641578674316,-0.0931776911020279,0.0110123408958315,-0.0205061789602041,0.1325770914554596,0.0,0.0,0.6497076242486548,0.947141960977716
-0.0254231449216604,1.3318617343902588,-0.0828495398163795,0.0532797835767269,-0.0157924480736255,0.0942749977111816,0.0,0.0,-0.5731076319832278,0.6966537598392241
-0.0261709205806255,1.3329260349273682,-0.078424759209156,0.0473363324999809,-0.0122027527540922,0.0717939883470535,0.0,0.0,-0.0062018776282579,0.8039089366109875
-0.0268793106079101,1.3338563442230225,-0.0731686800718307,0.0413734540343284,-0.0099064335227012,0.0459263697266578,0.0,0.0,0.7436410217505742,0.6191181615887534
-0.0275680534541606,1.335416555404663,-0.0698431804776191,0.0693420395255088,-0.0089436890557408,0.0192545503377914,0.0,0.0,-0.510648440883497,-0.9448001775076826
-0.0283396728336811,1.3368486166000366,-0.0799332559108734,0.0636636391282081,-0.0062038586474955,0.0547965988516807,0.0,0.0,0.901624072607596,-0.6673826426257166
-0.0292677879333496,1.3388952016830444,-0.0966473594307899,0.0909770280122757,-0.0024238608311861,0.0756000503897667,0.0,0.0,-0.263849402445236,-0.7436992727611424
-0.0302735324949026,1.3408098220825195,-0.1060549765825271,0.0850937664508819,0.0029937261715531,0.1083516031503677,0.0,0.0,0.9346379060440956,0.7130977963083904
-0.0313151367008686,1.3432121276855469,-0.1079765111207962,0.1067520901560783,0.0067544626072049,0.0752148777246475,0.0,0.0,-0.4738392650018168,-0.8289154256460336
-0.0324312224984169,1.3454760313034058,-0.1170013546943664,0.1005855873227119,0.012076161801815,0.1064340099692344,0.0,0.0,-0.964707287957974,0.651444304548223
-0.0335048660635948,1.3476064205169678,-0.1113596335053443,0.0946479067206382,0.0160215739160776,0.0789081007242202,0.0,0.0,-0.3296741166065577,0.9730941814520404
-0.034515380859375,1.3495941162109375,-0.1031337231397628,0.0883179977536201,0.0180767215788364,0.0411030985414981,0.0,0.0,0.4981460145512077,-0.6564833836678002
-0.0355631820857524,1.3524821996688845,-0.1082222908735275,0.1283115446567535,0.0214766953140497,0.067999467253685,0.0,0.0,-0.491405526300934,-0.8621410962699126
-0.036694336682558,1.3552380800247192,-0.1183762699365615,0.122399590909481,0.026667732745409,0.1038205996155738,0.0,0.0,-0.5976405001580882,0.968216364159121
-0.0377559661865234,1.3578591346740725,-0.1093408241868019,0.1164251491427421,0.0298108961433172,0.0628633350133895,0.0,0.0,0.0762705333503952,-0.9610359071909124
-0.0390023216605186,1.3611021041870115,-0.1297487169504165,0.1440233886241912,0.034853707998991,0.100856065750122,0.0,0.0,-0.3966647386550903,0.8141796588897705
-0.0401816368103027,1.3642078638076782,-0.1210355162620544,0.1379598975181579,0.0379212647676467,0.0613510236144065,0.0,0.0,-0.2109261751174926,0.332319974899292
-0.0413713455200195,1.3671741485595703,-0.122063472867012,0.1317531615495681,0.0409693419933319,0.0609617829322814,0.0,0.0,-0.3471088409423828,-0.0088151693344116
-0.0425715446472168,1.370000958442688,-0.1230924725532531,0.1255464255809784,0.0440029166638851,0.060671754181385,0.0,0.0,-0.3106449246406555,0.493552565574646
-0.0437821373343467,1.3726881742477417,-0.1241224631667137,0.119339682161808,0.0470274090766906,0.0604900307953357,0.0,0.0,-0.2862873673439026,0.4568203687667846
-0.0450031273066997,1.375235915184021,-0.1251533776521682,0.1131329238414764,0.0500486828386783,0.060425579547882,0.0,0.0,-0.3746028542518616,0.497532844543457
-0.0462343208491802,1.3776440620422363,-0.1261851340532302,0.1069261357188224,0.0530730299651622,0.0604871809482574,0.0,0.0,-0.1102275252342224,0.5316122770309448
-0.0474417693912982,1.379921317100525,-0.1229499727487564,0.1011245921254158,0.0552455969154834,0.0434514805674552,0.0,0.0,-0.3462110757827759,0.5920200347900391
-0.0486232750117778,1.3820669651031494,-0.1194255799055099,0.095318779349327,0.0565154552459716,0.0253971014171838,0.0,0.0,-0.3385165929794311,0.1671428680419922
-0.0498147010803222,1.38407301902771,-0.1204594373703002,0.0891125202178955,0.0578099116683006,0.0258892886340618,0.0,0.0,-0.2830650210380554,0.3648834228515625
-0.0510163307189941,1.385939598083496,-0.1214938163757324,0.0829062238335609,0.059137012809515,0.0265418980270624,0.0,0.0,-0.2990655899047851,0.3233616352081299
-0.052227783948183,1.3876667022705078,-0.1225286275148391,0.076699860394001,0.0605051554739475,0.0273630823940038,0.0,0.0,-0.2695291638374328,0.4922835826873779
-0.0534490570425987,1.389254093170166,-0.1235637664794921,0.0704934448003768,0.0619231909513473,0.0283607933670282,0.0,0.0,-0.2830157279968261,0.2306739091873169
-0.0546801574528217,1.3907018899917605,-0.1245991438627243,0.0642869621515274,0.0634003356099128,0.0295427199453115,0.0,0.0,-0.5062530040740967,0.5429235696792603
-0.0558672919869422,1.3920133113861084,-0.1189143806695938,0.058273758739233,0.0635984167456626,0.0039614564739167,0.0,0.0,-0.2183240056037902,-0.1930636763572693
-0.0570639595389366,1.393185019493103,-0.1199498921632766,0.0520673356950283,0.0638751164078712,0.0055337641388177,0.0,0.0,-0.2792810201644897,-0.2736009359359741
-0.0582701675593853,1.3942172527313232,-0.1209852322936058,0.0458608455955982,0.0642407014966011,0.0073117301799356,0.0,0.0,-0.2458621263504028,0.524940013885498
-0.059434700757265,1.395116925239563,-0.1156353130936622,0.040023136883974,0.0634207800030708,-0.0163983479142189,0.0,0.0,-0.3295156359672546,0.2633256912231445
-0.0606086738407611,1.395877242088318,-0.1166699156165123,0.0338164903223514,0.0627112910151481,-0.0141899408772587,0.0,0.0,-0.4319177865982055,-0.6779685616493225
-0.0618521682918071,1.3964980840682983,-0.1252967119216919,0.0275554321706295,0.0636422485113143,0.0186192505061626,0.0,0.0,-0.1763206124305725,0.4045827388763428
-0.0631047263741493,1.3969794511795044,-0.1263298690319061,0.02134863846004,0.064706303179264,0.0212809946388006,0.0,0.0,-0.2344192862510681,0.6043334007263184
-0.0643264800310134,1.3973281383514404,-0.1223839968442916,0.0154966013506054,0.0649116486310958,0.0041065802797675,0.0,0.0,-0.3454172611236572,0.0992647409439086
-0.0655570030212402,1.3975375890731812,-0.1234148368239402,0.0092897331342101,0.0652737021446228,0.0072410241700708,0.0,0.0,-0.4259614944458008,0.5437633991241455
-0.066751480102539,1.397612690925598,-0.1188486665487289,0.0033626405056566,0.0646795034408569,-0.0118838744238018,0.0,0.0,-0.4422467350959778,0.5739610195159912
-0.0679082870483398,1.3975484371185305,-0.1140965968370437,-0.0027840016409754,0.0631099939346313,-0.031390331685543,0.0,0.0,-0.149811565876007,-0.0151766538619995
-0.0690733939409256,1.397344946861267,-0.11512191593647,-0.0089912433177232,0.0617340691387653,-0.0275184568017721,0.0,0.0,-0.5738343596458435,0.598383903503418
-0.0701980590820312,1.3970134258270264,-0.1100310534238815,-0.0146357584744691,0.0593291297554969,-0.0480988845229148,0.0,0.0,-0.7921729683876038,0.4988279342651367
-0.0713307410478591,1.3965425491333008,-0.1110509783029556,-0.0208433475345373,0.0571430139243602,-0.0437225624918937,0.0,0.0,-0.7200704216957092,0.0491197109222412
-0.0724711418151855,1.3959321975708008,-0.1120675653219223,-0.02705086953938,0.0551884211599826,-0.0390918441116809,0.0,0.0,-0.8459163904190063,0.1899390220642089
-0.0736192688345909,1.3951826095581057,-0.1130803972482681,-0.0332583300769329,0.0534781217575073,-0.0342059060931205,0.0,0.0,-0.4738163948059082,0.1422964334487915
-0.0747748389840126,1.3942933082580566,-0.1140889301896095,-0.039465744048357,0.0520248934626579,-0.0290645603090524,0.0,0.0,-0.7090775966644287,0.1280285120010376
-0.0759377479553222,1.3932647705078125,-0.1150925904512405,-0.0456731133162975,0.0508414879441261,-0.023668136447668,0.0,0.0,-0.8581817746162415,0.8079493045806885
-0.0770578384399414,1.3921098709106443,-0.10982246696949,-0.0512654222548007,0.0486750602722168,-0.0433285646140575,0.0,0.0,-0.9638969302177428,0.4515082836151123
-0.0781849846243858,1.390815258026123,-0.1108144372701644,-0.057473037391901,0.0468038097023963,-0.0374251119792461,0.0,0.0,-0.9261154532432556,0.1133797168731689
-0.0793188065290451,1.3893812894821167,-0.1117995157837867,-0.0636805519461631,0.0452402681112289,-0.0312707647681236,0.0,0.0,-0.9659137725830078,0.0814852714538574
-0.080459214746952,1.387808084487915,-0.112776830792427,-0.069887988269329,0.0439968667924404,-0.0248679425567388,0.0,0.0,-0.939594030380249,0.5573325157165527
-0.0815639495849609,1.3860926628112793,-0.1084906235337257,-0.0761884376406669,0.0420361086726188,-0.0392153896391391,0.0,0.0,-0.980517566204071,0.7185072898864746
-0.0826189070940017,1.384247899055481,-0.1024383455514907,-0.081910453736782,0.0390092320740222,-0.0605373904109001,0.0,0.0,-0.9795531034469604,-0.4364452362060547
-0.0836798697710037,1.3822636604309082,-0.1033867374062538,-0.0881184116005897,0.0363388210535049,-0.0534083545207977,0.0,0.0,-0.967802345752716,0.0641312599182128
-0.0847463607788086,1.3801400661468506,-0.1043233498930931,-0.0943261533975601,0.0340365543961524,-0.0460451059043407,0.0,0.0,-0.9539308547973632,-0.0156226754188537
-0.0858182907104492,1.3778769969940186,-0.1052469164133071,-0.1005337163805961,0.0321139506995677,-0.0384522303938865,0.0,0.0,-0.9150893688201904,0.4193624258041382
-0.0868953689932823,1.3754745721817017,-0.1061560735106468,-0.1067410930991172,0.0305822174996137,-0.0306346714496612,0.0,0.0,-0.9648240208625792,0.0807908773422241
-0.0879773125052452,1.3729327917099,-0.1070494055747985,-0.1129483506083488,0.0294523369520902,-0.0225977636873722,0.0,0.0,-0.9531115889549256,0.7440828084945679
-0.0890104323625564,1.370257019996643,-0.1012182384729385,-0.118884652853012,0.0273893475532531,-0.0412597730755806,0.0,0.0,-0.9945358037948608,-0.1333469748497009
-0.0900477394461631,1.3674417734146118,-0.1020750775933265,-0.1250919997692108,0.0257492903620004,-0.032800979912281,0.0,0.0,-0.9817274808883668,0.3666441440582275
-0.091089054942131,1.3644870519638062,-0.1029110923409462,-0.1312991827726364,0.0245422795414924,-0.024140240624547,0.0,0.0,-0.975731074810028,0.515351414680481
-0.0920915603637695,1.3613892793655396,-0.0983990356326103,-0.1376448571681976,0.0227132309228181,-0.0365811437368392,0.0,0.0,-0.970655918121338,0.5141470432281494
-0.0930503830313682,1.3581500053405762,-0.0932916849851608,-0.1439301818609237,0.0201566834002733,-0.0511308014392852,0.0,0.0,-0.9967525005340576,-0.2049663662910461
-0.0940120667219162,1.354771375656128,-0.0940534919500351,-0.1501375287771225,0.0180615615099668,-0.04190244525671,0.0,0.0,-0.9960938096046448,0.1096503734588623
-0.0949764251708984,1.3512531518936155,-0.0947863310575485,-0.1563446074724197,0.0164366550743579,-0.0324981287121772,0.0,0.0,-0.999221920967102,0.6897684335708618
-0.0958888977766037,1.3476018905639648,-0.0887094810605049,-0.1622539311647415,0.0139312548562884,-0.0501079484820365,0.0,0.0,-0.9987705945968628,0.3703558444976806
-0.0968031883239746,1.34381103515625,-0.089377649128437,-0.1684610545635223,0.0119126522913575,-0.040372010320425,0.0,0.0,-0.9947814345359802,-0.4005391597747803
-0.0977186188101768,1.3398807048797607,-0.0900099948048591,-0.1746678948402404,0.0103886248543858,-0.030480533838272,0.0,0.0,-0.9771283864974976,0.7632358074188232
-0.0985644310712814,1.3358039855957031,-0.0817512273788452,-0.1811700463294983,0.0075949407182633,-0.0558737516403198,0.0,0.0,-0.9814935326576232,0.4389839172363281
-0.099410630762577,1.331587791442871,-0.082304909825325,-0.1873770356178283,0.0053103412501513,-0.0456917658448219,0.0,0.0,-0.9966537356376648,0.0050839185714721
-0.1002567261457443,1.327232003211975,-0.0828158110380172,-0.1935837268829345,0.0035415960010141,-0.0353747829794883,0.0,0.0,-0.9937694072723388,0.6107192039489746
-0.10105562210083,1.322736740112305,-0.0774522200226783,-0.1997858583927154,0.0011276555014774,-0.0482785776257514,0.0,0.0,-0.9936491847038268,0.2395429611206054
-0.1018534675240516,1.3181018829345703,-0.0778711438179016,-0.2059924155473709,-0.0007579308003187,-0.0377117320895195,0.0,0.0,-0.9944040775299072,0.3925033807754516
-0.1026494950056076,1.313327431678772,-0.0782411321997642,-0.2121987044811248,-0.0021094314288347,-0.0270298905670642,0.0,0.0,-0.9979367852211,0.6748917102813721
-0.1033946052193641,1.3084181547164917,-0.0724539309740066,-0.2181961685419082,-0.0041441768407821,-0.0406946279108524,0.0,0.0,-0.9979425668716432,-0.137965440750122
-0.1041369438171386,1.303369164466858,-0.0727211385965347,-0.2244023531675338,-0.0056342701427638,-0.0298020802438259,0.0,0.0,-0.9951410293579102,0.2879509925842285
-0.1048757582902908,1.2981805801391602,-0.0729350224137306,-0.2306082844734192,-0.0065749525092542,-0.0188135728240013,0.0,0.0,-0.9969555735588074,0.44426429271698
-0.1056107506155967,1.2928521633148191,-0.0730946511030197,-0.2368140816688537,-0.0069617037661373,-0.0077352421358227,0.0,0.0,-0.9970348477363586,0.1955082416534423
-0.1063409820199012,1.287384271621704,-0.0731994286179542,-0.2430197745561599,-0.0067903557792305,0.0034270156174898,0.0,0.0,-0.9989805817604064,0.7812211513519287
-0.1069932952523231,1.281780481338501,-0.0641253069043159,-0.2490613758563995,-0.0078836726024746,-0.0218666903674602,0.0,0.0,-0.9986485242843628,0.7235691547393799
-0.107576847076416,1.2760299444198608,-0.0562066920101642,-0.2555896639823913,-0.0099970158189535,-0.0422669313848018,0.0,0.0,-0.9933228492736816,0.5273990631103516
-0.1081021279096603,1.2701431512832642,-0.0496457926928997,-0.2616567313671112,-0.0128426728770136,-0.0569131001830101,0.0,0.0,-0.9536198377609252,-0.1155315637588501
-0.1086205467581749,1.2641167640686035,-0.049531765282154,-0.267862856388092,-0.015116287395358,-0.0454723127186298,0.0,0.0,-0.9777743816375732,-0.1111277937889099
-0.1091313362121582,1.257950782775879,-0.0493648052215576,-0.2740685641765594,-0.016815023496747,-0.033974640071392,0.0,0.0,-0.9982534050941468,0.4456263780593872
-0.1096341162919998,1.2516448497772217,-0.049146220088005,-0.2802740037441253,-0.0179363265633583,-0.0224259328097105,0.0,0.0,-0.9949893355369568,0.529139518737793
-0.1100869178771972,1.2452034950256348,-0.0436806753277778,-0.2863058447837829,-0.0195172876119613,-0.0316191688179969,0.0,0.0,-0.9990252256393432,0.1252528429031372
-0.1105306595563888,1.2386221885681152,-0.0433637164533138,-0.2925111353397369,-0.020516438409686,-0.019983097910881,0.0,0.0,-0.996533215045929,0.0771527290344238
-0.1109648719429969,1.2319012880325315,-0.0430003926157951,-0.2987162470817566,-0.0209319684654474,-0.0083106160163879,0.0,0.0,-0.9984246492385864,0.614020586013794
-0.1113504394888877,1.2250404357910156,-0.0377336218953132,-0.3049423396587372,-0.0217353571206331,-0.0160679928958416,0.0,0.0,-0.9905571937561036,-0.3530696630477905
-0.1117255240678787,1.218039631843567,-0.037283930927515,-0.3111473321914673,-0.0219521950930356,-0.0043370244093239,0.0,0.0,-0.997092306613922,0.150159478187561
-0.1120896339416503,1.2108991146087646,-0.0367943942546844,-0.3173522651195526,-0.0215813945978879,0.0074161230586469,0.0,0.0,-0.9926136136054992,0.1392301321029663
-0.1124425902962684,1.2036187648773191,-0.0362672880291938,-0.3235571980476379,-0.0206220522522926,0.0191868636757135,0.0,0.0,-0.9994056820869446,-0.4417754411697387
-0.1127840057015419,1.1961987018585205,-0.0357048995792865,-0.3297622501850128,-0.0190735273063182,0.0309704691171646,0.0,0.0,-0.9983322024345398,0.4691841602325439
-0.1131134033203125,1.1886389255523682,-0.0351094864308834,-0.3359675109386444,-0.0169354248791933,0.042762316763401,0.0,0.0,-0.976895034313202,0.6224532127380371
-0.1133791953325271,1.1809438467025757,-0.0280393324792385,-0.3419800996780395,-0.0154966125264763,0.0287763811647892,0.0,0.0,-0.9989500641822816,-0.0344369411468505
-0.1136324852705001,1.1731092929840088,-0.0273844059556722,-0.3481855094432831,-0.0134680969640612,0.0405704863369464,0.0,0.0,-0.9970229268074036,0.3980096578598022
