x_pos,y_pos,x_vel,y_vel,angle,ang_vel,leg_1,leg_2,main_booster,lat_booster
-0.0015260695945471,1.402908444404602,-0.1545815169811248,-0.356075644493103,0.0017705090576782,0.0349253118038177,0.0,0.0,-0.1709827005942601,0.8153653306011577
-0.0029848099220544,1.394200086593628,-0.1458553820848465,-0.3870392739772796,0.0017497501103207,-0.0004146136343479,0.0,0.0,0.5686201080153659,0.6290810823110021
-0.0042589185759425,1.3853464126586914,-0.1264757364988327,-0.3934960961341858,0.0008309932891279,-0.0183767955750226,0.0,0.0,0.6493840895254437,-0.9547173901341968
-0.0057436944916844,1.3765212297439575,-0.1492829918861389,-0.3922263979911804,0.0016223427373915,0.0158285144716501,0.0,0.0,0.2482117726460715,-0.9496396075703012
-0.0071919439360499,1.3677221536636353,-0.1476164162158966,-0.3910761475563049,0.0043844077736139,0.0552462339401245,0.0,0.0,0.4118176973912955,-0.9591555413858216
-0.0085844043642282,1.3589022159576416,-0.144117534160614,-0.3920152485370636,0.0092077171429991,0.0964750498533248,0.0,0.0,0.1782448057743604,0.7056908280726437
-0.0099441530182957,1.349984645843506,-0.139455184340477,-0.3963581621646881,0.0126506779342889,0.0688653960824012,0.0,0.0,0.3060451199132941,0.913205536944623
-0.0111031532287597,1.3411250114440918,-0.1177189797163009,-0.3937848806381225,0.0144512420520186,0.0360147580504417,0.0,0.0,0.7459826725759398,0.8483320063176896
-0.0122225759550929,1.3328857421875,-0.1120928898453712,-0.3661857545375824,0.0146014187484979,0.0030035299714654,0.0,0.0,0.0004898246951958,0.707333133619058
-0.0132932662963867,1.3245958089828491,-0.1058673113584518,-0.3684326112270355,0.0134149054065346,-0.0237323530018329,0.0,0.0,0.4488628703383104,0.8554855211883143
-0.0142179485410451,1.316375494003296,-0.0897461026906967,-0.3653277158737182,0.0107217552140355,-0.0538682043552398,0.0,0.0,-0.864330717376796,0.6078828993166445
-0.0150884632021188,1.3074387311935425,-0.083049789071083,-0.3971644341945648,0.006762096658349,-0.0792003720998764,0.0,0.0,-0.1328221156272235,-0.6842985228904822
-0.0160003658384084,1.2977893352508545,-0.0883564054965972,-0.4288560748100281,0.0039524557068943,-0.0561981201171875,0.0,0.0,-0.4795021199857199,-0.654616027959968
-0.0169570930302143,1.2874174118041992,-0.0940755754709243,-0.4609681069850921,0.0023841513320803,-0.0313689187169075,0.0,0.0,0.2912143877415167,0.9241565155814216
-0.0177136417478323,1.2773064374923706,-0.0724145174026489,-0.4493806958198547,-0.0008284301147796,-0.0642575398087501,0.0,0.0,-0.4880372115325093,0.6049497599826245
-0.0184123031795024,1.2664719820022583,-0.0652882307767868,-0.4815341830253601,-0.0053538363426923,-0.0905159562826156,0.0,0.0,0.8112398287711959,0.7956064647004945
-0.0188757888972759,1.2563362121582031,-0.0406420677900314,-0.4505102038383484,-0.0109983850270509,-0.1129015088081359,0.0,0.0,-0.4361318868845412,-0.6034085218419967
-0.0193737037479877,1.245479941368103,-0.045124314725399,-0.4825436174869537,-0.0156120993196964,-0.0922827571630477,0.0,0.0,0.2080158687069366,0.9598152268977956
-0.0197010990232229,1.2347936630249023,-0.0262918956577777,-0.4750227332115173,-0.0219849552959203,-0.1274684369564056,0.0,0.0,0.6079171820005,0.7123846947023966
-0.0200436599552631,1.2242186069488523,-0.0263257622718811,-0.4701409637928009,-0.0298227947205305,-0.1567709594964981,0.0,0.0,-0.9473780488753364,-0.9561111228533008
-0.0204428676515817,1.212937593460083,-0.0336459949612617,-0.5015153288841248,-0.0360305346548557,-0.1241659149527549,0.0,0.0,0.1153647426894382,0.7118746076390284
-0.0207633972167968,1.2013812065124512,-0.0244900695979595,-0.5138095021247864,-0.0435098409652709,-0.1495997756719589,0.0,0.0,0.5902655764321973,-0.6095660064634874
-0.0209710113704204,1.1898881196975708,-0.0148954270407557,-0.510982096195221,-0.0493167117238044,-0.1161478534340858,0.0,0.0,0.2068510244239914,0.642246779899119
-0.0210569389164447,1.178005933761597,-0.001666628406383,-0.5283415913581848,-0.0561713017523288,-0.1371039450168609,0.0,0.0,0.5108550222302104,0.7167772625277221
-0.0211927406489849,1.1662988662719729,-0.0051047503948211,-0.520647406578064,-0.0645695328712463,-0.1679798662662506,0.0,0.0,-0.517244721551819,-0.8759604445349655
-0.0214118957519531,1.1538679599761963,-0.0157615058124065,-0.5527621507644653,-0.0706504061818122,-0.1216174736618995,0.0,0.0,-0.7737163650964971,0.8445163044956342
-0.0215601921081542,1.1407197713851929,-0.0071357069537043,-0.5847511291503906,-0.0782693773508071,-0.1523797512054443,0.0,0.0,0.0732097859298457,-0.6353138538693508
-0.0218082424253225,1.1276812553405762,-0.0184355843812227,-0.5798335671424866,-0.084583468735218,-0.1262818872928619,0.0,0.0,-0.4426313016230316,-0.7478510309159457
-0.0221241004765033,1.1139421463012695,-0.0272013898938894,-0.6108767986297607,-0.0889243781566619,-0.0868183746933937,0.0,0.0,0.9711106673129876,-0.886188998844961
-0.0224819183349609,1.1003658771514893,-0.0332910828292369,-0.6035401821136475,-0.0913937762379646,-0.0493877790868282,0.0,0.0,-0.5076913563252221,-0.9560954938402288
-0.0229081157594919,1.0860941410064695,-0.0421659611165523,-0.6343259215354919,-0.0918499901890754,-0.0091242343187332,0.0,0.0,-0.3029470945625614,-0.6610902913656448
-0.0233895294368267,1.071110486984253,-0.0493424534797668,-0.6658654808998108,-0.0906540602445602,0.0239185281097888,0.0,0.0,0.4569929283172775,0.9394375204491664
-0.023810863494873,1.056476593017578,-0.0415466353297233,-0.6504284143447876,-0.0912398993968963,-0.0117164943367242,0.0,0.0,0.0520203183466374,0.6599263118106087
-0.0242013931274414,1.0414628982543943,-0.0372645482420921,-0.6673896312713623,-0.0930217802524566,-0.0356374606490135,0.0,0.0,0.2845059523449831,0.8588241352283744
-0.0244603157043457,1.0264514684677124,-0.022552091628313,-0.6673800945281982,-0.0963311120867729,-0.0661867707967758,0.0,0.0,0.6097180987994797,-0.7444435731664357
-0.0246829036623239,1.0118355751037598,-0.0206261333078145,-0.6497043371200562,-0.0979444161057472,-0.0322660431265831,0.0,0.0,0.9396465831918364,0.6296897233620676
-0.0248322486877441,0.9972956776618958,-0.0121282469481229,-0.6464024782180786,-0.1007274761795997,-0.0556611008942127,0.0,0.0,0.1720873538963665,0.8555027070225925
-0.0248239524662494,0.9828373789787292,0.005160897038877,-0.6428928375244141,-0.1050209105014801,-0.0858687832951545,0.0,0.0,0.371105980237425,0.7397950718948684
-0.0247152335941791,0.9687108993530272,0.0165535919368267,-0.6282539963722229,-0.1106641367077827,-0.1128644123673439,0.0,0.0,0.8869378369084626,0.9393959190349984
-0.0244157798588275,0.9548867344856262,0.0372700542211532,-0.6149700880050659,-0.1179412081837654,-0.1455415934324264,0.0,0.0,-0.3132475001306127,-0.775021224766371
-0.0241827964782714,0.9403659105300904,0.0286003910005092,-0.645797073841095,-0.1232149899005889,-0.1054754257202148,0.0,0.0,-0.98658287525177,-0.9815497994422911
-0.0240066535770893,0.9251382350921632,0.0211723633110523,-0.6770840287208557,-0.1267512440681457,-0.0707250386476516,0.0,0.0,-0.9906511306762696,-0.996555507183075
-0.0238923076540231,0.9091958999633788,0.013130722567439,-0.7086929082870483,-0.1284420788288116,-0.0338165946304798,0.0,0.0,-0.9847139716148376,-0.995526909828186
-0.023838710039854,0.8925479054450989,0.0052115670405328,-0.7398993968963623,-0.1282911598682403,0.0030183482449501,0.0,0.0,-0.9845970869064332,-0.9925337433815002
-0.023864459246397,0.8751879334449768,-0.0050352057442069,-0.7713422775268555,-0.1258465498685836,0.0488920994102954,0.0,0.0,-0.7372136116027832,-0.8192055225372314
-0.0239456184208393,0.857114851474762,-0.0122701991349458,-0.8029038906097412,-0.1217108964920044,0.0827130526304245,0.0,0.0,-0.6038245558738708,0.0196861028671264
-0.0240220073610544,0.8383256793022156,-0.0119798984378576,-0.834726870059967,-0.117390751838684,0.086403027176857,0.0,0.0,-0.6605684161186218,0.5127688646316528
-0.0240603443235158,0.818820059299469,-0.0075328508391976,-0.8666302561759949,-0.113715574145317,0.0735035389661789,0.0,0.0,-0.6387840509414673,0.6662492752075195
-0.0240525249391794,0.7985970377922058,-0.00207185652107,-0.8985834121704102,-0.1108888760209083,0.056534044444561,0.0,0.0,0.4638459682464599,0.2687221765518188
-0.0240087509155273,0.7783328890800476,0.0014318835455924,-0.9004141092300415,-0.1079627126455307,0.0585230700671672,0.0,0.0,0.122343897819519,0.4596210718154907
-0.0238215439021587,0.7579153180122375,0.0151380244642496,-0.9071922898292542,-0.1043991148471832,0.0712716728448867,0.0,0.0,0.2047996520996093,0.5712089538574219
-0.0235743522644042,0.7375869154930115,0.0221763588488101,-0.903304934501648,-0.1018715053796768,0.0505521520972251,0.0,0.0,-0.1848484873771667,-0.5943232774734497
-0.0233609192073345,0.716545045375824,0.0176377762109041,-0.9349461793899536,-0.0981876924633979,0.0736758932471275,0.0,0.0,0.438204288482666,0.0161347389221191
-0.0230717658996582,0.6958233714103699,0.0249984003603458,-0.9207163453102112,-0.0943031832575798,0.0776899233460426,0.0,0.0,0.6351509094238281,-0.0249831676483154
-0.0225855819880962,0.6750852465629578,0.0438229963183403,-0.921394407749176,-0.0895483568310737,0.095096468925476,0.0,0.0,0.3836400508880615,-0.3477144241333008
-0.0221390724182128,0.6542317271232605,0.0400394573807716,-0.9265608191490172,-0.0849752575159072,0.0914620012044906,0.0,0.0,0.7249288558959961,-0.4728997945785522
-0.021519374102354,0.6338932514190674,0.0567072033882141,-0.9036405682563782,-0.0797593519091606,0.1043178886175155,0.0,0.0,0.8212108612060547,-0.1478760242462158
-0.0206840522587299,0.6139326095581055,0.0773645862936973,-0.8868286609649658,-0.0736507847905159,0.1221711859107017,0.0,0.0,0.711226224899292,-0.6112214922904968
-0.019745921716094,0.5945343971252441,0.0860022529959678,-0.8617781400680542,-0.0659273043274879,0.1544695794582367,0.0,0.0,0.6179499626159668,-0.3231290578842163
-0.0188269615173339,0.5755798816680908,0.0842510014772415,-0.8421027660369873,-0.0583595149219036,0.1513557136058807,0.0,0.0,0.6435613632202148,0.4362549781799316
-0.0178309436887502,0.5564573407173157,0.0915131643414497,-0.8496012091636658,-0.0503666475415229,0.1598575264215469,0.0,0.0,0.3621904850006103,0.391627550125122
-0.0168837551027536,0.537492036819458,0.0868185013532638,-0.8426582217216492,-0.0425665825605392,0.1560015380382537,0.0,0.0,0.6826043128967285,-0.2726220488548279
-0.0157841686159372,0.5185927748680115,0.1012979298830032,-0.8397438526153564,-0.0339948609471321,0.1714343577623367,0.0,0.0,0.5947487354278564,-0.3443528413772583
-0.0146369934082031,0.4998642206192016,0.1057305783033371,-0.8322010636329651,-0.0251280926167964,0.177335038781166,0.0,0.0,0.8115670680999756,-0.0340853929519653
-0.0134658813476562,0.4810795187950134,0.1079013496637344,-0.8347511887550354,-0.0160317625850439,0.1819266527891159,0.0,0.0,0.9196546077728271,-0.2049942016601562
-0.0124231334775686,0.4626131057739258,0.095538891851902,-0.8206591010093689,-0.0074108447879552,0.172418400645256,0.0,0.0,0.9058825969696044,0.1259856224060058
-0.0113440509885549,0.444912314414978,0.0988710224628448,-0.7866857051849365,0.0015146298101171,0.1785094439983368,0.0,0.0,0.8587725162506104,0.4630255699157715
-0.010168838314712,0.4269903004169464,0.1078556776046752,-0.7965720891952515,0.01105731818825,0.1908533871173858,0.0,0.0,0.8812657594680786,0.6540584564208984
-0.0089154243469238,0.4098204374313354,0.1167228072881698,-0.7631940245628357,0.0195729006081819,0.1703117340803146,0.0,0.0,0.7726562023162842,-0.1634984612464904
-0.0077687264420092,0.3926942944526672,0.1063265353441238,-0.7612966299057007,0.0278113540261983,0.1647690236568451,0.0,0.0,0.9486618041992188,-0.0437576174736022
-0.0067483903840184,0.3760459423065185,0.0940007492899894,-0.7400947213172913,0.0357386618852615,0.1585462540388107,0.0,0.0,0.9538359642028807,0.552679181098938
-0.0056682587601244,0.3597912490367889,0.1008059978485107,-0.7226220965385437,0.0428683198988437,0.1425930559635162,0.0,0.0,0.954653263092041,0.5000243186950684
-0.0047482489608228,0.3443162441253662,0.086095429956913,-0.6879549622535706,0.0486997105181217,0.116627886891365,0.0,0.0,0.9577763080596924,0.4196528196334839
-0.0037707327865064,0.3291575610637665,0.0912462249398231,-0.6739463806152344,0.0551233850419521,0.1284734159708023,0.0,0.0,0.9292322397232056,0.593271017074585
-0.0028096199966967,0.3139631748199463,0.0907373279333114,-0.6755139231681824,0.060440607368946,0.106344424188137,0.0,0.0,0.8785955905914307,0.4145832061767578
-0.0017900466918945,0.2986137866973877,0.0960376411676406,-0.6824471354484558,0.0663046687841415,0.1172812804579734,0.0,0.0,0.9825387001037598,0.7752325534820557
-0.0007732391241006,0.2831528186798095,0.0972134247422218,-0.6873604655265808,0.070721685886383,0.0883402749896049,0.0,0.0,0.9639005661010742,0.7483780384063721
0.0002285003720317,0.2683987319469452,0.0970459356904029,-0.6558848023414612,0.0738100558519363,0.0617676079273223,0.0,0.0,0.9651875495910645,0.3731905221939087
0.0012569427490234,0.2543911635875702,0.0990944132208824,-0.6227501630783081,0.0775271728634834,0.0743424892425537,0.0,0.0,0.8866212368011475,0.2980417013168335
0.0020887374412268,0.2410487681627273,0.0798343941569328,-0.5931708812713623,0.0808395147323608,0.0662466436624527,0.0,0.0,0.8973841667175293,0.6402525901794434
0.0027850151527673,0.2275396734476089,0.0677924454212188,-0.6005058884620667,0.082652635872364,0.0362625904381275,0.0,0.0,0.9896014928817748,0.558253288269043
0.0035009384155273,0.2147546112537384,0.0705447196960449,-0.5682817101478577,0.0836894661188125,0.0207366198301315,0.0,0.0,0.8902981281280518,0.3143669366836548
0.0040493966080248,0.2022234797477722,0.0541486740112304,-0.5569776296615601,0.0843766555190086,0.0137439789250493,0.0,0.0,0.9786581993103028,0.2653532028198242
0.0044669150374829,0.1901816427707672,0.0411836579442024,-0.5352277159690857,0.0849462449550628,0.0113917738199234,0.0,0.0,0.9919548034667968,0.6902893781661987
0.0048545836471021,0.178692489862442,0.0394388921558856,-0.5105900168418884,0.0842854902148246,-0.0132152214646339,0.0,0.0,0.9818533658981324,-0.1282216310501098
0.0052906037308275,0.1675438731908798,0.043592445552349,-0.4954926669597626,0.0842933505773544,0.0001574015186633,0.0,0.0,0.9977774620056152,0.2500972747802734
0.0057229995727539,0.1563017666339874,0.0429146103560924,-0.4996674358844757,0.0846178159117698,0.0064892387017607,0.0,0.0,0.9766035079956056,0.5740892887115479
0.0062804222106933,0.1450803428888321,0.0560396239161491,-0.4987116456031799,0.0843201279640197,-0.0059536853805184,0.0,0.0,0.9823036193847656,-0.9099180102348328
0.0069043161347508,0.1341824829578399,0.0603021495044231,-0.4844702184200287,0.0863912254571914,0.0414215251803398,0.0,0.0,0.9851605892181396,-0.6695688962936401
0.0076164244674146,0.1232884228229522,0.0671179592609405,-0.4844233393669128,0.0904451757669448,0.0810789912939071,0.0,0.0,0.9867722988128662,-0.7633161544799805
0.0081812860444188,0.1130247935652732,0.0507115609943866,-0.4565204977989197,0.0961813181638717,0.1147224754095077,0.0,0.0,0.9813437461853028,-0.5752652883529663
0.0086548803374171,0.1034077480435371,0.04012006893754,-0.4279087483882904,0.1033541485667228,0.1434567421674728,0.0,0.0,0.9943203926086426,0.5233204364776611
0.0092464443296194,0.0943099111318588,0.0523272939026355,-0.4048384130001068,0.1101396977901458,0.1357109397649765,0.0,0.0,0.9698920249938964,0.482720136642456
0.009916877374053,0.0850970596075058,0.0594697184860706,-0.4100364148616791,0.1176574453711509,0.1503549963235855,0.0,0.0,0.9971551895141602,0.3950737714767456
0.0104537960141897,0.0760750398039817,0.0462528578937053,-0.4015846848487854,0.1250556707382202,0.1479647159576416,0.0,0.0,0.9952269792556764,0.702200174331665
0.0110260965302586,0.0679279193282127,0.050760842859745,-0.3626511991024017,0.131496176123619,0.1288102567195892,0.0,0.0,0.9795545339584352,0.7205359935760498
0.011537360958755,0.0600844956934452,0.0460083745419979,-0.3490529358386993,0.1365944147109985,0.1019648686051368,0.0,0.0,0.9844083786010742,0.7034765481948853
0.0118152620270848,0.0529305078089237,0.0243180394172668,-0.3182806670665741,0.1400511264801025,0.069134309887886,0.0,0.0,0.9879677295684814,0.9616332054138184
0.0121668819338083,0.0463529452681541,0.0332535281777381,-0.2925149798393249,0.1419558674097061,0.0380947068333625,0.0,0.0,0.9393856525421144,0.4406344890594482
0.012333202175796,0.040354236960411,0.0148507338017225,-0.2667813599109649,0.143733263015747,0.0355479903519153,0.0,0.0,0.9869731664657592,0.8917751312255859
0.0123330112546682,0.0349747277796268,4.712788722827099e-05,-0.2390832901000976,0.1436695456504821,-0.0012743339175358,0.0,0.0,0.9632787704467772,0.7397689819335938
0.0122759817168116,0.0297612994909286,-0.004245291929692,-0.2315694689750671,0.1422097831964492,-0.0291953422129154,0.0,0.0,0.9700803756713868,0.8179538249969482
0.0120323179289698,0.0248793940991163,-0.0210901834070682,-0.2166658490896225,0.1389416456222534,-0.0653627961874008,0.0,0.0,0.9549133777618408,0.9223891496658324
0.0115819927304983,0.0201749429106712,-0.0396929048001766,-0.2085978835821151,0.1336182951927185,-0.1064671650528907,0.0,0.0,0.9283120632171632,0.9337453842163086
0.0112289432436227,0.0160497054457664,-0.0284695029258728,-0.1827489584684372,0.1268167644739151,-0.1360307037830352,0.0,0.0,0.8931674957275391,0.972886323928833
0.0109780309721827,0.0118594504892826,-0.0165845490992069,-0.1855290085077285,0.1183454319834709,-0.1694264560937881,0.0,0.0,0.970428466796875,0.7832549810409546
0.0107964519411325,0.008978221565485,0.006428294815123,-0.1263629645109176,0.0937156304717063,-0.492880254983902,0.0,1.0,0.6386489868164062,0.2511248588562011
0.0105229374021291,0.0065380907617509,-0.0029114284552633,-0.1072811409831047,0.0689999461174011,-0.4949760437011719,0.0,1.0,0.6836926937103271,0.1943373680114746
0.0103216171264648,0.0047133304178714,0.0046066404320299,-0.080146886408329,0.0445272326469421,-0.4894739985466003,0.0,1.0,0.4126282930374145,0.1422322988510131
0.0101635931059718,0.0029276586137712,0.0086468197405338,-0.078818067908287,0.0203577000647783,-0.4834096431732178,0.0,1.0,0.4173483848571777,0.3388605117797851
0.009991836734116,0.0014734721044078,0.0069217905402183,-0.0644762068986892,-0.0034371460787951,-0.4758971333503723,0.0,0.0,0.36862313747406,-0.9343201518058776
0.0098068239167332,0.0002971267676912,0.0035423580557107,-0.0524790622293949,-0.0251960717141628,-0.4351788163185119,1.0,0.0,0.1157160997390747,-0.2552080154418945
0.0097321514040231,-0.0007280850550159,0.003987512551248,-0.0459498800337314,-0.0359052680432796,-0.2134198695421219,1.0,0.0,-0.1472601890563964,0.0134592056274414
0.0097576137632131,-0.0019216323271393,-0.0022636600770056,-0.0529519207775592,-0.0311239641159772,0.0956673771142959,1.0,0.0,-0.3271073698997497,0.2480359077453613
0.0098715778440237,-0.0033165954519063,-0.008102798834443,-0.0617114044725894,-0.0118536809459328,0.3854393362998962,1.0,0.0,0.1352314949035644,0.0831700563430786
0.0099413869902491,-0.0037582658696919,-0.0058136219158768,-0.0196182634681463,0.0006872928934171,0.250698059797287,1.0,1.0,0.2242286205291748,0.9997880458831788
0.0100237848237156,-0.0034119749907404,0.0039816843345761,0.0153804114088416,0.0048270309343934,0.0827175080776214,1.0,1.0,-0.197409451007843,0.3909989595413208
0.0100493431091308,-0.002858116524294,0.0030463740695267,0.0246049780398607,0.0043187774717807,-0.0102030420675873,1.0,1.0,-0.4744578599929809,0.0397068262100219
0.010054588317871,-0.002093901624903,0.0026961823459714,0.0339564494788646,0.0021565612405538,-0.043272715061903,1.0,1.0,-0.5958276987075806,-0.0102788805961608
0.0100666042417287,-0.0011503719724714,0.0027997305151075,0.0419310703873634,0.0005521022249013,-0.0321135595440864,1.0,1.0,-0.8085690140724182,-0.1989669203758239
0.0100817680358886,-0.0009490990778431,0.0029278951697051,0.00894670560956,-0.000838448642753,-0.0278066042810678,1.0,1.0,-0.8643853068351746,-0.2693088054656982
