x_pos,y_pos,x_vel,y_vel,angle,ang_vel,leg_1,leg_2,main_booster,lat_booster
-0.0015178680187091,1.4035240411758425,-0.1537979692220688,-0.3287121951580047,0.0018084488110616,0.0356762930750846,0.0,0.0,-0.2886466979980469,0.8108386993408203
-0.0029606819152832,1.3960469961166382,-0.1443599760532379,-0.3323115110397339,0.0018858533585444,0.0015490091172978,0.0,0.0,-0.3475698232650757,0.2760368585586548
-0.0043974877335131,1.3884692192077637,-0.1438302099704742,-0.3367964029312134,0.0020342383068054,0.0029676833655685,0.0,0.0,-0.3554574847221374,0.5624104738235474
-0.0057928087189793,1.380789041519165,-0.1388621926307678,-0.3413370549678802,0.0013748850906267,-0.0131884692236781,0.0,0.0,0.022398829460144,0.1866837739944458
-0.0071027753874659,1.3736140727996826,-0.1308200657367706,-0.3188883364200592,0.0011981164570897,-0.0035356101579964,0.0,0.0,-0.5447776317596436,0.3032855987548828
-0.0084067340940237,1.3663386106491089,-0.1303372085094452,-0.3233547806739807,0.0011346748797222,-0.0012691470328718,0.0,0.0,0.2395472526550293,0.469510555267334
-0.0097222328186035,1.3596125841140747,-0.1315333098173141,-0.2989306449890136,0.0011175476247444,-0.0003424354072194,0.0,0.0,-0.656404972076416,0.6969114542007446
-0.0109634399414062,1.352788329124451,-0.1225007399916648,-0.3033008575439453,-0.000481191673316,-0.0319777652621269,0.0,0.0,-0.2096740007400512,0.7473509311676025
-0.0121410368010401,1.3458718061447144,-0.1148332580924034,-0.3074014484882355,-0.0033775041811168,-0.0579317398369312,0.0,0.0,-0.5783520340919495,0.2601319551467895
-0.013312816619873,1.3388551473617554,-0.114418938755989,-0.3118635416030884,-0.0061093927361071,-0.0546427965164184,0.0,0.0,-0.2898593544960022,0.4698743820190429
-0.0144790653139352,1.3317381143569946,-0.1140269413590431,-0.3163256645202636,-0.0086662946268916,-0.0511425919830799,0.0,0.0,-0.5512706637382507,-0.2929096221923828
-0.015639591962099,1.3245205879211426,-0.113658107817173,-0.3207877576351166,-0.0110372919589281,-0.0474244728684425,0.0,0.0,-0.7300827503204346,0.6080975532531738
-0.0167364124208688,1.3172050714492798,-0.1059979349374771,-0.3251653015613556,-0.014678232371807,-0.0728257149457931,0.0,0.0,-0.3090971708297729,-0.4555305242538452
-0.0178278926759958,1.3097892999649048,-0.1056740880012512,-0.3296280801296234,-0.0181128606200218,-0.0686987116932869,0.0,0.0,-0.5179043412208557,-0.0764394998550415
-0.0189142227172851,1.3022732734680176,-0.1053767427802085,-0.3340905904769897,-0.0213330965489149,-0.0644104853272438,0.0,0.0,-0.8165465593338013,0.3623878955841064
-0.0199954994022846,1.294656753540039,-0.105106271803379,-0.3385529518127441,-0.024330161511898,-0.059946559369564,0.0,0.0,-0.7863101959228516,0.4891811609268188
-0.0210721977055072,1.286940097808838,-0.1048636585474014,-0.343015193939209,-0.0270960815250873,-0.0553233511745929,0.0,0.0,-0.674610435962677,0.708181619644165
-0.0220751762390136,1.2791141271591189,-0.0959908440709114,-0.347901314496994,-0.0313621871173381,-0.085330031812191,0.0,0.0,-0.9529812932014464,-0.4469441771507263
-0.0230737682431936,1.2711880207061768,-0.0958007350564003,-0.3523642122745514,-0.0353817865252494,-0.0803989097476005,0.0,0.0,-0.757594108581543,0.2312288284301757
-0.0240682605654001,1.263161540031433,-0.0956407636404037,-0.356827050447464,-0.0391494482755661,-0.0753601938486099,0.0,0.0,-0.9572594165802002,0.10440194606781
-0.0250587463378906,0.0,-0.0955107063055038,-0.3612896502017975,-0.0426588803529739,-0.0701947808265686,0.0,0.0,-0.87435382604599,0.1183154582977294
-0.0260457042604684,0.0,-0.0954110696911811,-0.3657520711421966,-0.0459045507013797,-0.0649193078279495,0.0,0.0,-0.8333573341369629,0.4339056015014648
-0.0270292274653911,1.238479733467102,-0.0953420251607894,-0.3702143132686615,-0.048881459981203,-0.0595431998372077,0.0,0.0,-0.9387916326522828,-0.0836215019226074
-0.0280095096677541,1.2300516366958618,-0.0953036397695541,-0.3746763169765472,-0.051584992557764,-0.054075438529253,0.0,0.0,-0.9686201214790344,0.4847376346588135
-0.0289870258420705,1.2215230464935305,-0.0952958539128303,-0.379138171672821,-0.0540110506117343,-0.0485254786908626,0.0,0.0,-0.8731415867805481,0.3731650114059448
-0.0299626346677541,1.2128722667694092,-0.0953952819108963,-0.3845521211624145,-0.0561560951173305,-0.0429010167717933,0.0,0.0,-0.9408093690872192,0.7500760555267334
-0.0308761596679687,1.2041208744049072,-0.087952546775341,-0.3890837728977203,-0.0595183223485946,-0.0672446489334106,0.0,0.0,-0.9615488648414612,0.6353945732116699
-0.031748104840517,1.1952719688415527,-0.0830817967653274,-0.3934463560581207,-0.0635823681950569,-0.081280693411827,0.0,0.0,-0.8372833132743835,0.756706714630127
-0.0325711257755756,1.1863247156143188,-0.0772963836789131,-0.3978781700134277,-0.0685353949666023,-0.0990605950355529,0.0,0.0,-0.8998969197273254,-0.5750824809074402
-0.0334396362304687,1.177279710769653,-0.0833441987633705,-0.4021647572517395,-0.0720124691724777,-0.069541335105896,0.0,0.0,-0.9859445691108704,0.4234964847564697
-0.0343069061636924,1.168134331703186,-0.0835131853818893,-0.4066238701343536,-0.0751962810754776,-0.0636761784553527,0.0,0.0,-0.820694625377655,0.7606289386749268
-0.0351211540400981,1.1588780879974363,-0.0771713927388191,-0.4116088151931762,-0.0794059187173843,-0.084192968904972,0.0,0.0,-0.7934203743934631,0.1663713455200195
-0.0359346382319927,1.1495213508605957,-0.0773914605379104,-0.4160682260990143,-0.083320215344429,-0.0782859474420547,0.0,0.0,-0.9339316487312316,0.3259975910186767
-0.0367475524544715,1.1400642395019531,-0.0776357203722,-0.4205273687839508,-0.0869387090206146,-0.072369746863842,0.0,0.0,-0.8143957853317261,0.3043832778930664
-0.0375600829720497,1.1305065155029297,-0.0779032483696937,-0.4249862134456634,-0.0902613028883934,-0.0664521008729934,0.0,0.0,-0.8045290112495422,-0.7455201745033264
-0.0384291633963584,1.1208614110946655,-0.0853096768260002,-0.4287661015987396,-0.091845765709877,-0.0316891819238662,0.0,0.0,-0.9031223058700562,-0.4466102719306946
-0.0392983444035053,1.1111156940460205,-0.0856207758188247,-0.4332239329814911,-0.0931353271007537,-0.0257911197841167,0.0,0.0,-0.9254058599472046,-0.6443130373954773
-0.0402151122689247,1.101280927658081,-0.0918890684843063,-0.437090665102005,-0.0929264202713966,0.0041781393811106,0.0,0.0,-0.8065884113311768,0.1815947294235229
-0.0411324501037597,1.0913453102111816,-0.0922398790717125,-0.441548228263855,-0.0924250558018684,0.0100273955613374,0.0,0.0,-0.9728734493255616,0.7715669870376587
-0.0419869422912597,1.0813013315200806,-0.0846158042550087,-0.4464559257030487,-0.0932425782084465,-0.0163509063422679,0.0,0.0,-0.7122326493263245,0.6169404983520508
-0.0428019538521766,1.0711561441421509,-0.0799519270658493,-0.4509963393211365,-0.0947814285755157,-0.030776809900999,0.0,0.0,-0.5375287532806396,0.2079590559005737
-0.0436182022094726,1.0609101057052612,-0.0803549215197563,-0.4554542005062103,-0.0960341021418571,-0.025053571909666,0.0,0.0,-0.7459691166877747,-0.1480944752693176
-0.044435691088438,1.0505634546279907,-0.0807733833789825,-0.4599119424819946,-0.0970034077763557,-0.0193859469145536,0.0,0.0,-0.569801390171051,0.1135222911834716
-0.0452547073364257,1.0401161909103394,-0.0812063664197921,-0.4643696546554565,-0.0976924374699592,-0.0137805771082639,0.0,0.0,-0.8732152581214905,0.2184720039367675
-0.0460754409432411,1.0295681953430176,-0.0816529542207717,-0.4688273072242737,-0.0981046333909034,-0.0082439258694648,0.0,0.0,-0.9011775851249696,0.8010619878768921
-0.0468305572867393,1.0189013481140137,-0.0736448243260383,-0.47420534491539,-0.0999654680490493,-0.0372167453169822,0.0,0.0,-0.9955909848213196,0.1802738904953003
-0.0475878715515136,1.008133888244629,-0.0741161182522773,-0.4786632657051086,-0.1015572771430015,-0.0318364389240741,0.0,0.0,-0.9858970642089844,-0.2717647552490234
-0.0483471862971782,0.9972657561302184,-0.0745985060930252,-0.4831210970878601,-0.1028844490647316,-0.0265435278415679,0.0,0.0,-0.8576942086219788,-0.2825275659561157
-0.0491088852286338,0.9862968921661376,-0.0750912278890609,-0.4875788986682892,-0.1039516404271125,-0.0213439129292964,0.0,0.0,-0.8495107889175415,-0.2354655265808105
-0.0498730652034282,0.9752272963523864,-0.0755935162305831,-0.4920366704463959,-0.1047638058662414,-0.0162433572113513,0.0,0.0,-0.992537558078766,-0.4183741211891174
-0.0506397262215614,0.9640570282936096,-0.0761046707630157,-0.4964944124221802,-0.1053261831402778,-0.01124750636518,0.0,0.0,-0.9924752712249756,0.3841140270233154
-0.0514092445373535,0.952786147594452,-0.0766240283846855,-0.5009521842002869,-0.1056442707777023,-0.0063617140986025,0.0,0.0,-0.9728736877441406,0.1192928552627563
-0.0521815307438373,0.9414145946502686,-0.0771509334444999,-0.5054099559783936,-0.1057238355278968,-0.0015913182869553,0.0,0.0,-0.9997896552085876,-0.1933997273445129
-0.0529568679630756,0.9299423098564148,-0.0776847749948501,-0.509867787361145,-0.1055708900094032,0.0030586612410843,0.0,0.0,-0.9993776082992554,0.5654208660125732
-0.0536799430847168,0.9183585047721864,-0.0712746828794479,-0.5149118304252625,-0.106599248945713,-0.020566888153553,0.0,0.0,-0.9894325137138368,0.5419414043426514
-0.0543706901371479,0.9066657423973083,-0.0673355683684349,-0.5197976231575012,-0.1083181872963905,-0.0343788489699363,0.0,0.0,-0.999827802181244,-0.5592950582504272
-0.0551013946533203,0.8948838114738464,-0.072509191930294,-0.5236907601356506,-0.1088807210326194,-0.0112504605203866,0.0,0.0,-0.9990999698638916,0.4149037599563598
-0.0558356270194053,0.8830009698867798,-0.0730652660131454,-0.5281487703323364,-0.1092371493577957,-0.0071283234283328,0.0,0.0,-0.9867343306541444,-0.039512813091278
-0.0565734878182411,0.871017575263977,-0.07362562417984,-0.5326068997383118,-0.1093945726752281,-0.003148500341922,0.0,0.0,-0.9965710639953612,0.5975123643875122
-0.0572735778987407,0.8589318990707397,-0.0689998269081115,-0.5372118353843689,-0.1103994771838188,-0.0200982354581356,0.0,0.0,-0.9996188282966614,-0.3841876983642578
-0.0579774864017963,0.8467457890510559,-0.0695674791932106,-0.5416700839996338,-0.1112201660871505,-0.0164136607199907,0.0,0.0,-0.998884618282318,0.0353537797927856
-0.0586853995919227,0.8344590067863464,-0.0701381489634513,-0.5461283922195435,-0.1118642389774322,-0.0128815006464719,0.0,0.0,-0.9988428950309752,-0.4655831456184387
-0.0593974106013774,0.8220714926719666,-0.070711463689804,-0.5505867600440979,-0.1123394519090652,-0.0095044244080781,0.0,0.0,-0.998921275138855,-0.884725034236908
-0.0601801872253418,0.8095961213111877,-0.0796655341982841,-0.5543563365936279,-0.1109571531414985,0.0276458598673343,0.0,0.0,-0.974457025527954,-0.6963752508163452
-0.0610215179622173,0.7970240712165833,-0.0870641097426414,-0.5585388541221619,-0.1080527529120445,0.0580881610512733,0.0,0.0,-0.9981377124786376,0.4699053764343261
-0.0618672370910644,0.7843517661094666,-0.0876433104276657,-0.5629981756210327,-0.1050034239888191,0.0609865263104438,0.0,0.0,-0.9959983825683594,-0.1068606376647949
-0.0627173408865928,0.7715789675712585,-0.088223785161972,-0.5674576163291931,-0.1018173098564148,0.0637221038341522,0.0,0.0,-0.9950722455978394,-0.1983864903450012
-0.0635720267891883,0.7587057948112488,-0.0888052135705947,-0.5719172358512878,-0.0985026210546493,0.066293716430664,0.0,0.0,-0.996328592300415,0.3898431062698364
-0.0644312873482704,0.7457322478294373,-0.089387334883213,-0.5763769745826721,-0.0950675904750824,0.0687006115913391,0.0,0.0,-0.985605776309967,0.0248079299926757
-0.0652951225638389,0.732658326625824,-0.0899698436260223,-0.5808369517326355,-0.0915204659104347,0.070942535996437,0.0,0.0,-0.9996066093444824,-0.2752076983451843
-0.0661638230085372,0.7194843292236328,-0.0905524641275405,-0.5852969884872437,-0.0878694951534271,0.0730193927884101,0.0,0.0,-0.9889763593673706,-0.2543826699256897
-0.0670373886823654,0.7062097787857056,-0.0911349356174469,-0.5897573232650757,-0.0841229259967804,0.07493157684803,0.0,0.0,-0.993248462677002,-0.3773699998855591
-0.0679158195853233,0.6928352117538452,-0.0917170047760009,-0.5942177176475525,-0.0802889317274093,0.0766798704862594,0.0,0.0,-0.9967544674873352,-0.2768591642379761
-0.0687992125749588,0.6793602108955383,-0.0922984331846237,-0.5986783504486084,-0.076375663280487,0.0782653540372848,0.0,0.0,-0.966513454914093,0.5516130924224854
-0.0696469321846962,0.6657760739326477,-0.0877449288964271,-0.6035929918289185,-0.0734294578433036,0.0589237436652183,0.0,0.0,-0.989374339580536,-0.1484659910202026
-0.0704997032880783,0.6520915031433105,-0.0883242636919021,-0.6080532670021057,-0.070420041680336,0.0601884312927722,0.0,0.0,-0.9249072074890136,0.2592804431915283
-0.071357823908329,0.6383067965507507,-0.0889022499322891,-0.6125136017799377,-0.0673552453517913,0.0612958073616027,0.0,0.0,-0.9959408640861512,0.7283189296722412
-0.0721640586853027,0.624422550201416,-0.0823336094617843,-0.6170020699501038,-0.0656711682677269,0.0336818136274814,0.0,0.0,-0.970748782157898,-0.5973078012466431
-0.0730163604021072,0.610447883605957,-0.0880136787891388,-0.6209725141525269,-0.0629145950078964,0.0551311299204826,0.0,0.0,-0.9803720712661744,0.2465224266052246
-0.0738739967346191,0.5963730216026306,-0.0885862335562706,-0.6254329085350037,-0.0601254254579544,0.0557833090424537,0.0,0.0,-0.9904012680053712,0.4494895935058594
-0.0747371688485145,0.5821979641914368,-0.0891565531492233,-0.6298933029174805,-0.0573109090328216,0.0562903955578804,0.0,0.0,-0.9813866019248962,0.1814320087432861
-0.0756056755781173,0.5679226517677307,-0.089724414050579,-0.6343536972999573,-0.0544780865311622,0.0566563494503498,0.0,0.0,-0.7930731177330017,0.5466773509979248
-0.0764439553022384,0.5535439848899841,-0.085781343281269,-0.6389800906181335,-0.0525387488305568,0.0387869216501712,0.0,0.0,-0.8965978026390076,0.6844027042388916
-0.0772384628653526,0.5390639901161194,-0.080164611339569,-0.6435288786888123,-0.0518320500850677,0.0141340047121047,0.0,0.0,-0.3007359504699707,0.7500607967376709
-0.0779803246259689,0.5244829654693604,-0.073420226573944,-0.6480710506439209,-0.0525891818106174,-0.0151425283402204,0.0,0.0,-0.144023060798645,0.7332783937454224
-0.0786614418029785,0.5097965598106384,-0.0656513720750808,-0.6528171300888062,-0.0550245344638824,-0.0487067364156246,0.0,0.0,0.2315328121185302,0.343059778213501
-0.0793165192008018,0.4953905642032623,-0.0631180629134178,-0.6403544545173645,-0.0573916956782341,-0.0473432466387748,0.0,0.0,0.7636539936065674,0.9669523239135742
-0.0797658935189247,0.4815049469470978,-0.0407407619059085,-0.6173062920570374,-0.0615423545241355,-0.0830131918191909,0.0,0.0,-0.9110997915267944,-0.5805315375328064
-0.0802556052803993,0.4675222039222717,-0.0456338115036487,-0.621596097946167,-0.0648442655801773,-0.0660383552312851,0.0,0.0,-0.614797830581665,0.0308938026428222
-0.0807511359453201,0.453439325094223,-0.0461742579936981,-0.626056969165802,-0.068175584077835,-0.0666266605257988,0.0,0.0,0.4474406242370605,-0.2679868340492248
-0.0812123268842697,0.4402416944503784,-0.0426966063678264,-0.5867195725440979,-0.0715640112757682,-0.0677685886621475,0.0,0.0,-0.9060510396957396,0.5226618051528931
-0.0816355720162391,0.426943302154541,-0.0377663485705852,-0.5912649631500244,-0.0760841146111488,-0.0904019549489021,0.0,0.0,-0.405633807182312,-0.1023364663124084
-0.0820646286010742,0.4135449230670929,-0.0382929071784019,-0.5957269072532654,-0.0806466788053512,-0.0912511497735977,0.0,0.0,0.374929666519165,0.2376563549041748
-0.0823936462402343,0.4004424512386322,-0.0286509599536657,-0.5825663805007935,-0.0848671272397041,-0.0844090059399604,0.0,0.0,-0.3693655133247375,0.4251022338867187
-0.0827283859252929,0.3872399628162384,-0.0291670002043247,-0.5870281457901001,-0.0891370400786399,-0.0853981748223304,0.0,0.0,0.8697081804275513,-0.5054827928543091
-0.0829202681779861,0.3753939867019653,-0.01615004055202,-0.5266731977462769,-0.0921487286686897,-0.0602337233722209,0.0,0.0,-0.2866203188896179,-0.245401382446289
-0.0831176787614822,0.3634478449821472,-0.0166545026004314,-0.531134307384491,-0.0952154397964477,-0.061334203928709,0.0,0.0,-0.0831187963485717,-0.9819708466529846
-0.0834135040640831,0.3514237403869629,-0.0288086142390966,-0.5344527959823608,-0.0959745571017265,-0.0151822967454791,0.0,0.0,0.1311149597167968,-0.1113523244857788
-0.0836095809936523,0.3400042057037353,-0.0190667193382978,-0.5075712203979492,-0.0965171232819557,-0.010851327329874,0.0,0.0,0.0358097553253173,-0.4437734484672546
-0.0837992653250694,0.3291915357112884,-0.018201682716608,-0.4806132018566131,-0.0972755178809166,-0.0151678789407014,0.0,0.0,-0.5475623607635498,0.2203900814056396
-0.0839943885803222,0.3182785809040069,-0.0186799857765436,-0.4850736558437347,-0.0980955064296722,-0.0163999330252408,0.0,0.0,-0.0098304748535156,-0.14066082239151
-0.0841947570443153,0.3072653710842132,-0.0191511195152997,-0.4895341098308563,-0.0989777818322181,-0.0176452435553073,0.0,0.0,-0.0100355744361877,-0.9047396779060364
-0.0844853371381759,0.2961655259132385,-0.0302807595580816,-0.4932480752468109,-0.0977691337466239,0.0241731386631727,0.0,0.0,-0.1461052894592285,0.5577607154846191
-0.0847482681274414,0.2849593162536621,-0.0266099330037832,-0.4980345070362091,-0.0974574014544487,0.0062346309423446,0.0,0.0,0.5175125598907471,-0.1035269498825073
-0.0848552733659744,0.2746239602565765,-0.0114036332815885,-0.4593014717102051,-0.0967574417591095,0.0139991836622357,0.0,0.0,-0.6248053908348083,-0.1630584001541137
-0.0849673300981521,0.2641883790493011,-0.0118434587493538,-0.4637618660926819,-0.0961183011531829,0.0127824675291776,0.0,0.0,0.2284134626388549,0.4192614555358886
-0.0849224105477333,0.2544839382171631,0.0034034042619168,-0.4312376081943512,-0.0950397476553917,0.0215710438787937,0.0,0.0,-0.7855260372161865,-0.586077094078064
-0.084929846227169,0.2446909993886947,-0.0030019499827176,-0.4351001977920532,-0.0928046107292175,0.0447027198970317,0.0,0.0,-0.5384567975997925,0.6810753345489502
-0.0848752036690712,0.2347964346408844,0.0049627954140305,-0.4397278428077698,-0.0923013091087341,0.0100657697767019,0.0,0.0,0.0924427509307861,-0.4285985231399536
-0.0847394913434982,0.22536700963974,0.0128800589591264,-0.4190419912338257,-0.0916173979640007,0.0136783346533775,0.0,0.0,-0.5154194235801697,-0.7130298018455505
-0.0846645385026931,0.2158523947000503,0.0053935670293867,-0.4227492213249206,-0.0895427837967872,0.0414924584329128,0.0,0.0,-0.6016386151313782,-0.0871312618255615
-0.0845940560102462,0.2062373459339141,0.0050082681700587,-0.4272098541259765,-0.0875142589211463,0.0405706688761711,0.0,0.0,-0.151873230934143,0.3553837537765503
-0.0845275893807411,0.1965221762657165,0.0046328753232955,-0.4316703677177429,-0.0855278670787811,0.0397280119359493,0.0,0.0,-0.2874917984008789,0.2980897426605224
-0.0844653099775314,0.1867067217826843,0.0042675919830799,-0.4361308515071869,-0.0835792049765586,0.0389730520546436,0.0,0.0,0.1147862672805786,-0.0914419889450073
-0.0844641700387001,0.1773209869861602,-0.0014134509256109,-0.4170568287372589,-0.0820641666650772,0.0303007755428552,0.0,0.0,-0.6261960864067078,0.3889112472534179
-0.0844666510820388,0.1678350567817688,-0.0017579479608684,-0.4215170443058014,-0.0805768370628357,0.0297468211501836,0.0,0.0,-0.3429555296897888,0.4951101541519165
-0.0844727531075477,0.1582487672567367,-0.0020918122027069,-0.4259772598743438,-0.0791115313768386,0.0293060801923275,0.0,0.0,-0.1904976367950439,0.1862679719924926
-0.0844822898507118,0.1485622078180313,-0.0024149024393409,-0.4304374456405639,-0.0776621848344802,0.0289870835840702,0.0,0.0,0.6193218231201172,0.1464790105819702
-0.0843477249145507,0.1397664844989776,0.011552887968719,-0.3908236920833587,-0.0757803916931152,0.0376356244087219,0.0,0.0,0.0655246973037719,-0.3611480593681335
-0.0841607078909874,0.1316467672586441,0.0167280212044715,-0.3607792258262634,-0.0738264024257659,0.0390796400606632,0.0,0.0,-0.2804766297340393,-0.2935231328010559
