x_pos,y_pos,x_vel,y_vel,angle,ang_vel,leg_1,leg_2,main_booster,lat_booster
-0.001565933227539,1.4031667709350586,-0.1591558456420898,-0.3445965647697449,0.0022927313111722,0.0452657267451286,0.0,0.0,0.14469575881958,0.8598911762237549
-0.0030656815506517,1.3954544067382812,-0.1510410904884338,-0.3427750766277313,0.0033473959192633,0.0210959147661924,0.0,0.0,-0.3814777135848999,0.7155632972717285
-0.0045387269929051,1.38727867603302,-0.1471103876829147,-0.3633606135845184,0.0031665745191276,-0.0036166727077215,0.0,0.0,-0.2544710040092468,0.3371355533599853
-0.0060530663467943,1.3786453008651731,-0.1517585515975952,-0.3837083876132965,0.003479931037873,0.0062676658853888,0.0,0.0,0.778303861618042,0.8497316837310791
-0.0073911668732762,1.3706108331680298,-0.1332271099090576,-0.357088953256607,0.0029117546509951,-0.0113646024838089,0.0,0.0,-0.0653511881828308,0.6744691133499146
-0.008704662322998,1.3621177673339844,-0.1296226680278778,-0.3774709701538086,0.0012013626983389,-0.0342110767960548,0.0,0.0,0.2007079124450683,0.0239894390106201
-0.0100752832368016,1.3537964820861816,-0.1357505470514297,-0.3698348104953766,-9.036915434990078e-05,-0.0258369781076908,0.0,0.0,-0.0201647281646728,0.6432421207427979
-0.0114223482087254,1.3450191020965576,-0.1322921812534332,-0.3901030123233795,-0.0024741950910538,-0.0476812086999416,0.0,0.0,0.3030236959457397,0.4786350727081299
-0.0128163341432809,1.336774230003357,-0.137443259358406,-0.3664458990097046,-0.0044049797579646,-0.0386193841695785,0.0,0.0,-0.450731098651886,0.5231730937957764
-0.0142076490446925,1.3280742168426514,-0.1366314589977264,-0.3866705894470215,-0.0068729128688573,-0.0493633598089218,0.0,0.0,-0.3728294372558594,-0.0511009693145751
-0.0156368259340524,1.31891667842865,-0.1409199982881546,-0.4070130288600921,-0.0088418666273355,-0.0393829680979251,0.0,0.0,0.1160522699356079,0.7506906986236572
-0.0169860832393169,1.309833526611328,-0.1319876015186309,-0.4037151634693146,-0.011748599819839,-0.0581401363015174,0.0,0.0,0.5444952249526978,0.8338545560836792
-0.0181622505187988,1.3012741804122925,-0.1137392967939376,-0.3804548978805542,-0.015590283088386,-0.0768404677510261,0.0,0.0,-0.0831964612007141,0.7420828342437744
-0.0193090438842773,1.2922484874725342,-0.1096418350934982,-0.4012001752853393,-0.0205731801688671,-0.0996669381856918,0.0,0.0,-0.2109766006469726,0.5094965696334839
-0.0204411502927541,1.2827690839767456,-0.1074110865592956,-0.421394795179367,-0.0263030342757701,-0.1146073937416076,0.0,0.0,-0.2085661888122558,0.1835886240005493
-0.0216072089970111,1.2728323936462402,-0.111327089369297,-0.4417429864406585,-0.0315334498882293,-0.1046176925301551,0.0,0.0,-0.9200057983398438,0.5527020692825317
-0.0227529518306255,1.262441635131836,-0.1084276214241981,-0.4619458615779876,-0.0376123413443565,-0.1215889006853103,0.0,0.0,-0.6390831470489502,0.2870182991027832
-0.0239310264587402,1.2515935897827148,-0.1121740341186523,-0.4822941124439239,-0.0431919582188129,-0.1116019338369369,0.0,0.0,0.5233228206634521,-0.6149340271949768
-0.0250597950071096,1.2413992881774902,-0.1092011183500289,-0.4531849920749664,-0.0468290038406848,-0.0727477520704269,0.0,0.0,-0.3606293201446533,-0.3111419081687927
-0.0262191779911518,1.2307469844818115,-0.112775407731533,-0.4735400974750519,-0.0499694198369979,-0.0628138035535812,0.0,0.0,-0.2110415697097778,-0.6180039048194885
-0.0274467468261718,1.2196440696716309,-0.121064081788063,-0.4935202300548553,-0.0516436547040939,-0.033487532287836,0.0,0.0,-0.279215931892395,0.0777934789657592
-0.0287032127380371,1.208083152770996,-0.124451957643032,-0.5138651728630066,-0.0528224520385265,-0.0235782153904438,0.0,0.0,-0.0238993763923645,0.0071742534637451
-0.0299875251948833,1.196063995361328,-0.1277415454387664,-0.5342099070549011,-0.0535061061382293,-0.013674484565854,0.0,0.0,-0.1572551131248474,-0.3574843406677246
-0.0312987342476844,1.183586597442627,-0.1309307217597961,-0.5545545220375061,-0.0536957867443561,-0.0037940326146781,0.0,0.0,-0.0936276912689209,0.3178291320800781
-0.0326358787715435,1.170651078224182,-0.1340176463127136,-0.574898898601532,-0.0533925555646419,0.0060651223175227,0.0,0.0,0.4022369384765625,-0.8330163359642029
-0.0341718681156635,1.1581519842147827,-0.1559029966592788,-0.5554323196411133,-0.0511100105941295,0.0456507131457328,0.0,0.0,-0.605423629283905,0.7622668743133545
-0.0356708541512489,1.1451951265335083,-0.151153564453125,-0.575823187828064,-0.049862515181303,0.0249496530741453,0.0,0.0,-0.8874216079711914,0.5646666288375854
-0.0371573455631732,1.1317832469940186,-0.1495137959718704,-0.5960512161254883,-0.0490046218037605,0.0171577520668506,0.0,0.0,-0.8570711016654968,0.6719237565994263
-0.0386236198246479,1.1179159879684448,-0.1469295173883438,-0.6163180470466614,-0.0487053878605365,0.0059847375378012,0.0,0.0,-0.6874871850013733,0.3332885503768921
-0.0401103980839252,1.103590488433838,-0.1494716703891754,-0.6366605758666992,-0.0479200668632984,0.0157066341489553,0.0,0.0,-0.6459232568740845,-0.0357469916343688
-0.0416165366768837,1.0888068675994873,-0.1519012749195099,-0.6570030450820923,-0.0466503128409385,0.0253949016332626,0.0,0.0,-0.7789086699485779,0.3069202899932861
-0.043140985071659,1.0735654830932615,-0.1542177647352218,-0.6773456931114197,-0.0448979251086711,0.0350475795567035,0.0,0.0,-0.9175240993499756,0.5682790279388428
-0.0446435920894146,1.057868719100952,-0.1515404880046844,-0.6975973844528198,-0.0436396189033985,0.0251661986112594,0.0,0.0,-0.7340693473815918,0.3035486936569214
-0.0461623184382915,1.0417139530181885,-0.1536299288272857,-0.7179402112960815,-0.0419025607407093,0.0347411632537841,0.0,0.0,0.4385128021240234,0.3019264936447143
-0.0476589202880859,1.02591872215271,-0.1519677639007568,-0.7019447088241577,-0.0396234206855297,0.0455828011035919,0.0,0.0,-0.4759105443954468,0.4736523628234863
-0.0491693504154682,1.0096657276153564,-0.1538307517766952,-0.7222880721092224,-0.0368698798120021,0.0550708584487438,0.0,0.0,-0.4699324369430542,0.6005053520202637
-0.0506471619009971,0.9929491877555848,-0.1498896330595016,-0.7429084181785583,-0.0347872376441955,0.041652888059616,0.0,0.0,-0.6726317405700684,0.1531966924667358
-0.0521366111934185,0.9757747650146484,-0.1515286266803741,-0.7632518410682678,-0.0322350785136222,0.0510434508323669,0.0,0.0,-0.3800413012504577,0.2912361621856689
-0.0536365509033203,0.9581424593925476,-0.153057187795639,-0.7835954427719116,-0.0292160343378782,0.0603808648884296,0.0,0.0,0.1645582914352417,0.1428481340408325
-0.0551136024296283,0.9406939148902892,-0.1513257324695587,-0.7754236459732056,-0.025640832260251,0.0715038403868675,0.0,0.0,-0.1544122695922851,0.7039568424224854
-0.0565531738102436,0.9227917790412904,-0.1468787044286728,-0.7956027984619141,-0.0227559339255094,0.057698119431734,0.0,0.0,0.478419542312622,0.7921931743621826
-0.0578035339713096,0.9051262736320496,-0.1270200759172439,-0.7851078510284424,-0.0208009127527475,0.0391004271805286,0.0,0.0,0.2905300855636596,0.7034133672714233
-0.0589149482548236,0.8873580098152161,-0.112281396985054,-0.7896820902824402,-0.0196655560284852,0.0227070245891809,0.0,0.0,0.7954059839248657,0.747799277305603
-0.0598435401916503,0.869986891746521,-0.0932231396436691,-0.7720518112182617,-0.0193127561360597,0.0070560155436396,0.0,0.0,0.3840334415435791,0.0460656881332397
-0.0608059875667095,0.8525286316871643,-0.0968933254480362,-0.775909960269928,-0.0186703912913799,0.0128470789641141,0.0,0.0,0.2042495012283325,-0.1552950143814087
-0.0617339126765728,0.8349769711494446,-0.0940531566739082,-0.7800586819648743,-0.0174301527440547,0.0248049311339855,0.0,0.0,0.2485674619674682,0.1615095138549804
-0.0626126304268837,0.8174728155136108,-0.0897832736372947,-0.777941882610321,-0.0155380060896277,0.0378429405391216,0.0,0.0,0.2304438352584839,0.7322604656219482
-0.0635198578238487,0.8004507422447205,-0.0914956778287887,-0.756522536277771,-0.0147831737995147,0.0150965554639697,0.0,0.0,0.3061280250549316,-0.4195699691772461
-0.0645238906145095,0.7839078307151794,-0.1011054068803787,-0.7352336645126343,-0.0140844993293285,0.013973394408822,0.0,0.0,-0.7660225033760071,-0.0614639520645141
-0.0655281096696853,0.7669072151184082,-0.1015588268637657,-0.7555776834487915,-0.0129620218649506,0.0224495939910411,0.0,0.0,-0.3775184154510498,0.6456260681152344
-0.066468521952629,0.7494472861289978,-0.0939955040812492,-0.7759979963302612,-0.0130111528560519,-0.0009825070155784,0.0,0.0,0.5067334175109863,0.28101646900177
-0.0674514770507812,0.7325381636619568,-0.0984218567609787,-0.7515115737915039,-0.0128911184147,0.0024005994200706,0.0,0.0,-0.1441495418548584,-0.0532054305076599
-0.0684327110648155,0.7151713371276855,-0.098648115992546,-0.7718555331230164,-0.0123653784394264,0.0105147901922464,0.0,0.0,0.4497175216674804,0.9020781517028807
-0.069328024983406,0.6984034776687622,-0.0886603146791458,-0.7452458739280701,-0.0132310166954994,-0.0173130147159099,0.0,0.0,-0.2148925065994262,0.449252724647522
-0.0702204704284668,0.6811777949333191,-0.0887554287910461,-0.7655898928642273,-0.0137051688507199,-0.0094830822199583,0.0,0.0,0.5069460868835449,0.5063776969909668
-0.0711567848920822,0.6641378402709961,-0.0922794789075851,-0.7573469877243042,-0.0150462230667471,-0.0268210805952548,0.0,0.0,0.4357724189758301,0.6604580879211426
-0.0719366073608398,0.6476816534996033,-0.0758424550294876,-0.7314059734344482,-0.0171522684395313,-0.0421209186315536,0.0,0.0,-0.1441099643707275,-0.3733104467391968
-0.0727119445800781,0.6307678818702698,-0.075773999094963,-0.7517502307891846,-0.0188919082283973,-0.0347927063703537,0.0,0.0,0.6789489984512329,0.2014627456665039
-0.0733907669782638,0.6146488785743713,-0.0668407306075096,-0.7164157032966614,-0.0199234597384929,-0.020630981773138,0.0,0.0,0.0852657556533813,0.6310606002807617
-0.074060633778572,0.5988517999649048,-0.0649439990520477,-0.7021194696426392,-0.0219355728477239,-0.0402423851191997,0.0,0.0,0.0102578401565551,0.5166316032409668
-0.0746445655822753,0.5829295516014099,-0.0557155683636665,-0.7076953649520874,-0.0245819240808486,-0.052927054464817,0.0,0.0,0.071286916732788,0.8938405513763428
-0.0752178207039833,0.567236602306366,-0.0531681254506111,-0.6975406408309937,-0.028685612604022,-0.0820735618472099,0.0,0.0,0.469673752784729,-0.335599422454834
-0.0756623297929763,0.5517709851264954,-0.0411332026124,-0.6874281167984009,-0.0319682098925113,-0.0656520277261734,0.0,0.0,0.3262748718261719,0.1856920719146728
-0.0760665908455848,0.5365844368934631,-0.0374901816248893,-0.6750243902206421,-0.0348631031811237,-0.0578977689146995,0.0,0.0,0.4208393096923828,-0.1834669113159179
-0.0764462500810623,0.5214564204216003,-0.0353649333119392,-0.6724153161048889,-0.037440001964569,-0.0515378005802631,0.0,0.0,-0.3777000904083252,-0.1004658341407775
-0.0768203735351562,0.5058706998825073,-0.0350730679929256,-0.6927594542503357,-0.0397439189255237,-0.046078473329544,0.0,0.0,0.8889641761779785,0.5560070276260376
-0.0770796760916709,0.4912960827350616,-0.022817064076662,-0.6478483080863953,-0.04282071813941,-0.0615361109375953,0.0,0.0,0.62003493309021,0.7896294593811035
-0.0771701782941818,0.4766744077205658,-0.0047528007999062,-0.6499846577644348,-0.0470687486231327,-0.0849603787064552,0.0,0.0,0.232067584991455,0.0041450262069702
-0.0772053748369216,0.4625474512577057,0.0004542868118733,-0.6279953122138977,-0.0509964413940906,-0.0785537362098693,0.0,0.0,0.3319902420043945,-0.424172043800354
-0.0772918686270713,0.4485402405261993,-0.0045422702096402,-0.6226854920387268,-0.0550644919276237,-0.0813608542084693,0.0,0.0,0.6594429016113281,-0.7302658557891846
-0.0774949043989181,0.4351101815700531,-0.0176451131701469,-0.5969937443733215,-0.0576901771128177,-0.0525137372314929,0.0,0.0,0.709040641784668,-0.0551447868347168
-0.0776247978210449,0.4221835732460022,-0.0106622660532593,-0.5746068358421326,-0.0599927119910717,-0.0460507906973362,0.0,0.0,-0.2540107369422912,-0.2945355176925659
-0.0777509659528732,0.4087991416454315,-0.010449044406414,-0.5949509143829346,-0.0621372386813163,-0.0428907088935375,0.0,0.0,0.7122879028320312,0.1016932725906372
-0.0777607932686805,0.3958459198474884,0.0006943402695469,-0.5757726430892944,-0.0637899711728096,-0.0330546870827674,0.0,0.0,-0.3875192403793335,-0.0982385873794555
-0.0777678489685058,0.3824348151683807,0.0008364164968952,-0.5961167216300964,-0.0653219148516655,-0.0306386686861515,0.0,0.0,0.7148581743240356,0.1911278963088989
-0.0776804909110069,0.3690639734268188,0.0098516261205077,-0.5943077206611633,-0.0664256140589714,-0.022073995321989,0.0,0.0,0.8079676628112793,-0.4732041954994201
-0.0776016265153884,0.355794757604599,0.009078879840672,-0.5897976160049438,-0.0676067695021629,-0.0236231461167335,0.0,0.0,0.8295719623565674,-0.177969217300415
-0.0774720162153244,0.3433831930160522,0.0141292260959744,-0.5516771674156189,-0.0687676891684532,-0.0232182182371616,0.0,0.0,0.2742207050323486,-0.066369354724884
-0.0772377997636795,0.331449031829834,0.0242594126611948,-0.5304456353187561,-0.069599263370037,-0.016631580889225,0.0,0.0,0.2450519800186157,-0.7201359272003174
-0.0771133452653884,0.3200018405914306,0.0119444923475384,-0.5087387561798096,-0.0690948069095611,0.0100892707705497,0.0,0.0,0.4813108444213867,-0.0720953345298767
-0.0770859718322753,0.308553397655487,0.0027641565538942,-0.5088229775428772,-0.0691216811537742,-0.0005375471664592,0.0,0.0,0.4933645725250244,0.5380172729492188
-0.0769301429390907,0.2977126836776733,0.0166014470160007,-0.4818554818630218,-0.0701354369521141,-0.0202751662582159,0.0,0.0,0.1119900941848754,-0.1893380284309387
-0.0768192261457443,0.2870010137557983,0.012475786730647,-0.4761365354061126,-0.0714970454573631,-0.027232464402914,0.0,0.0,-0.0063686370849609,-0.3634440898895263
-0.0767130851745605,0.2758317291736603,0.0120331002399325,-0.4964814186096191,-0.0729093626141548,-0.0282462090253829,0.0,0.0,0.4937930107116699,-0.3848627805709839
-0.0765777602791786,0.2651518285274505,0.0150794554501771,-0.4747384488582611,-0.0744403898715972,-0.030620589852333,0.0,0.0,0.2372140884399414,-0.5812550187110901
-0.0763913169503212,0.2546631693840027,0.0189776290208101,-0.4661775529384613,-0.07476557046175,-0.0065039573237299,0.0,0.0,0.2891454696655273,0.0864748954772949
-0.0761747360229492,0.2441142946481704,0.0220028571784496,-0.4688538610935211,-0.0751082897186279,-0.0068542635999619,0.0,0.0,0.0609650611877441,-0.2096878290176391
-0.07588891685009,0.2334878742694854,0.0287729147821664,-0.4722937643527984,-0.0752948671579361,-0.003731723409146,0.0,0.0,0.4337202310562134,-0.810396671295166
-0.075497530400753,0.2231359779834747,0.037630558013916,-0.4600109755992889,-0.0738066136837005,0.02976512350142,0.0,0.0,0.3558340072631836,-0.6378419399261475
-0.0750192627310752,0.2127973884344101,0.0449596270918846,-0.4593517184257507,-0.0709647238254547,0.0568377263844013,0.0,0.0,0.5925698280334473,-0.7454590797424316
-0.074567511677742,0.2030972987413406,0.0409779176115989,-0.4309224486351013,-0.066813439130783,0.0830254927277565,0.0,0.0,-0.3075898289680481,-0.1559781432151794
-0.0741305351257324,0.192939892411232,0.0396850258111953,-0.4512693285942077,-0.062840886414051,0.0794510915875434,0.0,0.0,0.4512687921524048,0.5952610969543457
-0.0735068321228027,0.1831888109445572,0.059484988451004,-0.4332649111747741,-0.0599837228655815,0.0571428723633289,0.0,0.0,0.0703226327896118,-0.4008185863494873
-0.0728227645158767,0.1732909530401229,0.065425269305706,-0.4397867023944855,-0.0570287406444549,0.0590995363891124,0.0,0.0,0.2257331609725952,-0.3912965059280395
-0.0721748322248458,0.1635047495365142,0.0621949918568134,-0.434845507144928,-0.0544703863561153,0.0511675365269184,0.0,0.0,0.0805394649505615,-0.8702934980392456
-0.071520134806633,0.1541169434785843,0.0613505057990551,-0.4170887768268585,-0.0503928810358047,0.0815501138567924,0.0,0.0,0.1100984811782836,-0.2395012378692627
-0.0708835572004318,0.1448458731174469,0.0598421171307563,-0.4119237959384918,-0.0466257818043231,0.0753419995307922,0.0,0.0,0.2289115190505981,-0.7482526898384094
-0.0704063400626182,0.1360224038362503,0.0427725426852703,-0.3920089304447174,-0.0417371802031993,0.0977722555398941,0.0,0.0,0.2310829162597656,-0.1308267712593078
-0.0698675140738487,0.1275168806314468,0.0488977096974849,-0.3778918981552124,-0.0368055813014507,0.0986317992210388,0.0,0.0,-0.2056913375854492,-0.6679519414901733
-0.0694123283028602,0.1185621619224548,0.0393280535936355,-0.3978473246097564,-0.0306922290474176,0.1222673058509826,0.0,0.0,0.846947193145752,-0.1260443925857544
-0.0690516456961631,0.11040960252285,0.0305809937417507,-0.3622356653213501,-0.0252805054187774,0.1082345023751258,0.0,0.0,0.5288848876953125,0.677605152130127
-0.0686803832650184,0.1024873554706573,0.0333471857011318,-0.3520434200763702,-0.0215488020330667,0.0746342614293098,0.0,0.0,0.4701719284057617,0.5319905281066895
-0.0683982819318771,0.0949128717184066,0.0260719321668148,-0.33661550283432,-0.0194386262446641,0.0422036945819854,0.0,0.0,0.1601594686508178,0.7386754751205444
-0.068203255534172,0.0874324440956115,0.0192754454910755,-0.3324609100818634,-0.0192140638828277,0.0044909710995852,0.0,0.0,0.6402363777160645,0.9545167684555054
-0.0678342804312706,0.0805643424391746,0.0387337356805801,-0.3052721917629242,-0.0210356619209051,-0.0364316739141941,0.0,0.0,0.2324918508529663,-0.1779309511184692
-0.0674492865800857,0.0736500322818756,0.0404425747692585,-0.307332307100296,-0.0229517593979835,-0.0383218191564083,0.0,0.0,0.371553897857666,-0.1892927289009094
-0.0669662505388259,0.0672237500548362,0.0499959997832775,-0.2856407165527344,-0.0246221479028463,-0.0334080383181571,0.0,0.0,-0.0080203413963317,-0.1758371591567993
-0.0665216445922851,0.0603398419916629,0.0464752875268459,-0.3059860467910766,-0.026608508080244,-0.0397272780537605,0.0,0.0,0.7691828012466431,-0.2591606378555298
-0.0659398064017295,0.0543643087148666,0.0598079338669776,-0.2656087279319763,-0.028208389878273,-0.0319978706538677,0.0,0.0,-0.0401445627212524,-0.4812544584274292
-0.0653992667794227,0.0479312278330326,0.0560029745101928,-0.2859541177749634,-0.0301324501633644,-0.0384813323616981,0.0,0.0,0.6608191728591919,0.6252155303955078
-0.0648349747061729,0.0422755591571331,0.0599869266152381,-0.2514379620552063,-0.0336459353566169,-0.0702695697546005,0.0,0.0,0.3632303476333618,-0.4665835499763489
-0.0642430335283279,0.0371341556310653,0.0628608241677284,-0.2285925894975662,-0.0372589081525802,-0.0722596421837806,0.0,0.0,-0.2043437957763672,0.5344133377075195
-0.0636487007141113,0.0315300561487674,0.0646480470895767,-0.2492068856954574,-0.0424115359783172,-0.1030524596571922,0.0,0.0,0.319859504699707,-0.4429494142532348
-0.0631778687238693,0.0262154191732406,0.053086370229721,-0.2363907843828201,-0.0483528152108192,-0.1188253909349441,0.0,0.0,0.6609964370727539,-0.0421482920646667
-0.0628592520952224,0.0212284419685602,0.038819782435894,-0.2218820452690124,-0.0552300699055194,-0.137544959783554,0.0,0.0,0.4242857694625854,-0.5866188406944275
-0.0626298934221267,0.016517624258995,0.0291002690792083,-0.2096106708049774,-0.0613252148032188,-0.1219030022621154,0.0,0.0,0.6705379486083984,-0.0446089506149292
-0.0623921379446983,0.0121549228206276,0.0301685035228729,-0.1941705644130706,-0.0676419138908386,-0.1263339221477508,0.0,0.0,0.7039229869842529,-0.2618828415870666
-0.0620469078421592,0.0078767631202936,0.0406253933906555,-0.1904308199882507,-0.0736801773309707,-0.1207654625177383,0.0,0.0,0.6587018966674805,-0.2638051509857178
-0.0615185722708702,0.0049019791185855,0.0396067947149276,-0.1316074579954147,-0.0606097504496574,0.2613836228847503,1.0,0.0,0.3019349575042724,-0.5278120040893555
-0.0608695968985557,0.003001902019605,0.0347839072346687,-0.083502359688282,-0.0308279488235712,0.5956646800041199,1.0,0.0,0.1230273246765136,0.5758960247039795
