x_pos,y_pos,x_vel,y_vel,angle,ang_vel,leg_1,leg_2,main_booster,lat_booster
-0.0014622688759118,1.403523325920105,-0.1480842977762222,-0.3287566304206848,0.0016628267476335,0.0327932685613632,0.0,0.0,0.8138504555400834,0.7241664505172265
-0.0027458190452307,1.3968044519424438,-0.1286324262619018,-0.2986150681972503,0.0019350075162947,0.0054448070004582,0.0,0.0,-0.8114263847565641,0.4088701335499126
-0.0039694784209132,1.3899836540222168,-0.1225681453943252,-0.3031505346298218,0.0021397941745817,0.0040963222272694,0.0,0.0,-0.6290840834022624,-0.9551929641507672
-0.005223941989243,1.383057951927185,-0.1278825849294662,-0.3078115880489349,0.0045399717055261,0.0480083003640174,0.0,0.0,-0.2168332414501188,0.7267222095999156
-0.0063511850312352,1.3760337829589844,-0.1133246570825576,-0.3121906518936157,0.0051279063336551,0.0117598194628953,0.0,0.0,-0.7555729935109148,-0.0671767957344905
-0.0074215889908373,1.3689080476760864,-0.1075685769319534,-0.3166969716548919,0.0056519121862947,0.0104811694473028,0.0,0.0,-0.1730849345108929,0.3126056358468507
-0.008436108008027,1.36168110370636,-0.1019235029816627,-0.3212030529975891,0.0061111897230148,0.0091864420101046,0.0,0.0,-0.0359867092802872,-0.748530068348894
-0.0094403270632028,1.3543545007705688,-0.1019561290740966,-0.3256349563598633,0.0076222089119255,0.0302231796085834,0.0,0.0,0.9643334897341692,0.4832424763967385
-0.0104130748659372,1.3484187126159668,-0.0986706167459487,-0.2638195753097534,0.009001730941236,0.0275934003293514,0.0,0.0,0.370499346499392,-0.3441585111793821
-0.0113395694643259,1.343285083770752,-0.0939872711896896,-0.228169098496437,0.010316832922399,0.0263044591993093,0.0,0.0,0.405334969448283,0.8277055297985715
-0.0120724681764841,1.3388113975524902,-0.0730149894952774,-0.1988291293382644,0.0100445570424199,-0.0054460032843053,0.0,0.0,-0.1066089985143401,0.6859819114550872
-0.0126952175050973,1.3342357873916626,-0.06040009111166,-0.2033500671386718,0.0081946598365902,-0.0370011739432811,0.0,0.0,0.4994885540898124,0.9100668302708644
-0.0130690578371286,1.3305184841156006,-0.0338069982826709,-0.1652031987905502,0.004652249161154,-0.0708551183342933,0.0,0.0,-0.965890015946808,-0.1565940117470053
-0.0133956912904977,1.3266997337341309,-0.0290314611047506,-0.169717937707901,0.00105380511377,-0.071974977850914,0.0,0.0,-0.1980457292832098,-0.8680854167572141
-0.0137290954589843,1.3227884769439695,-0.0309779588133096,-0.1738268882036209,-0.0012807593448087,-0.0466954037547111,0.0,0.0,-0.3698456167708148,0.586864499336976
-0.0139634134247899,1.318769097328186,-0.0196234919130802,-0.1786458641290664,-0.0050455387681722,-0.0753025040030479,0.0,0.0,0.4230874274311522,-0.8873403737860149
-0.0140863414853811,1.3157635927200315,-0.0103700030595064,-0.1335866004228592,-0.0069456156343221,-0.0380048342049121,0.0,0.0,0.3788178990262079,-0.3283939945403068
-0.0140467640012502,1.3131242990493774,0.0053658643737435,-0.1173084527254104,-0.0083404695615172,-0.0278993546962738,0.0,0.0,0.0516156715813003,-0.7619469361939633
-0.0139516834169626,1.3111572265625,0.0093964608386158,-0.0874296128749847,-0.0082260891795158,0.0022876511793583,0.0,0.0,-0.9649948819073452,-0.2705629063119037
-0.0138181690126657,1.3090884685516355,0.0132810473442077,-0.0919404402375221,-0.0081601971760392,0.0013179844245314,0.0,0.0,0.2776756354985636,0.5505294241178987
-0.0134917255491018,1.307792901992798,0.0335052870213985,-0.0575890466570854,-0.0090049924328923,-0.0168973170220851,0.0,0.0,0.4140687647911005,0.975444092763848
-0.0130377765744924,1.3069570064544678,0.0482390411198139,-0.0371663942933082,-0.0118234427645802,-0.0563743636012077,0.0,0.0,-0.7565465020874573,-0.033314693310208
-0.0125500680878758,1.306019902229309,0.0516654476523399,-0.0416748076677322,-0.0146837439388036,-0.0572106428444385,0.0,0.0,0.439048640557985,0.1821264624830819
-0.011965274810791,1.30538809299469,0.0611324831843376,-0.0281119141727685,-0.0173026602715253,-0.0523831769824028,0.0,0.0,-0.8458424069849251,-0.7268783033392163
-0.0114208217710256,1.3046585321426392,0.055328257381916,-0.0324302352964878,-0.0181745626032352,-0.0174395125359296,0.0,0.0,0.7985461939228573,-0.4102139324310725
-0.0109922410920262,1.3049602508544922,0.0445217378437519,0.0133844250813126,-0.0198183115571737,-0.0328751876950264,0.0,0.0,0.0615196911921669,-0.4014642423508912
-0.0105244638398289,1.3058602809906006,0.048466183245182,0.039987489581108,-0.0214863345026969,-0.0333604179322719,0.0,0.0,0.7669402265038983,0.985215919659048
-0.0100903511047363,1.3079957962036133,0.0473461486399173,0.0948474705219268,-0.0253679621964693,-0.0776323899626731,0.0,0.0,0.8911603435307445,0.328044067603803
-0.0097585674375295,1.3113653659820557,0.0378334857523441,0.149674117565155,-0.0299721974879503,-0.0920847058296203,0.0,0.0,0.288998614885894,-0.6822030951037698
-0.0094649316743016,1.3152049779891968,0.0327137932181358,0.1705741137266159,-0.0332778878509998,-0.0661140605807304,0.0,0.0,-0.0428622364690705,-0.1585975120123643
-0.0091499332338571,1.3189431428909302,0.0348712839186191,0.1660686284303665,-0.0366112031042575,-0.0666662603616714,0.0,0.0,-0.6228134036064148,-0.6407614350318909
-0.0088725090026855,1.3225796222686768,0.0296872146427631,0.1615723967552185,-0.0385314114391803,-0.0384044274687767,0.0,0.0,-0.4598058462142944,-0.4599783420562744
-0.0085767749696969,1.3261148929595947,0.031540747731924,0.1570675671100616,-0.0404753945767879,-0.0388795733451843,0.0,0.0,-0.4557263851165771,-0.1434766054153442
-0.0082642557099461,1.329548716545105,0.0332457646727561,0.1525626927614212,-0.0424412414431571,-0.0393170788884162,0.0,0.0,-0.4461911916732788,-0.3893653750419616
-0.007936286740005,1.3328813314437866,0.0348049625754356,0.1480578333139419,-0.0444271378219127,-0.0397176519036293,0.0,0.0,-0.5013563632965088,-0.3346632122993469
-0.0075943944975733,1.33611261844635,0.0362213402986526,0.1435529738664627,-0.0464312434196472,-0.0400821343064308,0.0,0.0,-0.5349029302597046,-0.3078334331512451
-0.007239818572998,1.3392425775527954,0.0374981649219989,0.1390481144189834,-0.0484518073499202,-0.0404114350676536,0.0,0.0,-0.261676549911499,-0.3054344654083252
-0.0068739890120923,1.342271327972412,0.0386389605700969,0.1345432549715042,-0.0504871495068073,-0.0407067090272903,0.0,0.0,-0.2367445230484008,-0.3804302215576172
-0.0064982413314282,1.3451987504959106,0.0396475084125995,0.1300383955240249,-0.0525355711579322,-0.0409684851765632,0.0,0.0,-0.3510751724243164,-0.6948376893997192
-0.0061661722138524,1.348029851913452,0.0339644625782966,0.1258029490709304,-0.053277526050806,-0.0148392487317323,0.0,0.0,-0.481005311012268,-0.2904989719390869
-0.0058265686966478,1.3507598638534546,0.0347207337617874,0.1212983950972557,-0.0540294274687767,-0.0150377796962857,0.0,0.0,-0.5860005021095276,0.0512119531631469
-0.0054806708358228,1.3533883094787598,0.035357367247343,0.1167938411235809,-0.0547897405922412,-0.0152064021676778,0.0,0.0,-0.3161382675170898,-0.3470597267150879
-0.0051297186873853,1.3559155464172363,0.0358789563179016,0.1122892871499061,-0.0555570498108863,-0.0153463305905461,0.0,0.0,-0.3411116600036621,-0.8077456951141357
-0.0048279762268066,1.3583441972732544,0.029596472159028,0.1079592704772949,-0.0549878478050231,0.0113835418596863,0.0,0.0,-0.1789886355400085,0.1862789392471313
-0.0045232772827148,1.3606715202331543,0.0299023650586605,0.1034547537565231,-0.0544229820370674,0.0112972166389226,0.0,0.0,-0.4790202975273132,-0.0002625584602355
-0.0042165755294263,1.362897515296936,0.0301078911870718,0.0989502519369125,-0.0538611970841884,0.011235749348998,0.0,0.0,-0.2772409915924072,0.2573983669281006
-0.003908634185791,1.36502206325531,0.0302182044833898,0.0944457426667213,-0.0533013194799423,0.011197792366147,0.0,0.0,-0.2525498270988464,0.1128962039947509
-0.0036005973815917,1.367045283317566,0.0302385594695806,0.0899412482976913,-0.0527422204613685,0.0111819803714752,0.0,0.0,-0.3824868202209472,-0.4606750011444092
-0.0032932281028479,1.3689671754837036,0.0301742944866418,0.0854367539286613,-0.0521828830242157,0.0111869079992175,0.0,0.0,-0.4309545159339905,-0.2272475361824035
-0.0029871941078454,1.3707877397537231,0.0300308354198932,0.0809322744607925,-0.0516223199665546,0.0112111894413828,0.0,0.0,-0.3790249824523926,-0.472794771194458
-0.00268344883807,1.3725069761276243,0.0298136621713638,0.0764277949929237,-0.0510596521198749,0.0112533643841743,0.0,0.0,-0.49118173122406,-0.4642256498336792
-0.0023824691306799,1.3741248846054075,0.0295283161103725,0.0719233229756355,-0.0504940599203109,0.0113119836896657,0.0,0.0,-0.5415735840797424,-0.4387140274047851
-0.0020848275162279,1.3756413459777832,0.0291803777217865,0.0674188360571861,-0.0499247871339321,0.0113855963572859,0.0,0.0,-0.3766275644302368,-0.4116213321685791
-0.0017912865150719,1.37705659866333,0.0287754479795694,0.0629143640398979,-0.0493511408567428,0.0114727541804313,0.0,0.0,-0.5550752282142639,-0.5913289785385132
-0.001537513686344,1.3783706426620483,0.0238985903561115,0.0584562830626964,-0.047887485474348,0.0292732622474432,0.0,0.0,-0.196412444114685,0.1677495241165161
-0.0012887001503258,1.3795835971832275,0.0233965851366519,0.053951658308506,-0.0464183203876018,0.0293831042945384,0.0,0.0,-0.102586030960083,-0.1735134124755859
-0.0010453223949298,1.380695104598999,0.022854521870613,0.0494470372796058,-0.0449432171881198,0.029502073302865,0.0,0.0,-0.3388910293579101,-0.5083686709403992
-0.0008384704706259,1.3817094564437866,0.0183972306549549,0.0451506413519382,-0.0426818318665027,0.0452276989817619,0.0,0.0,-0.4067975282669067,-0.285678505897522
-0.0006375312805175,1.382622480392456,0.0177919492125511,0.0406457670032978,-0.040413811802864,0.0453605502843856,0.0,0.0,-0.5064429640769958,-0.3798586130142212
-0.0004427909734658,1.3834342956542969,0.0171634946018457,0.0361408926546573,-0.0381389111280441,0.0454981140792369,0.0,0.0,-0.3749896883964538,0.2003113031387329
-0.000254535669228,1.384144902229309,0.0165174584835767,0.0316360145807266,-0.0358569584786891,0.0456390045583248,0.0,0.0,-0.2724368572235107,-0.2741715908050537
-7.276535325217992e-05,1.3847541809082031,0.0158593971282243,0.0271311346441507,-0.0335678644478321,0.0457817241549491,0.0,0.0,-0.0430196523666381,-0.4250933527946472
0.0001024246230372,1.385262131690979,0.0151948286220431,0.0226262509822845,-0.0312716141343116,0.0459248721599578,0.0,0.0,-0.5926999449729919,-0.0591626167297363
0.0002709388791117,1.3856686353683472,0.014529226347804,0.0181213617324829,-0.0289682578295469,0.0460669808089733,0.0,0.0,-0.3577746152877807,0.0128592252731323
0.0004330635129008,1.3859740495681765,0.0138680189847946,0.0136164678260684,-0.0266579296439886,0.0462066419422626,0.0,0.0,-0.2826472520828247,-0.372023344039917
0.000588703143876,1.3861782550811768,0.0132165728136897,0.0091115711256861,-0.0243408028036355,0.0463424921035766,0.0,0.0,0.0377838611602783,-0.2036585807800293
0.0007645607111044,1.3870866298675537,0.0151752633973956,0.040413249284029,-0.0219547599554061,0.0477208197116851,0.0,0.0,-0.3840240240097046,0.6136693954467773
0.0009894371032714,1.3878846168518066,0.0214709788560867,0.0354813151061534,-0.0209499150514602,0.0200966522097587,0.0,0.0,-0.2464436888694763,-0.5019756555557251
0.00117053987924,1.388588309288025,0.0161291025578975,0.0313013829290866,-0.0189853832125663,0.039290614426136,0.0,0.0,-0.3664506673812866,-0.2729654312133789
0.0013463019859045,1.389190673828125,0.0155690656974911,0.0267966017127037,-0.0170155186206102,0.0393975600600242,0.0,0.0,-0.5224955081939697,0.3489410877227783
0.0015167236560955,1.3896918296813965,0.0150445830076932,0.0222918186336755,-0.0150408232584595,0.0394940003752708,0.0,0.0,-0.1950216293334961,-0.09001225233078
0.0016823768382892,1.3900916576385498,0.0145605625584721,0.0177870318293571,-0.0130618978291749,0.0395786389708519,0.0,0.0,-0.3195993900299072,0.1709785461425781
0.0018437386024743,1.3903900384902954,0.0141218081116676,0.0132822412997484,-0.0110793812200427,0.0396502390503883,0.0,0.0,-0.2647593021392822,-0.6485332250595093
0.0019560814835131,1.3905880451202393,0.0080797187983989,0.0088191637769341,-0.0079617388546466,0.0623528286814689,0.0,0.0,-0.1746314764022827,0.1547067165374755
0.0020651817321777,1.3906848430633545,0.0077454722486436,0.0043138856999576,-0.004842001479119,0.0623946972191333,0.0,0.0,-0.410817801952362,0.0812853574752807
0.0021714209578931,1.3906804323196411,0.0074702375568449,-0.0001913948799483,-0.001720999716781,0.0624199397861957,0.0,0.0,-0.1403608322143554,0.6118025779724121
0.0023215294349938,1.3905686140060425,0.0130138639360666,-0.0049745021387934,0.0002475621877238,0.0393713265657424,0.0,0.0,-0.1542040109634399,-0.4815288782119751
0.002470111940056,1.390355348587036,0.0128695089370012,-0.0094792926684021,0.0022155793849378,0.0393601581454277,0.0,0.0,-0.2890868186950683,-0.3727835416793823
0.0026180266868323,1.3900407552719116,0.012796739116311,-0.0139840813353657,0.004182041157037,0.0393291637301445,0.0,0.0,0.0866309404373169,-0.3357498049736023
0.0026899338699877,1.3904306888580322,0.0055415746755898,0.0173292700201272,0.0058044684119522,0.0324487276375293,0.0,0.0,0.011905550956726,-0.1202849149703979
0.0026821135543286,1.39102303981781,-0.0020469035953283,0.0263198316097259,0.0070566460490226,0.0250432826578617,0.0,0.0,-0.1472161412239074,-0.6201266050338745
0.0026300430763512,1.3915191888809204,-0.0076294289901852,0.0220341868698596,0.0094543443992733,0.0479539670050144,0.0,0.0,-0.0851569771766662,0.2403393983840942
0.0025804520118981,1.3919140100479126,-0.0073786019347608,0.0175292454659938,0.0118460608646273,0.0478342175483703,0.0,0.0,-0.0617966651916503,-0.2024056911468505
0.0025342940352857,1.3922075033187866,-0.0070384321734309,0.0130243059247732,0.0142305670306086,0.04769017547369,0.0,0.0,0.0442425012588501,0.5921118259429932
0.0025243759155273,1.3930665254592896,-0.0021945284679532,0.0381637103855609,0.0154173299670219,0.023735387250781,0.0,0.0,-0.0932759642601013,-0.5732614994049072
0.0024807930458337,1.3938233852386477,-0.0065341843292117,0.0336136892437934,0.017569251358509,0.0430385246872901,0.0,0.0,-0.1037145853042602,0.4070676565170288
0.0024434090591967,1.3944789171218872,-0.0059088114649057,0.029108852148056,0.0197101291269063,0.0428173132240772,0.0,0.0,-0.1569380760192871,0.5064913034439087
0.0024593353737145,1.3950307369232178,0.000624414649792,0.0245154164731502,0.020676389336586,0.0193251930177211,0.0,0.0,-0.2236577868461609,-0.4554755687713623
0.0024834633804857,1.3954813480377195,0.0014521204866468,0.020010894164443,0.0216288678348064,0.0190495457500219,0.0,0.0,-0.2124246954917907,-0.4671623706817627
0.0025168419815599,1.3958306312561035,0.0023839906789362,0.0155063802376389,0.0225661695003509,0.0187459532171487,0.0,0.0,0.0212832689285278,-0.7553015351295471
0.0024860382545739,1.3967783451080322,-0.0055348589085042,0.0420795604586601,0.0249864179641008,0.0484050512313842,0.0,0.0,-0.3142935037612915,0.547003984451294
0.002511978149414,1.3976304531097412,0.0013123201206326,0.037854179739952,0.0262444000691175,0.0251598171889781,0.0,0.0,-0.1219289898872375,-0.2612828612327575
0.0025501251220703,1.3983813524246216,0.0025658570230007,0.033349622040987,0.0274829193949699,0.0247702691704034,0.0,0.0,-0.1438596248626709,0.0635820627212524
0.0026017189957201,1.3990308046340942,0.0039288708940148,0.0288450736552476,0.0287005063146352,0.0243516061455011,0.0,0.0,0.0132772922515869,-0.1425641179084777
0.0026267052162438,1.4000459909439087,0.0014363990630954,0.0450947247445583,0.0297465864568948,0.0209217499941587,0.0,0.0,-0.3523776531219482,0.3577617406845093
0.0026673316024243,1.4009597301483154,0.0030202870257198,0.0405902229249477,0.0307688023895025,0.0204444713890552,0.0,0.0,-0.1445450186729431,0.0310122966766357
0.0027245520614087,1.4017720222473145,0.0047150822356343,0.0360857397317886,0.0317656993865966,0.0199378468096256,0.0,0.0,0.000140905380249,-0.1078799962997436
0.0027090073563158,1.403201460838318,-0.002183569362387,0.0635177567601203,0.0323873274028301,0.0124324047937989,0.0,0.0,-0.0949892997741699,-0.0052721500396728
0.0027123452164232,1.4045295715332031,-0.000267241790425,0.059013333171606,0.0329806916415691,0.0118672773241996,0.0,0.0,-0.2258319854736328,0.1616159677505493
0.0027356147766113,1.4057563543319702,0.0017592331860214,0.0545089282095432,0.0335443615913391,0.0112731540575623,0.0,0.0,-0.3232142925262451,-0.2238378524780273
0.0027798651717603,1.4068816900253296,0.003895127447322,0.0500045269727706,0.0340768918395042,0.0106502743437886,0.0,0.0,-0.2914312481880188,-0.5444905161857605
0.0028015137650072,1.407901644706726,0.0005171436932869,0.0452916510403156,0.0357048250734806,0.032558761537075,0.0,0.0,-0.3031777143478393,-0.0094482898712158
0.0028463364578783,1.408820390701294,0.0028687878511846,0.0407870598137378,0.0372987985610961,0.0318792834877967,0.0,0.0,-0.0875142216682434,-0.639426589012146
0.00285215373151,1.409632682800293,-0.0026001872029155,0.0360212363302707,0.0404473952949047,0.062971793115139,0.0,0.0,-0.225339651107788,0.894673228263855
0.0029664039611816,1.4103540182113647,0.0103856334462761,0.0320326909422874,0.0414654910564422,0.0203619338572025,0.0,0.0,0.0418306589126586,-0.0929690599441528
0.0031358718406409,1.411325216293335,0.0157702378928661,0.0431285053491592,0.0426244921982288,0.0231800246983766,0.0,0.0,-0.2558121681213379,-0.2213878631591797
0.0033325194381177,1.4121949672698977,0.0185349080711603,0.0386240668594837,0.0437441170215606,0.0223927795886993,0.0,0.0,0.0863716602325439,-0.4030425548553467
0.0035202025901526,1.4137271642684937,0.0177355147898197,0.0680639520287513,0.0447534956037998,0.0201876554638147,0.0,0.0,-0.1084073781967163,0.1869603395462036
0.0037368773482739,1.415157914161682,0.0206942744553089,0.0635595619678497,0.0457209981977939,0.0193499866873025,0.0,0.0,-0.3267775774002075,0.589285135269165
0.0040362356230616,1.4164910316467283,0.0303321629762649,0.0592584162950515,0.0453243441879749,-0.0079327458515763,0.0,0.0,-0.3350656032562256,-0.1879221200942993
0.0043664933182299,1.4177227020263672,0.0334748215973377,0.0547541119158268,0.0448834411799907,-0.0088180499151349,0.0,0.0,-0.3424549102783203,-0.1487379670143127
0.0047286986373364,1.418852925300598,0.0367052033543586,0.0502498000860214,0.0443971343338489,-0.0097260838374495,0.0,0.0,-0.0735600590705871,-0.5215925574302673
0.0050878524780273,1.4198769330978394,0.0355462878942489,0.0454972423613071,0.044763620942831,0.0073295882903039,0.0,0.0,0.2200638055801391,-0.6342818140983582
0.005309390835464,0.0,0.0207275617867708,0.0709681808948516,0.0461827777326107,0.0283826738595962,0.0,0.0,-0.1783522963523864,0.5752620697021484
0.0056011201813817,1.4229719638824463,0.0286970771849155,0.0665349587798118,0.0466529801487922,0.0094040688127279,0.0,0.0,-0.1072005033493042,0.414502739906311
0.0059278486296534,1.4243680238723757,0.0322469547390937,0.0620306693017482,0.0470736660063266,0.0084137013182044,0.0,0.0,0.0604116916656494,0.3396286964416504
0.0062908171676099,1.426176905632019,0.035845011472702,0.0803769528865814,0.0475210025906562,0.00894689373672,0.0,0.0,-0.0772885680198669,0.1699421405792236
0.0066901207901537,1.4278843402862549,0.0395340695977211,0.0758726820349693,0.0479170568287372,0.0079208668321371,0.0,0.0,-0.4504589438438415,0.1999697685241699
0.0071265222504734,1.4294902086257937,0.0432872027158737,0.0713684260845184,0.0482609756290912,0.0068784588947892,0.0,0.0,-0.1731587648391723,0.1988934278488159
0.0076004983857274,1.430994987487793,0.0471006035804748,0.0668641626834869,0.048552006483078,0.0058206501416862,0.0,0.0,-0.0713812112808227,0.0782686471939086
0.0081126214936375,1.4323982000350952,0.0509703680872917,0.0623599141836166,0.0487894266843795,0.0047484757378697,0.0,0.0,-0.2029186487197876,0.1335897445678711
0.0086633684113621,1.4337000846862793,0.0548925325274467,0.0578556694090366,0.0489725768566131,0.0036630022805184,0.0,0.0,-0.1173997521400451,-0.0539681911468505
