x_pos,y_pos,x_vel,y_vel,angle,ang_vel,leg_1,leg_2,main_booster,lat_booster
-0.0015288352733477,1.4034414291381836,-0.1548680961132049,-0.3323881328105926,0.0017759308684617,0.0350326672196388,0.0,0.0,-0.2826465368270874,0.5970861911773682
-0.0030121803283691,1.395799994468689,-0.1487853229045868,-0.3396200835704803,0.0022254576906561,0.0089922910556197,0.0,0.0,0.3893599510192871,0.5347661972045898
-0.0043377876281738,1.3884811401367188,-0.132257729768753,-0.3252787292003631,0.0019239957910031,-0.0060299257747828,0.0,0.0,-0.45260751247406,0.7775378227233887
-0.0056195259094238,1.380976676940918,-0.1266221702098846,-0.3335289061069488,0.0003893548855558,-0.0306952986866235,0.0,0.0,-0.3132812976837158,0.0077693462371826
-0.0069064139388501,1.3732893466949463,-0.1271409392356872,-0.3416644632816314,-0.0011425549164414,-0.0306413173675537,0.0,0.0,0.0851590633392334,0.4562015533447265
-0.0081079481169581,1.3659536838531494,-0.1190398335456848,-0.3260271847248077,-0.0022410659585148,-0.0219721850007772,0.0,0.0,-0.5621436834335327,0.3697401285171509
-0.0093146320432424,1.3584349155426023,-0.1195606440305709,-0.3341695070266723,-0.0033366282004863,-0.0219133980572223,0.0,0.0,-0.216637372970581,0.5269660949707031
-0.0104748727753758,1.3507344722747805,-0.1135877966880798,-0.3422513902187347,-0.0057298536412417,-0.0478691905736923,0.0,0.0,-0.1738696098327636,0.4585422277450561
-0.0116400718688964,1.3428510427474976,-0.1141027584671974,-0.3503894507884979,-0.0081178499385714,-0.0477643832564353,0.0,0.0,-0.6490718126296997,0.3743760585784912
-0.0128103252500295,1.3347845077514648,-0.1146163791418075,-0.3585276305675506,-0.0105008268728852,-0.0476639717817306,0.0,0.0,-0.3447194099426269,0.5575065612792969
-0.0139354709535837,1.3265345096588137,-0.108829841017723,-0.3666924834251404,-0.014140429906547,-0.0727988332509994,0.0,0.0,-0.6519482731819153,0.4658043384552002
-0.0150655750185251,1.3181016445159912,-0.1093350052833557,-0.3748311996459961,-0.0177726577967405,-0.0726514905691146,0.0,0.0,-0.705223023891449,0.3129211664199829
-0.0162005424499511,1.309485912322998,-0.1098373979330062,-0.3829700648784637,-0.021397665143013,-0.0725065916776657,0.0,0.0,-0.1727691292762756,0.3718843460083008
-0.0173404701054096,1.300687313079834,-0.1103365421295166,-0.3911089301109314,-0.0250144582241773,-0.0723424777388572,0.0,0.0,-0.9489457607269288,0.3487387895584106
-0.0184852592647075,1.29170560836792,-0.1108316332101821,-0.3992478549480438,-0.0286223161965608,-0.0721637159585952,0.0,0.0,-0.5530754327774048,-0.0864086747169494
-0.0196348186582326,1.282541275024414,-0.1113223582506179,-0.407386839389801,-0.032220534980297,-0.0719706267118454,0.0,0.0,-0.3561885356903076,0.4899117946624756
-0.0207891464233398,1.2731937170028689,-0.1118082553148269,-0.4155259132385254,-0.0358083508908748,-0.0717627853155136,0.0,0.0,-0.9042088985443116,0.5314540863037109
-0.0218963623046875,1.2636560201644895,-0.1057953834533691,-0.4240211546421051,-0.0406902432441711,-0.097646415233612,0.0,0.0,-0.6600297689437866,-0.2483507394790649
-0.0230082515627145,1.2539355754852295,-0.1062662601470947,-0.4321614503860473,-0.0455594770610332,-0.0973936542868614,0.0,0.0,-0.904251515865326,-0.0088225603103637
-0.0241246223449707,1.244032382965088,-0.1067313775420188,-0.4403018057346344,-0.050416138023138,-0.0971418991684913,0.0,0.0,-0.6873794794082642,0.4111934900283813
-0.025245476514101,1.2339463233947754,-0.1071900725364685,-0.4484421014785766,-0.0552591867744922,-0.0968697369098663,0.0,0.0,-0.8696578741073608,-0.3588594198226928
-0.02637062035501,1.223677396774292,-0.1076416745781898,-0.4565825164318084,-0.0600878596305847,-0.0965819954872131,0.0,0.0,-0.3529199361801147,-0.2484930753707885
-0.0275001525878906,1.2132256031036377,-0.1080859303474426,-0.4647229611873626,-0.0649013891816139,-0.0962790697813034,0.0,0.0,-0.8529543876647949,-0.0159060955047607
-0.028633689507842,1.2025911808013916,-0.108522430062294,-0.4728634655475616,-0.0696990117430687,-0.0959609001874923,0.0,0.0,-0.9268098473548888,0.5660295486450195
-0.0297371856868267,1.1917718648910522,-0.1046605855226516,-0.4811338782310486,-0.0753407329320907,-0.112844206392765,0.0,0.0,-0.6447197794914246,-0.2706214189529419
-0.0308457370847463,1.180748462677002,-0.1051852852106094,-0.4902263879776001,-0.0809651911258697,-0.1124889403581619,0.0,0.0,-0.7831156253814697,-0.3997915983200073
-0.031958483159542,1.16954243183136,-0.1056097000837326,-0.4983649551868438,-0.0865721777081489,-0.1121398210525512,0.0,0.0,-0.5645013451576233,0.0851061344146728
-0.0330751426517963,1.1581536531448364,-0.106024757027626,-0.5065034627914429,-0.0921609848737716,-0.1117763891816139,0.0,0.0,-0.4859229326248169,-0.712125301361084
-0.0342635139822959,1.146597385406494,-0.1149612292647361,-0.5138537883758545,-0.0960022285580635,-0.0768248736858367,0.0,0.0,-0.6469821929931641,-0.9581949710845948
-0.0355340018868446,1.1348659992218018,-0.1251804828643798,-0.5215213894844055,-0.0978485643863678,-0.0369266867637634,0.0,0.0,-0.0773618817329406,0.0771247148513794
-0.0368080139160156,1.1229513883590698,-0.1255650967359542,-0.5296574831008911,-0.0996746718883514,-0.0365217253565788,0.0,0.0,0.4288866519927978,-0.5010020136833191
-0.038159467279911,1.1114331483840942,-0.1341565251350402,-0.5119824409484863,-0.100664272904396,-0.0197918582707643,0.0,0.0,-0.6970412135124207,0.6247261762619019
-0.0394716262817382,1.0997314453125,-0.129154235124588,-0.5202174782752991,-0.102705031633377,-0.0408151224255561,0.0,0.0,-0.0468994379043579,0.3576202392578125
-0.0407870300114154,1.087846755981445,-0.1295060068368911,-0.5283536314964294,-0.1047235503792762,-0.0403704680502414,0.0,0.0,-0.5224675536155701,-0.2159736156463623
-0.0421055778861045,1.075778841972351,-0.1298463195562362,-0.5364897847175598,-0.1067192181944847,-0.0399133116006851,0.0,0.0,-0.3124263286590576,0.5909823179244995
-0.0433789268136024,1.0635247230529783,-0.1241320595145225,-0.5448594689369202,-0.1099040135741233,-0.0636959820985794,0.0,0.0,-0.1192672252655029,-0.1945037841796875
-0.0446552261710166,1.0510876178741455,-0.1244488954544067,-0.5529959797859192,-0.1130647733807563,-0.0632147341966629,0.0,0.0,-0.7820016145706177,0.1506991386413574
-0.0459342971444129,1.038467526435852,-0.1247536689043045,-0.561132550239563,-0.1162008717656135,-0.0627220049500465,0.0,0.0,-0.5746275782585144,-0.3057483434677124
-0.0472160354256629,1.0256645679473877,-0.1250462234020233,-0.5692691206932068,-0.1193117797374725,-0.0622182488441467,0.0,0.0,-0.9171819686889648,-0.5068954229354858
-0.0485382080078125,1.012686014175415,-0.1300845444202423,-0.5769965052604675,-0.1214324608445167,-0.0424135848879814,0.0,0.0,0.4027780294418335,-0.6744080781936646
-0.0499345771968364,1.000542163848877,-0.1387000530958175,-0.5397984385490417,-0.122358925640583,-0.0185293946415185,0.0,0.0,-0.6260467171669006,0.040528655052185
-0.0513331405818462,0.9882153868675232,-0.138955146074295,-0.5479342341423035,-0.1232586875557899,-0.0179953463375568,0.0,0.0,-0.5896177291870117,-0.3181822299957275
-0.0527338981628418,0.97570538520813,-0.1391976326704025,-0.5560699701309204,-0.1241312846541404,-0.0174519382417202,0.0,0.0,-0.9482892155647278,0.4771935939788818
-0.0541366562247276,0.9630123376846312,-0.1394274979829788,-0.5642057061195374,-0.1249762624502182,-0.0168997608125209,0.0,0.0,-0.230529248714447,-0.603961706161499
-0.0555925369262695,0.9501385688781738,-0.1460562795400619,-0.5721253156661987,-0.1245091408491134,0.0093425931409001,0.0,0.0,-0.9505460858345032,0.4652979373931885
-0.0570502281188964,0.9370818734169006,-0.1462609320878982,-0.5802611112594604,-0.1240135952830314,0.0099107306450605,0.0,0.0,-0.9903501272201538,-0.5513128638267517
-0.0585486404597759,0.9238461852073668,-0.1513600498437881,-0.5881242156028748,-0.1225014254450798,0.0302433874458074,0.0,0.0,-0.921389937400818,-0.2640175819396972
-0.0600484833121299,0.910427451133728,-0.1515397280454635,-0.596260130405426,-0.1209601536393165,0.0308254770934581,0.0,0.0,-0.9806414842605592,0.0412750244140625
-0.0615497604012489,0.8968257308006287,-0.1517070829868316,-0.6043960452079773,-0.1193894669413566,0.0314136818051338,0.0,0.0,-0.987345278263092,-0.0313127040863037
-0.0630523711442947,0.8830408453941345,-0.1518622189760208,-0.612531840801239,-0.1177890747785568,0.0320075266063213,0.0,0.0,-0.9504092335700988,-0.7045251131057739
-0.0645981803536415,0.8690802454948425,-0.1572993546724319,-0.6202585697174072,-0.1150877401232719,0.0540270283818244,0.0,0.0,-0.8039444088935852,0.4070940017700195
-0.0661449432373046,0.8549367785453796,-0.1574306488037109,-0.6283949017524719,-0.1123562157154083,0.0546304173767566,0.0,0.0,-0.9099689722061156,-0.4618954062461853
-0.0676926597952842,0.8406100273132324,-0.1575503200292587,-0.6365312337875366,-0.1095943301916122,0.0552377626299858,0.0,0.0,-0.8005081415176392,-0.5617285370826721
-0.0692846328020095,0.8261128067970276,-0.1631360352039337,-0.6440340876579285,-0.1056853085756301,0.0781802907586097,0.0,0.0,-0.9693438410758972,0.1999669075012207
-0.070877268910408,0.8114327788352966,-0.1632332652807235,-0.6521710157394409,-0.1017456278204917,0.0787936896085739,0.0,0.0,-0.8883456587791443,0.6880054473876953
-0.0724250823259353,0.796559751033783,-0.1576218605041504,-0.6608327031135559,-0.0989304929971695,0.0563025958836078,0.0,0.0,-0.9093035459518432,-0.182282269001007
-0.0739733725786209,0.7815037369728088,-0.1576976478099823,-0.6689690947532654,-0.0960844978690147,0.0569199211895465,0.0,0.0,-0.7095832228660583,-0.2156605720520019
-0.0755220428109169,0.766264796257019,-0.1577632427215576,-0.6771055459976196,-0.0932075828313827,0.0575382784008979,0.0,0.0,-0.3177276253700256,-0.211395263671875
-0.0770709067583084,0.7508428692817688,-0.1578190326690673,-0.6852419376373291,-0.0902997106313705,0.0581570267677307,0.0,0.0,-0.6876014471054077,-0.1839594841003418
-0.078619860112667,0.7352378368377686,-0.1578653752803802,-0.6933783888816833,-0.0873609483242034,0.0587756037712097,0.0,0.0,-0.8878762722015381,0.3898177146911621
-0.0801689177751541,0.7194498777389526,-0.1579026728868484,-0.7015148997306824,-0.0843912810087204,0.0593933686614036,0.0,0.0,-0.8423334360122681,0.4675638675689697
-0.0817178711295127,0.7034789323806763,-0.1579313576221466,-0.7096512913703918,-0.0813907980918884,0.0600096769630909,0.0,0.0,-0.7228621244430542,0.5264928340911865
-0.0832168608903884,0.6873175501823425,-0.1516794264316558,-0.7181882262229919,-0.0796238929033279,0.035337995737791,0.0,0.0,-0.4416434168815613,0.5819454193115234
-0.0846679657697677,0.670968234539032,-0.1457016319036483,-0.7266044020652771,-0.0790307223796844,0.011863499879837,0.0,0.0,-0.5176639556884766,0.5204133987426758
-0.0860773101449012,0.6544271111488342,-0.1405086666345596,-0.7351863980293274,-0.0794582813978195,-0.0085512185469269,0.0,0.0,0.162152886390686,0.737823486328125
-0.087493896484375,0.6383298635482788,-0.1396752148866653,-0.7155439257621765,-0.0814259499311447,-0.0393529273569583,0.0,0.0,-0.700981616973877,0.8226431608200073
-0.0888424888253212,0.622050940990448,-0.1311836093664169,-0.723713755607605,-0.0850580036640167,-0.0726413056254386,0.0,0.0,0.2904775142669678,-0.234054684638977
-0.0901072472333908,0.6059221625328064,-0.1231398805975914,-0.7170232534408569,-0.0883637815713882,-0.0661156848073005,0.0,0.0,0.6132442951202393,-0.3502229452133178
-0.0912715941667556,0.5908526182174683,-0.1132564172148704,-0.6699525117874146,-0.0915181264281272,-0.0630869716405868,0.0,0.0,-0.6157422065734863,-0.6838755011558533
-0.0924979224801063,0.575605571269989,-0.121070422232151,-0.6777428388595581,-0.0930685475468635,-0.0310083534568548,0.0,0.0,-0.504504919052124,0.097064733505249
-0.093723677098751,0.5601754188537598,-0.1210430115461349,-0.6858788132667542,-0.0945902988314628,-0.0304348804056644,0.0,0.0,0.0542260408401489,-0.3634040355682373
-0.0948918312788009,0.5451525449752808,-0.1153972893953323,-0.6677762269973755,-0.0959930047392845,-0.0280539188534021,0.0,0.0,0.2749119997024536,0.1239871978759765
-0.0960957556962966,0.5309338569641113,-0.1185462102293968,-0.6320598721504211,-0.0978278070688247,-0.0366959273815155,0.0,0.0,-0.7417126893997192,0.3842338323593139
-0.0972990989685058,0.5165321826934814,-0.1185097843408584,-0.6401958465576172,-0.0996352881193161,-0.0361497849225997,0.0,0.0,-0.0372348427772522,0.1174007654190063
-0.0985017791390419,0.5019474029541016,-0.1184715032577514,-0.648331880569458,-0.1014159992337226,-0.0356143601238727,0.0,0.0,0.2735512256622314,0.3616102933883667
-0.0996262580156326,0.4875455796718597,-0.1109235435724258,-0.6401858925819397,-0.1029280498623848,-0.0302410814911127,0.0,0.0,-0.454008400440216,0.3897626399993896
-0.1007500663399696,0.4729607105255127,-0.11088328063488,-0.648321807384491,-0.1044145449995994,-0.0297295358031988,0.0,0.0,0.4271378517150879,0.5836852788925171
-0.1017633453011512,0.4592142105102539,-0.0986635833978653,-0.6111447215080261,-0.1070554926991462,-0.0528191030025482,0.0,0.0,-0.5923452377319336,0.8308460712432861
-0.1027012839913368,0.4452811181545257,-0.0892711877822876,-0.6195802688598633,-0.1115465313196182,-0.0898206979036331,0.0,0.0,0.6800186634063721,0.402848482131958
-0.1036594361066818,0.4324232339859009,-0.0907872170209884,-0.571846604347229,-0.1165419965982437,-0.0999093055725097,0.0,0.0,-0.9128443002700806,0.266448974609375
-0.1046170219779014,0.4193825721740722,-0.0907506048679351,-0.5799844861030579,-0.1215147972106933,-0.0994559079408645,0.0,0.0,-0.545296847820282,-0.1024020910263061
-0.1055738478899002,0.4061591327190399,-0.0907163619995117,-0.5881223082542419,-0.126465767621994,-0.0990193635225296,0.0,0.0,-0.9588699340820312,-0.7201310992240906
-0.1065962761640548,0.3927653133869171,-0.0989732146263122,-0.5955603122711182,-0.1297158747911453,-0.065002255141735,0.0,0.0,0.7590721845626831,0.1228008270263671
-0.1075825691223144,0.3802733719348907,-0.0951241925358772,-0.5555088520050049,-0.1332160085439682,-0.0700027495622634,0.0,0.0,-0.726387083530426,-0.4433022737503052
-0.1085685715079307,0.3675984144210815,-0.0951005294919014,-0.563645601272583,-0.1366971284151077,-0.069622591137886,0.0,0.0,-0.3752570152282715,-0.0178377032279968
-0.1095540970563888,0.3547406196594238,-0.0950816795229911,-0.5717823505401611,-0.1401602625846862,-0.0692631006240844,0.0,0.0,0.0374289751052856,-0.5926597714424133
-0.1105397194623947,0.3420195579528808,-0.0963124260306358,-0.5655928254127502,-0.1424026638269424,-0.0448478534817695,0.0,0.0,-0.605101466178894,-0.18551105260849
-0.1115250587463378,0.3291155099868774,-0.0963049083948135,-0.5737289786338806,-0.1446292996406555,-0.0445326939225196,0.0,0.0,0.1274058818817138,0.5992310047149658
-0.1122964844107627,0.3165722787380218,-0.073890820145607,-0.557796061038971,-0.1478679180145263,-0.0647725015878677,0.0,0.0,-0.0113640427589416,-0.8569040298461914
-0.1131198853254318,0.3038510084152221,-0.0804297775030136,-0.5655795335769653,-0.149779662489891,-0.0382348373532295,0.0,0.0,0.5219922065734863,-0.3892698287963867
-0.1138452515006065,0.2919744253158569,-0.0706064775586128,-0.5280439257621765,-0.1517035067081451,-0.038476787507534,0.0,0.0,0.4191402196884155,-0.3472335338592529
-0.1144459694623947,0.2808749377727508,-0.058275930583477,-0.4934960901737213,-0.153493657708168,-0.0358032546937465,0.0,0.0,0.0416990518569946,-0.5100763440132141
-0.114936351776123,0.2702070474624634,-0.0484300926327705,-0.4741914570331573,-0.1541007161140442,-0.0121408533304929,0.0,0.0,-0.6565210223197937,-0.7767674922943115
-0.115478515625,0.2593598365783691,-0.0549000985920429,-0.4820292294025421,-0.1534103602170944,0.0138069000095129,0.0,0.0,-0.2709531784057617,-0.3667539358139038
-0.1160210594534874,0.2483294308185577,-0.0549511834979057,-0.4901651442050934,-0.1527135223150253,0.0139368195086717,0.0,0.0,-0.0899146795272827,0.0164262056350708
-0.1165641769766807,0.2371160089969635,-0.0550129190087318,-0.498301088809967,-0.1520116627216339,0.0140367839485406,0.0,0.0,0.5623469352722168,-0.1491149663925171
-0.1170481666922569,0.2265225797891616,-0.0490115620195865,-0.4707585573196411,-0.1514083743095398,0.0120657980442047,0.0,0.0,-0.1768772006034851,-0.4371581077575683
-0.1175331100821495,0.2157461047172546,-0.0490961335599422,-0.4788945913314819,-0.150803193449974,0.0121035343036055,0.0,0.0,0.333798885345459,0.3451137542724609
-0.1178648024797439,0.2056061327457428,-0.0341054536402225,-0.4505688548088074,-0.1498727053403854,0.0186095330864191,0.0,0.0,-0.4093015193939209,0.0481182336807251
-0.1181977242231369,0.1952832043170929,-0.0342148430645465,-0.4587049484252929,-0.1489435881376266,0.018582459539175,0.0,0.0,0.3785083293914795,-0.0477213859558105
-0.1185072883963584,0.1857193857431411,-0.031570516526699,-0.4249995648860931,-0.1483368277549743,0.0121350632980465,0.0,0.0,-0.5648141503334045,-0.2887954115867615
-0.1188183799386024,0.1759724467992782,-0.031706515699625,-0.4331355988979339,-0.1477347761392593,0.0120411543175578,0.0,0.0,0.5477333068847656,-0.6263500452041626
-0.1192144379019737,0.166916161775589,-0.0412031188607215,-0.4023426473140716,-0.1461491137742996,0.0317133851349353,0.0,0.0,-0.6104904413223267,0.6333832740783691
-0.1195753067731857,0.157667338848114,-0.0367129705846309,-0.4109997451305389,-0.1455224007368087,0.012533999979496,0.0,0.0,0.125758409500122,0.0406476259231567
-0.1197956055402755,0.1489464342594146,-0.022982895374298,-0.3875020742416382,-0.1445716619491577,0.0190147776156663,0.0,0.0,0.3005510568618774,-0.5250612497329712
-0.1199656501412391,0.1404667943716049,-0.0191142819821834,-0.376670777797699,-0.1424686312675476,0.0420610457658767,0.0,0.0,0.0575588941574096,-0.5276409983634949
-0.120007611811161,0.1325203776359558,-0.0075262053869664,-0.3528608977794647,-0.1391465812921524,0.0664409771561622,0.0,0.0,0.568037748336792,-0.5955075621604919
-0.1200191527605056,0.1255047917366027,-0.0056163910776376,-0.3113942742347717,-0.1347021907567978,0.0888879522681236,0.0,0.0,-0.468075156211853,-0.4149320125579834
-0.1200332641601562,0.1183064579963684,-0.0058572804555296,-0.3195320665836334,-0.1302745044231414,0.0885537415742874,0.0,0.0,-0.1001237630844116,0.3944684267044067
-0.1200500503182411,0.1109253019094467,-0.0061141513288021,-0.3276699185371399,-0.1258652210235595,0.0881856903433799,0.0,0.0,0.2601819038391113,0.8553495407104492
-0.1199300736188888,0.1042850092053413,0.0093102771788835,-0.2948987782001495,-0.1231852248311042,0.05359997600317,0.0,0.0,0.1197168827056884,0.5910481214523315
-0.1196552291512489,0.0982444584369659,0.0259250346571207,-0.268341600894928,-0.1216334030032157,0.0310363322496414,0.0,0.0,0.2430770397186279,-0.0307580828666687
-0.1192815750837326,0.0925234854221344,0.0355420559644699,-0.2541177868843078,-0.1198244988918304,0.0361780971288681,0.0,0.0,-0.3094924092292785,-0.0858632922172546
-0.1189114600419998,0.0866195559501648,0.0352201238274574,-0.2622543275356293,-0.1180405169725418,0.0356795042753219,0.0,0.0,-0.0149561166763305,0.4096250534057617
-0.1185449585318565,0.0805325806140899,0.0348816961050033,-0.2703908681869507,-0.1162830591201782,0.0351494252681732,0.0,0.0,-0.130550742149353,-0.1022989749908447
-0.1181822791695594,0.074262723326683,0.0345267727971077,-0.2785273790359497,-0.114553578197956,0.0345894955098629,0.0,0.0,0.4426438808441162,-0.2645767331123352
-0.1177478805184364,0.0685000494122505,0.0416282601654529,-0.2559784948825836,-0.1127486899495124,0.0360977575182914,0.0,0.0,0.3052558898925781,0.2004240751266479
-0.1171831116080284,0.062960535287857,0.0542095676064491,-0.2460332214832306,-0.1104974299669265,0.0450250878930091,0.0,0.0,0.4572956562042236,-0.0557174682617187
-0.1164707168936729,0.0581230483949184,0.0686029270291328,-0.2148086428642273,-0.1078807935118675,0.0523329004645347,0.0,0.0,0.2202091217041015,-0.3874711990356445
-0.1156803146004676,0.0539880134165287,0.0763530880212783,-0.1835862696170807,-0.1052121818065643,0.0533721148967742,0.0,0.0,-0.0270726084709167,0.4703079462051391
