x_pos,y_pos,x_vel,y_vel,angle,ang_vel,leg_1,leg_2,main_booster,lat_booster
-0.0015058517456054,1.4030351638793943,-0.1517473757266998,-0.3504347801208496,0.0010328794596716,0.0203201305121183,0.0,0.0,-0.1073026061058044,0.5151476860046387
-0.0029499053489416,1.3945820331573486,-0.1435665339231491,-0.3756989538669586,0.0002063839783659,-0.0165306683629751,0.0,0.0,-0.2177029252052307,0.348283052444458
-0.0043755532242357,1.385539174079895,-0.140992060303688,-0.4019062221050262,-0.0013449786929413,-0.0310301389545202,0.0,0.0,0.199986457824707,0.1738775968551635
-0.0058685303665697,1.3764517307281494,-0.1465759575366974,-0.4038934111595154,-0.0040364568121731,-0.0538346469402313,0.0,0.0,-0.0449960231781005,0.4409544467926025
-0.0073425294831395,1.3667751550674438,-0.1439464539289474,-0.430082619190216,-0.0074522807262837,-0.0683225989341735,0.0,0.0,0.5634880065917969,0.3350949287414551
-0.0086634634062647,1.3572791814804075,-0.1285484731197357,-0.4220634400844574,-0.010971849784255,-0.0703974813222885,0.0,0.0,0.2803558111190796,0.4860706329345703
-0.0099777225404977,1.3478658199310305,-0.1270490437746048,-0.4184090495109558,-0.0152995232492685,-0.0865612775087356,0.0,0.0,0.3439656496047973,-0.0001006126403808
-0.0111427307128906,1.3386502265930176,-0.1119797676801681,-0.4096333682537079,-0.0197712685912847,-0.0894429683685302,0.0,0.0,-0.2048909664154052,0.2783695459365845
-0.0122879985719919,1.3288459777832031,-0.1092689260840416,-0.4358235895633697,-0.0249664839357137,-0.1039140671491622,0.0,0.0,-0.1007677316665649,-0.4343351125717163
-0.0134132383391261,1.3184531927108765,-0.1065405383706092,-0.4620085656642914,-0.0308836344629526,-0.1183542385697364,0.0,0.0,0.0479736328125,0.1015883684158325
-0.0144519805908203,1.308035135269165,-0.0974274426698684,-0.4631773829460144,-0.0372626669704914,-0.1275922209024429,0.0,0.0,-0.1607133746147155,0.2267591953277588
-0.0154705047607421,1.2970287799835205,-0.0946706756949424,-0.4893715679645538,-0.0443619564175605,-0.1419986337423324,0.0,0.0,0.3739253282546997,-0.9002793431282043
-0.0163899417966604,1.2863070964813232,-0.0859718918800354,-0.4767128527164459,-0.0502670370042324,-0.1181126609444618,0.0,0.0,-0.4403223991394043,-0.1544889211654663
-0.0172887798398733,1.274996995925903,-0.0831973105669021,-0.502909779548645,-0.0568907037377357,-0.1324855089187622,0.0,0.0,-0.7142473459243774,-0.9224541783332824
-0.0182222370058298,1.263113021850586,-0.0873578339815139,-0.5284091234207153,-0.0628250390291214,-0.1186975687742233,0.0,0.0,0.230583906173706,-0.9320259690284728
-0.0191001892089843,1.2509595155715942,-0.0829951912164688,-0.5403628945350647,-0.0675782188773155,-0.0950723960995674,0.0,0.0,0.4741413593292236,-0.8539400100708008
-0.0198345184326171,1.2393628358840942,-0.0698256641626358,-0.5155789852142334,-0.0711560025811195,-0.0715622678399086,0.0,0.0,-0.7192659378051758,-0.8371695280075073
-0.0205987934023141,1.2271757125854492,-0.0733844265341758,-0.5417921543121338,-0.0741760730743408,-0.0604066550731658,0.0,0.0,-0.4285066723823547,-0.888589084148407
-0.0214006416499614,1.214415431022644,-0.0779135525226593,-0.5672407150268555,-0.0764202997088432,-0.0448884181678295,0.0,0.0,-0.879334032535553,-0.9064400792121888
-0.0222625732421875,1.2010754346847534,-0.0852786153554916,-0.5929312109947205,-0.0773268267512321,-0.0181321464478969,0.0,0.0,-0.3785514831542969,-0.8011786937713623
-0.0231531150639057,1.187158703804016,-0.0887001603841781,-0.6185386776924133,-0.077679194509983,-0.0070480927824974,0.0,0.0,0.1100261211395263,-0.5859519243240356
-0.0240373611450195,1.1730992794036863,-0.0885530635714531,-0.6248599886894226,-0.0775529593229293,0.0025249440222978,0.0,0.0,-0.58332759141922,-0.5956206917762756
-0.024937629699707,1.158454656600952,-0.0903924852609634,-0.650849461555481,-0.0771942883729934,0.0071742073632776,0.0,0.0,-0.1895796060562133,-0.8218808174133301
-0.0258749015629291,1.143219232559204,-0.0948436558246612,-0.6770712733268738,-0.0760854333639144,0.0221789870411157,0.0,0.0,-0.5941590070724487,-0.3128162622451782
-0.0267912857234478,1.127395510673523,-0.0920656695961952,-0.7032601833343506,-0.0756668597459793,0.0083721578121185,0.0,0.0,0.2884881496429443,-0.6740615963935852
-0.0278257373720407,1.111807107925415,-0.1043206825852394,-0.6927741765975952,-0.0747911557555198,0.0175139550119638,0.0,0.0,0.1310442686080932,-0.1589109897613525
-0.0287994388490915,1.0963737964630127,-0.0975844860076904,-0.6859111785888672,-0.0745843574404716,0.0041359164752066,0.0,0.0,0.4801236391067505,-0.504213809967041
-0.0298621170222759,1.081481695175171,-0.1064887046813964,-0.6618548631668091,-0.0743718147277832,0.0042510451748967,0.0,0.0,-0.2960929274559021,-0.4744604825973511
-0.0309041030704975,1.066001296043396,-0.1037355288863182,-0.6880415081977844,-0.0748300403356552,-0.009164173156023,0.0,0.0,0.6519485712051392,-0.4097267389297485
-0.0319098457694053,1.0506640672683716,-0.0993423536419868,-0.6817178130149841,-0.0760504379868507,-0.0244079604744911,0.0,0.0,-0.3491581082344055,-0.0143331885337829
-0.0328948982059955,1.034738302230835,-0.0966107323765754,-0.7079046368598938,-0.0779298245906829,-0.0375875681638717,0.0,0.0,0.2205755710601806,-0.6807482242584229
-0.0339523330330848,1.0187182426452637,-0.1044618487358093,-0.7120686173439026,-0.0791976526379585,-0.0253566764295101,0.0,0.0,-0.1664266586303711,0.0497212409973144
-0.0349892601370811,1.0021097660064695,-0.1017564758658409,-0.7382554411888123,-0.0811110064387321,-0.0382669307291507,0.0,0.0,0.8067976236343384,-0.7452529668807983
-0.0361085906624794,0.9855124354362488,-0.1106847897171974,-0.7377322912216187,-0.0823452547192573,-0.0246851686388254,0.0,0.0,0.378314733505249,-0.9275202751159668
-0.0372219085693359,0.9691178798675536,-0.1113360151648521,-0.7286469340324402,-0.0823486223816871,-6.70369336148724e-05,0.0,0.0,0.225080132484436,-0.4318529367446899
-0.0382554046809673,0.9529716968536376,-0.1027833595871925,-0.7176417708396912,-0.0829113572835922,-0.0112545751035213,0.0,0.0,-0.2159428596496582,-0.6165372729301453
-0.0393196120858192,0.9362401366233826,-0.1065294593572616,-0.7436155080795288,-0.0828061625361442,0.0021039168350398,0.0,0.0,0.4363623857498169,-0.6167693138122559
-0.0403213500976562,0.9199158549308776,-0.1009834557771682,-0.7254817485809326,-0.081998810172081,0.0161470584571361,0.0,0.0,-0.0328736901283264,-0.3347299695014953
-0.0413030609488487,0.9030030965805054,-0.0983868613839149,-0.7516683340072632,-0.0817847475409507,0.0042809164151549,0.0,0.0,-0.0311894416809082,-0.5660810470581055
-0.0423073768615722,0.8855077624320984,-0.1011484041810035,-0.7775312662124634,-0.081078439950943,0.0141261294484138,0.0,0.0,0.5685899257659912,0.2527885437011719
-0.0433332435786724,0.8685414791107178,-0.1022401005029678,-0.75407475233078,-0.0814123824238777,-0.0066791847348213,0.0,0.0,0.3740077018737793,-0.3335235714912414
-0.044201660901308,0.8516249656677246,-0.0864230841398239,-0.7518629431724548,-0.0818310007452964,-0.0083723161369562,0.0,0.0,-0.2566372752189636,-0.6931856274604797
-0.0450969710946083,0.8341182470321655,-0.0897210389375686,-0.7780742049217224,-0.0816407948732376,0.0038039330393075,0.0,0.0,0.1836079359054565,-0.6056849956512451
-0.0459111221134662,0.8165838718414307,-0.0824185833334922,-0.779247522354126,-0.0806481316685676,0.0198535956442356,0.0,0.0,0.3721948862075805,-0.6770846843719482
-0.0467775352299213,0.7988297939300537,-0.0884129256010055,-0.7889779210090637,-0.0788941532373428,0.035079438239336,0.0,0.0,0.756030797958374,0.1394180059432983
-0.0475482940673828,0.7810124754905701,-0.0785663872957229,-0.7918044924736023,-0.077419713139534,0.0294887814670801,0.0,0.0,0.3925085067749023,-0.1859763860702514
-0.048219870775938,0.7631638646125793,-0.0683925449848175,-0.7932074666023254,-0.0761976838111877,0.024440836161375,0.0,0.0,0.5042389631271362,-0.2199534177780151
-0.048917006701231,0.7458738684654236,-0.0699982047080993,-0.7684357166290283,-0.0759234055876731,0.0054852766916155,0.0,0.0,0.3005894422531128,-0.5078253149986267
-0.0497015938162803,0.7289448976516724,-0.0790272802114486,-0.7523645758628845,-0.0753547474741935,0.0113729489967226,0.0,0.0,0.4390573501586914,-0.5436022877693176
-0.0504974350333213,0.7120956182479858,-0.08075762540102,-0.7487990856170654,-0.0741918832063674,0.0232571549713611,0.0,0.0,-0.0544242858886718,-0.2157899141311645
-0.0512753501534462,0.6946576833724976,-0.0785329416394233,-0.7749842405319214,-0.0734519585967063,0.014798479154706,0.0,0.0,0.6890448331832886,-0.3958019018173218
-0.0520388595759868,0.6777641773223877,-0.0764153823256492,-0.7508199214935303,-0.0733888074755668,0.0012630659621208,0.0,0.0,-0.2289289832115173,-0.7558093667030334
-0.0528339371085166,0.6602832078933716,-0.080420896410942,-0.7768911123275757,-0.0724804252386093,0.0181672759354114,0.0,0.0,0.6702816486358643,0.4585260152816772
-0.0535500533878803,0.6434194445610046,-0.0721744522452354,-0.7494686841964722,-0.0719229727983474,0.0111488457769155,0.0,0.0,-0.3103170990943908,-0.711340069770813
-0.0542914383113384,0.6259691119194031,-0.0754383206367492,-0.775517463684082,-0.070646084845066,0.025537833571434,0.0,0.0,0.8604030609130859,-0.3105401396751404
-0.05508603900671,0.6087350845336914,-0.0799179375171661,-0.7659345269203186,-0.0701920762658119,0.0090802628546953,0.0,0.0,0.5355669260025024,-0.3625723123550415
-0.05572509765625,0.5920113921165466,-0.064457319676876,-0.7432460784912109,-0.0696379169821739,0.0110829826444387,0.0,0.0,0.2885849475860595,-0.3207845687866211
-0.0562038421630859,0.5754747986793518,-0.0486566089093685,-0.7349224090576172,-0.0688685104250907,0.0153880957514047,0.0,0.0,0.8013595342636108,-0.120166003704071
-0.056523609906435,0.5596843361854553,-0.0328770205378532,-0.701758086681366,-0.0679830834269523,0.0177087783813476,0.0,0.0,-0.2154918909072876,0.0661219358444213
-0.056827925145626,0.543304979801178,-0.0310775693506002,-0.7279420495033264,-0.0673364773392677,0.0129319997504353,0.0,0.0,0.5381431579589844,-0.5730679631233215
-0.0570877082645893,0.5268470644950867,-0.0276959650218486,-0.7313846945762634,-0.0656432285904884,0.0338649936020374,0.0,0.0,0.7369133234024048,-0.2614102363586426
-0.0573894493281841,0.5109143853187561,-0.0311931930482387,-0.708073616027832,-0.0646316483616828,0.0202314388006925,0.0,0.0,0.6881351470947266,-0.3419263362884521
-0.0575164780020713,0.4951716363430023,-0.0141415698453783,-0.6996191143989563,-0.0632077381014823,0.0284781903028488,0.0,0.0,0.6307711601257324,-0.0762352347373962
-0.0575677864253521,0.4797433614730835,-0.0065298117697238,-0.6856418251991272,-0.0618250705301761,0.0276533868163824,0.0,0.0,0.5251023769378662,-0.3144320249557495
-0.0575752258300781,0.4642795324325561,-0.0020386222749948,-0.6872318387031555,-0.0605352520942688,0.0257963333278894,0.0,0.0,0.653010368347168,-0.113293170928955
-0.0576568618416786,0.4491231739521026,-0.0087856091558933,-0.673588752746582,-0.0599221400916576,0.0122623834758996,0.0,0.0,0.517884373664856,-0.3140320777893066
-0.0576585754752159,0.4345533549785614,-0.000800474663265,-0.6475234627723694,-0.0592991597950458,0.0124598499387502,0.0,0.0,0.7510421276092529,0.0317487716674804
-0.0575422272086143,0.4198508262634277,0.0106518184766173,-0.6534067392349243,-0.0583329536020755,0.0193242859095335,0.0,0.0,0.5027992725372314,-0.0249059200286865
-0.0573437698185443,0.4057198762893677,0.0187964364886283,-0.6280008554458618,-0.0572902858257293,0.0208533443510532,0.0,0.0,0.4139944314956665,-0.1000447273254394
-0.0571904182434082,0.3916134834289551,0.0146669801324605,-0.6269263029098511,-0.0566359385848045,0.0130869643762707,0.0,0.0,0.8006645441055298,-0.0534529685974121
-0.0570837035775184,0.3780317008495331,0.0104749212041497,-0.6036280393600464,-0.0564390309154987,0.0039380802772939,0.0,0.0,0.7063541412353516,0.1657710075378418
-0.0568978302180767,0.3648206293582916,0.0182165913283824,-0.5871407985687256,-0.0560688227415084,0.0074040233157575,0.0,0.0,0.8750865459442139,-0.5660233497619629
-0.0568473823368549,0.3524791896343231,0.0039176018908619,-0.5484670400619507,-0.0549595654010772,0.0221852306276559,0.0,0.0,0.3476052284240722,0.303458571434021
-0.0567008964717388,0.340249091386795,0.0131771191954612,-0.543503999710083,-0.0535065382719039,0.0290604829788208,0.0,0.0,0.1117579936981201,0.2128944396972656
-0.0565530769526958,0.3278259634971618,0.0133310379460453,-0.5520893931388855,-0.052072636783123,0.0286780502647161,0.0,0.0,0.684467077255249,0.3176459074020386
-0.0563093200325965,0.315304696559906,0.0225006453692913,-0.556435763835907,-0.0502134039998054,0.037184715270996,0.0,0.0,0.7000119686126709,-0.098963439464569
-0.0560713782906532,0.3027199804782867,0.0219430364668369,-0.5592593550682068,-0.0483817905187606,0.0366323962807655,0.0,0.0,0.9068313837051392,0.4231526851654053
-0.0557900443673133,0.2909184694290161,0.026177754625678,-0.5244518518447876,-0.046454444527626,0.0385472066700458,0.0,0.0,0.5080766677856445,-0.062568724155426
-0.0553929321467876,0.279638409614563,0.0372590124607086,-0.50126051902771,-0.0440317168831825,0.0484543778002262,0.0,0.0,0.1554691791534423,-0.2967772483825683
-0.0550412163138389,0.2686310410499573,0.0329102054238319,-0.4891519546508789,-0.0417983718216419,0.0446670763194561,0.0,0.0,0.1878035068511963,0.3349670171737671
-0.0547650344669818,0.2573972344398498,0.0255967322736978,-0.4992254078388214,-0.0398059785366058,0.0398478955030441,0.0,0.0,0.3462269306182861,-0.4293645620346069
-0.0544234290719032,0.2465377151966095,0.0317862667143344,-0.482582688331604,-0.0374570898711681,0.0469776913523674,0.0,0.0,0.2792284488677978,0.5083885192871094
-0.0541033744812011,0.2357595264911651,0.030618080869317,-0.4789985120296478,-0.036093533039093,0.027271157130599,0.0,0.0,0.2977573871612549,-0.3068978786468506
-0.0538010597229003,0.2251925617456436,0.0288247913122177,-0.4696097075939178,-0.0346966125071048,0.0279382169246673,0.0,0.0,0.2801504135131836,-0.2724965810775757
-0.0534832961857318,0.2148491740226745,0.0301565881818532,-0.4596712291240692,-0.0330969803035259,0.0319927558302879,0.0,0.0,0.633996844291687,0.6836003065109253
-0.0529929175972938,0.2047719359397888,0.0483279451727867,-0.4478605389595032,-0.0323970429599285,0.0139987813308835,0.0,0.0,0.0349193811416626,-0.5067434906959534
-0.0525142662227153,0.1944231837987899,0.0458298772573471,-0.4599029123783111,-0.0303909871727228,0.0401214659214019,0.0,0.0,0.4740084409713745,-0.1669537425041198
-0.0519372001290321,0.1840200722217559,0.0549945048987865,-0.4623070061206817,-0.0277211237698793,0.0533974580466747,0.0,0.0,0.632907509803772,-0.6358578205108643
-0.0512329116463661,0.1738695949316024,0.065787449479103,-0.4510526955127716,-0.0231314580887556,0.0917932391166687,0.0,0.0,0.5389864444732666,-0.5433826446533203
-0.0504193305969238,0.1636737734079361,0.0749581754207611,-0.4530630111694336,-0.016809606924653,0.1264369487762451,0.0,0.0,0.1161834001541137,-0.3410532474517822
-0.0495972633361816,0.1536505967378616,0.075503870844841,-0.4454120993614197,-0.0101948278024792,0.1322954595088958,0.0,0.0,0.7332643270492554,-0.3960978984832763
-0.0487311370670795,0.1442321091890335,0.0794276669621467,-0.4185684323310852,-0.0031105335801839,0.141686201095581,0.0,0.0,0.4446508884429931,-0.8200709819793701
-0.047802735120058,0.135103166103363,0.083510935306549,-0.4057401716709137,0.0060984664596617,0.1841799616813659,0.0,0.0,0.3485269546508789,-0.4075998663902282
-0.046790886670351,0.1257866770029068,0.0911377817392349,-0.414135068655014,0.016023214906454,0.1984949260950088,0.0,0.0,0.6401290893554688,-0.5827834606170654
-0.0458868034183979,0.1166367605328559,0.0789776444435119,-0.4068223834037781,0.0273087471723556,0.225710391998291,0.0,0.0,0.8157472610473633,0.3358525037765503
-0.0449133887887001,0.1083252727985382,0.0851312056183815,-0.3696634173393249,0.0393729247152805,0.2412836998701095,0.0,0.0,0.4723473787307739,0.1130588054656982
-0.0439785942435264,0.1001858785748481,0.0810047388076782,-0.362123966217041,0.0516951903700828,0.2464452981948852,0.0,0.0,0.1860221624374389,0.878713846206665
-0.0431059822440147,0.0923202112317085,0.076258584856987,-0.3499984443187713,0.062574990093708,0.2175959050655365,0.0,0.0,0.4962894916534424,0.7819423675537109
-0.0421221740543842,0.084831416606903,0.0884550511837005,-0.3332817256450653,0.0724014863371849,0.1965299248695373,0.0,0.0,0.5007622241973877,0.8479342460632324
-0.0411740317940712,0.0777820646762847,0.086297258734703,-0.3137395679950714,0.0808318555355072,0.1686075031757354,0.0,0.0,0.3180546760559082,0.8091018199920654
-0.0402839668095111,0.0710424259305,0.0818321034312248,-0.2999433577060699,0.0879376679658889,0.1421163231134414,0.0,0.0,0.3121900558471679,0.9098548889160156
-0.0393782630562782,0.064309149980545,0.0848603323101997,-0.299604594707489,0.0935911312699318,0.1130692213773727,0.0,0.0,0.5233800411224365,0.6523970365524292
-0.0385892875492572,0.057807121425867,0.0743810087442398,-0.2892699241638183,0.0980774909257888,0.0897269695997238,0.0,0.0,0.4891870021820068,0.5862439870834351
-0.037945844233036,0.0514053665101528,0.0609460696578025,-0.2847526669502258,0.1014417931437492,0.067286193370819,0.0,0.0,0.8145555257797241,0.411327600479126
-0.0372659675776958,0.0456105805933475,0.0636726170778274,-0.257843554019928,0.1057279706001281,0.0857238098978996,0.0,0.0,0.7281651496887207,0.6247026920318604
-0.0365077964961528,0.0398165099322795,0.0721928030252456,-0.2577741742134094,0.1093254759907722,0.0719499886035919,0.0,0.0,0.722419261932373,0.9599299430847168
-0.0355923660099506,0.0346675254404544,0.0892148539423942,-0.2290140092372894,0.1116297990083694,0.0460864938795566,0.0,0.0,0.5197559595108032,0.3086819648742676
-0.0347770676016807,0.0299906823784112,0.0789305418729782,-0.2080559581518173,0.1142239496111869,0.0518829114735126,0.0,0.0,0.317347764968872,0.6793556213378906
-0.0338603965938091,0.0257794000208377,0.089826263487339,-0.1873090416193008,0.1160518154501915,0.0365571193397045,0.0,0.0,-0.2379889488220214,-0.3021359443664551
-0.032943345606327,0.0209797471761703,0.0894781947135925,-0.2134955376386642,0.1182670146226883,0.0443039312958717,0.0,0.0,0.819036602973938,0.1844288110733032
-0.032139778137207,0.0169292539358139,0.0777743905782699,-0.1802297234535217,0.1208324134349823,0.0513077452778816,0.0,0.0,0.3640145063400268,-0.1304454207420349
-0.0313645377755165,0.0132675739005208,0.074331134557724,-0.1630006283521652,0.1240154951810836,0.0636616572737693,0.0,0.0,0.3618154525756836,0.8101751804351807
-0.0305793769657611,0.0103720761835575,0.0951851159334182,-0.1274035573005676,0.1074033379554748,-0.3322964906692505,0.0,1.0,0.7393060922622681,0.2169115543365478
-0.0300877578556537,0.0084159234538674,0.0816228538751602,-0.0849381163716316,0.0751402527093887,-0.6453511714935303,0.0,1.0,0.5747225284576416,-0.466130256652832
-0.0297375675290823,0.0065783597528934,0.0671612471342086,-0.0803618878126144,0.0433620028197765,-0.6355656385421753,0.0,1.0,0.407962441444397,-0.2174910902976989
-0.0294267646968364,0.0048839543014764,0.0633406713604927,-0.0746824368834495,0.0115004470571875,-0.6372314691543579,0.0,0.0,-0.0604583621025085,-0.9142128825187684
-0.0291848182678222,0.0026101924013346,0.0543208643794059,-0.1010927185416221,-0.0182360336184501,-0.5947299599647522,0.0,0.0,0.7221837043762207,-0.9717977046966552
-0.0288595203310251,0.0003092145780101,0.0600805357098579,-0.1028243526816368,-0.045448038727045,-0.5442402362823486,1.0,0.0,0.6254435777664185,-0.4452598094940185
-0.0283575057983398,-0.0010661506094038,0.0651583820581436,-0.0620081424713134,-0.0587572790682315,-0.2642883062362671,1.0,0.0,0.1111046075820922,-0.1348669528961181
-0.0276841167360544,-0.0016401791945099,0.0637366399168968,-0.0253866743296384,-0.0551416762173175,0.0723756402730941,1.0,0.0,-0.3914418220520019,-0.5930947065353394
-0.0269696228206157,-0.0023319388274103,0.053147368133068,-0.0301760416477918,-0.0370355322957038,0.3621647953987121,1.0,0.0,-0.4826301336288452,-0.481534481048584
