x_pos,y_pos,x_vel,y_vel,angle,ang_vel,leg_1,leg_2,main_booster,lat_booster
-0.0015835762023925,1.4034123420715332,-0.1602797955274582,-0.333681046962738,0.0017189545324072,0.0339044705033302,0.0,0.0,-0.4518797397613525,0.8835413455963135
-0.0031499862670898,1.3957114219665527,-0.1563182920217514,-0.3422640860080719,0.0014010772574692,-0.0063575194217264,0.0,0.0,-0.3069239854812622,0.0551453828811645
-0.0047719003632664,1.3877978324890137,-0.1617740094661712,-0.3517177999019623,0.0009842819999903,-0.0083362553268671,0.0,0.0,-0.3566335439682007,0.7420040369033813
-0.0064001083374023,1.3796695470809937,-0.1610980927944183,-0.3612555265426636,-0.0007131593883968,-0.0339519940316677,0.0,0.0,0.3243069648742676,0.0409746170043945
-0.0079748155549168,1.3721129894256592,-0.1561482846736908,-0.3358432352542877,-0.0020199110731482,-0.0261374898254871,0.0,0.0,-0.3190593719482422,0.0720438957214355
-0.0095971105620265,1.3643441200256348,-0.160796508193016,-0.345280110836029,-0.003434965154156,-0.0283037517219781,0.0,0.0,0.1062418222427368,0.5058544874191284
-0.0112395286560058,1.3569433689117432,-0.1616498678922653,-0.3289374113082886,-0.0059963692910969,-0.0512328036129474,0.0,0.0,-0.7434636354446411,0.5102262496948242
-0.0128734586760401,1.3493313789367676,-0.1594114899635315,-0.3383322656154632,-0.009930495172739,-0.078690156340599,0.0,0.0,-0.0430704355239868,0.5762439966201782
-0.014501285739243,1.3415131568908691,-0.157559186220169,-0.3475202918052673,-0.0150978965684771,-0.1033573374152183,0.0,0.0,-0.0212745070457458,0.1257970333099365
-0.0161643028259277,1.3334832191467283,-0.1609627604484558,,-0.0203827023506164,-0.1057057753205299,0.0,0.0,0.0668654441833496,0.3876781463623047
-0.0177957527339458,1.3258153200149536,-0.1579514294862747,-0.3408709168434143,-0.0255238823592662,-0.1028329282999038,0.0,0.0,-0.386981725692749,0.4443917274475097
-0.0194558147341012,1.3179357051849363,-0.1606831401586532,-0.350308209657669,-0.0307877622544765,-0.1052870899438858,0.0,0.0,-0.7106547951698303,0.3365218639373779
-0.0211409572511911,1.3098442554473877,-0.1630674749612808,-0.359739750623703,-0.0361763425171375,-0.1077815517783165,0.0,0.0,-0.4861430525779724,0.7655214071273804
-0.0227806083858013,1.3015305995941162,-0.1566806882619857,-0.3696935474872589,-0.0433853380382061,-0.1441928893327713,0.0,0.0,-0.3745648860931396,0.7126574516296387
-0.0243687629699707,1.2930083274841309,-0.1496344208717346,-0.3790526092052459,-0.0524664930999279,-0.1816397160291671,0.0,0.0,-0.3768359422683716,0.4840229749679565
-0.0259712226688861,1.2842751741409302,-0.1509404182434082,-0.3884908556938171,-0.0616780035197734,-0.1842469424009323,0.0,0.0,-0.6466167569160461,0.7047585248947144
-0.0275156982243061,1.2753331661224363,-0.1432941854000091,-0.3979180455207824,-0.0727407708764076,-0.2212754786014557,0.0,0.0,-0.7760636806488037,-0.178755521774292
-0.029067326337099,1.2661807537078855,-0.1438741087913513,-0.4073603749275207,-0.0839371457695961,-0.2239475697278976,0.0,0.0,-0.7029921412467957,-0.4346022605895996
-0.030622387304902,1.2568179368972778,-0.1440953314304351,-0.4168033003807068,-0.0952699705958366,-0.2266768664121627,0.0,0.0,-0.7748479843139648,0.3197000026702881
-0.0321773514151573,1.2472448348999023,-0.1439600884914398,-0.4262470304965973,-0.106740579009056,-0.2294327914714813,0.0,0.0,-0.6551143527030945,0.4799407720565796
-0.033728789538145,1.2374615669250488,-0.143472671508789,-0.4356915354728699,-0.1183505579829216,-0.2322200983762741,0.0,0.0,-0.6294476389884949,-0.183056354522705
-0.0352730751037597,1.2274677753448486,-0.1426384001970291,-0.4451369345188141,-0.1301013231277465,-0.2350364178419113,0.0,0.0,-0.6937146782875061,0.3848816156387329
-0.0368069633841514,1.217264175415039,-0.1414637118577957,-0.4545831382274627,-0.141994222998619,-0.2378790825605392,0.0,0.0,-0.7444553971290588,-0.0436030030250549
-0.0383269302546978,1.2068501710891724,-0.1399560868740081,-0.4640302360057831,-0.1540303975343704,-0.2407450973987579,0.0,0.0,-0.5652965903282166,-0.4031915664672851
-0.0398297309875488,1.1962263584136963,-0.1381239593029022,-0.473478227853775,-0.1662109047174453,-0.2436315715312957,0.0,0.0,-0.814805805683136,-0.8347325325012207
-0.0413952842354774,1.18539559841156,-0.1463187038898468,-0.4825379550457001,-0.1764585524797439,-0.2049528062343597,0.0,0.0,-0.737534761428833,-0.4224820137023926
-0.0429378524422645,1.1743547916412354,-0.1438991874456405,-0.4919775724411011,-0.1868537962436676,-0.20790496468544,0.0,0.0,-0.7283688187599182,-0.3527315855026245
-0.0444544777274131,1.1631035804748535,-0.1411849856376648,-0.5014175176620483,-0.1973970085382461,-0.2108642607927322,0.0,0.0,-0.7987858057022095,-0.5731939673423767
-0.0459959022700786,1.1516625881195068,-0.1449174433946609,-0.5097459554672241,-0.2066841721534729,-0.185743361711502,0.0,0.0,-0.892615795135498,-0.8500432968139648
-0.047574233263731,1.140028953552246,-0.1502409279346466,-0.5181283950805664,-0.214353010058403,-0.1533771902322769,0.0,0.0,-0.8744991421699524,-0.9185341000556946
-0.0491858497262001,1.1282167434692385,-0.1551989912986755,-0.5258611440658569,-0.2203710526227951,-0.120360717177391,0.0,0.0,0.5586756467819214,-0.8317965865135193
-0.0508152022957801,1.1168420314788818,-0.1583768874406814,-0.5062309503555298,-0.224988505244255,-0.0923490598797798,0.0,0.0,-0.1003710031509399,-0.734725832939148
-0.052468966692686,1.105284571647644,-0.1623418629169464,-0.5141310095787048,-0.2280641794204712,-0.0615138113498687,0.0,0.0,0.3028982877731323,-0.4762128591537475
-0.0540663711726665,1.0939481258392334,-0.1563286185264587,-0.5043701529502869,-0.2315184473991394,-0.0690854266285896,0.0,0.0,-0.1337469816207885,-0.7284204363822937
-0.0556746497750282,1.0824209451675415,-0.1586932241916656,-0.5126601457595825,-0.2336875945329666,-0.0433825403451919,0.0,0.0,0.1443502902984619,-0.1084804534912109
-0.0571041107177734,1.0714422464370728,-0.1407240331172943,-0.4883016049861908,-0.2359423190355301,-0.0450948290526866,0.0,0.0,-0.3558370471000671,-0.4450500607490539
-0.058486271649599,1.0602517127990725,-0.1358626931905746,-0.4977335929870605,-0.2383395880460739,-0.0479450859129428,0.0,0.0,-0.1972264051437378,-0.28162682056427
-0.0598194114863872,1.0488497018814087,-0.130819171667099,-0.5071656107902527,-0.2408778220415115,-0.0507649108767509,0.0,0.0,0.0995506048202514,-0.8293638229370117
-0.0610595718026161,1.0380959510803225,-0.1230259165167808,-0.4781015813350677,-0.2418854385614395,-0.020152186974883,0.0,0.0,-0.4174157381057739,-0.4878140687942505
-0.0622472763061523,1.0271307229995728,-0.1176487952470779,-0.4875331819057464,-0.2430305480957031,-0.0229017715901136,0.0,0.0,-0.8613765239715576,-0.7855618000030518
-0.063450813293457,1.015986442565918,-0.1209306940436363,-0.4952053427696228,-0.2424383014440536,0.0118442894890904,0.0,0.0,-0.5633735656738281,-0.6501508951187134
-0.0646387115120887,1.004643797874451,-0.1202666610479354,-0.5038785934448242,-0.240937203168869,0.03002187050879,0.0,0.0,-0.615588366985321,-0.7613522410392761
-0.0658202171325683,0.9930992722511292,-0.1207538023591041,-0.5126647353172302,-0.2382855266332626,0.0530335791409015,0.0,0.0,-0.7409849762916565,-0.6472348570823669
-0.0669852271676063,0.981356918811798,-0.1200617998838424,-0.5213090777397156,-0.2346731275320053,0.0722482576966285,0.0,0.0,-0.8199317455291748,-0.3692777156829834
-0.0680909156799316,0.9694031476974488,-0.1140153557062149,-0.5307413935661316,-0.231187105178833,0.0697207897901535,0.0,0.0,-0.3394924402236938,-0.7950381636619568
-0.0691940337419509,0.957249641418457,-0.115083560347557,-0.5394101738929749,-0.2263508141040802,0.0967260152101516,0.0,0.0,-0.8918172717094421,-0.2955054044723511
-0.0702357292175293,0.944884717464447,-0.1088274344801902,-0.5488431453704834,-0.2216356843709945,0.0943027958273887,0.0,0.0,-0.928997814655304,-0.134286880493164
-0.0712150558829307,0.9323083758354188,-0.1024772077798843,-0.5582759380340576,-0.217038944363594,0.0919343680143356,0.0,0.0,-0.9974769353866576,-0.5192484259605408
-0.0721792206168174,0.9195412397384644,-0.1021202802658081,-0.5666059851646423,-0.211278885602951,0.1152010336518287,0.0,0.0,-0.9877711534500122,0.3481171131134033
-0.07307930290699,0.9065626263618468,-0.0956025645136833,-0.5760394930839539,-0.2056315392255783,0.1129467114806175,0.0,0.0,-0.974321186542511,0.5087997913360596
-0.0738657936453819,0.89335697889328,-0.082886666059494,-0.5863305330276489,-0.2013606876134872,0.0854170843958854,0.0,0.0,-0.9401599168777466,-0.1994184255599975
-0.0745866745710372,0.8799397945404053,-0.0762257501482963,-0.5957626104354858,-0.1971965730190277,0.0832823142409324,0.0,0.0,-0.9458579421043396,-0.6760076284408569
-0.0752847641706466,0.8663201928138733,-0.0749395564198494,-0.6046409606933594,-0.1920273751020431,0.1033838391304016,0.0,0.0,-0.9910630583763124,0.2144834995269775
-0.0759159103035926,0.852489173412323,-0.0681587979197502,-0.6140735745429993,-0.1869587749242782,0.1013721376657486,0.0,0.0,-0.96732360124588,0.0466983318328857
-0.0764796286821365,0.8384463787078857,-0.0613258779048919,-0.6235060095787048,-0.1819876432418823,0.0994228571653366,0.0,0.0,-0.9614934921264648,0.3300082683563232
-0.07697544246912,0.8241919279098511,-0.0544457659125328,-0.6329382061958313,-0.1771108359098434,0.0975363925099372,0.0,0.0,-0.9876881837844848,-0.4059337377548218
-0.0774028748273849,0.8097259998321533,-0.0475232377648353,-0.6423702836036682,-0.1723251938819885,0.0957129299640655,0.0,0.0,-0.9203792214393616,-0.1021720767021179
-0.0777616500854492,0.7950484156608582,-0.0405628606677055,-0.6518021821975708,-0.1676275730133056,0.0939524918794632,0.0,0.0,-0.8010073900222778,-0.269072949886322
-0.0780511870980262,0.780159056186676,-0.0335690304636955,-0.6612340211868286,-0.1630148440599441,0.092254914343357,0.0,0.0,-0.8917164206504822,-0.2650004625320434
-0.0782713890075683,0.7650579810142517,-0.0265459865331649,-0.6706657409667969,-0.1584838479757309,0.0906198844313621,0.0,0.0,-0.7954142689704895,0.2120674848556518
-0.0784217864274978,0.74974524974823,-0.0194978304207324,-0.680097222328186,-0.1540315151214599,0.0890468657016754,0.0,0.0,-0.6422874927520752,0.3276262283325195
-0.0785021781921386,0.7342209219932556,-0.0124285165220499,-0.6895285844802856,-0.149654746055603,0.0875352323055267,0.0,0.0,-0.3388715386390686,0.0094096660614013
-0.0785124748945236,0.7184846997261047,-0.0053419033065438,-0.6989598870277405,-0.1453505307435989,0.0860841795802116,0.0,0.0,-0.6560888290405273,-0.1331331133842468
-0.0784524902701377,0.7025367617607117,0.0017582725267857,-0.7083910703659058,-0.1411159038543701,0.0846926346421241,0.0,0.0,-0.6704078316688538,0.1064027547836303
-0.0783219337463378,0.6863768696784973,0.0088683534413576,-0.7178221940994263,-0.1369479298591613,0.0833595618605613,0.0,0.0,-0.6506001949310303,0.2625962495803833
-0.0781209021806716,0.6700053811073303,0.0159847680479288,-0.7272531390190125,-0.1328437328338623,0.0820836871862411,0.0,0.0,-0.760879397392273,-0.2689813375473022
-0.077849194407463,0.6534220576286316,0.0231040082871913,-0.7366840243339539,-0.1288005411624908,0.0808635875582695,0.0,0.0,-0.6448911428451538,0.136867880821228
-0.0775070190429687,0.636626660823822,0.0302226245403289,-0.7461148500442505,-0.1248156577348709,0.0796977430582046,0.0,0.0,-0.5031636953353882,-0.2055075168609619
-0.0770940780639648,0.619619607925415,0.0373372137546539,-0.7555456161499023,-0.1208864450454711,0.0785844326019287,0.0,0.0,-0.2542622089385986,-0.085383117198944
-0.0766106620430946,0.6024007201194763,0.0444444045424461,-0.7649762630462646,-0.1170103251934051,0.0775218978524208,0.0,0.0,-0.1833518147468567,-0.7844017148017883
-0.0761275291442871,0.5849857926368713,0.042650643736124,-0.7735636234283447,-0.1113794595003128,0.1126173883676529,0.0,0.0,0.0995223522186279,0.5267479419708252
-0.0754639655351638,0.5679667592048645,0.0617485158145427,-0.7560625672340393,-0.106806457042694,0.091460071504116,0.0,0.0,0.2621513605117798,-0.4987248182296753
-0.0747592896223068,0.5517140030860901,0.0663667246699333,-0.7220600247383118,-0.1027348041534423,0.0814330428838729,0.0,0.0,-0.3355841040611267,-0.9041040539741516
-0.0740469917654991,0.5352590680122375,0.0655704066157341,-0.7309516668319702,-0.0971243306994438,0.1122096329927444,0.0,0.0,-0.230798602104187,-0.5788848996162415
-0.07331333309412,0.5185950994491577,0.0665200054645538,-0.7401912212371826,-0.0903388261795044,0.1357101202011108,0.0,0.0,0.0057178735733032,0.2760244607925415
-0.0724510177969932,0.5020096898078918,0.0792280286550521,-0.7367232441902161,-0.083401933312416,0.138737753033638,0.0,0.0,0.0404103994369506,0.0383654832839965
-0.0715215653181076,0.4855347871780395,0.0860813111066818,-0.7318504452705383,-0.0765954405069351,0.1361299306154251,0.0,0.0,0.3304011821746826,-0.5204577445983887
-0.0705222114920616,0.4698140323162079,0.0920582115650177,-0.6983178853988647,-0.0688046291470527,0.1558161675930023,0.0,0.0,-0.4380210638046264,-0.061291217803955
-0.0694542899727821,0.4538819193840027,0.0989487543702125,-0.7077519297599792,-0.0610490106046199,0.1551124900579452,0.0,0.0,0.384279727935791,0.1085608005523681
-0.0683702453970909,0.4387723505496979,0.1010337620973587,-0.6712517142295837,-0.0537621416151523,0.1457375735044479,0.0,0.0,-0.1587909460067749,-0.0232744812965393
-0.0672184973955154,0.4234514236450195,0.1078393086791038,-0.6806851625442505,-0.0465078018605709,0.1450868546962738,0.0,0.0,-0.2178155779838562,-0.1641503572463989
-0.0659994110465049,0.4079190790653229,0.1145971044898033,-0.6901184320449829,-0.0392848514020442,0.14445860683918,0.0,0.0,0.678067684173584,-0.496242880821228
-0.0647933930158615,0.3930574357509613,0.1137992963194847,-0.6603553891181946,-0.0325684286653995,0.134328693151474,0.0,0.0,0.376500129699707,-0.0793831944465637
-0.0635483711957931,0.378833144903183,0.1179407462477684,-0.6320646405220032,-0.0260928552597761,0.1295115053653717,0.0,0.0,0.2336162328720092,0.4597005844116211
-0.062233068048954,0.365180492401123,0.1250468790531158,-0.6066853404045105,-0.0196874383836984,0.1281083524227142,0.0,0.0,-0.4887995719909668,0.0080442428588867
-999.0,0.3513161838054657,0.1315778493881225,-0.616117537021637,-0.0133103225380182,0.1275426000356674,0.0,0.0,0.1395705938339233,-0.399462342262268
-0.0593884475529193,0.3375941514968872,0.1399161368608474,-0.6098245978355408,-0.0068854331038892,0.1284977793693542,0.0,0.0,0.170951247215271,-0.2099530100822448
-0.0577928535640239,0.3240878880023956,0.1527756452560424,-0.6002610921859741,-0.0001840093755163,0.1340287625789642,0.0,0.0,-0.0013935565948486,-0.16251802444458
-0.0561342239379882,0.3103701472282409,0.159097746014595,-0.6096936464309692,0.006489981431514,0.1334797888994217,0.0,0.0,0.2564852237701416,0.1021322011947631
-0.0543092712759971,0.2968918085098266,0.1752538681030273,-0.599086582660675,0.0136269116774201,0.1427384912967682,0.0,0.0,0.5577213764190674,0.0122730731964111
-0.0524380691349506,0.2842642366886139,0.179945558309555,-0.5613064169883728,0.020711475983262,0.1416914910078048,0.0,0.0,0.2651939392089844,-0.1438178420066833
-0.0504946708679199,0.2722970843315124,0.1870815306901931,-0.5319902896881104,0.0278777033090591,0.1433248221874237,0.0,0.0,-0.1051601767539978,-0.2370774745941162
-0.0484916679561138,0.2601184844970703,0.1930719316005706,-0.5414232611656189,0.0350155718624591,0.1427572667598724,0.0,0.0,0.693291187286377,-0.6922051906585693
-0.046383760869503,0.2482258677482605,0.2019442021846771,-0.5287923812866211,0.0437498353421688,0.1746849864721298,0.0,0.0,0.6462018489837646,-0.5840764045715332
-0.0443428978323936,0.2368741184473037,0.1942479759454727,-0.5048360228538513,0.0534758232533931,0.1945199370384216,0.0,0.0,0.1567829847335815,-0.4283486008644104
-0.0422184951603412,0.2262211591005325,0.2023629695177078,-0.473855584859848,0.0634452849626541,0.1993891298770904,0.0,0.0,-0.0583772659301757,-0.5237380862236023
-0.0400814041495323,0.2153531461954116,0.2025705277919769,-0.4835290014743805,0.0744660124182701,0.2204145938158035,0.0,0.0,0.4375152587890625,-0.3360369205474853
-0.0380492210388183,0.2052978575229644,0.1926221996545791,-0.4474628567695617,0.0849530026316642,0.2097398042678833,0.0,0.0,-0.1323169469833374,-0.2029104232788086
-0.0359638221561908,0.1950318664312362,0.1980011612176895,-0.4569005668163299,0.0954058021306991,0.2090559005737304,0.0,0.0,-0.1305226683616638,-0.3089605569839477
-0.0338261611759662,0.1845550835132599,0.2032652199268341,-0.466338187456131,0.1058229431509971,0.2083426415920257,0.0,0.0,0.4240866899490356,-0.7012209892272949
-0.031839657574892,0.1748140901327133,0.1869260966777801,-0.433800995349884,0.1174616068601608,0.2327732592821121,0.0,0.0,-0.2930101752281189,0.3411768674850464
-0.0298035629093647,0.1648628115653991,0.1919503957033157,-0.4432406723499298,0.129061222076416,0.2319922894239425,0.0,0.0,0.0278494358062744,-0.1894872784614563
-0.027839183807373,0.1552436202764511,0.1851749867200851,-0.4285376369953155,0.1402841657400131,0.2244588583707809,0.0,0.0,-0.141406238079071,0.4243870973587036
-0.025827694684267,0.1454137861728668,0.1899459511041641,-0.4379763305187225,0.1514641791582107,0.2235998660326004,0.0,0.0,0.3838058710098266,0.3345569372177124
-0.0237734802067279,0.136285975575447,0.1938655525445938,-0.4068966209888458,0.1630094200372696,0.2309046983718872,0.0,0.0,0.1069828271865844,-0.2040311694145202
-0.0216744430363178,0.1273236125707626,0.1982261389493942,-0.3996486365795135,0.1746973693370819,0.2337589263916015,0.0,0.0,0.1263145208358764,-0.4203811883926391
-0.0195256229490041,0.1189449653029441,0.2028393298387527,-0.373849481344223,0.1867928802967071,0.2419103384017944,0.0,0.0,0.0622545480728149,0.5620510578155518
-0.017400836572051,0.1111035421490669,0.2016476392745971,-0.3499089777469635,0.1976797878742218,0.2177377194166183,0.0,0.0,-0.4405197501182556,-0.3168956041336059
-0.0152359958738088,0.1030513346195221,0.2057367265224456,-0.3593465983867645,0.208511620759964,0.2166365385055542,0.0,0.0,-0.1120205521583557,0.196144700050354
-0.0130325313657522,0.0947884172201156,0.209682747721672,-0.3687840104103088,0.2192855775356292,0.2154793292284011,0.0,0.0,0.2963533401489258,-0.1709691882133484
-0.0109367370605468,0.0872507691383361,0.1990234553813934,-0.3366118669509887,0.2299725860357284,0.2137400805950164,0.0,0.0,0.0698838233947753,-0.3653155565261841
-0.0088832853361964,0.0802605748176574,0.1947001516819,-0.3123738169670105,0.2407774776220321,0.2160980701446533,0.0,0.0,-0.0971724390983581,-0.5216680765151978
-0.0068299295380711,0.0730443596839904,0.1938899904489517,-0.3226366937160492,0.2524296641349792,0.2330437153577804,0.0,0.0,0.4106025695800781,-0.1533747911453247
-0.0049769403412938,0.0663451254367828,0.1744281351566314,-0.2996532022953033,0.2635285854339599,0.2219776660203933,0.0,0.0,-0.0252231955528259,0.1531543731689453
-0.0030928612686693,0.0594351142644882,0.1776391118764877,-0.3090903460979461,0.2745539247989654,0.2205069065093994,0.0,0.0,0.6499347686767578,-0.1269658207893371
-0.0013525008689612,0.0531182624399662,0.1634664237499237,-0.2827714681625366,0.2854028046131134,0.2169776409864425,0.0,0.0,0.1550607681274414,-0.0467721819877624
0.0003281593380961,0.0471349321305751,0.1575406342744827,-0.2680252194404602,0.2962551712989807,0.2170475423336029,0.0,0.0,0.228131890296936,-0.2209818959236145
0.0020502090919762,0.0413666106760501,0.1613519489765167,-0.258616030216217,0.3074725270271301,0.2243468463420868,0.0,0.0,0.4589855670928955,-0.524632453918457
0.0036629675887525,0.036276564002037,0.149303987622261,-0.2288116365671157,0.3198933601379394,0.248416781425476,0.0,0.0,-0.0059742927551269,-0.1399731636047363
0.0052990913391113,0.0309758763760328,0.151774913072586,-0.2382503300905227,0.3322227299213409,0.2465872764587402,0.0,1.0,0.9772828817367554,0.9979619979858398
0.0069761276245117,0.0269700866192579,0.1693420708179474,-0.1786295026540756,0.327852725982666,-0.0913319513201713,0.0,1.0,0.9818079471588136,0.958348274230957
