x_pos,y_pos,x_vel,y_vel,angle,ang_vel,leg_1,leg_2,main_booster,lat_booster
-0.0015241622459143,1.4034417867660522,-0.154618889093399,-0.33237424492836,0.0019751545041799,0.0389774516224861,0.0,0.0,-0.8354969480734187,-0.7518086583702267
-0.003103446913883,1.395799994468689,-0.1614333838224411,-0.339642196893692,0.0054498082026839,0.0695002377033233,0.0,0.0,0.5148589656126479,-0.7081117007125496
-0.0046069147065281,1.388526439666748,-0.1557365208864212,-0.3233011960983276,0.0107798939570784,0.1066115722060203,0.0,0.0,0.7065013433626564,0.8502405318094111
-0.0061871530488133,1.3818403482437134,-0.1616195887327194,-0.2971907556056976,0.0143337287008762,0.0710833296179771,0.0,0.0,0.124850315016135,0.8956136358278143
-0.0076026916503906,1.375643968582153,-0.1435541808605194,-0.2754174768924713,0.0163103491067886,0.039535816758871,0.0,0.0,-0.9685019245711232,0.6938017496533126
-0.0089539531618356,1.3692654371261597,-0.1355526447296142,-0.2834969460964203,0.0167396236211061,0.0085859652608633,0.0,0.0,0.9066920569568508,0.5953046548707466
-0.0103003503754735,1.363703966140747,-0.1339200884103775,-0.2471581846475601,0.016033723950386,-0.014119328930974,0.0,0.0,-0.5263757277421699,-0.7738149268222463
-0.011696052737534,1.3579609394073486,-0.1401298940181732,-0.2552515566349029,0.0165891852229833,0.011109996587038,0.0,0.0,-0.1896943216791855,0.9945529189989956
-0.0130190849304199,1.3520480394363403,-0.1310075372457504,-0.2627846598625183,0.015304840169847,-0.0256890263408422,0.0,0.0,0.4291949569850344,-0.9877028475058284
-0.014434814453125,1.3468990325927734,-0.1423301994800567,,0.0160533916205167,0.0149724306538701,0.0,0.0,-0.5939441964820098,-0.9577648028840478
-0.0159201622009277,1.3415664434432983,-0.1510012745857238,-0.2370369136333465,0.0184865277260541,0.0486671924591064,0.0,0.0,0.4706106186613674,-0.7512907396579906
-0.0174091346561908,1.3367551565170288,-0.1530234366655349,-0.2138914167881012,0.0225737690925598,0.0817524641752243,0.0,0.0,-0.205981469900468,-0.8294948381133518
-0.0189554207026958,1.331763744354248,-0.1600879579782486,-0.2219306826591491,0.0279737245291471,0.108008787035942,0.0,0.0,0.634316973880237,-0.7915827571825353
-0.0205048564821481,1.3271100521087646,-0.1621472537517547,-0.2069778889417648,0.0350931547582149,0.1424019783735275,0.0,0.0,0.3256176679059648,0.9193375340841676
-0.0218823440372943,1.3232859373092651,-0.1431904286146164,-0.1701021045446396,0.0404816754162311,0.1077800244092941,0.0,0.0,-0.7450005591335875,-0.7412510788346556
-0.0233148578554391,1.3192676305770874,-0.1498867273330688,-0.1787828803062439,0.0470472984015941,0.1313244402408599,0.0,0.0,-0.8025334155321902,0.7034389901636323
-0.0246875770390033,1.3150800466537476,-0.1421171426773071,-0.1862744688987732,0.0518482215702533,0.096027135848999,0.0,0.0,-0.3384932427674236,-0.9138557059005976
-0.0261234287172555,1.31069815158844,-0.1497709304094314,-0.1949841380119323,0.0579743348062038,0.1225332394242286,0.0,0.0,-0.7970117932869487,0.868181679774856
-0.0274890903383493,1.306148648262024,-0.140638530254364,-0.2023617476224899,0.0620138570666313,0.0807977765798568,0.0,0.0,0.9565085920770312,-0.9067119822700888
-0.0290818214416503,1.302403211593628,-0.1648715585470199,-0.1667059957981109,0.0675549432635307,0.1108316406607627,0.0,0.0,0.6989497540031544,-0.7560221154104244
-0.030652904883027,1.299646258354187,-0.1643958687782287,-0.1228702291846275,0.0747778192162513,0.144470602273941,0.0,0.0,0.684838078046522,0.8656609221541864
-0.0321862213313579,1.2973860502243042,-0.1587683409452438,-0.1007306203246116,0.0801718831062316,0.1078906878829002,0.0,0.0,-0.3785060385310637,0.5891112509409602
-0.0336734764277935,1.2949491739273071,-0.1525926291942596,-0.1085144728422164,0.083998292684555,0.0765350311994552,0.0,0.0,0.0271683353168907,-0.573024547001826
-0.0351843833923339,1.292613863945007,-0.1559997797012329,-0.1040755435824394,0.088879682123661,0.0976363271474838,0.0,0.0,-0.6469561119984837,0.6053199421497701
-0.0366702079772949,1.290102243423462,-0.1523928940296173,-0.1118576303124427,0.0926666036248207,0.0757449865341186,0.0,0.0,0.4106646603254842,-0.8777495913640887
-0.0384319312870502,1.2882598638534546,-0.1814159601926803,-0.0822175741195678,0.0978656485676765,0.1039807349443435,0.0,0.0,0.793647689873962,0.6809227919856617
-0.040224839001894,1.2874248027801514,-0.1829692274332046,-0.0373561978340148,0.1015203073620796,0.0730929672718048,0.0,0.0,-0.5705131969214485,0.631165509311219
-0.0419914238154888,1.28641939163208,-0.1791393160820007,-0.0448561161756515,0.1039796322584152,0.0491865761578083,0.0,0.0,0.6046710221945621,-0.5982613903893788
-0.0440322868525981,1.2863296270370483,-0.2072128504514694,-0.0042089647613465,0.1070839464664459,0.0620862022042274,0.0,0.0,-0.6712480208590388,0.8390517594356905
-0.0460220351815223,1.2860641479492188,-0.2002426832914352,-0.0118963858112692,0.1083457916975021,0.0252371169626712,0.0,0.0,0.1879148274179207,0.5349290898871635
-0.048034381121397,1.2865383625030518,-0.2012124955654144,0.0210827216506004,0.1083293259143829,-0.0003293305053375,0.0,0.0,-0.8813703060150146,0.8877285718917847
-0.0499987602233886,1.286834478378296,-0.1946265250444412,0.0132874464616179,0.1065261363983154,-0.0360637828707695,0.0,0.0,-0.6951016187667847,0.6601657867431641
-0.0519324317574501,0.0,-0.1901438981294632,0.0058425096794962,0.1033294722437858,-0.063933253288269,0.0,0.0,-0.7572559714317322,0.4084692001342773
-0.0538799278438091,1.2869043350219729,-0.1912572681903839,-0.0022780632134526,0.099870391190052,-0.0691817328333854,0.0,0.0,-0.9424961805343628,0.439409852027893
-0.0558413490653038,1.2866647243499756,-0.192384272813797,-0.0103987995535135,0.0961419120430946,-0.0745695978403091,0.0,0.0,-0.8532218933105469,0.5190747976303101
-0.0577751174569129,1.2862523794174194,-0.1882626712322235,-0.0180077441036701,0.0910702720284462,-0.1014328226447105,0.0,0.0,-0.9168953895568848,0.4824446439743042
-0.0597232803702354,1.285657286643982,-0.1894132792949676,-0.0261297337710857,0.0857169032096862,-0.1070673912763595,0.0,0.0,-0.9654920101165771,0.1841175556182861
-0.0616859421133995,1.2848795652389526,-0.1905739456415176,-0.0342520512640476,0.0800763592123985,-0.1128106564283371,0.0,0.0,-0.978383243083954,-0.0185513496398925
-0.0636632889509201,1.2839192152023315,-0.1917434334754943,-0.0423747412860393,0.0741436704993248,-0.118653729557991,0.0,0.0,-0.9859098196029664,0.13519287109375
-0.0656554251909256,1.2827762365341189,-0.1929204761981964,-0.050497829914093,0.0679142475128173,-0.1245884448289871,0.0,0.0,-0.8410628437995911,0.0522925853729248
-0.0676624327898025,1.281450867652893,-0.194103792309761,-0.0586213506758213,0.0613838844001293,-0.1306071430444717,0.0,0.0,-0.7755938768386841,-0.1709551215171814
-0.0696845054626464,1.2799431085586548,-0.195292055606842,-0.0667453333735466,0.0545487441122531,-0.1367028057575225,0.0,0.0,-0.8992865085601807,-0.2582369446754455
-0.071721650660038,1.2782529592514038,-0.1964839398860931,-0.0748698338866233,0.047405295073986,-0.142869085073471,0.0,0.0,-0.8017541170120239,-0.1309518814086914
-0.0737738609313964,1.2763805389404297,-0.1976780742406845,-0.0829948559403419,0.0399503037333488,-0.1490999311208725,0.0,0.0,-0.875450849533081,-0.419421374797821
-0.0758412331342697,1.274326205253601,-0.1988731026649475,-0.0911204442381858,0.0321807898581028,-0.1553899943828582,0.0,0.0,-0.8251083493232727,-0.7423706650733948
-0.0779779404401779,1.272079348564148,-0.2068568766117096,-0.0997289791703224,0.0254589188843965,-0.1344375908374786,0.0,0.0,-0.9015734195709229,-0.2932224869728088
-0.0801298171281814,1.2696503400802612,-0.2080494612455368,-0.1078540757298469,0.0184173267334699,-0.1408319771289825,0.0,0.0,-0.9561374187469482,-0.255695104598999
-0.0822967514395713,1.2670390605926514,-0.2092386037111282,-0.115979716181755,0.0110537223517894,-0.1472719758749008,0.0,0.0,-0.9382384419441224,-0.4412393569946289
-0.0844787582755088,1.264245867729187,-0.2104227989912033,-0.1241059526801109,0.0033660251647233,-0.1537538766860962,0.0,0.0,-0.9637989401817322,-0.5638363361358643
-0.0867221802473068,1.2612686157226562,-0.2173953354358673,-0.1323181539773941,-0.0034870826639235,-0.1370623558759689,0.0,0.0,-0.9737363457679749,0.2503353357315063
-0.0889805778861045,1.2581095695495603,-0.2185650616884231,-0.1404441744089126,-0.0106680085882544,-0.1436183750629425,0.0,0.0,-0.9181528687477112,-0.544192373752594
-0.0913010612130165,1.2547725439071655,-0.2256421744823455,-0.1483673751354217,-0.0169926192611455,-0.126492291688919,0.0,0.0,-0.9536070227622986,-0.2405555844306945
-0.0936364158987999,1.2512534856796265,-0.2267909944057464,-0.1564931869506836,-0.0236481800675392,-0.1331112831830978,0.0,0.0,-0.9676479697227478,-0.7129601240158081
-0.0960424393415451,1.247560977935791,-0.2349560558795929,-0.1642162799835205,-0.0292251575738191,-0.111539639532566,0.0,0.0,-0.9978514313697816,-0.9079818725585938
-0.0985171347856521,1.243685007095337,-0.2428657263517379,-0.1723615676164627,-0.0337770842015743,-0.0910384431481361,0.0,0.0,-0.976408064365387,0.5419121980667114
-0.1009702682495117,1.2396225929260254,-0.2394511699676513,-0.180695354938507,-0.0395710617303848,-0.1158794909715652,0.0,0.0,-0.9966142773628236,-0.9566936492919922
-0.1035013198852539,1.235390543937683,-0.2485245168209076,-0.1882191151380539,-0.0440937243402004,-0.0904533118009567,0.0,0.0,-0.971376359462738,0.5779907703399658
-0.1059902161359787,1.2309750318527222,-0.2425363957881927,-0.1964470595121383,-0.050366498529911,-0.1254555732011795,0.0,0.0,-0.9916056394577026,-0.5633277297019958
-0.1085316687822341,1.2263861894607544,-0.2484550029039383,-0.204151764512062,-0.055994339287281,-0.1125566810369491,0.0,0.0,-0.9908971190452576,-0.5601016283035278
-0.1111364364624023,1.2216241359710691,-0.2557128965854645,-0.2118273228406906,-0.0607043765485286,-0.0942007303237915,0.0,0.0,-0.9271531105041504,-0.5509375929832458
-0.1137946099042892,1.2166788578033447,-0.2617237567901611,-0.2199626863002777,-0.0647517442703247,-0.0809474885463714,0.0,0.0,-0.9477431774139404,-0.2233304381370544
-0.1164658516645431,1.211551547050476,-0.2626914381980896,-0.228087916970253,-0.069139577448368,-0.0877565443515777,0.0,0.0,-0.7665079236030579,-0.7092224359512329
-0.1191945075988769,1.2062445878982544,-0.2692221999168396,-0.2360351830720901,-0.0727466195821762,-0.072140634059906,0.0,0.0,-0.9727460145950316,0.0113499164581298
-0.1219356507062912,1.2007554769515991,-0.2701285183429718,-0.2441603541374206,-0.0766955316066742,-0.0789784491062164,0.0,0.0,-0.7318972945213318,0.2772260904312134
-0.1246891021728515,1.1950842142105105,-0.2710011303424835,-0.2522858381271362,-0.0809869989752769,-0.0858294293284416,0.0,0.0,-0.9986131191253662,0.8002119064331055
-0.1274040192365646,1.1892250776290894,-0.2655432820320129,-0.2607320249080658,-0.086887888610363,-0.1180178523063659,0.0,0.0,-0.9960201978683472,0.1230998039245605
-0.1301304847002029,1.1831843852996826,-0.2663422226905823,-0.2688594162464142,-0.0931325331330299,-0.1248929053544998,0.0,0.0,-0.9803453087806702,-0.1779307126998901
-0.132868006825447,1.1769617795944214,-0.2671011090278625,-0.2769873738288879,-0.0997214838862419,-0.131779134273529,0.0,0.0,-0.8853089213371277,0.5012974739074707
-0.1355743408203125,1.1705572605133057,-0.2626037895679474,-0.2852044403553009,-0.1076975613832473,-0.1595217138528823,0.0,0.0,-0.7521535158157349,-0.1553630232810974
-0.1382909715175628,1.1639713048934937,-0.2632763087749481,-0.2933348417282104,-0.1160189807415008,-0.1664284020662307,0.0,0.0,-0.9654277563095092,-0.0451917648315429
-0.1410172432661056,1.1572041511535645,-0.263902336359024,-0.3014659583568573,-0.1246862038969993,-0.1733446568250656,0.0,0.0,-0.9475045800209044,0.621387243270874
-0.1437012702226638,1.150247573852539,-0.2580342888832092,-0.3100839853286743,-0.1350032985210418,-0.2063421905040741,0.0,0.0,-0.9947935342788696,0.1472964286804199
-0.1463937759399414,1.1431103944778442,-0.258561223745346,-0.3182187378406524,-0.1456670761108398,-0.2132757604122162,0.0,0.0,-0.8425509929656982,-0.4650009870529175
-0.1490944921970367,1.13579261302948,-0.2590352892875671,-0.3263544142246246,-0.1566779315471649,-0.2202175110578537,0.0,0.0,-0.9413395524024964,0.4448987245559692
-0.1518025398254394,1.1282944679260254,-0.2594543695449829,-0.3344909846782684,-0.1680362820625305,-0.227167010307312,0.0,0.0,-0.847629725933075,0.5656872987747192
-0.1544691026210785,1.1205977201461792,-0.2537182867527008,-0.3435879051685333,-0.1810072660446167,-0.2594192922115326,0.0,0.0,-0.8012021780014038,-0.817605197429657
-0.1572098731994629,1.1127314567565918,-0.2625257968902588,-0.3510600328445434,-0.1926058083772659,-0.2319709360599517,0.0,0.0,-0.7199284434318542,-0.0243242979049682
-0.1599561721086502,1.1046851873397827,-0.2627677321434021,-0.359198659658432,-0.2045528590679168,-0.23894102871418,0.0,0.0,0.1045824289321899,-0.7584046125411987
-0.1625940352678299,1.0972669124603271,-0.2531651258468628,-0.3312126994132995,-0.2152738869190216,-0.2144204378128051,0.0,0.0,0.4804170131683349,0.6761258840560913
-0.1651345193386078,1.090766668319702,-0.2415600717067718,-0.2907703816890716,-0.2279112935066223,-0.2527481019496918,0.0,0.0,-0.8273184299468994,0.0857874155044555
-0.1676784455776214,1.084086775779724,-0.2416084110736847,-0.2989120483398437,-0.240897998213768,-0.2597338855266571,0.0,0.0,-0.9548740983009338,0.1083759069442749
-0.1702253371477127,1.0772274732589722,-0.2415890246629715,-0.307054728269577,-0.2542341947555542,-0.2667236030101776,0.0,0.0,-0.8563390970230103,0.3461589813232422
-0.1727742254734039,1.0701892375946045,-0.2415005266666412,-0.3151985108852386,-0.2679200172424316,-0.2737165689468384,0.0,0.0,-0.7389585375785828,0.0632182359695434
-0.1753245294094085,1.062971591949463,-0.24134162068367,-0.323343425989151,-0.2819555997848511,-0.2807119488716125,0.0,0.0,-0.7539258003234863,-0.353348970413208
-0.1778754293918609,1.055575251579285,-0.2411112487316131,-0.3314895033836365,-0.296341061592102,-0.2877088487148285,0.0,0.0,-0.6863571405410767,0.469468355178833
-0.1804261207580566,1.0480003356933594,-0.2408084869384765,-0.3396367132663727,-0.3110763728618622,-0.2947063744068146,0.0,0.0,-0.8729789853096008,-0.7179068326950073
-0.1830287873744964,1.0402648448944092,-0.2470993101596832,-0.346686452627182,-0.3247636556625366,-0.2737455666065216,0.0,0.0,-0.9094735980033876,0.3096292018890381
-0.1856297552585601,1.0323503017425537,-0.2466481924057006,-0.3548327386379242,-0.3388007581233978,-0.2807422280311584,0.0,0.0,-0.8667836785316467,-0.3941608667373657
-0.188228040933609,1.0242574214935305,-0.2461228817701339,-0.3629800975322723,-0.3531875312328338,-0.2877359986305237,0.0,0.0,-0.7603985667228699,-0.4195921421051025
-0.1908230781555175,1.0159858465194702,-0.2455232441425323,-0.3711285591125488,-0.3679237961769104,-0.2947255969047546,0.0,0.0,-0.4598442316055298,-0.6905771493911743
-0.1934637129306793,1.0075700283050537,-0.2511931657791137,-0.3774083852767944,-0.3815695643424988,-0.2729159295558929,0.0,0.0,-0.6972185969352722,-0.6435340642929077
-0.1961426734924316,0.999006450176239,-0.2559534013271332,-0.3838481307029724,-0.3942996561527252,-0.2546027302742004,0.0,0.0,-0.0266835689544677,-0.3673340082168579
-0.1988159120082855,0.9902639985084534,-0.2551280558109283,-0.391993910074234,-0.4073782563209533,-0.2615721225738525,0.0,0.0,0.1804351806640625,-0.2164274454116821
-0.2013242244720459,0.9816211462020874,-0.2386815845966339,-0.3876784741878509,-0.4204714894294739,-0.2618645429611206,0.0,0.0,0.1391510963439941,-0.3158729076385498
-0.2037149369716644,0.9733025431632996,-0.2265290766954422,-0.3735169470310211,-0.4340796172618866,-0.2721622586250305,0.0,0.0,0.2854534387588501,-0.7582201957702637
-0.2057993412017822,0.9657175540924072,-0.1971812099218368,-0.3406411707401275,-0.44636070728302,-0.2456220686435699,0.0,0.0,0.6355193853378296,-0.6160361766815186
-0.2076980173587799,0.95876282453537,-0.1794713884592056,-0.3124517202377319,-0.4577594101428985,-0.2279741019010543,0.0,0.0,0.867999792098999,-0.9013914465904236
-0.2093898355960846,0.9529961943626404,-0.1600213646888733,-0.2593418061733246,-0.4678672552108764,-0.2021566331386566,0.0,0.0,0.9514889717102052,-0.7427442669868469
-0.2106514871120453,0.9481207132339478,-0.1183690428733825,-0.2193362414836883,-0.4765061736106872,-0.1727784276008606,0.0,0.0,0.8995652198791504,-0.805504560470581
-0.2116207182407379,0.9443098306655884,-0.0902611315250396,-0.1716837882995605,-0.4839222431182861,-0.1483213007450103,0.0,0.0,0.920157551765442,-0.8088775277137756
-0.2123208940029144,0.9415966868400574,-0.0644095763564109,-0.1225591376423835,-0.4901809692382812,-0.125174343585968,0.0,0.0,0.3714096546173095,-0.8516072630882263
-0.2128950655460357,0.9393114447593688,-0.053098477423191,-0.1031116694211959,-0.4950117170810699,-0.0966150164604187,0.0,0.0,-0.2624297142028808,-0.7259780764579773
-0.2135162353515625,0.9368945956230164,-0.0591426193714141,-0.1084911301732063,-0.4983523190021515,-0.0668119937181472,0.0,0.0,0.7047035694122314,-0.8353449106216431
-0.2140748500823974,0.935177445411682,-0.0539126507937908,-0.0770314484834671,-0.5005473494529724,-0.0439008437097072,0.0,0.0,0.2546111345291137,-0.7094837427139282
-0.2143262922763824,0.9339763522148132,-0.0243294425308704,-0.053679309785366,-0.5014631748199463,-0.018316276371479,0.0,0.0,-0.4784301519393921,-0.8677096366882324
-0.2146196365356445,0.9326318502426147,-0.029677739366889,-0.0596269778907299,-0.5010762214660645,0.0077395616099238,0.0,0.0,-0.6165826320648193,-0.9474606513977052
-0.2149452716112136,0.9311535358428956,-0.033974140882492,-0.0651842281222343,-0.4994876682758331,0.0317709371447563,0.0,0.0,0.0107886791229248,-0.810645580291748
-0.2150960862636566,0.930182933807373,-0.0177415646612644,-0.0421736650168895,-0.4965028762817383,0.0596961304545402,0.0,0.0,-0.1325741410255432,-0.7750096917152405
-0.21526899933815,0.9290727376937866,-0.0207870211452245,-0.048089537769556,-0.4925783574581146,0.0784901529550552,0.0,0.0,-0.5303084254264832,-0.7461723685264587
-0.215470552444458,0.9278178811073304,-0.0246076248586177,-0.0541797392070293,-0.4875979125499725,0.0996091812849044,0.0,0.0,0.0761792659759521,-0.8457643985748291
-0.2154667824506759,0.9271454215049744,-0.0054097948595881,-0.0278612840920686,-0.4811380803585052,0.1291960626840591,0.0,0.0,-0.5410102605819702,-0.7680280208587646
-0.2154914885759353,0.926335871219635,-0.0093185529112815,-0.0336128063499927,-0.4735247492790222,0.1522664874792099,0.0,0.0,-0.1960832476615905,-0.5235161185264587
-0.2155308723449707,0.9253684282302856,-0.0113997738808393,-0.0404833368957042,-0.4652665257453918,0.165164366364479,0.0,0.0,-0.1146352887153625,-0.7785466313362122
-0.2156171351671219,0.924271047115326,-0.0176355801522731,-0.0457830801606178,-0.455341637134552,0.1984980702400207,0.0,0.0,-0.147519826889038,-0.0080683827400207
-0.2156848013401031,0.9229941964149476,-0.0155537575483322,-0.0539231933653354,-0.4457077383995056,0.1926782131195068,0.0,0.0,-0.0503031015396118,-0.6261979341506958
-0.2157793939113617,0.9215697050094604,-0.0192662682384252,-0.0602238401770591,-0.4350055456161499,0.2140434235334396,0.0,0.0,-0.3635701537132263,-0.3956560492515564
-999.0,0.919965386390686,-0.0171196237206459,-0.0683643072843551,-0.4245805740356445,0.2084991633892059,0.0,0.0,0.1521800756454467,-0.614040195941925
-0.2157597541809082,0.918485939502716,-0.0012101744068786,-0.0625685378909111,-0.4130122661590576,0.2313661873340606,0.0,0.0,0.2326117753982544,-0.4738600254058838
-0.2153732776641845,0.9174838662147522,0.0278191622346639,-0.0414145961403846,-0.4013687074184418,0.2328711003065109,0.0,0.0,0.036840796470642,-0.572792649269104
-0.2147921025753021,0.9170222282409668,0.0463277213275432,-0.0172335114330053,-0.3887616395950317,0.2521416544914245,0.0,0.0,-0.5485985279083252,-0.4112038612365722
