x_pos,y_pos,x_vel,y_vel,angle,ang_vel,leg_1,leg_2,main_booster,lat_booster
-0.0015063285827636,1.403525471687317,-0.1522717624902725,-0.3286484777927398,0.0014696101425215,0.0289676003158092,0.0,0.0,0.1061457395553588,0.6563982963562012
-0.002899456070736,1.3965153694152832,-0.139225035905838,-0.3115612268447876,0.001383670954965,-0.0017183435847982,0.0,0.0,0.0740314722061157,0.3909573554992676
-0.0041776658035814,1.3897998332977295,-0.1278844326734542,-0.2984696924686432,0.0014544067671522,0.0014145508175715,0.0,0.0,-0.6924991607666016,0.4965654611587524
-0.0054218294098973,1.3829851150512695,-0.1242411509156227,-0.3028724491596222,0.0012800836702808,-0.003486793488264,0.0,0.0,0.1268758773803711,-0.0577479600906372
-0.0065392493270337,1.3767390251159668,-0.1117626577615737,-0.2776089906692505,0.0012989693786948,0.000377751479391,0.0,0.0,-0.3943318128585815,0.6303348541259766
-0.0075512886978685,1.370392918586731,-0.0994572192430496,-0.2820460498332977,-0.0004247404285706,-0.0344775542616844,0.0,0.0,-0.541804313659668,-0.3045925498008728
-0.0085136415436863,1.363948106765747,-0.094286985695362,-0.2864413857460022,-0.0023412073496729,-0.0383328720927238,0.0,0.0,-0.7875325679779053,-0.2695621252059936
-0.0094211576506495,1.357404351234436,-0.0886356830596923,-0.2908395230770111,-0.0044336598366498,-0.0418529883027076,0.0,0.0,-0.5867233276367188,0.1368780136108398
-0.0102691650390625,1.350761651992798,-0.0825184732675552,-0.2952377498149872,-0.0066834799945354,-0.0450005382299423,0.0,0.0,-0.5687363147735596,0.7096656560897827
-0.0109970094636082,1.3440240621566772,-0.068946436047554,-0.299470841884613,-0.0104759829118847,-0.0758572667837143,0.0,0.0,-0.8785098791122437,-0.0901845693588256
-0.0116559024900197,1.337187647819519,-0.0619443953037261,-0.3038699030876159,-0.0143875703215599,-0.0782386362552642,0.0,0.0,-0.9201746582984924,-0.5320259928703308
-0.0122788427397608,1.330252170562744,-0.0591741427779197,-0.3082733750343323,-0.0174692366272211,-0.0616390407085418,0.0,0.0,-0.8294479846954346,-0.772955596446991
-0.0128722190856933,1.323223114013672,-0.0573560409247875,-0.3124269247055053,-0.0194313302636146,-0.0392450876533985,0.0,0.0,-0.830163300037384,-0.6992704272270203
-0.0134334564208984,1.3160898685455322,-0.055311769247055,-0.317036360502243,-0.0202289819717407,-0.0159545633941888,0.0,0.0,-0.9604604840278624,-0.5266481637954712
-0.0139414789155125,1.3088643550872805,-0.0507662817835807,-0.3211386501789093,-0.0202701985836029,-0.00082461128477,0.0,0.0,-0.7331638336181641,-0.2113873958587646
-0.0143611906096339,1.301539659500122,-0.0419016666710376,-0.3255371153354645,-0.020336790010333,-0.0013319493737071,0.0,0.0,-0.9239543080329896,0.0021041631698608
-0.014689159579575,1.2941162586212158,-0.0327192321419715,-0.3299352526664734,-0.0204099472612142,-0.0014631745871156,0.0,0.0,-0.9669799208641052,-0.5794547200202942
-0.0149571420624852,1.2865898609161377,-0.0276273041963577,-0.3344925940036773,-0.0195934996008873,0.0163304600864648,0.0,0.0,-0.9518718719482422,-0.4379645586013794
-0.0151272770017385,1.2789645195007324,-0.0178680829703807,-0.3388908505439758,-0.0187482088804245,0.0169074647128582,0.0,0.0,-0.9699413776397704,0.1682418584823608
-0.0151968002319335,1.2712403535842896,-0.0078455097973346,-0.3432891070842743,-0.0178561210632324,0.017843198031187,0.0,0.0,-0.8648347854614258,0.2922320365905761
-0.0151628497987985,1.26341712474823,0.0024229451082646,-0.3476873934268951,-0.0169005822390317,0.0191127657890319,0.0,0.0,-0.4695154428482055,-0.5808243155479431
-0.0150682451203465,1.2554928064346311,0.0072698830626904,-0.3521680831909179,-0.0147338109090924,0.0433391667902469,0.0,0.0,-0.7537351250648499,0.065895676612854
-0.0148655893281102,1.2474696636199951,0.0179783720523118,-0.3565667867660522,-0.0124721564352512,0.045237198472023,0.0,0.0,-0.9049277305603028,-0.1340761184692382
-0.0145526882261037,1.2393474578857422,0.0288863722234964,-0.3609655201435089,-0.0100998096168041,0.0474512390792369,0.0,0.0,-0.8590877056121826,0.2839609384536743
-0.0141276363283395,1.2311265468597412,0.0399791896343231,-0.3653642833232879,-0.0076025398448109,0.049949824810028,0.0,0.0,-0.9473139643669128,0.0638611316680908
-0.0135886194184422,1.2227849960327148,0.0512330718338489,-0.370716780424118,-0.0049663032405078,0.0527247488498687,0.0,0.0,-0.7845309376716614,-0.1443977355957031
-0.0129336360841989,1.21434485912323,0.0626640617847442,-0.3751135468482971,-0.0021769199520349,0.0557877942919731,0.0,0.0,-0.8982133269309998,0.4660805463790893
-0.0121612548828125,1.2058058977127075,0.0742427855730056,-0.3795103728771209,0.0007790367235429,0.0591190047562122,0.0,0.0,-0.6967697739601135,-0.3592228889465332
-0.0112699512392282,1.1971681118011477,0.0859582424163818,-0.3839073479175567,0.0039143147878348,0.0627055615186691,0.0,0.0,-0.5278984308242798,0.3056199550628662
-0.0102582927793264,1.1884316205978394,0.0978001505136489,-0.3883044123649597,0.0072410432621836,0.0665344223380088,0.0,0.0,-0.8922122120857239,-0.533972978591919
-0.0091659547761082,1.1796019077301023,0.1046190410852432,-0.3924588561058044,0.0117993261665105,0.091165617108345,0.0,0.0,-0.8591700792312622,0.8272800445556641
-0.0078936573117971,1.1706697940826416,0.1238423734903335,-0.397015243768692,0.0151389623060822,0.0667926967144012,0.0,0.0,-0.9420174360275269,-0.1196853518486023
-0.0064973831176757,1.161638855934143,0.1360085010528564,-0.4014126658439636,0.0187026336789131,0.07127346098423,0.0,0.0,-0.8710569739341736,-0.8185356855392456
-0.0050477981567382,1.152500033378601,0.1392893940210342,-0.4062528610229492,0.0243006013333797,0.1119595915079116,0.0,0.0,-0.7045198082923889,0.0777558088302612
-0.0034723281860351,1.14326274394989,0.1516319215297699,-0.4106521904468536,0.0301413610577583,0.1168152317404747,0.0,0.0,-0.4660947918891907,-0.0249240398406982
-0.0017701148753985,1.1339271068572998,0.1640524566173553,-0.4150519371032715,0.0362334437668323,0.1218417659401893,0.0,0.0,-0.80474853515625,-0.3624312877655029
5.960464477539063e-05,1.1244933605194092,0.1765447109937667,-0.419452041387558,0.0425848774611949,0.1270285546779632,0.0,0.0,-0.8368266820907593,-0.5864177346229553
0.0019741058349609,1.1149630546569824,0.1836406737565994,-0.4238069951534271,0.0502953231334686,0.1542090326547622,0.0,0.0,-0.91009122133255,-0.7757794260978699
0.0039518354460597,1.1053388118743896,0.1880352646112442,-0.4281018376350403,0.0599225834012031,0.1925448328256607,0.0,0.0,-0.907857060432434,0.185775876045227
0.0060590743087232,1.0956172943115234,0.2007103860378265,-0.432507187128067,0.0698302537202835,0.1981533914804458,0.0,0.0,-0.9016402959823608,0.419258713722229
0.0082963947206735,1.085798263549805,0.213436871767044,-0.4369133412837982,0.0800244957208633,0.203884869813919,0.0,0.0,-0.8740461468696594,-0.1131233572959899
0.0106643680483102,1.075882077217102,0.2262104749679565,-0.4413202106952667,0.0905110538005828,0.2097311019897461,0.0,0.0,-0.7702252864837646,-0.0657129287719726
0.0131633756682276,1.065868854522705,0.2390272617340088,-0.4457278549671173,0.1012952700257301,0.2156842947006225,0.0,0.0,-0.7147355079650879,-0.0939523577690124
0.0157938953489065,1.0557588338851929,0.2518836557865143,-0.4501363337039947,0.1123821064829826,0.2217370718717575,0.0,0.0,-0.5001122951507568,0.2314087152481079
0.0185563080012798,1.0455517768859863,0.2647762596607208,-0.454545646905899,0.1237762197852134,0.2278824597597122,0.0,0.0,-0.5784661769866943,-0.4040564894676208
0.0214509014040231,1.0352482795715332,0.2777019143104553,-0.4589558839797973,0.1354819238185882,0.2341139018535614,0.0,0.0,-0.469592809677124,-0.516498863697052
0.024441909044981,1.0248382091522217,0.286115825176239,-0.4639066457748413,0.1484320163726806,0.2590017914772033,0.0,0.0,-0.3928729295730591,-0.4716702699661255
0.0275656692683696,1.014331936836243,0.2990995049476623,-0.46832075715065,0.1617013365030288,0.2653867900371551,0.0,0.0,-0.1675851345062255,-0.6467221975326538
0.030760383233428,1.003720760345459,0.3043121099472046,-0.4733266830444336,0.1768701374530792,0.3033758103847503,0.0,0.0,0.2471039295196533,-0.3530575037002563
0.0340049751102924,0.9935773611068726,0.3090913593769073,-0.4527284502983093,0.1922908276319503,0.3084143400192261,0.0,0.0,0.2809399366378784,-0.7520611882209778
0.0373629555106163,0.9840099215507508,0.3185067772865295,-0.4275600612163543,0.2097051590681076,0.3482865691184997,0.0,0.0,0.458745002746582,-0.6388030648231506
0.0406145080924034,0.9752742648124696,0.3064433634281158,-0.3910244107246399,0.228620246052742,0.3783019483089447,0.0,0.0,0.3690047264099121,-0.0698611140251159
0.0440041534602642,0.9670143127441406,0.3195955455303192,-0.370231568813324,0.2482882887125015,0.3933610320091247,0.0,0.0,0.076154351234436,0.6444724798202515
0.0474500656127929,0.9594421982765198,0.3262685537338257,-0.3397454619407654,0.266988068819046,0.3739964663982391,0.0,0.0,0.211459994316101,0.0848755836486816
0.0510406494140625,0.952337682247162,0.3399997353553772,-0.3193553388118744,0.2865318357944488,0.3908755183219909,0.0,0.0,-0.1978362798690796,0.5100682973861694
0.0547976493835449,0.945152223110199,0.3572612404823303,-0.3230839669704437,0.3055469393730163,0.3803022503852844,0.0,0.0,-0.0868732333183288,0.942330241203308
0.0587682723999023,0.9379204511642456,0.3805496096611023,-0.3249793648719787,0.3226770758628845,0.3426028490066528,0.0,0.0,0.2301255464553833,-0.0553481578826904
0.0628108009696006,0.931358277797699,0.3870582580566406,-0.2955872118473053,0.3406266868114471,0.3589923977851867,0.0,0.0,0.0445594787597656,0.7155970335006714
0.0669156089425087,0.925500750541687,0.3944339156150818,-0.2642165124416351,0.3574852049350738,0.3371700048446655,0.0,0.0,-0.1860605478286743,0.3832086324691772
0.0711542144417762,0.919549822807312,0.4075856804847717,-0.2686453461647033,0.3746906518936157,0.3441093564033508,0.0,0.0,-0.0658844113349914,0.6085267066955566
0.0755763053894043,0.9135285019874572,0.4269751906394958,-0.2716930210590362,0.3908912241458893,0.3240114152431488,0.0,0.0,0.1695090532302856,-0.397599458694458
0.0798773765563964,0.9080612063407898,0.4149569869041443,-0.2472340911626815,0.4071125984191894,0.3244272172451019,0.0,0.0,0.4222768545150757,0.463425874710083
0.0842334777116775,0.903176724910736,0.4197884202003479,-0.2217311859130859,0.4241756796836853,0.3412621319293976,0.0,0.0,0.091211199760437,0.6221263408660889
0.0886166542768478,0.8987938165664673,0.4234632551670074,-0.1993559151887893,0.4403169155120849,0.322824478149414,0.0,0.0,0.5001926422119141,-0.3087698221206665
0.0929846763610839,0.8948155641555786,0.4217085838317871,-0.181640625,0.4568421244621277,0.330504298210144,0.0,0.0,0.5602526664733887,0.9792821407318116
0.0971895232796669,0.89145827293396,0.4071554541587829,-0.1536555737257003,0.4715505242347717,0.2941681742668152,0.0,0.0,0.8344883918762207,0.7539318799972534
0.1011691093444824,0.8893420100212097,0.3857965469360351,-0.098255306482315,0.485070526599884,0.2704005539417267,0.0,0.0,0.9163570404052734,0.9213366508483888
0.1052842140197753,0.8876951932907104,0.4006772637367248,-0.077049121260643,0.4971975684165954,0.2425404340028762,0.0,0.0,0.970339298248291,0.6117160320281982
0.1091171279549598,0.8873602747917175,0.3732883334159851,-0.0185383986681699,0.5084669589996338,0.2253883332014084,0.0,0.0,0.9849628210067748,0.0363500118255615
0.1127078086137771,0.8875930309295654,0.3492784202098846,0.0066625028848648,0.5195646286010742,0.2219526320695877,0.0,0.0,0.9870202541351318,0.3044404983520508
0.1159315109252929,0.8887085318565369,0.3127827644348144,0.0458861999213695,0.5305020809173584,0.2187485247850418,0.0,0.0,0.9935163259506226,0.860640287399292
0.1190007179975509,0.8907834887504578,0.2986028492450714,0.088940218091011,0.5400377511978149,0.1907133013010025,0.0,0.0,0.9936580657958984,0.9725587368011476
0.1215928047895431,0.8940092921257019,0.2526822686195373,0.1407392770051956,0.5475592017173767,0.1504291445016861,0.0,0.0,0.979053258895874,0.9790544509887696
0.1241057366132736,0.8981603980064392,0.2461718320846557,0.1824028193950653,0.5534943342208862,0.118702732026577,0.0,0.0,0.9566471576690674,0.9756159782409668
0.1265377104282379,0.9028252959251404,0.2396275103092193,0.2058456838130951,0.5576379895210266,0.0828733146190643,0.0,0.0,0.9656412601470948,0.9226967096328736
0.129037469625473,0.90800541639328,0.2476660311222076,0.2292665392160415,0.5603229403495789,0.0536993630230426,0.0,0.0,0.9679803848266602,0.9313414096832277
0.1314840316772461,0.9136197566986084,0.2438211441040039,0.2491767704486847,0.561305582523346,0.0196522623300552,0.0,0.0,0.8341531753540039,0.8915951251983643
0.1336407661437988,0.9203099608421326,0.2162025868892669,0.2975576817989349,0.5606929659843445,-0.0122519843280315,0.0,0.0,0.7270364761352539,0.8376803398132324
0.1356058120727539,0.9281195998191832,0.1981538236141204,0.347783088684082,0.5587632060050964,-0.0385949313640594,0.0,0.0,-0.8659563660621643,0.798724889755249
0.1377415657043457,0.935879647731781,0.2161523103713989,0.3459599316120147,0.5557671785354614,-0.0599218718707561,0.0,0.0,-0.4062951207160949,0.716498613357544
0.1400474607944488,0.94357168674469,0.2339166104793548,0.3432371020317077,0.5519143342971802,-0.0770569890737533,0.0,0.0,0.2710155248641968,0.4821572303771972
0.1421907395124435,0.9519683718681335,0.2172506302595138,0.3743831813335418,0.5485342144966125,-0.0676021948456764,0.0,0.0,-0.3507595062255859,0.5955841541290283
0.1444961577653885,0.9602989554405212,0.2340991795063018,0.3716830611228943,0.5444241166114807,-0.08220224827528,0.0,0.0,-0.9463334083557128,0.7171924114227295
0.1469724625349044,0.96857488155365,0.2521222233772278,0.3696256875991821,0.5392431616783142,-0.1036196574568748,0.0,0.0,-0.8951923251152039,0.3145260810852051
0.1495764702558517,0.976754367351532,0.2646328806877136,0.3652138411998749,0.5343808531761169,-0.0972463339567184,0.0,0.0,-0.4594480991363525,0.5763294696807861
0.1523515731096267,0.9848766922950744,0.2827118933200836,0.3630347847938537,0.5284310579299927,-0.1189963445067405,0.0,0.0,-0.5029889345169067,0.2420752048492431
0.1552528440952301,0.9929028749465942,0.2950641512870788,0.3586229383945465,0.522791862487793,-0.1127833276987075,0.0,0.0,-0.0413402915000915,0.327558159828186
0.1582791358232498,1.0008323192596436,0.3073250949382782,0.3542115390300751,0.5174590349197388,-0.1066560745239257,0.0,0.0,-0.2876903414726257,0.3375754356384277
0.161429688334465,1.0086652040481567,0.319485992193222,0.3498007655143738,0.5124281644821167,-0.1006178855895996,0.0,0.0,0.3397465944290161,0.6226122379302979
0.1646986901760101,1.0169426202774048,0.3320502042770386,0.3698026835918426,0.5066031217575073,-0.116500437259674,0.0,0.0,0.1310842037200927,0.6157196760177612
0.1678766310214996,1.0258338451385498,0.3238646686077118,0.3973917365074157,0.4997572898864746,-0.1369166672229766,0.0,0.0,-0.1723276972770691,0.7461459636688232
0.1712266951799392,1.0346773862838743,0.3423346579074859,0.3956942856311798,0.4915354549884796,-0.1644364595413208,0.0,0.0,-0.5857868194580078,0.3858480453491211
0.1746955811977386,1.0434246063232422,0.3539947867393493,0.3912819623947143,0.4835959076881408,-0.1587908416986465,0.0,0.0,0.0157911777496337,0.7032039165496826
0.1783024817705154,1.0524237155914309,0.368854820728302,0.4027876555919647,0.4745051860809326,-0.1818146407604217,0.0,0.0,0.0515002012252807,0.4754074811935425
0.1818470060825348,1.0617358684539795,0.3625452220439911,0.4166240692138672,0.4655311405658722,-0.1794802844524383,0.0,0.0,0.2199063301086425,0.5818593502044678
0.185319036245346,1.0718889236450195,0.3561078011989593,0.4541978240013122,0.45571169257164,-0.1963882744312286,0.0,0.0,-0.4790284037590027,0.7250356674194336
0.1889514029026031,1.081981539726257,0.3732807636260986,0.451807826757431,0.4446955323219299,-0.2203229665756225,0.0,0.0,-0.6671720147132874,0.6726830005645752
0.1927286088466644,1.0920108556747437,0.3886175751686096,0.4491618871688843,0.4328114688396454,-0.237681359052658,0.0,0.0,-0.2250019907951355,0.4663012027740478
0.1966123580932617,1.1019443273544312,0.3990986943244934,0.4447462260723114,0.4211753606796264,-0.2327218949794769,0.0,0.0,-0.0111953020095825,0.4390493631362915
0.2005998641252517,1.1117818355560305,0.4093164801597595,0.4403313994407654,0.4097810983657837,-0.2278850525617599,0.0,0.0,-0.1286001801490783,0.5312364101409912
0.2047203034162521,1.1215481758117676,0.4233259558677673,0.437282919883728,0.3976678848266601,-0.2422644346952438,0.0,0.0,-0.0189306139945983,0.6260550022125244
0.2089823782444,1.1312443017959597,0.4385034441947937,0.4343226552009582,0.3845458924770355,-0.2624396383762359,0.0,0.0,0.3602243661880493,-0.1971679925918579
0.2130641043186187,1.141479253768921,0.4207343459129333,0.4582156538963318,0.3712028861045837,-0.2668598294258117,0.0,0.0,0.0993003845214843,0.295183777809143
0.2170167863368988,1.1520510911941528,0.4081308245658874,0.4731421172618866,0.3576138019561767,-0.271781861782074,0.0,0.0,0.000664472579956,-0.0517138242721557
0.2209640443325042,1.1631726026535034,0.4071671962738037,0.4973335564136505,0.3445322215557098,-0.2616318166255951,0.0,0.0,0.21414315700531,-0.0711721181869506
0.2249447852373123,1.1746039390563965,0.4101795256137848,0.5109007358551025,0.3318637311458587,-0.2533701658248901,0.0,0.0,0.4833462238311767,0.11103355884552
0.2289035767316818,1.186974048614502,0.4072801470756531,0.5523567199707031,0.3199960887432098,-0.2373535931110382,0.0,0.0,0.2009644508361816,0.6854101419448853
0.2327906638383865,1.2000733613967896,0.4013373851776123,0.5849249362945557,0.3068921267986297,-0.262079119682312,0.0,0.0,-0.1335828304290771,0.0914816856384277
0.2367461174726486,1.2130765914916992,0.4080389440059662,0.5805102586746216,0.2939746677875519,-0.2583491504192352,0.0,0.0,-0.414562463760376,-0.0100792646408081
0.2407644242048263,1.2259836196899414,0.4142071604728699,0.57609623670578,0.2812378704547882,-0.2547357082366943,0.0,0.0,-0.140690803527832,-0.6650450825691223
0.2447878867387771,1.238778591156006,0.4132680892944336,0.5707302689552307,0.2700351774692535,-0.2240543812513351,0.0,0.0,-0.0292179584503173,-0.2301584482192993
0.2488628327846527,1.251476764678955,0.4182844758033752,0.5663200616836548,0.2590018510818481,-0.2206667214632034,0.0,0.0,-0.2064480781555175,-0.1233576536178588
0.2529830932617187,1.264078140258789,0.4226864278316498,0.5619103908538818,0.2481324821710586,-0.2173871248960495,0.0,0.0,-0.0438616275787353,0.6091275215148926
0.2571791708469391,1.2765979766845703,0.4311080574989319,0.5583357214927673,0.2364402413368225,-0.2338449209928512,0.0,0.0,-0.4759292602539062,0.7280361652374268
0.2614517211914062,1.289035439491272,0.4397760927677154,0.5547312498092651,0.2237474918365478,-0.2538553476333618,0.0,0.0,-0.1675902605056762,-0.4744355678558349
0.2657497525215149,1.3013763427734375,0.442206472158432,0.5503190159797668,0.2112034261226654,-0.2508816123008728,0.0,0.0,-0.4013574123382568,-0.6764451265335083
0.2700164914131164,1.313603162765503,0.4376772940158844,0.5449545979499817,0.2001061886548996,-0.2219444066286087,0.0,0.0,-0.6677805185317993,-0.4539973735809326
0.274294763803482,1.3257334232330322,0.4387147426605224,0.5405458807945251,0.1891480982303619,-0.2191619127988815,0.0,0.0,-0.7999234199523926,-0.1721325516700744
0.2785774171352386,1.337766408920288,0.4390444159507751,0.5361376404762268,0.1783245652914047,-0.2164706736803054,0.0,0.0,-0.3847640752792358,-0.4560989141464233
0.2828573286533355,1.3497024774551392,0.4386642575263977,0.5317298173904419,0.1676311641931533,-0.2138683497905731,0.0,0.0,-0.8325363397598267,-0.9231916666030884
0.287064254283905,1.361514449119568,0.429605484008789,0.5259601473808289,0.1587234288454055,-0.1781546771526336,0.0,0.0,0.2677572965621948,-0.5920798182487488
0.2912152409553528,1.3739399909973145,0.4225456118583679,0.553021252155304,0.1512768864631652,-0.1489306390285492,0.0,0.0,-0.3529788851737976,-0.2905502319335937
