x_pos,y_pos,x_vel,y_vel,angle,ang_vel,leg_1,leg_2,main_booster,lat_booster
-0.0015124321216717,1.4029117822647097,-0.1528461575508117,-0.3559296727180481,0.0014303694479167,0.0281908176839351,0.0,0.0,-0.1989445732790793,-0.6545521808763126
-0.0030582428444176,1.3942103385925293,-0.156844213604927,-0.3867287337779999,0.0036722607910633,0.0448427721858024,0.0,0.0,0.4862571789075691,-0.8318061193705012
-0.0045197485014796,1.3853354454040527,-0.1499512046575546,-0.3944590389728546,0.0074362396262586,0.0752862095832824,0.0,0.0,-0.0720625042531601,0.7302620135113627
-0.0059161186218261,1.3757457733154297,-0.1419379860162735,-0.4262239634990692,0.0097035327926278,0.0453501418232917,0.0,0.0,0.2381026921376796,0.7407903746661626
-0.0071286200545728,1.3661808967590332,-0.1218687295913696,-0.4251039624214172,0.010318711400032,0.0123046906664967,0.0,0.0,-0.4063240514557718,-0.6632233050570574
-0.0083577157929539,1.3559017181396484,-0.1242140159010887,-0.4568661451339721,0.0116108125075697,0.0258444007486104,0.0,0.0,-0.3587975510348071,-0.6727734155998236
-0.0096158031374216,1.3449088335037231,-0.1281728893518448,-0.4885956943035126,0.0139455581083893,0.0466991439461708,0.0,0.0,-0.2518050114542778,0.8900764277209627
-0.0107584949582815,1.3332074880599976,-0.1140697747468948,-0.5200580954551697,0.0137419085949659,-0.0040733013302087,0.0,0.0,0.9310968198527074,-0.8772162993087895
-0.0119692804291844,1.32226824760437,-0.1222531795501709,-0.4862048029899597,0.014904816634953,0.0232605040073394,0.0,0.0,0.3602852854147995,0.9825593862786076
-0.0130804060027003,1.3115205764770508,-0.1099794283509254,-0.4776605665683746,0.0137792769819498,-0.0225127078592777,0.0,0.0,-0.48457615061819,0.9794029343731856
-0.0140695571899414,1.3000625371932983,-0.0951914489269256,-0.5092085599899292,0.0100971367210149,-0.073650024831295,0.0,0.0,0.797073465170971,-0.7266168038463741
-0.0150026325136423,1.288752794265747,-0.0908835157752037,-0.5026411414146423,0.0077116242609918,-0.047714464366436,0.0,0.0,-0.2988962567765463,0.989725195741
-0.0158035270869731,1.2767364978790283,-0.0749214142560958,-0.5340415835380554,0.0025990561116486,-0.1022609621286392,0.0,0.0,0.1720234582581594,0.8086791182656329
-0.0164462085813283,1.2643789052963257,-0.0571798756718635,-0.5492345094680786,-0.0044071162119507,-0.1401364952325821,0.0,0.0,0.3337978380843778,0.95176977732912
-0.0168390274047851,1.2523157596588137,-0.0300404820591211,-0.5361794829368591,-0.0135444579645991,-0.1827635616064071,0.0,0.0,-0.0618620623818741,0.6187387839925247
-0.0171324722468853,1.2395330667495728,-0.018296567723155,-0.5682609677314758,-0.0244702883064746,-0.2185364067554474,0.0,0.0,-0.6489112719038328,-0.6188545916214416
-0.0174203868955373,1.2260476350784302,-0.0183675698935985,-0.5995493531227112,-0.0347843021154403,-0.2062985599040985,0.0,0.0,-0.555902872088953,0.8371366969899564
-0.017582606524229,1.211840033531189,-0.0033786140847951,-0.6317919492721558,-0.0474907085299491,-0.2541512548923492,0.0,0.0,0.5099365167757435,-0.7964802540017457
-0.0176282878965139,1.1980260610580444,0.006842287722975,-0.6143558025360107,-0.0587863698601722,-0.225933700799942,0.0,0.0,-0.4300746762388217,0.6298047066354617
-0.0175845138728618,1.183497190475464,0.0172137059271335,-0.6462821960449219,-0.0715010091662406,-0.254315584897995,0.0,0.0,0.7009927722544949,0.9680329423245916
-0.017214011400938,1.1693997383117676,0.0519414916634559,-0.6273338794708252,-0.0862647742033004,-0.2953023314476013,0.0,0.0,-0.7132612792274877,-0.976402857468348
-0.0168706886470317,1.1545965671539309,0.0476195737719535,-0.6587440371513367,-0.0994533002376556,-0.2637940049171448,0.0,0.0,0.6391144592855516,-0.830258964809554
-0.0163475032895803,1.1398764848709106,0.0640090256929397,-0.6550394892692566,-0.1110738962888717,-0.2324329316616058,0.0,0.0,-0.1411445067327299,0.8964887062341345
-0.0156964305788278,1.124423265457153,0.079125128686428,-0.687915563583374,-0.1250195056200027,-0.2789373695850372,0.0,0.0,0.5397610102324419,-0.9864282462293644
-0.015146255493164,1.1091980934143066,0.0675032660365104,-0.6777637600898743,-0.1374642997980117,-0.2489182949066162,0.0,0.0,0.9119705129702442,-0.9173730474524984
-0.0146906850859522,1.0945100784301758,0.0568467788398265,-0.6538859009742737,-0.1487307399511337,-0.2253291308879852,0.0,0.0,-0.8623104306036369,0.8130164126754422
-0.0141187664121389,1.079102635383606,0.0704211071133613,-0.6861575245857239,-0.161947876214981,-0.2643428146839142,0.0,0.0,-0.8182686038860199,0.9759908038884466
-0.0134336473420262,1.062980890274048,0.0835635289549827,-0.7182250618934631,-0.1770017743110656,-0.3010783791542053,0.0,0.0,0.9717366885988884,-0.6802729016758384
-0.0127491950988769,1.047579050064087,0.0827992260456085,-0.6863064169883728,-0.191420778632164,-0.2883800268173218,0.0,0.0,-0.857553776840007,0.8349369643160243
-0.0119489673525094,1.031446933746338,0.0962578579783439,-0.7191583514213562,-0.2077618539333343,-0.3268214166164398,0.0,0.0,0.8967894870473052,0.938776348074488
-0.0107961650937795,1.0160138607025146,0.1335482597351074,-0.6885995864868164,-0.2262385189533233,-0.3695332705974579,0.0,0.0,0.7372792658107796,0.8307083838701128
-0.0095098493620753,1.0005509853363037,0.1489369869232177,-0.6904907822608948,-0.2468445897102356,-0.4121220707893371,0.0,0.0,0.787864796794264,-0.8890088491115061
-0.0081184385344386,0.9857129454612732,0.1580266058444976,-0.6627472639083862,-0.266097217798233,-0.3850529193878174,0.0,0.0,0.1279944604930287,-0.6370927058659369
-0.0067026140168309,0.970557689666748,0.1594304889440536,-0.6769163608551025,-0.2844045162200928,-0.3661463558673858,0.0,0.0,0.860052591858371,-0.9670547185624724
-0.0050853728316724,0.955736756324768,0.177799105644226,-0.6619337201118469,-0.3009814620018005,-0.3315390050411224,0.0,0.0,-0.998986062822085,-0.6687081077033172
-0.0034593581221997,0.9402348399162292,0.1775827705860138,-0.6921535134315491,-0.3164910972118377,-0.3101924657821655,0.0,0.0,-0.3214336993192612,-0.9690595205941046
-0.0018529891967773,0.9240562319755554,0.1737930327653885,-0.7219817042350769,-0.3301911950111389,-0.2740020751953125,0.0,0.0,0.7473683830601541,0.9070584067414238
0.0001830100954975,0.908261239528656,0.2186257392168045,-0.7055157423019409,-0.3459057509899139,-0.3142910003662109,0.0,0.0,-0.1699991592929632,0.6571253896849187
0.0023240088485181,0.891740083694458,0.2304274290800094,-0.7382934093475342,-0.3630963265895843,-0.3438117504119873,0.0,0.0,-0.4469010295511331,-0.9670208057457172
0.0044554709456861,0.8745503425598145,0.2278009951114654,-0.7677808403968811,-0.3786054253578186,-0.3101821839809418,0.0,0.0,0.1202718851415067,0.9954782817793284
0.0068351747468113,0.8574002385139465,0.2545932531356811,-0.7667373418807983,-0.3963276743888855,-0.3544455468654632,0.0,0.0,0.4196974039077759,-0.9626535773277284
0.0094888685271143,0.8401356935501099,0.2801355123519897,-0.7715138792991638,-0.4121678173542022,-0.3168029487133026,0.0,0.0,0.7721092700958252,-0.985794186592102
0.012369155883789,0.8225907683372498,0.3008250892162323,-0.7835715413093567,-0.4260000884532928,-0.2766445279121399,0.0,0.0,0.6933413743972778,-0.9881411790847778
0.0155651094391942,0.8050510883331299,0.3304597735404968,-0.782871663570404,-0.4378079175949096,-0.2361567914485931,0.0,0.0,0.1462677717208862,-0.9902106523513794
0.01880226098001,0.7871385216712952,0.3327807784080505,-0.7989718914031982,-0.4477038085460663,-0.1979180425405502,0.0,0.0,0.3677077293395996,-0.9818745255470276
0.0221851356327533,0.7689016461372375,0.3455488681793213,-0.8128830790519714,-0.4556721746921539,-0.1593680381774902,0.0,0.0,0.3213777542114258,-0.9830934405326844
0.025763988494873,0.750443160533905,0.3633479177951813,-0.8221753239631653,-0.4616864323616028,-0.1202853173017501,0.0,0.0,0.3854918479919433,-0.9896757006645204
0.029549503698945,0.7323455214500427,0.3822467923164367,-0.8055670857429504,-0.4657572209835052,-0.0814157798886299,0.0,0.0,-0.1416393518447876,-0.998936653137207
0.0333112701773643,0.7136077880859375,0.3776054382324219,-0.8332693576812744,-0.4673383831977844,-0.0316230840981006,0.0,0.0,-0.1235074400901794,-0.9904550313949584
0.0370592102408409,0.6942092180252075,0.3743342459201813,-0.8620012998580933,-0.466834545135498,0.0100765535607934,0.0,0.0,-0.1383091211318969,-0.9422215819358826
0.0408155433833599,0.6741359829902649,0.3738555014133453,-0.8915493488311768,-0.464868813753128,0.0393155105412006,0.0,0.0,-0.2884206771850586,-0.9851205945014954
0.0445571914315223,0.6534127593040466,0.3703445792198181,-0.9197595119476318,-0.4606570303440094,0.0842356085777282,0.0,0.0,0.2792786359786987,-0.9974413514137268
0.0485275276005268,0.6324208378791809,0.3913086950778961,-0.9310890436172484,-0.4543598294258117,0.1259440928697586,0.0,0.0,0.4282588958740234,-0.9979220628738404
0.0527947433292865,0.6117040514945984,0.4190596640110016,-0.9182824492454528,-0.4459513127803802,0.1681704223155975,0.0,0.0,0.4134302139282226,-0.9999562501907348
0.0573616027832031,0.5907919406890869,0.4469785690307617,-0.9263697266578674,-0.4353604316711426,0.2118177413940429,0.0,0.0,0.474496841430664,-0.9999961853027344
0.0620038025081157,0.569847822189331,0.4525715708732605,-0.927290141582489,-0.4227131009101867,0.2529464066028595,0.0,0.0,0.3078218698501587,-0.9998841881752014
0.0669740661978721,0.5490592122077942,0.4832906126976013,-0.9198939800262452,-0.4078958332538605,0.2963454723358154,0.0,0.0,0.1118389368057251,-0.9970937967300416
0.0722143203020095,0.5281698107719421,0.5082491636276245,-0.9239653944969176,-0.3909753859043121,0.3384090662002563,0.0,0.0,0.0726146697998046,-0.9935363531112672
0.0777018517255783,0.5073332190513611,0.5308558344841003,-0.9212725162506104,-0.3719292879104614,0.3809219002723694,0.0,0.0,0.103771686553955,-0.9993735551834106
0.0833117514848709,0.4866060018539428,0.5408649444580078,-0.9161229729652404,-0.350685566663742,0.4248746931552887,0.0,0.0,-0.3709269762039184,-0.999943733215332
0.0889110565185546,0.4652007818222046,0.5377486944198608,-0.9461128115653992,-0.3274567425251007,0.464576780796051,0.0,0.0,0.2762255668640136,-0.999706506729126
0.0945846587419509,0.4439456462860107,0.5429035425186157,-0.9393407106399536,-0.3020661771297455,0.5078121423721313,0.0,0.0,0.6610698699951172,-0.8916752338409424
0.1005364432930946,0.4226981997489929,0.5684391260147095,-0.939017653465271,-0.2745171189308166,0.5509816408157349,0.0,0.0,0.6836061477661133,-0.9791069626808168
0.1066682785749435,0.4016714692115783,0.5840920805931091,-0.9293331503868104,-0.2447931468486786,0.5944794416427612,0.0,0.0,0.8829522132873535,-0.9590352773666382
0.1129042655229568,0.3806257247924804,0.5921895503997803,-0.9304545521736144,-0.2129566073417663,0.6367315649986267,0.0,0.0,0.991828203201294,-0.9376139640808104
0.1191156357526779,0.3600014448165893,0.5877662301063538,-0.91217303276062,-0.1793598532676696,0.6719352006912231,0.0,0.0,0.997401475906372,-0.7875949144363403
0.1255365312099456,0.3402248620986938,0.606680691242218,-0.8750659227371216,-0.1439292728900909,0.7086119055747986,0.0,0.0,0.9906734228134156,0.4254873991012573
0.1321625709533691,0.320253849029541,0.6263433694839478,-0.8844980597496033,-0.1078477948904037,0.7216301560401917,0.0,0.0,0.9998316764831544,-0.1162194609642028
0.1389880180358886,0.3011229038238525,0.6457932591438293,-0.8480169773101807,-0.0714131966233253,0.7286924123764038,0.0,0.0,0.9997460842132568,0.7318791151046753
0.1458441764116287,0.2821568846702575,0.650321364402771,-0.8416216969490051,-0.0365263856947422,0.6977366209030151,0.0,0.0,0.9999866485595704,0.995293378829956
0.1527396142482757,0.2637286186218261,0.6562173962593079,-0.8185526728630066,-0.0036139038857072,0.6582501530647278,0.0,0.0,0.9959158897399902,0.7990810871124268
0.1597943305969238,0.2457301169633865,0.6734181642532349,-0.8001596331596375,0.0280247796326875,0.6327741742134094,0.0,0.0,0.9999957084655762,0.9747965335845948
0.1667766571044922,0.228571280837059,0.6682612299919128,-0.7634426355361938,0.0576482824981212,0.592470645904541,0.0,0.0,0.9996402263641356,0.3310225009918213
0.173858642578125,0.2117661386728286,0.6776028871536255,-0.7483507990837097,0.0879207551479339,0.605449378490448,0.0,0.0,0.9999911785125732,-0.5000357627868652
0.1808669120073318,0.1949537545442581,0.6692004203796387,-0.7493740320205688,0.1193009614944458,0.6276048421859741,0.0,0.0,0.9999966621398926,0.9863710403442384
0.1880459785461425,0.1780472546815872,0.6879669427871704,-0.7540615797042847,0.1491232067346573,0.5964457392692566,0.0,0.0,0.9999858140945436,0.835860013961792
0.1952370703220367,0.161046415567398,0.6907871961593628,-0.7586756944656372,0.1774421036243438,0.566378116607666,0.0,0.0,0.999826431274414,-0.6517265439033508
0.2022434175014495,0.1447514593601226,0.6709460616111755,-0.7280482053756714,0.2072934508323669,0.5970271825790405,0.0,0.0,0.9994289875030518,0.961881160736084
0.2092700004577636,0.129270389676094,0.6746222972869873,-0.692225456237793,0.2356565147638321,0.5672611594200134,0.0,0.0,0.9999903440475464,-0.4418066143989563
0.2159784287214279,0.1144833415746688,0.6433354020118713,-0.6618506908416748,0.2636578381061554,0.5600267648696899,0.0,0.0,0.99994158744812,-0.8350616693496704
0.2223989516496658,0.0994749888777732,0.6131985783576965,-0.672505795955658,0.293266624212265,0.5921763181686401,0.0,0.0,0.9999675750732422,-0.0501041412353515
0.228631779551506,0.0851615071296691,0.5942045450210571,-0.6422919631004333,0.3233748376369476,0.6021646857261658,0.0,0.0,0.9991936683654784,0.5413655042648315
0.234601691365242,0.0710964277386665,0.5693498849868774,-0.6315582394599915,0.3522736132144928,0.5779753923416138,0.0,0.0,0.9999923706054688,0.8086514472961426
0.2403194457292556,0.057483684271574,0.545886754989624,-0.6115992069244385,0.3796339333057403,0.5472067594528198,0.0,0.0,0.998300552368164,-0.6388664245605469
0.2457007467746734,0.0443142503499984,0.511062741279602,-0.5927785634994507,0.4085495471954345,0.5783120393753052,0.0,0.0,0.9980742931365968,0.4186201095581054
0.2510439753532409,0.032590564340353,0.5229170322418213,-0.5242313146591187,0.4215534031391144,0.2610902786254883,0.0,1.0,0.99999737739563,0.9290294647216796
0.2562271952629089,0.0216434337198734,0.5252280235290527,-0.484399676322937,0.4148381948471069,-0.1332968175411224,0.0,1.0,0.9999715089797974,-0.6585670113563538
0.2611322402954101,0.0108260484412312,0.5020297169685364,-0.4774418473243713,0.4024258255958557,-0.2482564747333526,0.0,1.0,0.999983549118042,-0.7911728024482727
0.2658661901950836,0.0010984278051182,0.4971380233764648,-0.426091581583023,0.3745074868202209,-0.5617895722389221,0.0,1.0,0.9999511241912842,-0.9646897912025452
0.2703751623630523,-0.0080430414527654,0.492851972579956,-0.3959653973579407,0.3305342495441437,-0.8792613744735718,0.0,1.0,0.9857864379882812,-0.9916438460350036
0.2742689251899719,-0.0161471385508775,0.4486036300659179,-0.3478989899158478,0.2692799270153045,-1.2251102924346924,0.0,1.0,0.9981058835983276,-0.9474035501480104
0.2777292132377624,-0.0232831742614507,0.4163943827152252,-0.3059031069278717,0.1977012902498245,-1.431759476661682,0.0,1.0,0.9699602127075196,-0.7771689891815186
0.2810997068881988,-0.0298035163432359,0.4085678458213806,-0.2819117605686188,0.1259550005197525,-1.4351495504379272,0.0,1.0,0.9236500263214112,-0.9074177742004396
0.2844939231872558,-0.0364347957074642,0.4083369672298431,-0.2904012799263,0.0575852841138839,-1.3674461841583252,1.0,1.0,0.9312844276428224,-0.9827658534049988
0.2877714037895202,-0.0422330535948276,0.3797916173934936,-0.2568965554237366,0.010282021947205,-0.9408961534500122,1.0,0.0,0.973688006401062,-0.9603222608566284
0.2912840843200683,-0.0465683229267597,0.3764852583408355,-0.1927046328783035,-0.0146162873134016,-0.4979809820652008,1.0,0.0,-0.1071245074272155,-0.9198294281959534
0.294538676738739,-0.0497134812176227,0.3606988787651062,-0.1405287683010101,-0.0493828877806663,-0.6952869892120361,1.0,0.0,-0.1071245074272155,-0.9198294281959534
