x_pos,y_pos,x_vel,y_vel,angle,ang_vel,leg_1,leg_2,main_booster,lat_booster
-0.0015200615162029,1.4034711122512815,-0.1545520722866058,-0.3310671150684356,0.0022813556715846,0.0450406111776828,0.0,0.0,0.8507188262467458,0.78720224694684
-0.0029128075111657,1.3966635465621948,-0.140630692243576,-0.3025570809841156,0.0036138684954494,0.0266536362469196,0.0,0.0,-0.0818951451012479,-0.6114354729098794
-0.0043404577299952,1.389697551727295,-0.1455843895673751,-0.309612900018692,0.0064134434796869,0.0559965781867504,0.0,0.0,0.2505030732991156,0.6759593088117098
-0.0058157918974757,1.3831428289413452,-0.1493795663118362,-0.2913312613964081,0.0082392636686563,0.0365196168422699,0.0,0.0,0.2243495252447223,-0.7049876414520008
-0.007241535000503,1.3771625757217407,-0.1465383619070053,-0.2658192217350006,0.0121609512716531,0.0784410312771797,0.0,0.0,-0.7975485462982235,0.9073015949320966
-0.0085786823183298,1.371029257774353,-0.1360077261924743,-0.2726103961467743,0.0144247654825448,0.0452805310487747,0.0,0.0,0.6333009046275055,-0.9941343597943731
-0.0100272176787257,1.365596890449524,-0.1496609002351761,-0.2414876967668533,0.0191791541874408,0.095096655189991,0.0,0.0,0.7136536064641825,0.8687448174990986
-0.0112487794831395,1.3610273599624634,-0.1261033713817596,-0.2031470835208892,0.0230846665799617,0.0781171098351478,0.0,0.0,-0.2868233234161053,-0.8040619007203096
-0.0125361438840627,1.3563114404678345,-0.1348951756954193,-0.2097073197364807,0.0291813556104898,0.1219447627663612,0.0,0.0,-0.4448583205023233,-0.9299051782023556
-0.0138986585661768,1.3514456748962402,-0.1448673754930496,-0.2164456099271774,0.0376937128603458,0.1702630519866943,0.0,0.0,0.921840258652676,-0.8548433717911872
-0.0152475358918309,1.3474676609039309,-0.1460203230381012,-0.1771165430545807,0.0487107746303081,0.2203618586063385,0.0,0.0,0.045114110969092,-0.7383444127670516
-0.0166228301823139,1.3438372611999512,-0.150763988494873,-0.1618407815694809,0.0618142709136009,0.2620938420295715,0.0,0.0,-0.2973496098083976,0.6230345502141742
-0.0179430954158306,1.340064525604248,-0.1443276107311248,-0.168224036693573,0.0740003734827041,0.2437440901994705,0.0,0.0,-0.5846361931676678,0.8261065921056303
-0.0191958434879779,1.3361413478851318,-0.1363186538219452,-0.1749466955661773,0.0849531516432762,0.2190755158662796,0.0,0.0,-0.7419817890138616,0.7558869711210998
-0.0203819274902343,1.332083821296692,-0.1283621937036514,-0.180908977985382,0.0946471616625785,0.1938977837562561,0.0,0.0,0.5618171909521246,0.7352975289790699
-0.0214292518794536,1.328310489654541,-0.1138552203774452,-0.1683068126440048,0.1037050485610961,0.181173950433731,0.0,0.0,0.1359940108226804,-0.8984192610511639
-0.0225062370300292,1.3252801895141602,-0.1192365139722824,-0.135525181889534,0.1151883602142334,0.2296872437000274,0.0,0.0,-0.5135897074179663,-0.7916097754528105
-0.0236388202756643,1.3220843076705933,-0.126605749130249,-0.1431216895580291,0.1284862607717514,0.2659818232059479,0.0,0.0,-0.2902848533131845,-0.6891666078098557
-0.0248270034790039,1.318736553192139,-0.1339118182659149,-0.1501607000827789,0.1435457319021225,0.3012166619300842,0.0,0.0,-0.6145723976626711,0.9032507459807986
-0.0259648319333791,1.3152521848678589,-0.1278980374336242,-0.1562858372926712,0.1576578766107559,0.2822689116001129,0.0,0.0,-0.3007563950304048,0.6766315634446987
-0.0270509719848632,1.311638116836548,-0.1216773018240928,-0.1620621383190155,0.1707468926906585,0.2618039548397064,0.0,0.0,0.5795785584436397,-0.8926626050880756
-0.0282780639827251,1.3084802627563477,-0.1381608545780182,-0.1421969085931778,0.1862648129463195,0.3103864789009094,0.0,0.0,-0.839422548603046,0.8950865222646213
-0.0294342041015625,1.3051958084106443,-0.1294852495193481,-0.1477740257978439,0.200223758816719,0.2792040109634399,0.0,0.0,-0.2039698685122333,0.9018385491392018
-0.030525779351592,1.3017759323120115,-0.1216025725007057,-0.1537321507930755,0.2127951830625534,0.2514511048793793,0.0,0.0,-0.4684603063368859,-0.6556968953119684
-0.0316955558955669,1.2981879711151123,-0.131623238325119,-0.161632090806961,0.2276238650083542,0.2965999543666839,0.0,0.0,-0.3803615918595771,-0.8319123523745281
-0.0329587943851947,1.294408082962036,-0.1435936987400055,-0.1707674413919448,0.2451614886522293,0.3507524132728576,0.0,0.0,0.8745961262289557,-0.7158327517580779
-0.0344903953373432,1.291666030883789,-0.1724011152982711,-0.1251957565546035,0.2647846937179565,0.3924638330936432,0.0,0.0,0.1119737557348312,0.9332231804614188
-0.0362168326973915,1.2895790338516235,-0.190556064248085,-0.0960955619812011,0.2831467390060425,0.367240846157074,0.0,0.0,0.08932232886695,-0.6781431582412542
-0.0382514968514442,1.2880234718322754,-0.2231302559375763,-0.0730750933289527,0.3034150600433349,0.4053655564785003,0.0,0.0,0.5977541313548018,0.6786654727044981
-0.0404170975089073,1.2870087623596191,-0.2353486269712448,-0.0491372682154178,0.3228943943977356,0.3895872235298157,0.0,0.0,0.3071351967428311,0.9954541035769786
-0.0427286140620708,1.286856770515442,-0.2484612762928009,-0.0107214963063597,0.3409706652164459,0.3615257441997528,0.0,0.0,0.1991077807549444,-0.6204238135779743
-0.0452730171382427,1.2869491577148438,-0.2733707726001739,-0.0004999347729608,0.3608607351779938,0.3978009223937988,0.0,0.0,-0.9185715410562943,-0.8865623536373566
-0.0479171760380268,1.2868624925613403,-0.2857417464256286,-0.0093767615035176,0.3834478259086609,0.451741874217987,0.0,0.0,0.1378472145541207,-0.6218579830510957
-0.0507684722542762,1.286918044090271,-0.3079935312271118,-0.0038755773566663,0.407892644405365,0.4888965487480163,0.0,0.0,-0.6492239154068611,-0.8779923418233377
-0.0537080764770507,1.286793231964111,-0.3187925219535827,-0.012928944081068,0.434739202260971,0.5369309186935425,0.0,0.0,-0.8844758459782003,-0.7025409718643293
-0.0567254051566123,1.286499261856079,-0.3281102478504181,-0.0215109512209892,0.4636301696300506,0.5778192281723022,0.0,0.0,-0.4715546202872587,-0.6116994483829687
-0.0598155967891216,1.2860302925109863,-0.3367907702922821,-0.03042983263731,0.4944938421249389,0.6172733306884766,0.0,0.0,0.0897901199165054,-0.7017131692220993
-0.0631997138261795,1.2860726118087769,-0.367597758769989,-0.0089759575203061,0.527479887008667,0.6597225069999695,0.0,0.0,-0.9673030333933944,0.6357429527305554
-0.0665785819292068,1.2860190868377686,-0.3659494519233703,-0.0136421527713537,0.5598209500312805,0.6468220949172974,0.0,0.0,0.1056046452154209,0.9669531602506886
-0.0701239556074142,1.286423921585083,-0.3808243572711944,0.0066696307621896,0.5907087326049805,0.617757260799408,0.0,0.0,0.2410298580667875,0.972437986152743
-0.0740468055009841,1.2874102592468262,-0.4168009757995605,0.0325638838112354,0.620112419128418,0.5880749225616455,0.0,0.0,-0.9919048547744752,0.9965164661407472
-0.0779269188642501,1.2883360385894775,-0.4104209840297699,0.030206898227334,0.6475381255149841,0.5485142469406128,0.0,0.0,-0.9716373682022096,0.9994467496871948
-0.0817650780081749,1.289193868637085,-0.4042652547359466,0.0275632366538047,0.6730688214302063,0.5106140971183777,0.0,0.0,-0.99395751953125,0.9919049739837646
-0.0855670943856239,1.2899913787841797,-0.3987548649311065,0.0253827515989542,0.696681559085846,0.4722550511360168,0.0,0.0,-0.9704387784004213,0.9956331253051758
-0.0893440246582031,1.2907063961029053,-0.3947941660881042,0.0220496915280818,0.718876302242279,0.4438954293727875,0.0,0.0,-0.992967128753662,0.9977966547012328
-0.0930893868207931,1.2913525104522705,-0.3899940550327301,0.0195237472653388,0.7393125295639038,0.4087242186069488,0.0,0.0,-0.9933549761772156,0.9721405506134032
-0.096807099878788,1.2919336557388306,-0.3856287598609924,0.0172632150352001,0.7579723596572876,0.3731968402862549,0.0,0.0,-0.9994779229164124,0.9870197772979736
-0.1005208939313888,1.2924413681030271,-0.3841140270233154,0.0144008146598935,0.7754102349281311,0.3487570583820343,0.0,0.0,-0.9915051460266112,0.994676947593689
-0.1042326912283897,1.2928725481033323,-0.3828660845756531,0.0114181526005268,0.7916772365570068,0.3253404498100281,0.0,0.0,-0.9956074953079224,0.997241735458374
-0.107927992939949,1.293235182762146,-0.379905104637146,0.0090100588276982,0.8063604831695557,0.29366534948349,0.0,0.0,-0.9995235204696656,0.9810268878936768
-0.1115955337882042,1.293552279472351,-0.3754748106002807,0.0079636173322796,0.818869411945343,0.2501788735389709,0.0,0.0,-0.9957119226455688,0.9811334609985352
-0.1152570694684982,1.2938016653060913,-0.3737598955631256,0.0056098322384059,0.8299190402030945,0.2209926098585128,0.0,0.0,-0.9995813965797424,0.992239475250244
-0.1188925728201866,1.2939997911453247,-0.3696534037590027,0.0043343091383576,0.8388693928718567,0.1790065616369247,0.0,0.0,-0.9997970461845398,0.9764413833618164
-0.1225202530622482,1.2941405773162842,-0.3676522970199585,0.0026010149158537,0.8461147546768188,0.1449063718318939,0.0,0.0,-0.9999513626098632,0.9341416358947754
-0.1261250525712967,1.2942315340042114,-0.3639080822467804,0.001442210515961,0.851245105266571,0.1026071161031723,0.0,0.0,-0.9999557733535768,0.9479880332946776
-0.1297256499528885,1.2942407131195068,-0.3626237213611603,-0.001545910956338,0.8550891280174255,0.0768809020519256,0.0,0.0,-0.9884613752365112,0.9788448810577391
-0.133312702178955,1.294205665588379,-0.3598721623420715,-0.0024561437312513,0.8568461537361145,0.0351402834057807,0.0,0.0,-0.9995062351226808,0.8317546844482422
-0.136889174580574,1.2941131591796875,-0.3575974404811859,-0.0040701576508581,0.8567638397216797,-0.0016466882079839,0.0,0.0,-0.9995871186256408,0.8118008375167847
-0.1404636353254318,1.2939567565917969,-0.3563168346881866,-0.0060895229689776,0.8550723195075989,-0.0338306501507759,0.0,0.0,-0.9997286796569824,0.8800258636474609
-0.1440430581569671,1.293723225593567,-0.3559550642967224,-0.0088554918766021,0.8520894646644592,-0.0596572570502758,0.0,0.0,-0.9988105893135072,0.8323121070861816
-0.1476133316755294,1.293414831161499,-0.3539703786373138,-0.0113962981849908,0.8475220203399658,-0.0913484320044517,0.0,0.0,-0.9993271827697754,0.6826171875
-0.1511969566345214,1.293008804321289,-0.3547169268131256,-0.0153022296726703,0.8421010971069336,-0.1084185987710952,0.0,0.0,-0.9891387820243835,0.8202595710754395
-0.1547698974609375,1.2925376892089844,-0.3523949086666107,-0.0173078011721372,0.8348652720451355,-0.1447147130966186,0.0,0.0,-0.9906234741210938,0.7344505786895752
-0.1583453118801117,1.2919834852218628,-0.3516988158226013,-0.0203607250005006,0.8263091444969177,-0.1711228936910629,0.0,0.0,-0.9820583462715148,0.6214137077331543
-0.1619272232055664,1.2913306951522827,-0.3515923619270324,-0.0242680925875902,0.8167324662208557,-0.1915335208177566,0.0,0.0,-0.9940319061279296,0.511908769607544
-0.1655298173427581,1.290563702583313,-0.353212296962738,-0.0291336867958307,0.8066161274909973,-0.2023263871669769,0.0,0.0,-0.998072385787964,0.5256497859954834
-0.16914863884449,1.2896970510482788,-0.3541431427001953,-0.0331766456365585,0.7956202626228333,-0.2199169695377349,0.0,0.0,-0.9682965278625488,0.4589854478836059
-0.1728099882602691,1.2886813879013062,-0.3585407435894012,-0.0400194153189659,0.7849670648574829,-0.2130646407604217,0.0,0.0,-0.997864305973053,0.4187687635421753
-0.1765137612819671,1.2875165939331057,-0.3629459142684936,-0.0468603037297725,0.7746344804763794,-0.2066517770290374,0.0,0.0,-0.9938915967941284,0.4637520313262939
-0.1802602708339691,1.286202073097229,-0.3673565685749054,-0.0536993183195591,0.7645995020866394,-0.2006996124982834,0.0,0.0,-0.9874285459518432,0.2828404903411865
-0.184049516916275,1.2847375869750977,-0.3717704713344574,-0.0605364479124546,0.7548380494117737,-0.195229098200798,0.0,0.0,-0.993830382823944,0.4876623153686523
-0.1878818571567535,1.283123016357422,-0.3761855959892273,-0.0673717036843299,0.7453250288963318,-0.1902606785297393,0.0,0.0,-0.971623420715332,0.4432122707366943
-0.1917572021484375,1.281358003616333,-0.380599707365036,-0.0742050856351852,0.7360343337059021,-0.1858140230178833,0.0,0.0,-0.9143255949020386,0.7721011638641357
-0.1956265419721603,1.279509663581848,-0.3786158561706543,-0.0771747827529907,0.7250106930732727,-0.2204724550247192,0.0,0.0,-0.991545796394348,-0.0508349537849426
-0.199539378285408,1.277510643005371,-0.3830182254314422,-0.0840068757534027,0.7141545414924622,-0.2171226292848587,0.0,0.0,-0.9833884239196776,0.560938835144043
-0.2034569233655929,1.27540385723114,-0.3824574053287506,-0.0883223339915275,0.7020655274391174,-0.2417806088924408,0.0,0.0,-0.9480823874473572,0.5924599170684814
-0.2073828279972076,1.273183822631836,-0.3823187947273254,-0.0929472148418426,0.6888570189476013,-0.2641698718070984,0.0,0.0,-0.9069128036499025,0.7541509866714478
-0.2113116234540939,1.2708730697631836,-0.3812585473060608,-0.0964053869247436,0.6740790605545044,-0.2955607771873474,0.0,0.0,-0.983802616596222,0.709831714630127
-0.2152395248413086,1.2684757709503174,-0.3796475827693939,-0.0996589437127113,0.6575736403465271,-0.3301082253456116,0.0,0.0,-0.9861989617347716,0.62054443359375
-0.2191840708255767,1.265968918800354,-0.3802520632743835,-0.1042249351739883,0.6399725079536438,-0.3520231246948242,0.0,0.0,-0.9530197978019714,0.5269057750701904
-0.2231457680463791,1.2633366584777832,-0.3810417056083679,-0.1096150949597358,0.6214680671691895,-0.3700893223285675,0.0,0.0,-0.9552149772644044,0.6034111976623535
-0.2271143496036529,1.260602593421936,-0.3803243637084961,-0.1137689650058746,0.601515531539917,-0.3990495800971985,0.0,0.0,-0.9917629957199096,0.8447952270507812
-0.2310836315155029,1.2577656507492063,-0.3788131773471832,-0.1179724931716919,0.5799728035926819,-0.430854469537735,0.0,0.0,-0.9752082228660583,0.2368485927581787
-0.2350986003875732,1.2547796964645386,-0.3830387592315674,-0.1248151138424873,0.5583245754241943,-0.4329650402069092,0.0,0.0,-0.9300686717033386,-0.0548296570777893
-0.2391592562198639,1.2516448497772217,-0.3872352242469787,-0.1316573172807693,0.5365399718284607,-0.4356915950775146,0.0,0.0,-0.9681025147438048,0.0393708944320678
-0.2432654350996017,1.2483608722686768,-0.3913996517658233,-0.138499304652214,0.5145886540412903,-0.4390267431735992,0.0,0.0,-0.9410501718521118,0.1452593803405761
-0.2474170625209808,1.2449278831481934,-0.3955289125442505,-0.1453413069248199,0.4924406111240387,-0.442960649728775,0.0,0.0,-0.8085982203483582,0.2092633247375488
-0.2516140937805176,1.2413458824157717,-0.399619996547699,-0.1521835178136825,0.4700665771961212,-0.4474811553955078,0.0,0.0,-0.9250285625457764,-0.4397138357162475
-0.2558562159538269,1.2376151084899902,-0.4036695957183838,-0.1590261906385421,0.4474378824234009,-0.4525741636753082,0.0,0.0,-0.9096544981002808,-0.6718572378158569
-0.2601780295372009,1.2337045669555664,-0.4121544361114502,-0.1675571054220199,0.4256115853786468,-0.436525821685791,0.0,0.0,-0.9025775194168092,-0.6191720366477966
-0.2645901143550873,1.2296181917190552,-0.4218954145908355,-0.1759252101182937,0.4047685265541076,-0.4168619215488434,0.0,0.0,-0.8620455265045166,-0.5481644868850708
-0.2690847516059875,1.2253613471984863,-0.4306643009185791,-0.1839495152235031,0.3846607506275177,-0.4021556973457336,0.0,0.0,-0.1165113449096679,-0.3182166814804077
-0.2736228108406067,1.220954656600952,-0.4345195889472961,-0.1907846182584762,0.3641921579837799,-0.4093720018863678,0.0,0.0,0.0575195550918579,-0.5082051753997803
-0.2782477736473083,1.2167024612426758,-0.4438097476959228,-0.1843640357255935,0.3445132970809936,-0.3935770690441131,0.0,0.0,-0.5086398124694824,-0.2475390434265136
-0.2829152941703796,1.212299942970276,-0.4475418925285339,-0.1911980956792831,0.3244266211986542,-0.4017338752746582,0.0,0.0,0.1200455427169799,-0.4825083017349243
-0.287757009267807,1.208606481552124,-0.4646643698215484,-0.1599110811948776,0.3041755557060241,-0.4050218462944031,0.0,0.0,-0.5537928938865662,0.2547074556350708
-0.292640209197998,1.2047632932662964,-0.4682537019252777,-0.1667476296424865,0.2834739983081817,-0.4140310883522033,0.0,0.0,-0.0258989334106445,-0.103082001209259
-0.2975643575191498,1.200770616531372,-0.4717642366886139,-0.1735861599445343,0.2623023092746734,-0.4234336018562317,0.0,0.0,-0.0233334898948669,0.6363050937652588
-0.3024739325046539,1.1966545581817627,-0.4682579934597015,-0.1790382713079452,0.2391649484634399,-0.4627477526664734,0.0,0.0,-0.3257724046707153,0.0339585542678833
-0.3074231743812561,1.1923907995224,-0.4715929925441742,-0.1858868896961212,0.2155214548110962,-0.472869873046875,0.0,0.0,0.0327528715133667,0.7613465785980225
-0.3125120103359222,1.188671350479126,-0.4833613336086273,-0.1617904305458068,0.18979012966156,-0.5146268606185913,0.0,0.0,-0.1789593696594238,0.5963512659072876
-0.3175943791866302,1.1848173141479492,-0.4808976054191589,-0.1680240184068679,0.1623745113611221,-0.5483125448226929,0.0,0.0,-0.4694026708602905,0.2501372098922729
-0.3227137923240661,1.180818796157837,-0.4839280247688293,-0.1748937964439392,0.1344065368175506,-0.559359610080719,0.0,0.0,-0.4657349586486816,0.0922585725784301
-0.3278692364692688,1.1766763925552368,-0.4868464469909668,-0.1817674934864044,0.1058725416660308,-0.5706801414489746,0.0,0.0,-0.2119621634483337,0.455148696899414
-0.3330593109130859,1.1723908185958862,-0.4896465241909027,-0.1886453777551651,0.0767596960067749,-0.5822572112083435,0.0,0.0,-0.520844578742981,0.3668384552001953
-0.3382827639579773,1.167962670326233,-0.4923218786716461,-0.1955275982618332,0.0470559708774089,-0.5940748453140259,0.0,0.0,-0.1349720954895019,0.938163995742798
-0.3434465527534485,1.163407802581787,-0.4833405911922455,-0.2017280757427215,0.0144323697313666,-0.6524725556373596,0.0,0.0,-0.5922605395317078,0.8160349130630493
-0.3485786020755768,1.158722758293152,-0.4779574871063232,-0.2082550823688507,-0.0203651282936334,-0.6959507465362549,0.0,0.0,-0.2607284188270569,0.8868434429168701
-0.3536523878574371,1.153909683227539,-0.4693138599395752,-0.2148633599281311,-0.0579654537141323,-0.752007246017456,0.0,0.0,0.2713866233825683,-0.9308650493621826
-0.3587326407432556,1.149630427360535,-0.4713132977485657,-0.1920153349637985,-0.0943067669868469,-0.7268268465995789,0.0,0.0,0.1623470783233642,-0.9554056525230408
-0.3638642430305481,1.1460943222045898,-0.4778384268283844,-0.1597651094198227,-0.1293808221817016,-0.701481819152832,0.0,0.0,0.1690844297409057,-0.4383533000946045
-0.3689041137695312,1.1432428359985352,-0.4683800339698791,-0.1301992833614349,-0.1649047434329986,-0.7104790210723877,0.0,0.0,0.262498140335083,-0.623039186000824
-0.3738888800144195,1.1407663822174072,-0.463780403137207,-0.1142804324626922,-0.1997209638357162,-0.6963250637054443,0.0,0.0,-0.2500633001327514,-0.8399879932403564
-0.3789703845977783,1.1381787061691284,-0.4750422537326813,-0.1198167279362678,-0.2331690490245819,-0.6689617037773132,0.0,0.0,-0.3899928331375122,-0.6497529745101929
-0.3841292858123779,1.1354737281799316,-0.4839422702789306,-0.1256045699119568,-0.2656995058059692,-0.6506098508834839,0.0,0.0,-0.4724117517471313,-0.5156863331794739
-0.3893433511257171,1.1326475143432615,-0.4901303350925445,-0.131604865193367,-0.2978261113166809,-0.6425321698188782,0.0,0.0,-0.6252835392951965,-0.695741593837738
-0.3946200907230377,1.129705548286438,-0.4973436892032623,-0.1372809261083603,-0.3292835056781769,-0.6291486024856567,0.0,0.0,-0.5553916096687317,-0.4785653948783874
-0.399906724691391,1.1266257762908936,-0.4980047643184662,-0.1441940516233444,-0.3614304065704345,-0.642937958240509,0.0,0.0,-0.0970579385757446,-0.5555614829063416
-0.4052345156669616,1.1234304904937744,-0.5027316212654114,-0.1499178409576416,-0.3933124244213104,-0.6376407742500305,0.0,0.0,-0.3502892255783081,-0.4500526189804077
-0.4105672240257263,1.1200978755950928,-0.5029764771461487,-0.1568351238965988,-0.4258942902088165,-0.651637613773346,0.0,0.0,0.1609910726547241,-0.8758652210235596
-0.4158299565315246,1.116929531097412,-0.4974270761013031,-0.1498721092939376,-0.457359105348587,-0.6292968392372131,0.0,0.0,0.7126021385192871,-0.4780644178390503
