x_pos,y_pos,x_vel,y_vel,angle,ang_vel,leg_1,leg_2,main_booster,lat_booster
-0.0014549255138263,1.403292894363403,-0.147379845380783,-0.3389907479286194,0.0016868262318894,0.0332688502967357,0.0,0.0,-0.1779917478561401,0.8702254295349121
-0.002768135163933,1.395353078842163,-0.1310528665781021,-0.352881371974945,0.0014251008396968,-0.005234426818788,0.0,0.0,0.141750693321228,0.2354311943054199
-0.0039232252165675,1.3875000476837158,-0.1156573444604873,-0.3490236699581146,0.0015720737865194,0.0029394556768238,0.0,0.0,-0.5727292895317078,0.6448427438735962
-0.0049732206389307,1.3793132305145264,-0.1040711030364036,-0.3638590574264526,0.0006618738407269,-0.0182058066129684,0.0,0.0,-0.2716362476348877,0.3645229339599609
-0.005960464477539,1.3707947731018066,-0.0977743715047836,-0.3785975873470306,-0.0002778208290692,-0.0187955573201179,0.0,0.0,-0.4882687330245971,0.8280940055847168
-0.0068070413544774,1.3619434833526611,-0.081648901104927,-0.3933928608894348,-0.0032569242175668,-0.0595877170562744,0.0,0.0,-0.3022829294204712,-0.2384430766105651
-0.0075950622558593,1.3527607917785645,-0.0757667645812034,-0.4081335961818695,-0.0062604467384517,-0.0600759163498878,0.0,0.0,-0.9458231329917908,-0.8142797946929932
-0.0083751678466796,1.3432490825653076,-0.076170802116394,-0.4227439761161804,-0.008074221201241,-0.0362783335149288,0.0,0.0,-0.9116010069847108,-0.1021592020988464
-0.0091015817597508,1.3334060907363892,-0.0707815960049629,-0.4374845325946808,-0.0099094910547137,-0.0367090962827205,0.0,0.0,-0.0637668371200561,0.1435824632644653
-0.0097769740968942,1.323231220245361,-0.0656635165214538,-0.4522251486778259,-0.0117632914334535,-0.0370793342590332,0.0,0.0,-0.926256000995636,-0.4906297326087951
-0.0104042049497365,1.312725067138672,-0.0608355104923248,-0.4669658541679382,-0.0136335985735058,-0.0374096147716045,0.0,0.0,-0.3201728463172912,-0.3246939182281494
-0.0109864231199026,1.3018869161605835,-0.0563162378966808,-0.4817065894603729,-0.0155181558802723,-0.0376947745680809,0.0,0.0,-0.836922824382782,-0.6346896886825562
-0.0115660671144723,1.290721416473389,-0.0570418834686279,-0.4962525069713592,-0.0164280161261558,-0.0181987844407558,0.0,0.0,-0.8464080691337585,-0.580731213092804
-0.0121479034423828,1.2792199850082395,-0.0582919120788574,-0.5111786127090454,-0.0163286663591861,0.0019872984848916,0.0,0.0,-0.7445066571235657,-0.7384953498840332
-0.0127397533506155,1.2673954963684082,-0.0604053363204002,-0.5255174040794373,-0.0151145914569497,0.0242836885154247,0.0,0.0,-0.815346360206604,-0.7956030368804932
-0.0133520122617483,1.2552313804626465,-0.0637659505009651,-0.5406090617179871,-0.0126152504235506,0.0499916076660156,0.0,0.0,-0.8911738991737366,-0.5224536657333374
-0.0139693263918161,1.2427423000335691,-0.0650593936443328,-0.5550460815429688,-0.0093194460496306,0.0659221783280372,0.0,0.0,-0.8504114151000977,-0.2938296198844909
-0.0145638464018702,0.0,-0.0627801641821861,-0.5697873830795288,-0.0060247061774134,0.0659003034234047,0.0,0.0,-0.5307433605194092,0.1450699567794799
-0.015139770694077,0.0,-0.0609242022037506,-0.5845287442207336,-0.0027284461539238,0.0659311562776565,0.0,0.0,-0.2149984836578369,-0.3132096529006958
-0.0157013889402151,1.203286051750183,-0.0595021322369575,-0.599270224571228,0.0005716137238778,0.066006951034069,0.0,0.0,-0.7523859739303589,0.4284201860427856
-0.0162531845271587,1.189470887184143,-0.0585220642387867,-0.614011824131012,0.0038778369780629,0.0661305338144302,0.0,0.0,-0.1618304848670959,0.1045405864715576
-0.0167996399104595,1.1753240823745728,-0.0579897053539752,-0.6287534236907959,0.0071926116943359,0.0663012862205505,0.0,0.0,-0.3613619804382324,-0.4393055438995361
-0.0173451416194438,1.1608459949493408,-0.0579081401228904,-0.6434951424598694,0.0105182509869337,0.0665186420083046,0.0,0.0,-0.7022240161895752,-0.0921520590782165
-0.017894173040986,1.1460362672805786,-0.0582777336239814,-0.6582368612289429,0.0138570284470915,0.0667813643813133,0.0,0.0,-0.7433667778968811,-0.0610029101371765
-0.0184513088315725,1.1308950185775757,-0.0590961501002311,-0.6729786992073059,0.0172111429274082,0.0670880898833274,0.0,0.0,-0.6369374394416809,0.1580280065536499
-0.0190204624086618,1.115400791168213,-0.0603331252932548,-0.6886741518974304,0.020583014935255,0.0674374401569366,0.0,0.0,-0.7126813530921936,0.5972294807434082
-0.0195587165653705,1.0995804071426392,-0.0560603067278862,-0.703166127204895,0.0227790717035532,0.0439214967191219,0.0,0.0,-0.6561471819877625,0.4348843097686767
-0.0201180465519428,1.0834283828735352,-0.0581755153834819,-0.7179050445556641,0.0249966569244861,0.044351540505886,0.0,0.0,-0.7153112292289734,0.3945568799972534
-0.0207023620605468,1.0669447183609009,-0.0607050657272338,-0.7326440811157227,0.0272372309118509,0.0448115468025207,0.0,0.0,-0.0034288167953491,0.5479557514190674
-0.0212738998234272,1.0501291751861572,-0.0583820044994354,-0.7473794221878052,0.0284504517912864,0.0242643989622592,0.0,0.0,0.4016346931457519,0.1194524765014648
-0.0218829158693552,1.0340596437454224,-0.0622257217764854,-0.7142244577407837,0.029762452468276,0.0262399706989526,0.0,0.0,-0.5193401575088501,0.0095404386520385
-0.0225284583866596,1.0176585912704468,-0.0659092739224433,-0.7289631962776184,0.0311006996780633,0.0267648044973611,0.0,0.0,0.7642605304718018,0.5443724393844604
-0.0232916828244924,1.0022120475769043,-0.0763510763645172,-0.6865115761756897,0.0311229862272739,0.0004457523173186,0.0,0.0,-0.5784947276115417,-0.3955502510070801
-0.0240983963012695,0.9864339232444764,-0.0807180851697921,-0.7012502551078796,0.0311725921928882,0.0009919392177835,0.0,0.0,-0.4481744766235351,-0.891028106212616
-0.0250202175229787,0.9703229665756226,-0.0940069556236267,-0.7160852551460266,0.0329738371074199,0.0360249690711498,0.0,0.0,-0.9550195336341858,0.4015320539474487
-0.0259915348142385,0.9538803696632384,-0.0989833027124404,-0.7308242321014404,0.0348025746643543,0.0365748107433319,0.0,0.0,-0.6836446523666382,0.0418629646301269
-0.0270151142030954,0.937106192111969,-0.104236401617527,-0.7455632090568542,0.0366585664451122,0.0371200069785118,0.0,0.0,-0.200900912284851,0.5572097301483154
-0.0280467979609966,0.9200072884559632,-0.1038795709609985,-0.7599679231643677,0.0373622961342334,0.0140745444223284,0.0,0.0,0.226887822151184,0.6218851804733276
-0.0291424747556448,0.9035226702690125,-0.1089998707175254,-0.7326396703720093,0.036799781024456,-0.0112503180280327,0.0,0.0,-0.9316960573196412,-0.8485308885574341
-0.0303616523742675,0.8867038488388062,-0.1230028867721557,-0.7475273609161377,0.0378711633384227,0.0214277077466249,0.0,0.0,-0.3907930850982666,0.7578357458114624
-0.0315932258963584,0.869562566280365,-0.1230153888463974,-0.7618261575698853,0.0377257391810417,-0.0029083150438964,0.0,0.0,-0.468120813369751,0.0552475452423095
-0.0328884124755859,0.8520898818969727,-0.1293900161981582,-0.7765647172927856,0.0376035459339618,-0.0024437962565571,0.0,0.0,-0.7806252241134644,0.2817310094833374
-0.0342488288879394,0.8342854380607605,-0.1359413415193557,-0.7913033962249756,0.0375032573938369,-0.0020055961795151,0.0,0.0,0.1437083482742309,0.2776635885238647
-0.0356212630867958,0.8167018890380859,-0.1374797374010086,-0.7814990282058716,0.037741370499134,0.0047621773555874,0.0,0.0,0.0588111877441406,0.8083281517028809
-0.0370352752506732,0.7990619540214539,-0.1400326192378997,-0.7839643359184265,0.0363796427845954,-0.0272343661636114,0.0,0.0,-0.7342492341995239,0.4457453489303589
-0.0385192856192588,0.7810904383659363,-0.1470338106155395,-0.7987031936645508,0.0350350737571716,-0.0268915090709924,0.0,0.0,0.7516233921051025,0.7673022747039795
-0.0399593338370323,0.7635003328323364,-0.1412627249956131,-0.781721293926239,0.0323245674371719,-0.0542099401354789,0.0,0.0,0.9262218475341796,0.4451804161071777
-0.0416340827941894,0.747029721736908,-0.1641276627779007,-0.7319566607475281,0.0290212705731391,-0.0660659000277519,0.0,0.0,-0.957757294178009,0.9846272468566896
-0.0433215126395225,0.73023921251297,-0.1638728827238083,-0.7461625337600708,0.0242014415562152,-0.0963964834809303,0.0,0.0,-0.9544448256492616,0.0981034040451049
-0.0450834259390831,0.7131173014640808,-0.1713183522224426,-0.7609031200408936,0.0193909555673599,-0.0962098091840744,0.0,0.0,-0.2614128589630127,0.9364116191864014
-0.046828843653202,0.6956666111946106,-0.1673410683870315,-0.7755059599876404,0.0122817642986774,-0.1421838700771331,0.0,0.0,-0.9673839807510376,0.8627805709838867
-0.048588752746582,0.6778920888900757,-0.1672130972146988,-0.7899295091629028,0.0036255854647606,-0.1731237918138504,0.0,0.0,-0.4714208841323852,0.5066797733306885
-0.0503780357539653,0.6597846746444702,-0.1689569056034088,-0.8047854900360107,-0.0062182522378861,-0.1968766450881958,0.0,0.0,-0.3404719233512878,-0.1291205883026123
-0.0522448532283306,0.64134681224823,-0.1767134666442871,-0.8195320963859558,-0.0160615351051092,-0.196865826845169,0.0,0.0,-0.138749361038208,-0.1978487968444824
-0.0541899688541889,0.6225786209106445,-0.1845318078994751,-0.8342787623405457,-0.0259065851569175,-0.1969010531902313,0.0,0.0,0.7093266248703003,0.5201219320297241
-0.0562652572989463,0.6042117476463318,-0.1962219029664993,-0.8165510296821594,-0.0370836295187473,-0.2235405892133712,0.0,0.0,0.8739209175109863,0.6444277763366699
-0.0582207664847373,0.5868664979934692,-0.1832288205623626,-0.7712470889091492,-0.0492551252245903,-0.2434299439191818,0.0,0.0,-0.4098291397094726,0.5633225440979004
-0.0602011680603027,0.5691900849342346,-0.1843274235725402,-0.78612220287323,-0.0628127381205558,-0.2711524963378906,0.0,0.0,0.1087472438812255,-0.732663631439209
-0.0622273460030555,0.5520190596580505,-0.1904319524765014,-0.7637116312980652,-0.0748703330755233,-0.2411516457796096,0.0,0.0,-0.2009562253952026,-0.8035992980003357
-0.064405158162117,0.5345331430435181,-0.2074159383773803,-0.7777033448219299,-0.0851367712020874,-0.205328419804573,0.0,0.0,0.3242125511169433,0.3995870351791382
-0.0665978416800499,0.5171553492546082,-0.2090848684310913,-0.772956907749176,-0.0952291488647461,-0.2018479406833648,0.0,0.0,0.7048392295837402,0.3473188877105713
-0.0689059272408485,0.5005429983139038,-0.2201409637928009,-0.739044189453125,-0.1058183014392852,-0.2117829620838165,0.0,0.0,-0.5197661519050598,0.8766131401062012
-0.0712126716971397,0.4835852682590484,-0.2178770303726196,-0.7546288371086121,-0.118535540997982,-0.2543447911739349,0.0,0.0,-0.3204327821731567,0.3002223968505859
-0.0736013427376747,0.4662981927394867,-0.2260569781064987,-0.7693812251091003,-0.1312752664089203,-0.2547944486141205,0.0,0.0,-0.0046979188919067,0.5702831745147705
-0.0760271996259689,0.4486687779426574,-0.2286103069782257,-0.7848201990127563,-0.14519564807415,-0.2784075140953064,0.0,0.0,0.9801325798034668,-0.6254571080207825
-0.078638456761837,0.4318070411682129,-0.2479847222566604,-0.7507466673851013,-0.1583213359117508,-0.2625136971473694,0.0,0.0,-0.1098724603652954,0.3620809316635132
-0.0813322067260742,0.4146159589290619,-0.256231278181076,-0.7654998898506165,-0.1714759618043899,-0.2630924582481384,0.0,0.0,0.6292524337768555,0.5554280281066895
-0.0839312523603439,0.3974819183349609,-0.2458701580762863,-0.7631902098655701,-0.1855559200048446,-0.2815987765789032,0.0,0.0,0.8957836627960205,0.4721732139587402
-0.0864019393920898,0.3814545571804046,-0.2331701964139938,-0.7141255140304565,-0.1995253711938858,-0.2793891131877899,0.0,0.0,0.6135486364364624,0.6043152809143066
-0.0889148712158203,0.3657909631729126,-0.2359589040279388,-0.6982987523078918,-0.2149812430143356,-0.3091177940368652,0.0,0.0,0.7903784513473511,-0.2650293707847595
-0.0914512649178505,0.3509062528610229,-0.2378793507814407,-0.6639165282249451,-0.2309342324733734,-0.3190597891807556,0.0,0.0,-0.0252222418785095,0.0354647636413574
-0.0940708145499229,0.335693359375,-0.2462013214826584,-0.6786766648292542,-0.2469257861375808,-0.3198314309120178,0.0,0.0,0.8299391269683838,0.1613497734069824
-0.0966829285025596,0.3215653300285339,-0.2448540180921554,-0.630751371383667,-0.2636177539825439,-0.3338394165039062,0.0,0.0,-0.1210572123527526,-0.3885809183120727
-0.099378302693367,0.3071093559265136,-0.2531959116458893,-0.6455135345458984,-0.2803517580032348,-0.3346804678440094,0.0,0.0,0.8689744472503662,-0.4081806540489197
-0.1020709052681922,0.2929791212081909,-0.2527961730957031,-0.6312621831893921,-0.2973059415817261,-0.3390836417675018,0.0,0.0,0.8451404571533203,-0.8587269186973572
-0.1047270745038986,0.2790257930755615,-0.2510075271129608,-0.6232062578201294,-0.3124142289161682,-0.3021649122238159,0.0,0.0,0.8848668336868286,-0.958651840686798
-0.1074594482779502,0.2653403580188751,-0.2604675889015198,-0.6110445857048035,-0.3256897926330566,-0.2655110657215118,0.0,0.0,0.8904831409454346,-0.9015694260597228
-0.1100603118538856,0.2526622414588928,-0.2490825206041336,-0.5659962892532349,-0.3371821641921997,-0.2298472821712494,0.0,0.0,0.815251350402832,-0.944439709186554
-0.1124241799116134,0.2409199625253677,-0.2273513972759246,-0.5240161418914795,-0.3466311991214752,-0.1889808475971222,0.0,0.0,0.9278179407119752,-0.9815334677696228
-0.1147545799612999,0.2303152233362198,-0.2257089614868164,-0.4731045067310333,-0.3543391823768616,-0.1541596055030822,0.0,0.0,0.8428968191146851,-0.8891823291778564
-0.1172578781843185,0.2200103104114532,-0.2444303482770919,-0.4594660997390747,-0.3605608940124511,-0.1244343370199203,0.0,0.0,0.7979650497436523,-0.8732737302780151
-0.1195586174726486,0.2105996161699295,-0.2259157598018646,-0.4193016588687897,-0.3649494349956512,-0.0877704322338104,0.0,0.0,0.8154913187026978,-0.8044301271438599
-0.1218906417489051,0.2018430382013321,-0.2303402721881866,-0.3899151980876922,-0.3679747581481933,-0.0605065748095512,0.0,0.0,0.0554639101028442,-0.8402636647224426
-0.1242499351501464,0.193422183394432,-0.2346472293138504,-0.3745889067649841,-0.3693264424800873,-0.0270338319242,0.0,0.0,0.3945837020874023,-0.182220458984375
-0.1264895498752594,0.1855011582374572,-0.2225854694843292,-0.3524008989334106,-0.3707793354988098,-0.029057677835226,0.0,0.0,0.7896472215652466,-0.5930271744728088
-0.1285338401794433,0.1781002581119537,-0.2043968141078949,-0.328934758901596,-0.3708065450191498,-0.0005444092676043,0.0,0.0,0.6028099060058594,-0.5724023580551147
-0.1305618286132812,0.1708380579948425,-0.2038873434066772,-0.3224843144416809,-0.369657963514328,0.0229717995971441,0.0,0.0,0.4250065088272095,-0.2522722482681274
-0.1324735581874847,0.1636869311332702,-0.192559614777565,-0.3174730837345123,-0.368194431066513,0.0292707476764917,0.0,0.0,0.7643115520477295,-0.4494951963424682
-0.1341029107570648,0.1569730341434478,-0.1649603545665741,-0.2978776097297668,-0.3660593032836914,0.0427032858133316,0.0,0.0,0.7281115055084229,-0.5227824449539185
-0.1355626136064529,0.1504406034946441,-0.1493533998727798,-0.2894690930843353,-0.3624835014343261,0.0715157613158226,0.0,0.0,0.277762770652771,-0.9247111678123474
-0.1369708031415939,0.1444396078586578,-0.1459577530622482,-0.2654210031032562,-0.3570567667484283,0.1085347160696983,0.0,0.0,0.6611840724945068,-0.8850458860397339
-0.1382265985012054,0.1392041593790054,-0.1324726343154907,-0.2309911400079727,-0.3498090207576751,0.1449552029371261,0.0,0.0,0.559782862663269,-0.848442554473877
-0.1392883360385894,0.1344953328371048,-0.1148482114076614,-0.2071928083896637,-0.3406875431537628,0.1824295669794082,0.0,0.0,0.4488005638122558,-0.8947573304176331
-0.1403110474348068,0.1298373788595199,-0.1127874851226806,-0.2045760154724121,-0.3296956121921539,0.2198386937379837,0.0,0.0,0.5195865631103516,-0.6342137455940247
-0.1413621008396148,0.1255625784397125,-0.1167519092559814,-0.1873854845762252,-0.3175721168518066,0.2424707412719726,0.0,0.0,0.4460220336914062,-0.8769823908805847
-0.1422433853149414,0.1220375150442123,-0.1015912070870399,-0.1537798792123794,-0.3036082983016968,0.279276430606842,0.0,0.0,0.4011956453323364,-0.8979527354240417
-0.1431512832641601,0.118916355073452,-0.1060201898217201,-0.1356187760829925,-0.2878876030445099,0.3144139945507049,0.0,0.0,0.4346553087234497,0.1575405597686767
-0.1440484076738357,0.1165063008666038,-0.1044727936387062,-0.1042718440294265,-0.2727153301239013,0.3034450709819793,0.0,0.0,-0.3224883675575256,-0.1186432242393493
-0.1450270712375641,0.1137677282094955,-0.112639807164669,-0.119030050933361,-0.2575901746749878,0.3025023341178894,0.0,0.0,0.2676777839660644,0.7456004619598389
-0.145927146077156,0.1115357726812362,-0.1032812371850013,-0.0969250425696373,-0.2440699636936187,0.2704043090343475,0.0,0.0,-0.0650762319564819,-0.2770438194274902
-0.1469083726406097,0.1089747250080108,-0.1113898381590843,-0.1116793677210807,-0.230593591928482,0.2695276141166687,0.0,0.0,-0.0500365495681762,0.8067693710327148
-0.1479114592075348,0.1060607731342315,-0.1120273023843765,-0.1277205348014831,-0.2187207639217376,0.2374566048383712,0.0,0.0,0.060451865196228,0.9140465259552002
-0.1489273011684417,0.1033883690834045,-0.1114984527230262,-0.117336668074131,-0.2087175250053405,0.2000647038221359,0.0,0.0,-0.1671615839004516,0.9172577857971193
-0.1499707251787185,0.1003666967153549,-0.1128418669104576,-0.1331180036067962,-0.2001376897096634,0.1715971082448959,0.0,0.0,0.1542365550994873,0.3156442642211914
-0.1509215384721756,0.0977304801344871,-0.1039057374000549,-0.1159965097904205,-0.1912514418363571,0.1777249872684478,0.0,0.0,-0.2048232555389404,0.3624217510223388
-0.1519517004489898,0.0947637408971786,-0.1118203625082969,-0.130742147564888,-0.1823987960815429,0.1770527064800262,0.0,0.0,-0.1541320085525512,0.9479379653930664
-0.1529683172702789,0.0914481729269027,-0.1081088557839393,-0.1465783715248108,-0.1759321242570877,0.1293335407972335,0.0,0.0,0.1593774557113647,0.9812510013580322
-0.153909295797348,0.0885983780026435,-0.0985693335533142,-0.1261348575353622,-0.1714557409286499,0.089527815580368,0.0,0.0,-0.0275107622146606,0.9813187122344972
-0.1548322737216949,0.0854038298130035,-0.0943166762590408,-0.1417477577924728,-0.1694308519363403,0.0404978170990943,0.0,0.0,0.2432831525802612,0.3053203821182251
-0.1557023078203201,0.0825081169605255,-0.0892593711614608,-0.1284403502941131,-0.1671635806560516,0.0453451126813888,0.0,0.0,0.1553726196289062,0.7011398077011108
-0.1565038710832595,0.0801198780536651,-0.0809953659772872,-0.1060473546385765,-0.1663234680891037,0.0168022271245718,0.0,0.0,0.1390563249588012,0.9757654666900636
-0.1571652442216873,0.0781803950667381,-0.0650115460157394,-0.0863276496529579,-0.1674534231424331,-0.0225993320345878,0.0,0.0,0.4561511278152466,0.8203864097595215
-0.1576921492815017,0.0764668583869934,-0.0500123798847198,-0.0764617621898651,-0.1701346635818481,-0.0536247119307518,0.0,0.0,0.4634178876876831,0.6289414167404175
-0.1582678854465484,0.0752500593662262,-0.0533876717090606,-0.0545654892921447,-0.1743313670158386,-0.0839336663484573,0.0,0.0,0.4362390041351318,0.9760253429412842
-0.1588894873857498,0.0743738710880279,-0.0559163615107536,-0.0396894328296184,-0.1805924028158188,-0.1252208203077316,0.0,0.0,0.6893899440765381,0.9217854738235474
-0.1594321280717849,0.0740037262439727,-0.0461491420865058,-0.0174563191831111,-0.1887419372797012,-0.1629905700683593,0.0,0.0,0.6814870834350586,0.8729748725891113
-0.1598472595214843,0.0740737542510032,-0.0317183919250965,0.0018348925514146,-0.1985979974269867,-0.1971212476491928,0.0,0.0,0.6263258457183838,0.2813285589218139
-0.1601361334323883,0.0742958411574363,-0.019703084602952,0.0086112776771187,-0.2078555524349212,-0.1851513981819152,0.0,0.0,0.3720844984054565,0.6925687789916992
-0.1602343618869781,0.0749793350696563,0.0005704914801754,0.028881836682558,-0.2183468490839004,-0.2098260670900344,0.0,0.0,-0.0245322585105896,0.3442227840423584
-0.1603994369506836,0.0753325298428535,-0.0061570187099277,0.014134420081973,-0.2288263291120529,-0.209589272737503,0.0,0.0,0.242733359336853,-0.354411244392395
