x_pos,y_pos,x_vel,y_vel,angle,ang_vel,leg_1,leg_2,main_booster,lat_booster
-0.0015897750854492,1.403002142906189,-0.1610762476921081,-0.3519136607646942,0.0018752131145447,0.0369988605380058,0.0,0.0,-0.1411364080185913,0.5430446933116869
-0.0032031058799475,1.3944823741912842,-0.1620674878358841,-0.3786600232124328,0.0025978793855756,0.0144553016871213,0.0,0.0,-0.352055920016332,0.3034656480674303
-0.0048891068436205,1.3853394985198977,-0.1693907678127288,-0.4063464999198913,0.0033827957231551,0.0156998224556446,0.0,0.0,-0.4114758447868614,-0.4477950953471161
-0.006650352384895,1.3755743503570557,-0.1769882589578628,-0.4340137243270874,0.0042317719198763,0.0169811211526393,0.0,0.0,-0.0409163713963818,0.2472612001127322
-0.0084895137697458,1.36518657207489,-0.1848393976688385,-0.4616774022579193,0.0051468033343553,0.0183022338896989,0.0,0.0,0.1638211401125915,0.2469374897045819
-0.0103140827268362,1.3547511100769043,-0.1839200556278228,-0.4638038575649261,0.0065917274914681,0.0289014615118503,0.0,0.0,-0.7218489032496258,-0.5551821759941278
-0.0122662540525197,1.3436927795410156,-0.1979097425937652,-0.4914970397949219,0.009245790541172,0.0530863478779792,0.0,0.0,-0.9540892542548136,-0.3198459074843832
-0.0143028255552053,1.3320120573043823,-0.2064160406589508,-0.5191584229469299,0.0119703244417905,0.0544958040118217,0.0,0.0,-0.3501476585268164,-0.8948038311431074
-0.0164976119995117,1.3197176456451416,-0.2241280078887939,-0.5464621186256409,0.0165746640413999,0.0920948907732963,0.0,0.0,0.2555665480451587,-0.0763017674128232
-0.0187900550663471,1.307629108428955,-0.2339617758989334,-0.5373300909996033,0.0212487783282995,0.0934910476207733,0.0,0.0,0.6302204629819537,-0.3246541448840757
-0.021099280565977,1.2958006858825684,-0.2361252307891845,-0.5257901549339294,0.0264014787971973,0.1030633896589279,0.0,0.0,0.0491226063740406,-0.91608213657232
-0.0235268585383892,1.2838505506515503,-0.2498845309019088,-0.5312538146972656,0.0334458351135253,0.1408999115228653,0.0,0.0,0.6058552785658129,0.687300376856151
-0.0258769989013671,1.2723112106323242,-0.2411424666643142,-0.5130118727684021,0.039507295936346,0.1212400943040847,0.0,0.0,-0.5628782893957491,-0.0469124323353605
-0.0283205024898052,1.2601497173309326,-0.250551164150238,-0.5406848788261414,0.0456478595733642,0.1228223443031311,0.0,0.0,-0.2454973260693644,0.7149854772354622
-0.0307890884578228,1.2473785877227783,-0.2513687908649444,-0.5677536129951477,0.0501157902181148,0.0893666595220565,0.0,0.0,0.1355077263780297,-0.0234731453535131
-0.0332878120243549,1.2342969179153442,-0.2548356056213379,-0.5815754532814026,0.0550197660923004,0.0980886667966842,0.0,0.0,-0.9724284054865384,-0.2703113585739295
-0.0358829498291015,1.2205933332443235,-0.26453897356987,-0.6092442274093628,0.0600050128996372,0.0997138768434524,0.0,0.0,0.6615393338239057,0.0298118406087213
-0.038454532623291,1.2068448066711426,-0.2629612982273102,-0.6112876534461975,0.0657448545098304,0.1148074120283126,0.0,0.0,-0.4082224398058631,0.6225102602229784
-0.0410673134028911,1.192485809326172,-0.2657031416893005,-0.6383850574493408,0.0701296553015708,0.0877038612961769,0.0,0.0,0.8633880797140701,-0.0404760310331886
-0.0439141280949115,1.1784502267837524,-0.2887491285800934,-0.6240015029907227,0.0741749554872512,0.0809133574366569,0.0,0.0,-0.7921618619236037,0.0876701413228699
-0.0468598380684852,1.1637921333312988,-0.2987388372421264,-0.6516749858856201,0.0783060640096664,0.0826292783021926,0.0,0.0,-0.2963769768983302,0.8894380083161655
-0.0498334877192974,1.1485155820846558,-0.2997961044311523,-0.6790916323661804,0.0807203352451324,0.048289954662323,0.0,0.0,-0.2758498594332388,-0.5369196257272281
-0.0529403686523437,1.132611870765686,-0.3140523433685303,-0.707014262676239,0.0840615481138229,0.0668303444981575,0.0,0.0,0.2414255670085567,-0.2313104962012144
-0.0561151504516601,1.1164432764053345,-0.321181982755661,-0.7188174724578857,0.0877337679266929,0.0734511017799377,0.0,0.0,-0.0519041290922053,-0.6644878019098474
-0.0594557747244834,1.0996458530426023,-0.3395029902458191,-0.7468808889389038,0.0931300446391105,0.1079348921775817,0.0,0.0,-0.0338529322985201,0.0233765206440095
-0.0628965348005294,1.082205295562744,-0.3496041297912597,-0.7754969000816345,0.0986155495047569,0.1097100600600242,0.0,0.0,-0.4522277158846279,-0.5634817208772126
-0.0664833039045333,1.064139723777771,-0.3654150366783142,-0.803371012210846,0.1053055301308631,0.133799210190773,0.0,0.0,0.5909970935225932,0.8968666569466581
-0.0703261345624923,1.0466361045837402,-0.3891117870807647,-0.7782869935035706,0.1100983917713165,0.0958574339747428,0.0,0.0,-0.911858853723274,-0.175230576046547
-0.0742712989449501,1.028510570526123,-0.3994290828704834,-0.8059512376785278,0.1149801537394523,0.0976351648569107,0.0,0.0,-0.6198827283188595,-0.7382033701388176
-0.0783788710832595,1.0097501277923584,-0.4172878265380859,-0.8343185782432556,0.1214759796857833,0.1299162656068802,0.0,0.0,-0.6498027961664934,-0.867766328290093
-0.0826560035347938,0.9903655648231506,-0.4360216557979584,-0.862227201461792,0.1297339797019958,0.1651602238416671,0.0,0.0,0.4426494836807251,0.9595752954483032
-0.0870871543884277,0.9709228873252868,-0.4495039582252502,-0.8646878004074097,0.1360988914966583,0.1272978484630584,0.0,0.0,0.503568172454834,0.972034215927124
-0.0917301177978515,0.9519498944282532,-0.4687337875366211,-0.8436595797538757,0.140522688627243,0.0884762853384018,0.0,0.0,0.735353946685791,0.9987378120422364
-0.0965249985456466,0.9329091906547546,-0.4819188714027405,-0.8464836478233337,0.1429428458213806,0.0484032742679119,0.0,0.0,0.7247823476791382,0.9974086284637452
-0.101420022547245,0.9142414927482604,-0.4900353550910949,-0.8297266364097595,0.143478587269783,0.0107147712260484,0.0,0.0,0.5870575904846191,0.9893460273742676
-0.1064262390136718,0.8960586786270142,-0.4992817342281341,-0.8080000281333923,0.1421389430761337,-0.0267924461513757,0.0,0.0,0.0293934345245361,0.9900569915771484
-0.1115180030465126,0.8776823282241821,-0.5059532523155212,-0.8164230585098267,0.1389181613922119,-0.0644154995679855,0.0,0.0,-0.2170093059539795,0.9984297752380372
-0.1166314110159874,0.8587090373039246,-0.5060606002807617,-0.8427747488021851,0.133656233549118,-0.1052385345101356,0.0,0.0,0.3532780408859253,0.9967756271362304
-0.1219008415937423,0.8401592969894409,-0.5197142958641052,-0.8238006830215454,0.1264622658491134,-0.1438794732093811,0.0,0.0,0.3787779808044433,0.9984211921691896
-0.1272330284118652,0.8217646479606628,-0.5240867137908936,-0.8167997002601624,0.1173726022243499,-0.1817932873964309,0.0,0.0,0.1986368894577026,0.993833065032959
-0.1327491700649261,0.8035964369773865,-0.5405318737030029,-0.8066407442092896,0.1063718125224113,-0.2200160324573516,0.0,0.0,-0.2120699286460876,0.996564507484436
-0.1382749527692794,0.7848207950592041,-0.5391605496406555,-0.8335685729980469,0.0930588766932487,-0.2662586569786072,0.0,0.0,0.1395682096481323,0.9909663200378418
-0.1437670737504959,0.7657598257064819,-0.5338681936264038,-0.846267819404602,0.0778473243117332,-0.3042312860488891,0.0,0.0,0.1092433929443359,0.9998290538787842
-0.1492328643798828,0.7466272711753845,-0.5292572975158691,-0.8495211005210876,0.0607058256864547,-0.3428301513195038,0.0,0.0,-0.0289301872253417,0.9976224899291992
-0.1547290831804275,0.72687166929245,-0.5304948091506958,-0.8773586750030518,0.0417954884469509,-0.3782068192958832,0.0,0.0,0.0601671934127807,0.9961872100830078
-0.1602242439985275,0.7068174481391907,-0.5284219980239868,-0.8908440470695496,0.0209696665406227,-0.4165166020393371,0.0,0.0,0.745114803314209,0.9991846084594728
-0.1656819283962249,0.6868545413017273,-0.5228408575057983,-0.8870839476585388,-0.0016670889453962,-0.4527353644371032,0.0,0.0,0.9748575687408448,0.9957700967788696
-0.1713123321533203,0.6677822470664978,-0.5379334688186646,-0.8478647470474243,-0.0264574512839317,-0.4958073198795318,0.0,0.0,0.903096079826355,0.9998888969421388
-0.177113726735115,0.6494702696800232,-0.5528329014778137,-0.8145619034767151,-0.0534266680479049,-0.5393846035003662,0.0,0.0,0.7768216133117676,0.9999849796295166
-0.1829361915588379,0.6313585638999939,-0.5530120730400085,-0.8062597513198853,-0.082344576716423,-0.5783587098121643,0.0,0.0,0.0500533580780029,0.9992959499359132
-0.1886437386274337,0.6131553053855896,-0.539609968662262,-0.811038613319397,-0.1132291629910469,-0.6176922917366028,0.0,0.0,0.893865704536438,0.9999966621398926
-0.1943528205156326,0.5956072211265564,-0.5378263592720032,-0.7827485799789429,-0.1461449861526489,-0.658316969871521,0.0,0.0,0.7825109958648682,0.9870061874389648
-0.1998868882656097,0.5781121850013733,-0.5187909603118896,-0.7813206911087036,-0.1807749569416046,-0.692599892616272,0.0,0.0,0.912407398223877,0.9106249809265136
-0.2052808701992035,0.5613613724708557,-0.5032684206962585,-0.7492913007736206,-0.217144176363945,-0.727384626865387,0.0,0.0,0.6906969547271729,0.9698433876037598
-0.2104267179965973,0.5446529984474182,-0.477109432220459,-0.7485501170158386,-0.2551727294921875,-0.7605723142623901,0.0,0.0,0.8652200698852539,0.9848301410675048
-0.2155801802873611,0.5281257629394531,-0.4761987626552582,-0.7418553829193115,-0.2953070998191833,-0.8026881217956543,0.0,0.0,0.6197471618652344,-0.812349259853363
-0.2205675542354583,0.5121071934700012,-0.4618778824806213,-0.7198747992515564,-0.3335423767566681,-0.7647058367729187,0.0,0.0,0.3219165802001953,0.1058206558227539
-0.2253728359937667,0.4961946606636047,-0.4447015225887298,-0.7159554362297058,-0.3711976110935211,-0.7531051635742188,0.0,0.0,0.6796536445617676,-0.5096179246902466
-0.2299335896968841,0.4808288812637329,-0.4220173358917236,-0.69218510389328,-0.4075091779232025,-0.7262316942214966,0.0,0.0,0.8242781162261963,-0.8161277174949646
-0.2343901097774505,0.4661501348018646,-0.4135865569114685,-0.6620169878005981,-0.4422309994697571,-0.6944366693496704,0.0,0.0,0.509448766708374,-0.9996561408042908
-0.2388251721858978,0.4513289630413055,-0.4139130711555481,-0.6684099435806274,-0.4747785925865173,-0.6509517431259155,0.0,0.0,0.8990664482116699,-0.7790471911430359
-0.2431541979312896,0.4371041655540466,-0.405076265335083,-0.6420816779136658,-0.5058854818344116,-0.6221393346786499,0.0,0.0,0.9403903484344482,-0.9933178424835204
-0.2472148388624191,0.4230011105537414,-0.3808007836341858,-0.6364189386367798,-0.5345991849899292,-0.5742740035057068,0.0,0.0,0.9834094047546388,-0.9908007383346558
-0.2510376870632171,0.4092700481414795,-0.3593502044677734,-0.6195700764656067,-0.56110018491745,-0.5300200581550598,0.0,0.0,0.968019723892212,-0.9972527027130128
-0.2547643780708313,0.3955775499343872,-0.3519614040851593,-0.6174477338790894,-0.5854118466377258,-0.4862331449985504,0.0,0.0,0.9606451988220216,-0.9997771382331848
-0.2584020495414734,0.3823449611663818,-0.3450251221656799,-0.5965798497200012,-0.6077592372894287,-0.4469475150108337,0.0,0.0,0.9732334613800048,-0.9988285899162292
-0.2615900039672851,0.3698046207427978,-0.3022014200687408,-0.5651904344558716,-0.6278372406959534,-0.4015596807003021,0.0,0.0,0.948040008544922,-0.9998701810836792
-0.2646542489528656,0.3570281267166137,-0.2919716238975525,-0.574950635433197,-0.645565390586853,-0.3545625805854797,0.0,0.0,0.9665603637695312,-0.999864399433136
-0.267233669757843,0.3448961973190307,-0.2455248087644577,-0.545527458190918,-0.6609967350959778,-0.3086266219615936,0.0,0.0,0.969273328781128,-0.9999561309814452
-0.2697255611419678,0.3329939842224121,-0.2385379374027252,-0.5345780849456787,-0.6743804216384888,-0.2676735520362854,0.0,0.0,0.9164395332336426,-0.9997820854187012
-0.2719755172729492,0.3215773403644562,-0.2160913646221161,-0.5122030973434448,-0.6856775283813477,-0.2259427607059478,0.0,0.0,0.9078601598739624,-0.9997850060462952
-0.2738958299160003,0.3104106187820434,-0.1850050836801529,-0.5001654028892517,-0.6946775317192078,-0.1800001114606857,0.0,0.0,0.959662675857544,-0.98629230260849
-0.2754551768302917,0.3000200390815735,-0.1504905223846435,-0.4648447334766388,-0.7016839385032654,-0.1401278525590896,0.0,0.0,0.9820961952209472,-0.9964833855628968
-0.2766474783420563,0.2897807955741882,-0.1156570464372634,-0.4570994973182678,-0.7063105702400208,-0.0925322100520134,0.0,0.0,0.8702232837677002,-0.9957887530326844
-0.2777419090270996,0.2795345485210418,-0.1075557321310043,-0.4564665257930755,-0.708763837814331,-0.0490659140050411,0.0,0.0,0.8136661052703857,-0.9904324412345886
-0.2786979675292969,0.2690574824810028,-0.0954915210604667,-0.4657119214534759,-0.7089089751243591,-0.002902538049966,0.0,0.0,0.843611478805542,-0.731338620185852
-0.279575914144516,0.2584759891033172,-0.088887020945549,-0.469666063785553,-0.707490086555481,0.0283782538026571,0.0,0.0,0.963442325592041,-0.9756261706352234
-0.2799951136112213,0.2484370768070221,-0.0447060391306877,-0.4445890784263611,-0.7038775086402893,0.0722515136003494,0.0,0.0,0.830833911895752,-0.989130675792694
-0.2798987925052643,0.2387950718402862,0.0050154901109635,-0.4259340465068817,-0.6979063153266907,0.1194240003824234,0.0,0.0,0.8559155464172363,-0.982273280620575
-0.2794632017612457,0.229801669716835,0.0373238697648048,-0.3962436318397522,-0.6898943185806274,0.1602395921945572,0.0,0.0,0.8060522079467773,-0.9791114926338196
-0.279069572687149,0.2208204865455627,0.0315230041742324,-0.3948912918567657,-0.6799003481864929,0.1998790800571441,0.0,0.0,0.9331555366516112,-0.9633975625038148
-0.2781943678855896,0.2123243957757949,0.0778347104787826,-0.3724437355995178,-0.667664110660553,0.2447242736816406,0.0,0.0,0.7812235355377197,-0.9611119627952576
-0.2771736085414886,0.2041204124689102,0.0907066240906715,-0.3587223887443542,-0.6534400582313538,0.2844805121421814,0.0,0.0,0.7329428195953369,-0.8688417673110962
-0.2759055495262146,0.1962651759386062,0.1138100624084472,-0.3425880968570709,-0.6373730301856995,0.3213407397270202,0.0,0.0,0.6872198581695557,-0.2391252517700195
-0.2743030190467834,0.1886617243289947,0.1471264362335205,-0.3315435945987701,-0.6213299632072449,0.3208616077899933,0.0,0.0,0.7500452995300293,-0.7400388717651367
-0.2723849415779114,0.1811528354883194,0.1769936978816986,-0.3267824351787567,-0.6034562587738037,0.3574735224246979,0.0,0.0,0.8435674905776978,-0.800884485244751
-0.2703568935394287,0.1735188364982605,0.1862977445125579,-0.3318447768688202,-0.5837821960449219,0.3934808671474457,0.0,0.0,0.8392045497894287,-0.7843546271324158
-0.2681144773960113,0.165780484676361,0.2058684378862381,-0.3360033929347992,-0.5621843934059143,0.4319555759429931,0.0,0.0,0.8685324192047119,-0.7229421138763428
-0.2654940485954284,0.1581458449363708,0.2417098730802536,-0.3309796750545501,-0.5386202335357666,0.4712832868099212,0.0,0.0,0.8383548259735107,-0.8615185022354126
-0.2626301348209381,0.1503753811120987,0.2638804316520691,-0.3366222679615021,-0.512912929058075,0.5141463279724121,0.0,0.0,0.8090876340866089,-0.7555346488952637
-0.2594831585884094,0.143118754029274,0.2904111742973327,-0.313658058643341,-0.4855858087539673,0.5465426445007324,0.0,0.0,0.8233526945114136,-0.8884522318840027
-0.2560334801673889,0.1363876909017563,0.3185436427593231,-0.2901548743247986,-0.4562926590442657,0.5858631134033203,0.0,0.0,0.8572895526885986,-0.9588964581489564
-0.252238929271698,0.1300050318241119,0.3505575656890869,-0.2745562493801117,-0.4247328341007232,0.6311966776847839,0.0,0.0,0.7817472219467163,-0.977677881717682
-0.2483167648315429,0.1234567984938621,0.3608370423316955,-0.2819504737854004,-0.3909704983234405,0.675247311592102,0.0,0.0,0.8125121593475342,-0.9840831160545348
-0.2443655431270599,0.1171541810035705,0.3614462912082672,-0.2712833285331726,-0.3552486002445221,0.7144385576248169,0.0,0.0,0.8892867565155029,-0.9892340898513794
-0.2400888502597808,0.1116289719939231,0.3914050757884979,-0.2370632141828537,-0.3173022866249084,0.7589260935783386,0.0,0.0,0.8096861839294434,-0.9877898097038268
-0.2357638776302337,0.106438361108303,0.3938418626785278,-0.2227405458688736,-0.2773658037185669,0.7987300753593445,0.0,0.0,0.6961877346038818,-0.9857258200645448
-0.2314682006835937,0.1019244492053985,0.3886526525020599,-0.1933981627225875,-0.2355861067771911,0.8355943560600281,0.0,0.0,0.5954794883728027,-0.9791683554649352
-0.2270350903272628,0.0977934896945953,0.3999002575874328,-0.1772531419992447,-0.1917135417461395,0.8774520754814148,0.0,0.0,0.2688097953796386,-0.964171826839447
-0.2226476669311523,0.0939571484923362,0.3930193483829498,-0.1652364134788513,-0.1459110528230667,0.9160506129264832,0.0,0.0,0.0186800956726074,-0.8942312002182007
-0.2183537483215332,0.0902473330497741,0.3815326690673828,-0.1608864516019821,-0.09830292314291,0.9521636962890624,0.0,0.0,-0.3556853532791137,-0.1947725415229797
-0.2140880078077316,0.0859451368451118,0.3784925043582916,-0.1887368410825729,-0.0506938286125659,0.9521832466125488,0.0,0.0,-0.0517824292182922,0.0414583683013916
-0.2098471224308014,0.0810507163405418,0.3758822977542877,-0.2165881842374801,-0.0030863780993968,0.9521501660346984,0.0,0.0,-0.1361003518104553,0.6104743480682373
-0.2055916786193847,0.075561910867691,0.3782553374767303,-0.2445104867219925,0.0436059646308422,0.9338480234146118,0.0,0.0,0.1053977012634277,0.090919017791748
-0.2013046741485595,0.0702050775289535,0.3811750411987304,-0.2401356101036071,0.090619221329689,0.940265953540802,0.0,0.0,-0.0266046524047851,0.6281063556671143
-0.1969778090715408,0.0642561540007591,0.3867607414722442,-0.2678107023239136,0.1362452507019043,0.9125210642814636,0.0,0.0,0.0228315591812133,0.6707890033721924
-0.1925725936889648,0.0584503524005413,0.3961191773414612,-0.2626963555812835,0.1806085407733917,0.8872668147087097,0.0,0.0,0.2906504869461059,0.661016583442688
-0.1882529258728027,0.0529557578265666,0.3892911076545715,-0.2499700039625167,0.2235962301492691,0.859754741191864,0.0,1.0,0.9896081686019896,0.3661190271377563
-0.183995246887207,0.0491556040942668,0.3972492814064026,-0.1742173284292221,0.249140664935112,0.5062612295150757,0.0,1.0,0.7203047275543213,0.5718531608581543
-0.1799037903547287,0.0462692603468894,0.4033671021461487,-0.1293082386255264,0.2548738121986389,0.1144476905465126,0.0,1.0,-0.869271457195282,-0.2079761624336242
-0.1759035140275955,0.0433779098093509,0.411353051662445,-0.1267667263746261,0.242485225200653,-0.2489381581544876,0.0,1.0,-0.8724873065948486,-0.8383365273475647
-0.1720467507839203,0.0403370000422,0.410701036453247,-0.13124580681324,0.2170290201902389,-0.5092383027076721,0.0,1.0,-0.5429232120513916,-0.7942488789558411
-0.1682892739772796,0.0369689315557479,0.4085534512996673,-0.1452317684888839,0.1838890463113784,-0.6629065275192261,0.0,1.0,0.6508747339248657,-0.9824501872062684
-0.1648726463317871,0.0339324586093425,0.3754644691944122,-0.1311363726854324,0.1499767005443573,-0.6783343553543091,0.0,1.0,0.5419439077377319,-0.9376177191734314
-0.1617200821638107,0.0309303849935531,0.3466467559337616,-0.1305712163448333,0.118675373494625,-0.626053512096405,0.0,1.0,0.8018414974212646,-0.9253941178321838
-0.1587387025356292,0.0282150600105524,0.3277921676635742,-0.1185933426022529,0.089227095246315,-0.588988721370697,0.0,1.0,0.8227939605712891,-0.7569829821586609
-0.1558384001255035,0.0257626622915267,0.3181624412536621,-0.1075555458664894,0.0613613836467266,-0.5573362708091736,0.0,0.0,-0.1465311050415039,-0.8065127730369568
-0.1529880464076995,0.0226861331611871,0.3119509518146515,-0.1358526796102523,0.0347469225525856,-0.5323104858398438,0.0,0.0,-0.2627617120742798,-0.9177663326263428
-0.1501946449279785,0.018997274339199,0.3047435879707336,-0.1635560840368271,0.0096497880294919,-0.5019619464874268,0.0,0.0,0.1816015243530273,-0.8785817623138428
-0.1474473029375076,0.0155671210959553,0.2983779907226562,-0.1524682790040969,-0.013702786527574,-0.4670700430870056,0.0,0.0,0.0379266738891601,-0.9021785259246826
-0.1447087228298187,0.011805878020823,0.2956920564174652,-0.1675123274326324,-0.0352807864546775,-0.4315763413906097,0.0,0.0,0.4431934356689453,-0.966806948184967
