x_pos,y_pos,x_vel,y_vel,angle,ang_vel,leg_1,leg_2,main_booster,lat_booster
-0.0015431403880938,1.4034777879714966,-0.1561286449432373,-0.3307753801345825,0.0016230333130806,0.0320057310163974,0.0,0.0,-0.1577109037507433,-0.9048050707606402
-0.0031707764137536,1.395907282829285,-0.165849283337593,-0.3364771604537964,0.0046757450327277,0.0610604807734489,0.0,0.0,-0.822689947648304,0.9320910997194266
-0.0047279358841478,1.3881832361221311,-0.156356543302536,-0.3432920277118683,0.0053100143559277,0.0126864565536379,0.0,0.0,0.342673246917724,-0.6961302254987183
-0.0064681051298975,1.38091778755188,-0.1756924092769622,-0.3229131400585174,0.0069619342684745,0.0330415293574333,0.0,0.0,-0.8307583118847264,-0.5641930501416978
-0.0082614896818995,1.3735069036483765,-0.1817206144332885,-0.3293851017951965,0.0093209212645888,0.0471840985119342,0.0,0.0,-0.0615822137149635,-0.6814518981811852
-0.0101140979677438,1.365947723388672,-0.1885259449481964,-0.3359835743904114,0.0125501221045851,0.0645898133516311,0.0,0.0,0.7956791430379835,-0.8152045877808896
-0.0120831485837697,1.3591817617416382,-0.2015652358531952,-0.3007579445838928,0.0171626042574644,0.0922579020261764,0.0,0.0,-0.3143844521036645,-0.915209141372054
-0.0141234397888183,1.352270483970642,-0.2098936289548874,-0.3072512447834015,0.0229631215333938,0.11602084338665,0.0,0.0,-0.0086822055894417,0.7785111064217305
-0.0161203388124704,1.3452231884002686,-0.2038520276546478,-0.3132831454277038,0.0270747616887092,0.0822403654456138,0.0,0.0,0.5502037757684752,-0.7626894540422426
-0.0182127952575683,1.3390536308288574,-0.2147444039583206,-0.2743137180805206,0.03251888230443,0.1088921055197715,0.0,0.0,0.4209365456416967,0.955505248202096
-0.0201773643493652,1.3335120677947998,-0.1999391466379165,-0.2463645339012146,0.035970065742731,0.0690300911664962,0.0,0.0,0.0960529597753772,0.986754739693548
-0.0220355987548828,1.3283544778823853,-0.1871522665023803,-0.2292658984661102,0.0372790433466434,0.0261819772422313,0.0,0.0,-0.6181485884285538,-0.8045498992992446
-0.0239580161869525,1.3230512142181396,-0.1946526616811752,-0.2357639968395233,0.0396583601832389,0.0475906617939472,0.0,0.0,-0.895225302559723,-0.5057237991945225
-0.0259296409785747,1.317594289779663,-0.2002703696489334,-0.2426133006811142,0.0427442267537117,0.0617228858172893,0.0,0.0,0.3997280155427991,-0.7895596363379893
-0.0278728492558002,1.3130501508712769,-0.1990288943052292,-0.2021014541387558,0.0474093444645404,0.0933106988668441,0.0,0.0,0.8627829145697969,0.8508688154746842
-0.0296415332704782,1.3088657855987549,-0.1799696981906891,-0.1860741227865219,0.0504767894744873,0.0613545887172222,0.0,0.0,0.4896028876587111,0.5955565559355696
-0.0312796607613563,1.3057106733322144,-0.1658474057912826,-0.1402953714132309,0.0524898581206798,0.0402648523449897,0.0,0.0,0.312270575459932,0.6719284996696993
-0.0327660553157329,1.3028626441955566,-0.1493626534938812,-0.1266028583049774,0.0531992428004741,0.0141892684623599,0.0,0.0,-0.8508178190128735,-0.5548445799638262
-0.0343002304434776,1.2998700141906738,-0.1548745185136795,-0.1330574005842209,0.0546469204127788,0.0289561413228511,0.0,0.0,-0.5019922489957387,0.7969310807344063
-0.0357900634407997,1.2967345714569092,-0.148866519331932,-0.139348417520523,0.054535798728466,-0.0022225969005376,0.0,0.0,-0.3967215039060221,-0.9552570090898524
-0.0373489372432231,1.2934542894363403,-0.1571000516414642,-0.1458344310522079,0.0557339489459991,0.0239649452269077,0.0,0.0,0.8707801811032243,0.6081506539603998
-0.0388822555541992,1.2907792329788208,-0.1531669199466705,-0.1188866272568702,0.0555729605257511,-0.003220269922167,0.0,0.0,-0.9772895920460932,0.6323490290544471
-0.0403629317879676,1.28796124458313,-0.1461690813302993,-0.1251733154058456,0.0536958239972591,-0.0375459752976894,0.0,0.0,-0.0722200676098672,0.6947652045797715
-0.0417893417179584,1.2849938869476318,-0.1390054821968078,-0.1317627131938934,0.0500894337892532,-0.0721347108483314,0.0,0.0,-0.3820291010650873,-0.9208865756177168
-0.0433125495910644,1.2818753719329834,-0.1507707387208938,-0.1385518610477447,0.0485579892992973,-0.0306315217167139,0.0,0.0,0.85691234133746,0.646935616401322
-0.0450045578181743,1.279768466949463,-0.1656963676214218,-0.0935295447707176,0.045101411640644,-0.0691316649317741,0.0,0.0,-0.2973854465940242,0.5050751704581277
-0.0466617569327354,1.2775208950042725,-0.1610132008790969,-0.0997612029314041,0.0404420383274555,-0.0931872203946113,0.0,0.0,0.5615916305925996,0.5796143648791606
-0.0484431274235248,0.0,-0.1717236638069152,-0.0542523302137851,0.0341159105300903,-0.126522958278656,0.0,0.0,0.7191324569146924,0.7135636647498991
-0.0503476150333881,1.2761356830596924,-0.1820875108242035,-0.0069819190539419,0.0258568134158849,-0.1651820838451385,0.0,0.0,-0.7195424171128415,-0.5037462791585263
-0.0522967353463172,1.2758253812789917,-0.187408909201622,-0.0136838592588901,0.0184419564902782,-0.1482970565557479,0.0,0.0,-0.7380279010626396,-0.531701505125044
-0.0542895309627056,1.2753736972808838,-0.1926159858703613,-0.020007686689496,0.0118579119443893,-0.1316808760166168,0.0,0.0,-0.4044712781906128,-0.3306301832199096
-0.0562846176326274,1.2747758626937866,-0.192637637257576,-0.0265342071652412,0.0050800573080778,-0.1355572938919067,0.0,0.0,-0.8714590072631836,-0.2759702205657959
-0.0582812316715717,1.2740318775177002,-0.1925967186689376,-0.0330610573291778,-0.0018921077717095,-0.1394434571266174,0.0,0.0,-0.8989173173904419,-0.5212571620941162
-0.0603244788944721,1.273136854171753,-0.1982187032699585,-0.0397915281355381,-0.0079128518700599,-0.1204148903489112,0.0,0.0,-0.932699739933014,-0.3449031114578247
-0.0623680129647254,1.272095799446106,-0.1980566531419754,-0.0463177785277366,-0.0141287948936223,-0.1243191137909889,0.0,0.0,-0.9247069358825684,-0.0216493606567382
-0.0644113570451736,1.2709084749221802,-0.1978362649679184,-0.0528443306684494,-0.0205403547734022,-0.1282313615083694,0.0,0.0,-0.8654829263687134,-0.4761745929718017
-0.0664539337158203,1.269575119018555,-0.1975591778755188,-0.0593711957335472,-0.0271478928625583,-0.1321510076522827,0.0,0.0,-0.9719916582107544,-0.2627468109130859
-0.0684950798749923,1.2680954933166504,-0.1972270905971527,-0.0658983811736106,-0.0339517630636692,-0.1360774338245391,0.0,0.0,-0.9878519773483276,0.2535436153411865
-0.0705343261361122,1.2664698362350464,-0.196841761469841,-0.0724259093403816,-0.0409522727131843,-0.1400099396705627,0.0,0.0,-0.9963037371635436,-0.7903218865394592
-0.0726307854056358,1.2647027969360352,-0.2038751095533371,-0.0787049755454063,-0.0466510765254497,-0.113976165652275,0.0,0.0,-0.988859474658966,0.001158595085144
-0.074724294245243,1.2627894878387451,-0.2033888101577758,-0.0852315574884414,-0.0525470376014709,-0.1179191246628761,0.0,0.0,-0.9904158711433412,0.1685048341751098
-0.07681455463171,1.2607300281524658,-0.2028548717498779,-0.0917584151029586,-0.0586403384804725,-0.1218661665916442,0.0,0.0,-0.952789306640625,0.5372087955474854
-0.0788517966866493,1.258514404296875,-0.1961139291524887,-0.0987911522388458,-0.066174179315567,-0.1506766229867935,0.0,0.0,-0.9918655157089232,0.2842005491256714
-0.0808849334716796,1.2561529874801636,-0.1954907327890396,-0.1053200811147689,-0.0739056468009948,-0.1546293348073959,0.0,0.0,-0.9496877789497375,0.4738363027572632
-0.0829132050275802,1.2536457777023315,-0.1948258280754089,-0.1118493974208831,-0.0818348228931427,-0.1585838496685028,0.0,0.0,-0.9864449501037598,-0.4010391235351562
-0.0849365219473838,1.2509928941726685,-0.1941211968660354,-0.1183790862560272,-0.0899617820978164,-0.1625393182039261,0.0,0.0,-0.9955117702484132,0.049898624420166
-0.0869542136788368,1.2481942176818848,-0.1933788061141967,-0.1249091774225235,-0.0982865393161773,-0.1664949357509613,0.0,0.0,-0.995118260383606,0.1067966222763061
-0.0889661759138107,1.2452501058578491,-0.1926006227731704,-0.1314396560192108,-0.1068090125918388,-0.170449823141098,0.0,0.0,-0.9869344830513,0.0059287548065185
-0.0909718498587608,1.242160439491272,-0.1917885988950729,-0.1379705518484115,-0.1155291721224784,-0.1744030863046646,0.0,0.0,-0.9886918067932128,-0.422934353351593
-0.0929710417985916,1.2389253377914429,-0.1909446567296981,-0.1445018798112869,-0.1244468465447425,-0.1783536821603775,0.0,0.0,-0.981450855731964,0.4589688777923584
-0.0949632674455642,1.2355449199676514,-0.1900707185268402,-0.1510336399078369,-0.1335618793964386,-0.1823006421327591,0.0,0.0,-0.97929710149765,0.2201452255249023
-0.096948429942131,1.2320191860198977,-0.189168632030487,-0.1575658321380615,-0.1428740322589874,-0.1862429082393646,0.0,0.0,-0.9799938201904296,-0.0780310630798339
-0.0989260673522949,1.2283482551574707,-0.1882402598857879,-0.1640984565019607,-0.1523829996585846,-0.1901793628931045,0.0,0.0,-0.9906389713287354,-0.2267406582832336
-0.1008960753679275,1.224532127380371,-0.1872874796390533,,-0.1620884388685226,-0.1941087245941162,0.0,0.0,-0.987989068031311,-0.5565545558929443
-0.1028910651803016,1.2205767631530762,-0.1904394179582595,-0.1768095642328262,-0.1711525470018386,-0.18128202855587,0.0,0.0,-0.998100996017456,-0.6877468824386597
-0.1049402207136154,1.21648907661438,-0.1972755491733551,-0.1825778782367706,-0.1788173764944076,-0.1532963812351226,0.0,0.0,-0.993748903274536,-0.5239154100418091
-0.1070149391889572,1.2122697830200195,-0.2005230188369751,-0.1883772909641266,-0.1857877224683761,-0.1394067108631134,0.0,0.0,-0.9700961709022522,-0.7099412679672241
-0.1091231331229209,1.2079195976257324,-0.2047946751117706,-0.1941121071577072,-0.1918526142835617,-0.1212978214025497,0.0,0.0,-0.9542362689971924,-0.6423974633216858
-0.1112655624747276,1.2034426927566528,-0.2091461718082428,-0.1996421813964843,-0.1969771087169647,-0.1024901643395423,0.0,0.0,-0.9943045377731324,-0.0484540462493896
-0.1133992224931716,1.198819875717163,-0.208080768585205,-0.2061706036329269,-0.2022945582866668,-0.1063491851091384,0.0,0.0,-0.9939934015274048,0.5265557765960693
-0.115480326116085,1.1940330266952517,-0.2015046179294586,-0.2136583924293518,-0.2089555859565735,-0.1332204043865203,0.0,0.0,-0.9879801869392396,-0.8542503118515015
-0.1176286712288856,1.18912935256958,-0.2100364863872528,-0.2186268121004104,-0.2138003408908844,-0.0968951508402824,0.0,0.0,-0.9275819659233092,-0.1816095113754272
-0.1197678595781326,1.184079885482788,-0.2089370787143707,-0.2251552045345306,-0.2188350409269333,-0.1006943807005882,0.0,0.0,-0.991317093372345,-0.7095446586608887
-0.1219501495361328,1.1789029836654663,-0.2144243717193603,-0.2306580245494842,-0.2226850837469101,-0.0770009905099868,0.0,0.0,-0.930914044380188,-0.54721599817276
-0.124165341258049,1.173590064048767,-0.2186009883880615,-0.236571580171585,-0.2256378084421157,-0.0590547621250152,0.0,0.0,-0.9457986950874328,-0.0792948007583618
-0.1263711005449295,1.1681312322616575,-0.2174806147813797,-0.2430988848209381,-0.2287764549255371,-0.0627727061510086,0.0,0.0,-0.8627111911773682,0.0708839893341064
-0.1285675019025802,1.16252601146698,-0.2163562476634979,-0.2496262639760971,-0.2320993244647979,-0.0664577633142471,0.0,0.0,-0.6715418100357056,0.2129536867141723
-0.1307542771100998,1.1567749977111816,-0.2152293473482132,-0.2561537623405456,-0.2356046587228775,-0.0701066330075264,0.0,0.0,-0.867740273475647,-0.5278101563453674
-0.1329692900180816,1.150897741317749,-0.2188756465911865,-0.2616380751132965,-0.238268569111824,-0.0532781295478343,0.0,0.0,-0.6815416812896729,-0.7333903908729553
-0.1352402716875076,1.1448947191238403,-0.2259827405214309,-0.2669782340526581,-0.2394023239612579,-0.0226751379668712,0.0,0.0,-0.821614146232605,0.2092719078063964
-0.1375017166137695,1.1387455463409424,-0.2248558104038238,-0.2735048830509186,-0.240711972117424,-0.0261931531131267,0.0,0.0,-0.3482056856155395,-0.1187536716461181
-0.1397536247968673,1.1324502229690552,-0.223731592297554,-0.2800315618515014,-0.2421949207782745,-0.0296591278165578,0.0,0.0,-0.2296421527862548,0.1517547369003296
-0.1419959962368011,1.1260086297988892,-0.2226113975048065,-0.2865582406520843,-0.2438483387231826,-0.03306819871068,0.0,0.0,-0.0835107564926147,-0.3336507678031921
-0.144228845834732,1.1194210052490234,-0.221496507525444,-0.293084979057312,-0.2456690818071365,-0.0364153087139129,0.0,0.0,-0.2737519145011902,-0.0511342883110046
-0.1464522331953048,1.112687110900879,-0.2203881740570068,-0.2996116578578949,-0.2476538270711898,-0.0396948903799057,0.0,0.0,-0.2469827532768249,-0.8089377880096436
-0.1487224549055099,1.105819582939148,-0.226337119936943,-0.3053423464298248,-0.2483566552400589,-0.0140565037727355,0.0,0.0,0.4236149787902832,0.0108824968338012
-0.15093794465065,1.099241018295288,-0.2205706536769867,-0.2925431430339813,-0.2493417710065841,-0.0197027437388896,0.0,0.0,0.1784868240356445,-0.6157581210136414
-0.1530568152666092,1.0933644771575928,-0.2119954079389572,-0.261163055896759,-0.2492403984069824,0.0020277923904359,0.0,0.0,-0.1479096412658691,-0.3866809606552124
-0.1551665365695953,1.0873416662216189,-0.2109252214431762,-0.2676891982555389,-0.2492864429950714,-0.0009208357078023,0.0,0.0,-0.4656563997268677,-0.3925216197967529
-0.1572670042514801,1.0811725854873655,-0.2098675668239593,-0.2742152512073517,-0.2494749426841735,-0.0037699036765843,0.0,0.0,-0.3812264800071716,-0.2845550775527954
-0.1593585014343261,1.0748571157455444,-0.208823561668396,-0.2807412147521972,-0.2498005330562591,-0.006511767860502,0.0,0.0,-0.1400960683822631,-0.1965912580490112
-0.1614409387111663,1.0683953762054443,-0.2077943533658981,-0.2872670292854309,-0.2502574920654297,-0.0091390218585729,0.0,0.0,0.3094739913940429,-0.1740702390670776
-0.1634793281555175,1.0624799728393557,-0.2028993815183639,-0.2630667388439178,-0.2512111961841583,-0.0190739575773477,0.0,0.0,0.0570894479751586,-0.5075786709785461
-0.165476992726326,1.057079792022705,-0.1996524631977081,-0.2400300055742263,-0.2513248324394226,-0.0022726252209395,0.0,0.0,0.2791581153869629,-0.6918542385101318
-0.1673934906721115,1.0523473024368286,-0.1927938312292099,-0.2101355195045471,-0.2501640617847442,0.0232153944671154,0.0,0.0,0.6315581798553467,-0.6501166224479675
-0.1691183149814605,1.0482879877090454,-0.1750055104494094,-0.1799879074096679,-0.2475859224796295,0.0515629425644874,0.0,0.0,0.5406050682067871,-0.566381573677063
-0.1707775145769119,1.044548749923706,-0.1695312112569809,-0.1655846983194351,-0.24390809237957,0.0735563114285469,0.0,0.0,0.7836418151855469,-0.2674510478973388
-0.172226145863533,1.041259765625,-0.1488511860370636,-0.1455258727073669,-0.2398558408021927,0.0810447633266449,0.0,0.0,0.8257787227630615,-0.5765349864959717
-0.1733921021223068,1.0386980772018433,-0.1221143156290054,-0.112961359322071,-0.2342528253793716,0.1120601668953895,0.0,0.0,0.8330790996551514,0.3352388143539428
-0.1742978990077972,1.0365749597549438,-0.0967439711093902,-0.0933942645788192,-0.2280061244964599,0.1249343007802963,0.0,0.0,0.2793856859207153,0.849998950958252
-0.1750028580427169,1.0351407527923584,-0.0749113410711288,-0.0630705431103706,-0.2235346287488937,0.0894300565123558,0.0,0.0,-0.4486454725265503,0.9477746486663818
-0.1756222695112228,1.0335407257080078,-0.0643296614289283,-0.0707472711801529,-0.2211184054613113,0.0483248457312583,0.0,0.0,0.0588948726654052,0.6414997577667236
-0.1760025024414062,1.0323759317398071,-0.039191760122776,-0.0515953488647937,-0.2199342399835586,0.0236832462251186,0.0,0.0,0.0012270212173461,0.8128814697265625
-0.1762007772922516,1.0313012599945068,-0.0193408988416194,-0.0478377752006053,-0.2204193472862243,-0.0097023006528615,0.0,0.0,-0.0662152767181396,0.8697302341461182
-0.176330953836441,1.0300568342208862,-0.0109360199421644,-0.0556185580790042,-0.2225296944379806,-0.0422067120671272,0.0,0.0,0.2150708436965942,0.7549352645874023
-0.1761856973171234,1.029559850692749,0.018049631267786,-0.0226230788975954,-0.2260942906141281,-0.0712918788194656,0.0,0.0,-0.3308272361755371,0.0135236978530883
-0.1760334968566894,1.028916358947754,0.0187402628362178,-0.0291473008692264,-0.2296639233827591,-0.0713930800557136,0.0,0.0,-0.4525830745697021,-0.0839497447013855
-0.1758746206760406,1.028126239776611,0.0194023493677377,-0.035671342164278,-0.2332288324832916,-0.0712984949350357,0.0,0.0,-0.5455728769302368,-0.0320283770561218
-0.1757092475891113,1.0271893739700315,0.0200354307889938,-0.042195189744234,-0.2367793470621109,-0.0710099637508392,0.0,0.0,-0.6530165076255798,0.3145979642868042
-0.1755375862121582,1.0261057615280151,0.0206391140818595,-0.0487188324332237,-0.2403058558702469,-0.0705301761627197,0.0,0.0,-0.1276159882545471,0.0117294788360595
-0.1753599196672439,1.024875521659851,0.0212130639702081,-0.0552422665059566,-0.2437989711761474,-0.069862775504589,0.0,0.0,-0.0027573704719543,0.4339135885238647
-0.1751762330532074,1.02349853515625,0.0217570140957832,-0.0617654882371425,-0.2472495883703231,-0.0690122470259666,0.0,0.0,-0.0548809766769409,0.2404326200485229
-0.1749869287014007,1.0219746828079224,0.0222707577049732,-0.0682884827256202,-0.2506487369537353,-0.0679838061332702,0.0,0.0,-0.6236377954483032,-0.3140220046043396
-0.1747922003269195,1.0203042030334473,0.0227541532367467,-0.0748112723231315,-0.2539879083633423,-0.0667833164334297,0.0,0.0,-0.389392614364624,0.6787929534912109
-0.1745305061340332,1.0184669494628906,0.0309488233178854,-0.0824892744421958,-0.2588690221309662,-0.0976224094629287,0.0,0.0,0.4837967157363891,-0.6548393964767456
-0.1741716414690017,1.0169546604156494,0.0391868352890014,-0.0678020939230918,-0.2622343599796295,-0.0673072412610054,0.0,0.0,-0.2970274686813354,-0.1926379799842834
-0.1738079041242599,1.015295386314392,0.0395789742469787,-0.0743242874741554,-0.2655158936977386,-0.0656302347779274,0.0,0.0,-0.097374677658081,-0.0334199666976928
-0.1734396964311599,1.0134892463684082,0.0399408638477325,-0.0808462426066398,-0.2687063217163086,-0.0638086348772049,0.0,0.0,-0.4901695251464844,-0.2961921691894531
-0.1730671823024749,1.011535882949829,0.0402726978063583,-0.0873679816722869,-0.2717988193035126,-0.0618498623371124,0.0,0.0,-0.6411392092704773,0.3977435827255249
-0.1726904809474945,1.009435534477234,0.0405747331678867,-0.0938894972205162,-0.27478688955307,-0.0597612671554088,0.0,0.0,-0.3111112713813782,0.0831717252731323
-0.1723100692033767,1.0071882009506226,0.0408472828567028,-0.1004107967019081,-0.2776643931865692,-0.0575502887368202,0.0,0.0,0.0237643718719482,0.1553572416305542
-0.1717560738325119,1.0054823160171509,0.0579154379665851,-0.0762979686260223,-0.2802517116069793,-0.0517464093863964,0.0,0.0,-0.6168175339698792,-0.7769806385040283
-0.1712505370378494,1.0036476850509644,0.051634132862091,-0.0817514881491661,-0.2813556790351867,-0.0220793131738901,0.0,0.0,-0.7911548018455505,-0.2505260705947876
-0.1707418411970138,1.0016655921936035,0.0518209747970104,-0.0882717370986938,-0.2823328673839569,-0.0195438507944345,0.0,0.0,-0.8892279863357544,0.1256812810897827
-0.1702301949262619,0.9995365738868712,0.0519802160561084,-0.0947918444871902,-0.2831785678863525,-0.0169137641787529,0.0,0.0,-0.6595228314399719,-0.5893280506134033
-0.1697622239589691,0.9972798228263856,0.0462837070226669,-0.1001968011260032,-0.28264981508255,0.0105748930945992,0.0,0.0,-0.1811616420745849,-0.4274162054061889
-0.1692918837070465,0.9948758482933044,0.0463896691799163,-0.1067166402935981,-0.2819810509681701,0.0133754555135965,0.0,0.0,-0.7121293544769287,0.2233331203460693
-0.1688192337751388,0.9923245310783386,0.0464700497686862,-0.1132364124059677,-0.2811684310436249,0.0162525400519371,0.0,0.0,-0.1319172382354736,-0.1432020664215088
-0.1683445870876312,0.9896259903907776,0.0465256348252296,-0.1197561249136924,-0.28020840883255,0.0192007068544626,0.0,0.0,-0.0111271142959594,-0.1399627327919006
-0.1678682267665863,0.9867801070213318,0.0465572662651538,-0.1262758076190948,-0.2790976762771606,0.0222147852182388,0.0,0.0,-0.433633029460907,-0.1065872311592102
