x_pos,y_pos,x_vel,y_vel,angle,ang_vel,leg_1,leg_2,main_booster,lat_booster
-0.0014633178943768,1.403339385986328,-0.1484538614749908,-0.3369213044643402,0.0019037725869566,0.0375640615820884,0.0,0.0,-0.9327956235420296,0.8684224900889475
-0.0027960776351392,1.395492672920227,-0.1334487348794937,-0.3487406969070434,0.0020666231866925,0.0032577954698354,0.0,0.0,0.8035271047477985,0.9433821861894888
-0.0038413046859204,1.388015866279602,-0.103268064558506,-0.3323037326335907,0.0008238209411501,-0.0248584784567356,0.0,0.0,-0.2885905613336852,-0.6189969294579614
-0.0048972130753099,1.38025164604187,-0.1059912592172622,-0.3450774550437927,0.0012198978802189,0.0079224565997719,0.0,0.0,-0.2867473480737936,-0.5976982310184721
-0.0059472084976732,1.372204065322876,-0.1065189018845558,-0.3576662242412567,0.0027183333877474,0.0299715809524059,0.0,0.0,-0.8271752598052458,-0.7805796179857429
-0.0070067406632006,1.3638702630996704,-0.1088472232222557,-0.3703980445861816,0.0055841580033302,0.0573219656944274,0.0,0.0,-0.6651510453497289,0.8549120015060525
-0.0079684257507324,1.355252027511597,-0.0975953862071037,-0.383039265871048,0.0069948714226484,0.0282168593257665,0.0,0.0,-0.9403942569844436,-0.5742421325795545
-0.0089360233396291,1.346350073814392,-0.0992338806390762,-0.3956561386585235,0.0094372946768999,0.0488533079624176,0.0,0.0,-0.8719496624779375,0.6001880666514686
-0.0098343845456838,1.3371703624725342,-0.0913100391626358,-0.4080013036727905,0.0108896000310778,0.0290486477315425,0.0,0.0,0.7894880083566105,-0.5488104416653303
-0.0107677457854151,1.3288884162902832,-0.0960717946290969,-0.3681115806102752,0.0136035270988941,0.0542835779488086,0.0,0.0,0.2757731838510431,-0.512641065226111
-0.0116626741364598,1.321010708808899,-0.0936124622821807,-0.3501581251621246,0.0176800563931465,0.0815381333231926,0.0,0.0,0.0671086831720753,-0.5514302228851771
-0.012548828497529,1.3133591413497925,-0.0941081866621971,-0.3401445150375366,0.0231146290898323,0.1087011471390724,0.0,0.0,-0.9639629714649424,-0.9533520984908972
-0.0134916305541992,1.3054258823394775,-0.1014543175697326,-0.352717250585556,0.0302078463137149,0.1418774724006652,0.0,0.0,-0.6717201722638386,0.678515269108987
-0.014377498999238,1.2972044944763184,-0.0944248884916305,-0.3655208051204681,0.0359789244830608,0.1154322028160095,0.0,0.0,0.1230407611155102,0.61759491054156
-0.0151355741545557,1.28955340385437,-0.0807494893670082,-0.3401766121387481,0.0408674366772174,0.0977788865566253,0.0,0.0,0.944220867506391,0.8623354681167972
-0.0157111175358295,1.282144546508789,-0.0612437613308429,-0.3293957710266113,0.0445190891623497,0.0730394572019577,0.0,0.0,-0.970279365703439,0.9860301700047852
-0.0162089355289936,1.2744684219360352,-0.0512258633971214,-0.3412037491798401,0.0459413714706897,0.0284482333809137,0.0,0.0,-0.0181358197537417,0.6450440539979088
-0.01666603051126,1.2665061950683594,-0.0457176640629768,-0.353875458240509,0.0459589473903179,0.0003513419651426,0.0,0.0,-0.0268721796635527,0.6458369336287839
-0.0170907974243164,1.2582693099975586,-0.0411693751811981,-0.3660482466220855,0.0446626208722591,-0.0259290691465139,0.0,0.0,-0.4209198527652864,-0.6409172334284157
-0.0176041610538959,0.0,-0.0516627132892608,-0.3789484202861786,0.0449862591922283,0.0064736092463135,0.0,0.0,0.1735432222701429,-0.7677831476385509
-0.0181344989687204,1.2417410612106323,-0.05518264696002,-0.355722963809967,0.0471077524125576,0.0424336120486259,0.0,0.0,-0.096181430716042,0.8168035237931373
-0.0186387058347463,1.233453631401062,-0.0510735921561718,-0.3683480024337768,0.0477461405098438,0.0127695109695196,0.0,0.0,0.464095859618169,0.5167101742213216
-0.0190452579408884,1.2256152629852295,-0.0407477729022502,-0.3483713865280151,0.0478420332074165,0.0019179622177034,0.0,0.0,-0.0502699784948135,0.7662636037819219
-0.0194314960390329,1.2174882888793943,-0.0371734425425529,-0.3611569404602051,0.0464061312377452,-0.0287206321954727,0.0,0.0,-0.3674319093576286,-0.9513267255160112
-0.0199620239436626,1.209072470664978,-0.0541284270584583,-0.3740703463554382,0.0474746823310852,0.0213729459792375,0.0,0.0,0.6131454741382405,-0.8311634052476997
-0.0208030696958303,1.201368808746338,-0.0867669433355331,-0.3424733579158783,0.0500992350280284,0.0524911172688007,0.0,0.0,-0.5069616397567565,0.5918357183418503
-0.0216553695499897,1.1933876276016235,-0.0868427157402038,-0.3547823131084442,0.0516960173845291,0.0319357030093669,0.0,0.0,-0.3177063225314447,-0.9685733556322588
-0.0226624496281147,1.1851242780685425,-0.1048484072089195,-0.3674092888832092,0.0557901971042156,0.0818834975361824,0.0,0.0,-0.5052066854785644,-0.8535299403196306
-0.0238161087036132,1.1765763759613037,-0.1217480897903442,-0.3801511824131012,0.0620985627174377,0.1261675655841827,0.0,0.0,0.5028046116027602,0.70958226910922
-0.025029182434082,1.168408751487732,-0.1263753324747085,-0.3632266819477081,0.0670996531844139,0.1000219359993934,0.0,0.0,0.204737025028485,-0.5174021315143127
-0.0263798721134662,1.1608836650848389,-0.1413280367851257,-0.3347391784191131,0.0732987001538276,0.1239812523126602,0.0,0.0,-0.9875372052192688,0.8866546154022217
-0.0277416221797466,1.1530756950378418,-0.1410239785909652,-0.3472673594951629,0.0780938938260078,0.0959038138389587,0.0,0.0,-0.9794334173202516,0.8701807260513306
-0.0291193015873432,1.1449979543685913,-0.1412326693534851,-0.3591893315315246,0.0815173089504242,0.0684683993458747,0.0,0.0,-0.9219890832901,0.9528510570526124
-0.0305063240230083,1.136635184288025,-0.140572041273117,-0.371784508228302,0.0833657160401344,0.0369679555296897,0.0,0.0,-0.77542644739151,0.9211376905441284
-0.031898021697998,1.1279985904693604,-0.1392436176538467,-0.3838482201099396,0.0834417268633842,0.0015199843328446,0.0,0.0,-0.8183926343917847,0.9922680854797364
-0.0332906730473041,1.1190948486328125,-0.1373824477195739,-0.3956246972084045,0.0815848261117935,-0.0371380150318145,0.0,0.0,-0.4227620363235473,0.941354513168335
-0.0346948616206646,1.1099101305007937,-0.1368376016616821,-0.4080226123332977,0.0780345201492309,-0.0710061937570571,0.0,0.0,-0.7711776494979858,0.9177732467651368
-0.0361071601510047,1.100456714630127,-0.1357718557119369,-0.419876754283905,0.0726300254464149,-0.1080900579690933,0.0,0.0,-0.9969462752342224,0.8616492748260498
-0.0375427231192588,1.0907354354858398,-0.1365545094013214,-0.4317376315593719,0.0657031908631324,-0.1385369002819061,0.0,0.0,-0.968540906906128,-0.0113312602043151
-0.0390661247074604,1.0807297229766846,-0.145411342382431,-0.4444113075733185,0.0588527582585811,-0.1370086818933487,0.0,0.0,-0.928786039352417,0.8413705825805664
-0.0406243316829204,1.0704516172409058,-0.1475679576396942,-0.4565005898475647,0.0506918840110302,-0.1632177382707595,0.0,0.0,-0.9714330434799194,0.6223253011703491
-0.0422138199210166,1.059892654418945,-0.1492413580417633,-0.4689865708351135,0.0411003269255161,-0.1918311864137649,0.0,0.0,-0.9882808923721312,0.2167966365814209
-0.0438951477408409,1.0490500926971436,-0.1584708541631698,-0.4816636741161346,0.0315624885261058,-0.1907569468021392,0.0,0.0,-0.9782481789588928,0.8197040557861328
-0.0455937385559082,1.0379257202148438,-0.1583263576030731,-0.4942156374454498,0.0201717559248209,-0.2278150022029876,0.0,0.0,-0.936583936214447,-0.2905772924423218
-0.0473863594233989,1.0265181064605713,-0.1677600145339965,-0.5068957805633545,0.0088198259472846,-0.2270385771989822,0.0,0.0,-0.9713594317436218,0.4341421127319336
-0.0492739677429199,1.0148271322250366,-0.1772839725017547,-0.519575834274292,-0.0025005843490362,-0.2264083623886108,0.0,0.0,-0.9851515889167786,0.2516744136810303
-0.0512573234736919,1.0028527975082395,-0.1868907958269119,-0.5322557687759399,-0.0137966619804501,-0.2259216755628585,0.0,0.0,-0.9993343353271484,0.870455265045166
-0.0532811172306537,0.9906034469604492,-0.1895351707935333,-0.5445849299430847,-0.0264829844236373,-0.2537264227867126,0.0,0.0,-0.9978266358375548,0.5201847553253174
-0.0553701408207416,0.9780746102333068,-0.1952530294656753,-0.5571345686912537,-0.0399650372564792,-0.2696413099765777,0.0,0.0,-0.9984201788902284,0.5599989891052246
-999.0,0.9652589559555054,-0.1997112929821014,-0.570033609867096,-0.0545183755457401,-0.291066437959671,0.0,0.0,-0.9995503425598145,0.267461895942688
-0.0597575195133686,0.952161192893982,-0.2095834910869598,-0.5827205777168274,-0.0690741911530494,-0.2911163866519928,0.0,0.0,-0.9987499117851256,0.7214605808258057
-0.0620479583740234,0.9387809038162231,-0.2130211591720581,-0.5954921245574951,-0.0849367156624794,-0.3172503113746643,0.0,0.0,-0.9988436698913574,0.6822066307067871
-0.064374640583992,0.9251073598861694,-0.2150368243455886,-0.6088033318519592,-0.1024210304021835,-0.3496861159801483,0.0,0.0,-0.9901607632637024,0.8352196216583252
-0.0667347908020019,0.9111508727073668,-0.2167011499404907,-0.6217256784439087,-0.1215972378849983,-0.3835245072841644,0.0,0.0,-0.9935519695281982,0.4649410247802734
-0.06919527053833,0.8969141244888306,-0.226748988032341,-0.6344255805015564,-0.1407993286848068,-0.38404181599617,0.0,0.0,-0.8820013999938965,0.6979537010192871
-999.0,0.882384717464447,-0.2310829162597656,-0.6478081941604614,-0.1612080186605453,-0.4081740379333496,0.0,0.0,-0.7483043074607849,0.0981689691543579
-0.0743265151977539,0.8675757646560669,-0.2411893159151077,-0.660512387752533,-0.1816530376672744,-0.4089003205299377,0.0,0.0,0.3538215160369873,0.1828129291534423
-0.0768324881792068,0.8532717823982239,-0.2307304441928863,-0.6382771730422974,-0.2016162574291229,-0.3992647230625152,0.0,0.0,0.1705751419067382,-0.5262292623519897
-0.0793057456612587,0.8395459055900574,-0.2286621034145355,-0.6127042770385742,-0.2204505950212478,-0.3766871988773346,0.0,0.0,-0.6333839893341064,0.2230600118637085
-0.0818802863359451,0.8255394697189331,-0.2388201653957367,-0.6254035234451294,-0.239335611462593,-0.3777008652687073,0.0,0.0,0.4819393157958984,-0.0509036779403686
-0.0844327956438064,0.8117203116416931,-0.2368600368499755,-0.6172816753387451,-0.25806325674057,-0.3745535612106323,0.0,0.0,0.4652856588363647,-0.1326092481613159
-0.0870140045881271,0.798557460308075,-0.2393495142459869,-0.5884388089179993,-0.2772614955902099,-0.3839647471904754,0.0,0.0,-0.0650791525840759,-0.6887619495391846
-0.0897382721304893,0.7851300835609436,-0.2547856271266937,-0.6002212166786194,-0.2954142391681671,-0.3630546331405639,0.0,0.0,-0.0930779576301574,-0.4699783325195312
-0.0925638228654861,0.7714222073554993,-0.264954537153244,-0.612918496131897,-0.313633918762207,-0.3643936514854431,0.0,0.0,0.8049657344818115,-0.8878459334373474
-0.0954146385192871,0.7580799460411072,-0.2692456543445587,-0.5964997410774231,-0.3301052451133728,-0.3294258713722229,0.0,0.0,-0.3168603777885437,-0.6454815864562988
-0.0984247177839279,0.7444862723350525,-0.2867007255554199,-0.6075063347816467,-0.3450597822666168,-0.2990910708904266,0.0,0.0,0.1197121143341064,0.1876187324523925
-0.1013261824846267,0.731421947479248,-0.2759058773517608,-0.5841204524040222,-0.3600244522094726,-0.2992935180664062,0.0,0.0,0.0887407064437866,-0.2104622721672058
-0.1042101830244064,0.7183177471160889,-0.2744022905826568,-0.5859964489936829,-0.3748193979263305,-0.2958986461162567,0.0,0.0,-0.1313096284866333,-0.4576103687286377
-0.107194997370243,0.7049314379692078,-0.2844905257225036,-0.5986852049827576,-0.3896976709365845,-0.2975660860538482,0.0,0.0,0.1031280755996704,-0.5966286063194275
-0.1102692633867263,0.6917660236358643,-0.2944914698600769,-0.588737428188324,-0.4035319089889526,-0.2766854166984558,0.0,0.0,0.7350138425827026,-0.2220304012298584
-0.1132532134652137,0.679356038570404,-0.2850487828254699,-0.5554206967353821,-0.4179011881351471,-0.287384957075119,0.0,0.0,0.6511836051940918,-0.5267956256866455
-0.1160921081900596,0.6675226092338562,-0.2716340124607086,-0.5296198725700378,-0.4311809539794922,-0.2655958533287048,0.0,0.0,0.3355756998062134,-0.8599853515625
-0.1189116463065147,0.6564620137214661,-0.2712298333644867,-0.4949118196964264,-0.4428512156009674,-0.2334050387144088,0.0,0.0,0.5006437301635742,-0.8777914047241211
-0.1216000542044639,0.6458250284194946,-0.2598336935043335,-0.4756290018558502,-0.4527019560337066,-0.1970150172710418,0.0,0.0,0.8644587993621826,-0.8147251605987549
-0.1242911368608474,0.6355635523796082,-0.2615227103233337,-0.4585530161857605,-0.4610386490821838,-0.1667340248823166,0.0,0.0,0.9594861268997192,-0.4088263511657715
-0.1268369704484939,0.625482439994812,-0.2472881376743316,-0.450492650270462,-0.4691025614738464,-0.1612783074378967,0.0,0.0,0.9263920783996582,-0.8957688808441162
-0.1294035017490387,0.6157140135765076,-0.2509022653102875,-0.4361073672771454,-0.475475937128067,-0.1274676620960235,0.0,0.0,0.8262598514556885,-0.5281756520271301
-0.1317102462053299,0.6068702340126038,-0.2258197963237762,-0.3947327435016632,-0.4808650612831116,-0.1077822670340538,0.0,0.0,0.9727118015289308,-0.4661914110183716
-0.1335785835981369,0.5989714860916138,-0.1823024600744247,-0.3526448309421539,-0.4859176576137543,-0.1010510697960853,0.0,0.0,0.9718921184539796,-0.7869141697883606
-0.1352680176496505,0.592234194278717,-0.1655385792255401,-0.3006382882595062,-0.489721417427063,-0.0760750621557235,0.0,0.0,0.9562289714813232,-0.375302791595459
-0.1370037049055099,0.5858399271965027,-0.1694453507661819,-0.2856611311435699,-0.4943421483039856,-0.0924145430326461,0.0,0.0,0.984455943107605,-0.3968129158020019
-0.1383410394191742,0.580380916595459,-0.1297174990177154,-0.2440761476755142,-0.4988484680652618,-0.0901266783475875,0.0,0.0,0.9896466732025146,-0.7501864433288574
-0.1396079957485199,0.5756871700286865,-0.1237311735749244,-0.2096907496452331,-0.5021820068359375,-0.066671073436737,0.0,0.0,0.9612812995910645,-0.4384527206420898
-0.1406376808881759,0.5718141198158264,-0.0996484532952308,-0.1733555048704147,-0.5059288144111633,-0.0749355852603912,0.0,0.0,0.883201003074646,-0.7295407056808472
-0.141434758901596,0.5687580704689026,-0.0776263922452926,-0.1365948468446731,-0.5082748532295227,-0.046920858323574,0.0,0.0,0.8789408206939697,-0.9466206431388856
-0.1419693976640701,0.5662586092948914,-0.0532101765275001,-0.1111827418208122,-0.5085656642913818,-0.0058161159977316,0.0,0.0,0.7019281387329102,-0.9403518438339232
-0.1424658745527267,0.5639625191688538,-0.0510631278157234,-0.1015236675739288,-0.5069640874862671,0.0320311114192009,0.0,0.0,0.2680234909057617,-0.9334505200386048
-0.1428951323032379,0.5617745518684387,-0.0460098050534725,-0.0961081162095069,-0.5034916996955872,0.0694481879472732,0.0,0.0,-0.1717242002487182,-0.9341999888420104
-0.1434605568647384,0.559342086315155,-0.0608495399355888,-0.1065345928072929,-0.4986462593078613,0.0969089716672897,0.0,0.0,0.5789927244186401,-0.7755803465843201
-0.1438580453395843,0.5570549964904785,-0.0456242859363555,-0.0995333418250083,-0.4920541644096374,0.1318415999412536,0.0,0.0,0.1354075670242309,-0.8423396944999695
-0.144156739115715,0.5552219152450562,-0.0372510813176631,-0.0788540840148925,-0.4837983548641205,0.1651160567998886,0.0,0.0,-0.002739131450653,-0.8986970782279968
-0.1445958167314529,0.5531579852104187,-0.0528452284634113,-0.0886356383562088,-0.4738586843013763,0.198793351650238,0.0,0.0,0.3076924085617065,-0.916700541973114
-0.1448379456996917,0.551490306854248,-0.0348807051777839,-0.0705187246203422,-0.462051510810852,0.2361427992582321,0.0,0.0,-0.4265981316566467,-0.8287478685379028
-0.1452115029096603,0.5495684742927551,-0.0492976643145084,-0.0815114751458168,-0.4489322602748871,0.2623851597309112,0.0,0.0,-0.5755245685577393,-0.7756637334823608
-0.1457242965698242,0.5474056005477905,-0.0647841393947601,-0.0918610468506813,-0.4341752827167511,0.2951392829418182,0.0,0.0,-0.3114051222801208,-0.3700005412101745
-0.1463144272565841,0.5449609160423279,-0.0724983364343643,-0.1045509725809097,-0.4195383191108703,0.2927387058734894,0.0,0.0,-0.4271671772003174,-0.5790389776229858
-0.1470232903957367,0.5422632694244385,-0.0855151265859603,-0.1156253144145011,-0.4037733972072601,0.315298467874527,0.0,0.0,-0.0049026012420654,0.2830747365951538
-0.147806167602539,0.5392842888832092,-0.0928994566202163,-0.128317579627037,-0.3881289362907409,0.3128887712955475,0.0,0.0,-0.5984838604927063,0.2585279941558838
-0.1486613303422927,0.5360239148139954,-0.1001096218824386,-0.1410095244646072,-0.3726051449775696,0.3104758560657501,0.0,0.0,-0.6578953266143799,-0.0013456940650939
-0.1495869606733322,0.5324819684028625,-0.1071403622627258,-0.1537011563777923,-0.3572021424770355,0.3080599308013916,0.0,0.0,-0.6213862895965576,0.0106685161590576
-0.1505814492702484,0.528658390045166,-0.113986536860466,-0.1663924753665924,-0.3419200778007507,0.3056413531303406,0.0,0.0,-0.3581803441047668,0.2653589248657226
-0.1516428887844085,0.5245532393455505,-0.1206432431936264,-0.179083451628685,-0.3267590403556824,0.3032204806804657,0.0,0.0,-0.0792425870895385,0.0901192426681518
-0.1527693718671798,0.5201664566993713,-0.1271057873964309,-0.1917741000652313,-0.31171914935112,0.3007977902889251,0.0,0.0,-0.861799418926239,-0.7439455389976501
-0.1540286988019943,0.5155304074287415,-0.1421971768140792,-0.202646404504776,-0.2949072122573852,0.3362388610839844,0.0,0.0,-0.8176224827766418,-0.0996731519699096
-0.1553491652011871,0.5106134414672852,-0.1482605040073394,-0.2153411656618118,-0.2782165706157684,0.3338126242160797,0.0,0.0,-0.8664294481277466,0.4089117050170898
-0.1567284613847732,0.5054152607917786,-0.1541169434785843,-0.2280355393886566,-0.2616472244262695,0.3313867747783661,0.0,0.0,-0.8862547278404236,-0.1567225456237793
-0.1581647843122482,0.4999359548091888,-0.1597629487514495,-0.2407295554876327,-0.2451991289854049,0.328961968421936,0.0,0.0,-0.7700700163841248,-0.3400520086288452
-0.1596559584140777,0.4941754937171936,-0.1651952862739563,-0.2534231543540954,-0.2288721799850464,0.3265389800071716,0.0,0.0,-0.0688380002975463,-0.0737781524658203
-0.1611998528242111,0.4881337285041809,-0.1704111993312835,-0.2661163806915283,-0.212666243314743,0.3241187036037445,0.0,0.0,-0.4128118753433227,0.6928765773773193
-0.1627342253923416,0.4817908406257629,-0.1678277552127838,-0.2798976302146911,-0.1981518417596817,0.2902882695198059,0.0,0.0,-0.8803002238273621,0.6773357391357422
-0.1642643958330154,0.4751567840576172,-0.1659970581531524,-0.2931628227233886,-0.1850977391004562,0.2610822319984436,0.0,0.0,-0.5046926140785217,0.9651775360107422
-0.1657573729753494,0.4682249426841736,-0.1600732207298278,-0.3067713379859924,-0.1742899566888809,0.2161556929349899,0.0,0.0,0.9232172966003418,0.9881229400634766
-0.1670232713222503,0.4617457985877991,-0.1354372799396515,-0.2869461178779602,-0.1654168963432312,0.177461177110672,0.0,0.0,-0.3500900268554687,0.9967321157455444
-0.1682690680027008,0.4549689590930938,-0.1317403316497802,-0.3004146814346313,-0.1582530885934829,0.1432761996984481,0.0,0.0,-0.7988338470458984,0.9951022863388062
-0.1694938689470291,0.4478905797004699,-0.1279666721820831,-0.314021497964859,-0.1527769416570663,0.109523132443428,0.0,0.0,-0.6942864656448364,0.314760684967041
-0.1707563400268554,0.4405277967453003,-0.1316210329532623,-0.3266946971416473,-0.1474190801382064,0.1071573123335838,0.0,0.0,-0.275764524936676,0.9891388416290284
-0.1719738990068435,0.4328606128692627,-0.1249342709779739,-0.3404514193534851,-0.1442433893680572,0.0635139867663383,0.0,0.0,0.7223048210144043,0.90899920463562
-0.1729503571987152,0.4254087209701538,-0.0991203933954238,-0.3310525119304657,-0.1427709013223648,0.0294495467096567,0.0,0.0,-0.7931073904037476,0.9217202663421632
-0.1738736182451248,0.4176580011844635,-0.0915439873933792,-0.3445515036582947,-0.1435534209012985,-0.0156505089253187,0.0,0.0,-0.7824155688285828,0.9956568479537964
-0.17474365234375,0.4096143841743469,-0.0840314403176307,-0.3577838242053985,-0.146519735455513,-0.0593264587223529,0.0,0.0,-0.9700015783309937,0.9945640563964844
