x_pos,y_pos,x_vel,y_vel,angle,ang_vel,leg_1,leg_2,main_booster,lat_booster
-0.0015086174244061,1.403473973274231,-0.1528580337762832,-0.3309381306171417,0.0017905359854921,0.0353218428790569,0.0,0.0,-0.0454804743639631,-0.7968465133833555
-0.0030625343788415,1.395896553993225,-0.1586470454931259,-0.3367794156074524,0.0050116819329559,0.0644297376275062,0.0,0.0,0.3186390488822659,-0.8811362018172872
-0.0045562745071947,1.388646125793457,-0.1545754969120025,-0.3222680985927582,0.0101443901658058,0.1026637926697731,0.0,0.0,0.6394456325063427,0.7245912163497119
-0.0061217308975756,1.3819855451583862,-0.1600459218025207,-0.2960557341575622,0.0136102316901087,0.0693235099315643,0.0,0.0,-0.0382085706941532,0.8427874174560199
-0.007603645324707,1.3751786947250366,-0.1497115641832351,-0.3025394678115845,0.0151137681677937,0.0300734676420688,0.0,0.0,-0.2871035935777604,0.7367802078611854
-0.0090142246335744,1.3682219982147217,-0.1408343613147735,-0.3091816306114197,0.0148971648886799,-0.0043324092403054,0.0,0.0,0.4123110693328879,-0.7727661285315119
-0.0105169294402003,1.3618535995483398,-0.1516565382480621,-0.2830595672130584,0.0162538886070251,0.0271371193230152,0.0,0.0,0.2201997641746191,-0.7452346974069363
-0.0119668003171682,1.3560550212860107,-0.1480965316295623,-0.2577524781227112,0.0193326044827699,0.0615800432860851,0.0,0.0,-0.2579554699966813,0.9441763555378097
-0.0133521081879735,1.3501182794570925,-0.1398835331201553,-0.2638703286647796,0.0206729359924793,0.0268088933080434,0.0,0.0,-0.1907594748357723,0.8506464697486099
-0.0146812442690134,1.344038724899292,-0.132677674293518,-0.2702041268348694,0.0204361211508512,-0.0047366013750433,0.0,0.0,0.4882388972180647,0.989869581882236
-0.0158679001033306,1.3386175632476809,-0.1166398972272872,-0.2409153282642364,0.0184405911713838,-0.0399145819246768,0.0,0.0,-0.2778317807339732,-0.970118812118909
-0.0171377174556255,1.3330419063568115,-0.1267970949411392,-0.2478031665086746,0.0182673819363117,-0.0034645225387066,0.0,0.0,-0.8889330854259958,-0.6519846480463377
-0.0184658057987689,1.3273180723190308,-0.1338040977716446,-0.2544015347957611,0.0192398075014352,0.019450481981039,0.0,0.0,0.0369167180711036,0.9491382128928504
-0.0196919441223144,1.3217731714248655,-0.121820792555809,-0.2464383244514465,0.0184622649103403,-0.0155523745343089,0.0,0.0,-0.1945523199643137,0.9556338433029536
-0.0208477023988962,1.3160899877548218,-0.1125802397727966,-0.252546101808548,0.0154983848333358,-0.0592831559479236,0.0,0.0,-0.1536433702668953,-0.9556898320524626
-0.0220896713435649,1.3102439641952517,-0.1229406744241714,-0.2598124742507934,0.0142494337633252,-0.0249811951071023,0.0,0.0,-0.016666488077661,0.8810584712407881
-0.0232730861753225,1.3042596578598022,-0.1150824204087257,-0.2659427523612976,0.0110220639035105,-0.0645534396171569,0.0,0.0,0.3294951228764777,0.6164961870838149
-0.0243136398494243,1.298574924468994,-0.0999887138605117,-0.2526290714740753,0.0070016793906688,-0.0804148167371749,0.0,0.0,-0.9164919242073,-0.6455466570770482
-0.0254275314509868,1.292745590209961,-0.1085973605513572,-0.259076178073883,0.004246465396136,-0.0551088266074657,0.0,0.0,0.4670510172144089,0.9162261211346924
-0.0265846252441406,1.2875192165374756,-0.1111968755722045,-0.2322751581668853,-0.0002204946358688,-0.0893475860357284,0.0,0.0,-0.5801417315874509,-0.7896807507605451
-0.0278247836977243,1.2821482419967651,-0.1209680438041687,-0.2387134283781051,-0.0032409883569926,-0.0604148879647254,0.0,0.0,-0.8285226685983074,-0.6204435306007368
-0.029148768633604,1.2766236066818235,-0.1307746469974517,-0.2455427497625351,-0.0048361257649958,-0.0319055803120136,0.0,0.0,0.88108892577037,0.9036627734111278
-0.0302719119936227,0.0,-0.109426125884056,-0.2110390216112136,-0.0077008828520774,-0.0573005154728889,0.0,0.0,-0.5004427542564498,-0.704264574295961
-0.0314828865230083,1.2669694423675537,-0.1196873635053634,-0.2180513888597488,-0.0090926317498087,-0.0278371423482894,0.0,0.0,-0.9047467388253634,-0.788381528364819
-0.0328106880187988,1.2619162797927856,-0.1335815489292144,-0.2245805412530899,-0.0083042765036225,0.0157683677971363,0.0,0.0,0.16371290076524,0.7899164788759065
-0.0342308990657329,1.2574398517608645,-0.1413802504539489,-0.1989535242319107,-0.0089299464598298,-0.0125134317204356,0.0,0.0,-0.447640876000386,0.7299968052860042
-0.0356350913643837,1.252816915512085,-0.138566642999649,-0.2054802626371383,-0.0107569117099046,-0.0365393050014972,0.0,0.0,0.7007906917109972,0.8105330069802112
-0.0371575355529785,1.2493274211883545,-0.1487625390291214,-0.155109018087387,-0.0142009295523166,-0.0688805654644966,0.0,0.0,-0.2731508084468497,-0.7846932357288685
-0.0387998595833778,1.2456958293914795,-0.1629401743412017,-0.1614179909229278,-0.0154715608805418,-0.0254128035157918,0.0,0.0,-0.6518022764517613,0.7537725654974932
-0.0404297821223735,1.241909742355347,-0.1605239659547805,-0.1683044582605362,-0.0179074201732873,-0.0487171933054924,0.0,0.0,-0.1444571215162415,0.921773815976042
-0.042030431330204,1.2379813194274902,-0.1559703052043914,-0.1746411621570587,-0.0219441503286361,-0.0807345360517501,0.0,0.0,0.6408308450331912,-0.926830624314457
-0.0438283905386924,1.2345552444458008,-0.1777515560388565,-0.1522998362779617,-0.0239620581269264,-0.040358331054449,0.0,0.0,0.8928469300782755,0.8757965885479323
-0.0456864349544048,1.232365608215332,-0.1821008026599884,-0.097385749220848,-0.0276181381195783,-0.0731218308210372,0.0,0.0,-0.3360013894792628,0.9932461750653692
-0.0475225448608398,1.230013728141785,-0.1784244775772094,-0.1046353802084922,-0.0327335409820079,-0.1023080348968505,0.0,0.0,-0.1910707716865467,-0.60787687049338
-0.0494539253413677,1.2275148630142212,-0.189475268125534,-0.1111383289098739,-0.0363583974540233,-0.0724970623850822,0.0,0.0,-0.8739447560486386,-0.623512450424786
-0.0514822974801063,1.2248728275299072,-0.200702503323555,-0.1174714416265487,-0.0384601429104805,-0.0420349575579166,0.0,0.0,-0.6247359335735767,0.7226814886228126
-0.0535055175423622,1.222073674201965,-0.199139654636383,-0.1244969815015792,-0.0416122786700725,-0.0630424618721008,0.0,0.0,0.6040985486197867,0.9473984334862944
-0.0554311759769916,1.220231533050537,-0.1878563463687896,-0.0820054113864898,-0.046265996992588,-0.0930742248892784,0.0,0.0,-0.2517862195080165,-0.948224663363681
-0.0574866309762001,1.2182551622390747,-0.2032052278518676,-0.0879150331020355,-0.0485727600753307,-0.0461353808641433,0.0,0.0,0.9086651437785442,-0.9536709925555787
-0.0595975890755653,1.21718430519104,-0.2110848873853683,-0.0475930608808994,-0.048579778522253,-0.0001403543137712,0.0,0.0,0.4614146237118595,0.7708041290575917
-0.0617695823311805,1.2170042991638184,-0.2158304750919342,-0.0080399345606565,-0.0499398931860923,-0.02720233425498,0.0,0.0,-0.444707989692688,-0.3383044600486755
-0.063992403447628,1.2166738510131836,-0.2212572395801544,-0.0147246392443776,-0.0509511902928352,-0.0202260501682758,0.0,0.0,-0.5399501323699951,-0.4694803953170776
-0.0662660598754882,1.2161927223205566,-0.2266934812068939,-0.0214092265814542,-0.051609668880701,-0.0131695521995425,0.0,0.0,-0.4348278045654297,-0.1314643025398254
-0.068590447306633,1.215560793876648,-0.2321333140134811,-0.0280937310308218,-0.0519115477800369,-0.006037495099008,0.0,0.0,-0.8129196166992188,0.1535650491714477
-0.0709655731916427,1.214778184890747,-0.2375708520412445,-0.0347781814634799,-0.0518532805144786,0.0011655524140223,0.0,0.0,-0.7393829822540283,-0.4038807153701782
-0.073391243815422,1.213844895362854,-0.2430003881454467,-0.0414626076817512,-0.0514315329492092,0.0084351543337106,0.0,0.0,-0.8193108439445496,0.2436685562133789
-0.0758673697710037,1.2127610445022583,-0.2484161853790283,-0.0481470488011837,-0.0506432056427001,0.0157666858285665,0.0,0.0,-0.8378446698188782,-0.0965152978897094
-0.0783938392996788,1.2115265130996704,-0.2538127303123474,-0.0548315420746803,-0.0494854263961315,0.0231559090316295,0.0,0.0,-0.8729957938194275,0.5651154518127441
-0.0809351950883865,1.2101434469223022,-0.2547981441020965,-0.0614389404654502,-0.0488313734531402,0.0130806537345051,0.0,0.0,-0.8318197727203369,-0.1021744012832641
-0.0835262313485145,1.208609938621521,-0.2601397633552551,-0.068123459815979,-0.0478027537465095,0.0205723922699689,0.0,0.0,-0.9551383256912231,0.5054214000701904
-0.0861169844865799,1.2069220542907717,-0.259239137172699,-0.0750120431184768,-0.0476425401866436,0.0032042830716818,0.0,0.0,-0.9559047222137452,0.7143945693969727
-0.0887053459882736,1.2050845623016355,-0.2580811083316803,-0.0816886201500892,-0.0483881905674934,-0.0149132329970598,0.0,0.0,-0.96939617395401,-0.3545321226119995
-0.0913420692086219,1.2030965089797974,-0.2633005976676941,-0.0883731320500373,-0.0487531162798404,-0.0072984201833605,0.0,0.0,-0.9812113046646118,0.2364357709884643
-0.0940265655517578,1.2009577751159668,-0.2684690654277801,-0.0950575843453407,-0.0487356260418891,0.0003496787103358,0.0,0.0,-0.9976281523704528,0.4736113548278808
-0.0967582687735557,1.1986682415008545,-0.2735815346240997,-0.1017420217394828,-0.0483342744410038,0.0080271791666746,0.0,0.0,-0.9912593364715576,0.6973812580108643
-0.0994904488325119,1.1962215900421145,-0.2728236615657806,-0.108752004802227,-0.0487157776951789,-0.007630122359842,0.0,0.0,-0.9980477690696716,-0.4457674026489258
-0.1022684127092361,1.1936242580413818,-0.2778094410896301,-0.1154364496469497,-0.0487110242247581,9.513703116681428e-05,0.0,0.0,-0.9642766118049622,0.937587022781372
-0.1050004959106445,1.190873384475708,-0.2712822556495666,-0.1223231926560401,-0.0506116189062595,-0.0380117073655128,0.0,0.0,-0.9871267080307008,-0.1736258268356323
-0.1077771186828613,1.187971830368042,-0.2761223614215851,-0.1290078610181808,-0.0521242804825305,-0.0302534289658069,0.0,0.0,-0.9849834442138672,-0.2050734758377075
-0.1105973273515701,1.1849195957183838,-0.2808827757835388,-0.1356923580169677,-0.0532484762370586,-0.0224840249866247,0.0,0.0,-0.9998149871826172,0.8145021200180054
-0.1133908256888389,1.1817041635513306,-0.2768209278583526,-0.1430018842220306,-0.0557438693940639,-0.0499077625572681,0.0,0.0,-0.983860731124878,0.6215600967407227
-0.1161850914359092,1.1783379316329956,-0.2762603163719177,-0.1497344374656677,-0.0588805861771106,-0.0627344399690628,0.0,0.0,-0.9636724591255188,-0.0622071027755737
-0.1190204620361328,1.174820899963379,-0.2807553708553314,-0.1564193367958068,-0.0616281628608703,-0.0549516454339027,0.0,0.0,-0.977209746837616,0.975110650062561
-0.1218156814575195,1.1711474657058716,-0.2751050591468811,-0.1634528040885925,-0.0660034045577049,-0.0875047892332077,0.0,0.0,-0.7993515729904175,-0.6770795583724976
-0.1247030273079872,1.1673235893249512,-0.2860459089279175,-0.1700687855482101,-0.0686606988310813,-0.053145982325077,0.0,0.0,-0.993719518184662,0.6274150609970093
-0.1275890320539474,1.1633453369140625,-0.2852993607521057,-0.1769637465476989,-0.0719220638275146,-0.0652273520827293,0.0,0.0,-0.9957483410835266,0.2701807022094726
-0.130511850118637,1.1592165231704712,-0.2893843054771423,-0.1836483180522918,-0.0747957676649093,-0.0574740767478942,0.0,0.0,-0.9892916083335876,-0.6777170896530151
-0.133517175912857,1.1549339294433594,-0.2991936802864074,-0.1904018372297287,-0.0761191174387931,-0.026466965675354,0.0,0.0,-0.9769367575645448,0.4373303651809692
-0.1365571022033691,1.1505005359649658,-0.3030521273612976,-0.1970855593681335,-0.0770565494894981,-0.0187483243644237,0.0,0.0,-0.9504601359367372,0.9146575927734376
-0.139569953083992,1.145905375480652,-0.2991723716259002,-0.204339250922203,-0.0791473090648651,-0.0418149158358573,0.0,0.0,-0.964918613433838,0.8927137851715088
-0.1425552368164062,1.1411561965942385,-0.2952829301357269,-0.2112539261579513,-0.0823604986071586,-0.0642639547586441,0.0,0.0,-0.9046838283538818,0.5208485126495361
-0.1455284059047699,1.1362518072128296,-0.2933560013771057,-0.2181929051876068,-0.0862819477915763,-0.0784288048744201,0.0,0.0,-0.9114961624145508,-0.2924317121505737
-0.148531436920166,1.1311968564987185,-0.2967264950275421,-0.2248774468898773,-0.0898229256272316,-0.0708196908235549,0.0,0.0,-0.9515674114227296,-0.4382737874984741
-0.1515629738569259,1.1259912252426147,-0.2999688386917114,-0.2315616458654403,-0.0929852575063705,-0.0632467940449714,0.0,0.0,-0.5602009296417236,0.6065571308135986
-0.1545771658420562,1.1206235885620115,-0.2974487543106079,-0.2388071715831756,-0.0969137772917747,-0.0785703361034393,0.0,0.0,-0.964208483695984,-0.1861779689788818
-0.1576172858476638,1.115105390548706,-0.3004293143749237,-0.2454914450645446,-0.1004678085446357,-0.0710805207490921,0.0,0.0,-0.7516535520553589,0.5406147241592407
-0.1606421470642089,1.109425067901611,-0.2982513308525085,-0.2527540028095245,-0.1046729981899261,-0.0841038152575492,0.0,0.0,-0.7148436903953552,0.7825765609741211
-0.1636291444301605,1.1035914421081543,-0.2932938933372497,-0.2596593499183655,-0.1100450009107589,-0.1074400767683982,0.0,0.0,-0.7467035055160522,0.7913005352020264
-0.1665672361850738,1.0976035594940186,-0.2869656682014465,-0.266647070646286,-0.1168354600667953,-0.1358095109462738,0.0,0.0,-0.8995475769042969,0.9575467109680176
-0.1694639176130294,1.091464281082153,-0.2816491723060608,-0.2735097706317901,-0.1248129680752754,-0.1595502942800521,0.0,0.0,-0.4066338539123535,0.7635190486907959
-0.1723337173461914,1.085158109664917,-0.2781136929988861,-0.2810388505458832,-0.1336302906274795,-0.176346555352211,0.0,0.0,-0.2978794574737549,-0.6673389077186584
-0.1752696931362152,1.0787174701690674,-0.2863594591617584,-0.2869157791137695,-0.1408436000347137,-0.1442660391330719,0.0,0.0,0.135125994682312,-0.0966663360595703
-0.1782358139753341,1.0727282762527466,-0.2894116044044494,-0.2668812572956085,-0.1480253338813781,-0.1436345875263214,0.0,0.0,-0.5007457733154297,0.9012370109558104
-0.1811529099941253,1.066578388214111,-0.2832267582416534,-0.2742004990577698,-0.1564937680959701,-0.1693684160709381,0.0,0.0,-0.3121750354766845,0.3852722644805908
-0.1840841323137283,1.060278058052063,-0.2849915623664856,-0.2808879315853119,-0.1646165549755096,-0.1624560505151748,0.0,0.0,-0.1866356134414672,0.8659665584564209
-0.1869507730007171,1.053808569908142,-0.2769086956977844,-0.2886433899402618,-0.1743834614753723,-0.1953383535146713,0.0,0.0,0.052556037902832,0.429481029510498
-0.189776137471199,0.0,-0.2732070982456207,-0.2811808884143829,-0.1837439984083175,-0.1872106939554214,0.0,0.0,-0.0169292092323303,0.773353099822998
-0.1925431191921234,1.0410312414169312,-0.2659308314323425,-0.2891963720321655,-0.1945670992136001,-0.2164624631404876,0.0,0.0,-0.7353076338768005,0.584518551826477
-0.1952627152204513,1.034388780593872,-0.2600879073143005,-0.2968246638774872,-0.2065247148275375,-0.2391522675752639,0.0,0.0,-0.4856305718421936,0.1576977968215942
-0.1979900300502777,1.027596950531006,-0.2612056136131286,-0.3035169243812561,-0.2181616723537445,-0.2327388077974319,0.0,0.0,-0.4653676748275757,0.3076062202453613
-0.2007238864898681,1.0206551551818848,-0.2622000575065613,-0.3102083206176758,-0.2294839173555374,-0.2264449596405029,0.0,0.0,0.3903994560241699,0.5363757610321045
-0.2032485008239746,1.014476299285889,-0.240617424249649,-0.2765059769153595,-0.2415109425783157,-0.2405404597520828,0.0,0.0,-0.4515539407730102,0.3295516967773437
-0.2057774513959884,1.0081478357315063,-0.2413749396800995,-0.2831977009773254,-0.2532362937927246,-0.2345072031021118,0.0,0.0,-0.4612529277801513,0.2959883213043213
-0.208309605717659,1.0016696453094482,-0.2420185506343841,-0.2898886799812317,-0.2646671235561371,-0.2286163568496704,0.0,0.0,-0.3858723640441894,0.5931851863861084
-0.2108029872179031,0.9950233101844788,-0.2373898476362228,-0.2975897192955017,-0.276908665895462,-0.2448306530714035,0.0,0.0,-0.5854434370994568,0.4011296033859253
-0.2132975608110427,0.9882276654243468,-0.2378176152706146,-0.3042814433574676,-0.2888711392879486,-0.2392493188381195,0.0,0.0,-0.7461658120155334,0.3403265476226806
-0.2157922685146331,0.9812822341918944,-0.2381430566310882,-0.310972511768341,-0.3005629777908325,-0.2338366061449051,0.0,0.0,-0.159754991531372,0.5405983924865723
-0.2182530909776687,0.9741768836975098,-0.2342032194137573,-0.3182941973209381,-0.3128606975078583,-0.2459546327590942,0.0,0.0,0.485304594039917,-0.0300775170326232
-0.220444768667221,0.9677812457084656,-0.2079297751188278,-0.2867216169834137,-0.3245441317558288,-0.2336684465408325,0.0,0.0,0.2202401161193847,0.6431989669799805
-0.2224501669406891,0.9620251059532166,-0.1882578283548355,-0.2586387991905212,-0.3373596668243408,-0.2563109993934631,0.0,0.0,0.5311696529388428,0.1124635934829711
-0.2242949903011322,0.957139790058136,-0.1721443980932235,-0.2200625091791153,-0.3502978980541229,-0.2587645351886749,0.0,0.0,0.916701316833496,-0.7163664698600769
-0.2260205745697021,0.952961564064026,-0.1618011891841888,-0.1883549839258194,-0.3616218566894531,-0.2264789640903473,0.0,0.0,0.9692116975784302,-0.0605315566062927
-0.2276182621717453,0.949713170528412,-0.1486441791057586,-0.1472218930721283,-0.3733795881271362,-0.2351548373699188,0.0,0.0,0.8574161529541016,-0.3186891078948974
-0.2291535884141922,0.9472300410270692,-0.1419194042682647,-0.1134413629770279,-0.3857225775718689,-0.2468595802783966,0.0,0.0,0.9476479291915894,-0.3765928745269775
-0.2302490174770355,0.9457041621208192,-0.0986965149641037,-0.0707921311259269,-0.3973033130168915,-0.2316145002841949,0.0,0.0,0.887152910232544,-0.9498328566551208
-0.2311748564243316,0.944602072238922,-0.0838817805051803,-0.0514506511390209,-0.4066357016563415,-0.1866478323936462,0.0,0.0,0.8390161991119385,-0.4584041833877563
-0.2316103875637054,0.9444236755371094,-0.035724613815546,-0.0101987486705183,-0.4150637686252594,-0.1685606837272644,0.0,0.0,0.4781160354614258,-0.9027565121650696
-0.2318434715270996,0.9451114535331726,-0.0173559244722127,0.0288037732243537,-0.4214898645877838,-0.1285218894481659,0.0,0.0,-0.0990234613418579,-0.8245534896850586
-0.2321122586727142,0.9456872344017028,-0.0222847331315279,0.0242133513092994,-0.4264683425426483,-0.099569484591484,0.0,0.0,-0.0026265382766723,-0.8832626342773438
-0.2324294596910476,0.9461498856544496,-0.028711199760437,0.0196470543742179,-0.4297307133674621,-0.0652472749352455,0.0,0.0,-0.3190772533416748,-0.8125902414321899
-0.2327961474657058,0.9465092420578004,-0.0353375673294067,0.0155631806701421,-0.4311749041080475,-0.0288836359977722,0.0,0.0,-0.188345193862915,-0.8077216148376465
-0.233205646276474,0.9467597007751464,-0.0410990417003631,0.0111790271475911,-0.4310178756713867,0.0031404786277562,0.0,0.0,-0.391779363155365,-0.799277126789093
-0.2336589395999908,0.946889877319336,-0.0468469262123107,0.0062510198913514,-0.4293625354766845,0.033107005059719,0.0,0.0,-0.0033894181251525,-0.782354474067688
-0.2341721057891845,0.9469167590141296,-0.0546944625675678,0.0022172955796122,-0.4257014989852905,0.0732205584645271,0.0,0.0,0.2221858501434326,-0.6661555767059326
-0.2346660643815994,0.9474098682403564,-0.0539516881108284,0.0232843663543462,-0.4207737743854522,0.0985542833805084,0.0,0.0,0.2384295463562011,-0.6924048662185669
-0.2350472509860992,0.9483754634857178,-0.0439945235848426,0.0446542352437973,-0.4144212007522583,0.127051442861557,0.0,0.0,-0.0515350103378295,-0.3627768754959106
-0.2354222238063812,0.949191153049469,-0.0433894507586956,0.0379649177193641,-0.4080754816532135,0.1269136369228363,0.0,0.0,0.1510343551635742,-0.4146707057952881
-0.2356084883213043,0.9501478672027588,-0.0249000079929828,0.0443109050393104,-0.4013338983058929,0.134831815958023,0.0,0.0,-0.3424217700958252,-0.5112975239753723
-0.2358196228742599,0.950976550579071,-0.0282011143863201,0.038822516798973,-0.3937458097934723,0.1517617106437683,0.0,0.0,-0.2878739833831787,-0.22780841588974
-0.2360258102416992,0.9516560435295104,-0.0276729259639978,0.0321301072835922,-0.3862188160419464,0.1505405157804489,0.0,0.0,-0.1395198106765747,-0.3682440519332886
