x_pos,y_pos,x_vel,y_vel,angle,ang_vel,leg_1,leg_2,main_booster,lat_booster
-0.0015244483947753,1.403184413909912,-0.1540755182504654,-0.3438090085983276,0.0014577670954167,0.0287328418344259,0.0,0.0,-0.2493215203285217,0.9000102281570435
-0.0029739378951489,1.3950276374816897,-0.1441227197647094,-0.3625251650810241,0.0006369240581989,-0.0164176244288682,0.0,0.0,0.2669225931167602,0.2770384550094604
-0.0043237684294581,1.3868950605392456,-0.1343481689691543,-0.3614491820335388,6.04856404606835e-06,-0.0126186851412057,0.0,0.0,-0.0509114265441894,0.8409146070480347
-0.0056241988204419,1.3783193826675415,-0.1277437061071396,-0.3811368942260742,-0.0022566886618733,-0.0452589504420757,0.0,0.0,-7.49826431274414e-05,-0.1856569051742553
-0.0069290162064135,1.3693039417266846,-0.1279007643461227,-0.4006935954093933,-0.004807312041521,-0.0510173849761486,0.0,0.0,0.1154205799102783,0.0190697908401489
-0.0081448554992675,1.3603976964950562,-0.1191752776503562,-0.3958357870578766,-0.0071965157985687,-0.0477882251143455,0.0,0.0,0.3428832292556762,0.4136985540390014
-0.0093824388459324,1.3517558574676514,-0.1209718585014343,-0.3840990662574768,-0.0099468883126974,-0.0550127439200878,0.0,0.0,0.0227049589157104,0.3090955018997192
-0.0105312345549464,1.3432731628417969,-0.1122773289680481,-0.3770229518413543,-0.0125209856778383,-0.0514865331351757,0.0,0.0,-0.2498319745063781,0.1367630958557129
-0.0116889951750636,1.3343505859375,-0.1129132136702537,-0.3965843319892883,-0.0153510961681604,-0.0566075854003429,0.0,0.0,0.0888550281524658,0.442696213722229
-0.0128499986603856,1.3257063627243042,-0.1129918321967125,-0.3842290937900543,-0.0184295438230037,-0.0615745261311531,0.0,0.0,-0.269646406173706,0.3600702285766601
-0.0140223503112792,1.316622018814087,-0.113889455795288,-0.4037943184375763,-0.0217437278479337,-0.0662894770503044,0.0,0.0,-0.7708691954612732,-0.0737221240997314
-0.015207290649414,1.3070977926254272,-0.114922896027565,-0.4233519732952118,-0.025282859802246,-0.0707891806960105,0.0,0.0,-0.5352045893669128,0.763468861579895
-0.0163329131901264,1.2971349954605105,-0.1069089025259018,-0.4428935647010803,-0.0308760683983564,-0.1118741035461425,0.0,0.0,-0.7150027751922607,0.4271464347839355
-0.0174736026674509,1.286732792854309,-0.1082171946763992,-0.4624550640583038,-0.0366697758436203,-0.1158846467733383,0.0,0.0,-0.4754982590675354,0.5447924137115479
-0.0185776706784963,1.2758938074111938,-0.1030075773596763,-0.4819293320178985,-0.0439857169985771,-0.1463320702314376,0.0,0.0,-0.1072685718536377,-0.0409907102584838
-0.0196993835270404,1.2646156549453735,-0.104602076113224,-0.5014932751655579,-0.0514764711260795,-0.1498284637928009,0.0,0.0,-0.4954136610031128,-0.672518789768219
-0.0208806991577148,1.2529091835021973,-0.1114486083388328,-0.5205338001251221,-0.0580974519252777,-0.1324314773082733,0.0,0.0,-0.7543957829475403,-0.6064652800559998
-0.0221191402524709,1.2407612800598145,-0.1179434657096862,-0.5401493310928345,-0.063947282731533,-0.1170070320367813,0.0,0.0,-0.2753198146820068,-0.3377466201782226
-0.0233794208616018,1.2281737327575684,-0.1199911087751388,-0.5597121715545654,-0.0699299648404121,-0.1196646243333816,0.0,0.0,-0.4429883956909179,-0.3487014770507812
-0.0246628765016794,1.2151470184326172,-0.122189000248909,-0.5792751312255859,-0.0760296806693077,-0.1220049858093261,0.0,0.0,0.6047983169555664,-0.8074028491973877
-0.0258415229618549,1.2027702331542969,-0.1134769171476364,-0.5503060817718506,-0.0803847387433052,-0.0871088504791259,0.0,0.0,-0.117375910282135,-0.8990082144737244
-0.0271159168332815,1.1899566650390625,-0.1247259825468063,-0.5696339011192322,-0.0830727592110633,-0.0537649877369403,0.0,0.0,-0.0857695937156677,-0.7748076915740967
-0.0284654609858989,1.1767082214355469,-0.1334029138088226,-0.5889041423797607,-0.0846192091703414,-0.0309317111968994,0.0,0.0,0.4763597249984741,-0.476675271987915
-0.029758071526885,1.1634290218353271,-0.1279314011335373,-0.5902693271636963,-0.0859265550971031,-0.0261493027210235,0.0,0.0,-0.5633583664894104,-0.2511210441589355
-0.0310805328190326,1.1497094631195068,-0.1308977454900741,-0.6098319888114929,-0.0872664898633956,-0.0268012024462223,0.0,0.0,0.2182593345642089,-0.5713825225830078
-0.0325531959533691,1.136328935623169,-0.1468173861503601,-0.5947207808494568,-0.0877026915550232,-0.0087241427972912,0.0,0.0,-0.0084786415100097,-0.1971626281738281
-0.0340582840144634,1.12250816822052,-0.1500818133354187,-0.6142775416374207,-0.0881344974040985,-0.0086360108107328,0.0,0.0,0.0988912582397461,-0.5269849896430969
-0.0356858260929584,1.1090912818908691,-0.163221925497055,-0.5962788462638855,-0.0876653045415878,0.0093840053305029,0.0,0.0,0.010284423828125,0.3003578186035156
-0.0373863205313682,1.0959525108337402,-0.1702020466327667,-0.5839348435401917,-0.0875224992632865,0.0028561705257743,0.0,0.0,-0.9266589879989624,0.623969316482544
-0.0390759482979774,1.0823651552200315,-0.1679506003856659,-0.6039437055587769,-0.0885180085897445,-0.0199104286730289,0.0,0.0,-0.5624814629554749,0.2494421005249023
-0.0408028587698936,1.0683375597000122,-0.1717801988124847,-0.623499870300293,-0.0894313529133796,-0.0182667914777994,0.0,0.0,-0.9655964374542236,-0.7747042775154114
-0.0426377281546592,1.0538747310638428,-0.1844227015972137,-0.6427388787269592,-0.0885008201003074,0.0186107978224754,0.0,0.0,-0.6375606656074524,-0.0944530963897705
-0.0445123687386512,1.038971781730652,-0.1885179579257965,-0.6622947454452515,-0.0874480083584785,0.0210564248263835,0.0,0.0,-0.6889160871505737,0.4814338684082031
-0.0464276298880577,1.0236284732818604,-0.1927409619092941,-0.6818505525588989,-0.0862527415156364,0.0239055585116148,0.0,0.0,0.0309996604919433,-0.1475070118904113
-0.0483408942818641,1.0084288120269775,-0.1927510350942611,-0.6754645705223083,-0.084847867488861,0.0280974395573139,0.0,0.0,-0.7979549765586853,0.3425245285034179
-0.0502970702946186,0.9927888512611388,-0.1972182542085647,-0.6950202584266663,-0.0832602381706237,0.0317523702979087,0.0,0.0,-0.3720664978027344,0.613318920135498
-0.0522510521113872,0.9766995906829834,-0.1960140466690063,-0.7150378823280334,-0.0826394185423851,0.0124163450673222,0.0,0.0,0.4279077053070068,-0.3393338918685913
-0.0541625022888183,0.9611496329307556,-0.1921512931585312,-0.6910560727119446,-0.0816437900066375,0.0199124775826931,0.0,0.0,-0.5184224247932434,-0.6658610105514526
-0.0561750419437885,0.9451735615730286,-0.203933909535408,-0.7099006772041321,-0.0789907127618789,0.0530614033341407,0.0,0.0,-0.2206780314445495,0.2606513500213623
-0.0582340247929096,0.9287573099136353,-0.2088389694690704,-0.7294563055038452,-0.0760760381817817,0.0582935325801372,0.0,0.0,-0.0444847345352172,0.5013847351074219
-0.0603073127567768,0.9119012951850892,-0.2097363770008087,-0.749032199382782,-0.0737010911107063,0.0474990829825401,0.0,0.0,-0.3016884922981262,-0.0131911635398864
-0.0624286644160747,0.894605278968811,-0.2148322612047195,-0.7685876488685608,-0.0710268169641494,0.0534855425357818,0.0,0.0,0.1427406072616577,0.6268484592437744
-0.0644590407609939,0.8771731853485107,-0.2049088776111602,-0.7746705412864685,-0.0691754445433616,0.0370276160538196,0.0,0.0,-0.9028998613357544,0.3149949312210083
-0.0665386170148849,0.8593007922172546,-0.2101754248142242,-0.7942255139350891,-0.0669886767864227,0.0437355302274227,0.0,0.0,-0.1038560271263122,0.6228973865509033
-999.0,0.8409761190414429,-0.2097971737384796,-0.8143656849861145,-0.0656074285507202,0.0276251696050167,0.0,0.0,0.3997261524200439,0.6405658721923828
-0.0706454291939735,0.8226191997528076,-0.2028512954711914,-0.8158388137817383,-0.065050683915615,0.0111348703503608,0.0,0.0,-0.0015345811843872,0.7872233390808105
-0.0726511031389236,0.8038110136985779,-0.1997614204883575,-0.8359576463699341,-0.0658351555466651,-0.0156897492706775,0.0,0.0,0.8688700199127197,0.4432817697525024
-0.0747727379202842,0.7859865427017212,-0.2111887037754058,-0.7922399044036865,-0.0668063759803772,-0.0194243919104337,0.0,0.0,0.4765392541885376,0.1702185869216919
-0.0770175009965896,0.7687878012657166,-0.2233589142560959,-0.7644377946853638,-0.0679095685482025,-0.0220639631152153,0.0,0.0,-0.8338305354118347,0.0385189056396484
-0.0793144255876541,0.7511485815048218,-0.2290064841508865,-0.7839921116828918,-0.0685818046331405,-0.0134444432333111,0.0,0.0,0.1292281150817871,0.9177885055541992
-0.0814493149518966,0.7336335182189941,-0.2114414721727371,-0.7785403728485107,-0.0706183463335037,-0.0407307147979736,0.0,0.0,0.7025866508483887,0.7937395572662354
-0.0835856422781944,0.716819703578949,-0.2103165090084076,-0.7474425435066223,-0.0738993063569068,-0.0656188577413559,0.0,0.0,-0.2401491403579712,0.175830602645874
-0.0857748016715049,0.6995654702186584,-0.2160760462284088,-0.7669972777366638,-0.0767095312476158,-0.0562044791877269,0.0,0.0,-0.2871838808059692,0.5886354446411133
-0.0879699736833572,0.6818708777427673,-0.2159739285707473,-0.786611020565033,-0.0802141353487968,-0.07009207457304,0.0,0.0,0.6659786701202393,0.8146005868911743
-0.0899489372968673,0.6644402742385864,-0.1935189068317413,-0.7749338746070862,-0.0845545828342437,-0.086808905005455,0.0,0.0,0.2420085668563842,0.326492428779602
-0.0920226126909256,0.6471078991889954,-0.2031639069318771,-0.7705723643302917,-0.0887224003672599,-0.0833561494946479,0.0,0.0,0.8940579891204834,0.7121981382369995
-0.0938956290483474,0.6306837797164917,-0.1824705153703689,-0.7302533984184265,-0.0935152247548103,-0.0958562046289444,0.0,0.0,-0.9287157654762268,-0.0625547170639038
-0.095821663737297,0.6138191819190979,-0.1882910728454589,-0.7498080134391785,-0.0977833345532417,-0.0853623747825622,0.0,0.0,0.5074394941329956,0.5911083221435547
-0.0976063758134841,0.5976241230964661,-0.1736942380666732,-0.7201024889945984,-0.102524884045124,-0.0948308408260345,0.0,0.0,-0.4738706946372986,0.6858880519866943
-0.0993960350751876,0.580987274646759,-0.1735336631536483,-0.7397977709770203,-0.1079168021678924,-0.1078381910920143,0.0,0.0,0.9065663814544678,-0.810854434967041
-0.1011919975280761,0.5645401477813721,-0.1764833629131317,-0.7312148809432983,-0.1110081821680069,-0.0618277266621589,0.0,0.0,0.958181858062744,0.7802438735961914
-0.1030143722891807,0.5489068627357483,-0.177829772233963,-0.6951457262039185,-0.1153876259922981,-0.0875888764858245,0.0,0.0,0.2303493022918701,0.2191953659057617
-0.1047525405883789,0.5333908796310425,-0.1703988760709762,-0.689866304397583,-0.118777111172676,-0.0677897930145263,0.0,0.0,-0.7461402416229248,0.1692444086074829
-0.1065415367484092,0.5174341201782227,-0.1760689914226532,-0.7094183564186096,-0.1215957030653953,-0.0563718676567077,0.0,0.0,0.3053083419799804,0.2622087001800537
-0.1083363518118858,0.5015069246292114,-0.1772613823413849,-0.7080600261688232,-0.1238088458776474,-0.0442627370357513,0.0,0.0,0.7042508125305176,0.5393617153167725
-0.1101987808942794,0.4860639274120331,-0.1831449270248413,-0.6866128444671631,-0.1268856972455978,-0.0615369379520416,0.0,0.0,0.7814420461654663,0.5517228841781616
-0.1119250282645225,0.4715465903282165,-0.1690886169672012,-0.6455210447311401,-0.1304061561822891,-0.0704093128442764,0.0,0.0,-0.6418303847312927,0.7379621267318726
-0.1136345863342285,0.4565667808055877,-0.1663294434547424,-0.6661827564239502,-0.135013535618782,-0.0921479910612106,0.0,0.0,0.5215761661529541,0.3328120708465576
-0.1152609810233116,0.4423096477985382,-0.1587325781583786,-0.6340100765228271,-0.1389093697071075,-0.077916607260704,0.0,0.0,-0.7383381128311157,0.2511155605316162
-0.1169338226318359,0.4276115000247955,-0.1639818549156189,-0.6535610556602478,-0.1422048807144165,-0.0659102350473404,0.0,0.0,-0.4445012211799621,0.3730064630508423
-0.1186521500349044,0.4124723374843597,-0.1691322028636932,-0.673111617565155,-0.1448965370655059,-0.0538331195712089,0.0,0.0,-0.192699909210205,0.4850548505783081
-0.1204148307442665,0.3968919813632965,-0.1741749793291092,-0.6926615834236145,-0.1469811499118805,-0.0416921935975551,0.0,0.0,0.9288053512573242,0.6353750228881836
-0.1221852302551269,0.3823649883270263,-0.1738627701997757,-0.6459617018699646,-0.1501466482877731,-0.0633098632097244,0.0,0.0,0.3726481199264526,0.930107593536377
-0.1237837821245193,0.3680762648582458,-0.1554846465587616,-0.635499894618988,-0.1545048505067825,-0.0871639996767044,0.0,0.0,-0.3858743906021118,0.6701440811157227
-0.1253738403320312,0.3533298969268799,-0.1539967954158783,-0.6559247374534607,-0.1595171391963958,-0.1002462059259414,0.0,0.0,0.2930893898010254,-0.1651238799095153
-0.1269101202487945,0.3385065793991089,-0.1494690924882888,-0.6592665314674377,-0.1636666357517242,-0.0829897373914718,0.0,0.0,0.7704108953475952,-0.3417243957519531
-0.1284578293561935,0.3237886428833008,-0.1510952413082122,-0.6545412540435791,-0.1673545390367508,-0.0737576261162757,0.0,0.0,0.9738786220550536,0.126044750213623
-0.1298933923244476,0.3100335597991943,-0.1404523849487304,-0.6116902232170105,-0.1704690158367157,-0.0622893385589122,0.0,0.0,0.7147390842437744,0.4884629249572754
-0.1311376541852951,0.2970675230026245,-0.1223161965608596,-0.5765073299407959,-0.1725784093141555,-0.0421882458031177,0.0,0.0,0.1747562885284423,0.6655443906784058
-0.1323499679565429,0.2845351696014404,-0.1183027848601341,-0.5573388338088989,-0.1755164712667465,-0.0587613657116889,0.0,0.0,-0.4616205096244812,-0.0858139395713806
-0.1335926949977874,0.2715613842010498,-0.1219608187675476,-0.5768871903419495,-0.1778322607278823,-0.0463160052895545,0.0,0.0,0.8352115154266357,0.6832493543624878
-0.1346068382263183,0.2594214081764221,-0.0984783396124839,-0.5399099588394165,-0.1807759255170822,-0.0588733851909637,0.0,0.0,-0.4581727981567383,-0.3154619932174682
-0.1356472074985504,0.2468399852514267,-0.1017209291458129,-0.5594580173492432,-0.1830967366695404,-0.0464165806770324,0.0,0.0,0.9658375978469848,0.2913093566894531
-0.1366287171840667,0.2350244671106338,-0.0961664244532585,-0.5253822207450867,-0.1850965172052383,-0.03999575227499,0.0,0.0,0.9327408075332642,0.1532021760940551
-0.1374952346086502,0.2239773422479629,-0.0852062031626701,-0.4911623001098633,-0.1865384578704834,-0.0288390256464481,0.0,0.0,0.68729567527771,0.0895779132843017
-0.1381832063198089,0.213339701294899,-0.0683875754475593,-0.4728341996669769,-0.1869463473558426,-0.0081578828394413,0.0,0.0,0.6099447011947632,0.5708174705505371
-0.1387577950954437,0.2027271538972854,-0.056594431400299,-0.4717800319194793,-0.1878202706575393,-0.0174782089889049,0.0,0.0,0.898358941078186,0.7345012426376343
-0.1390903443098068,0.192300871014595,-0.0317979827523231,-0.4635739028453827,-0.1892852783203125,-0.0292997099459171,0.0,0.0,0.977916955947876,-0.6397746205329895
-0.1391701698303222,0.1824011653661728,-0.0089187817648053,-0.4398698806762695,-0.1883457005023956,0.0187916345894336,0.0,0.0,0.6704834699630737,-0.0764904618263244
-0.1390454322099685,0.172607809305191,0.0102695301175117,-0.434979498386383,-0.1861357986927032,0.0441982485353946,0.0,0.0,0.8900442123413086,-0.8875038623809814
-0.1388424932956695,0.1636679023504257,0.0157190170139074,-0.3967643976211548,-0.1815371662378311,0.0919725522398948,0.0,0.0,0.1677236557006836,-0.3956887722015381
-0.1385238617658615,0.155071809887886,0.0265612266957759,-0.3814093470573425,-0.1762219965457916,0.1063031554222107,0.0,0.0,0.3464293479919433,0.2019941806793213
-0.138009637594223,0.1468109041452407,0.0450340844690799,-0.3664091825485229,-0.1698237210512161,0.1279655396938324,0.0,0.0,0.6134340763092041,0.133699893951416
-0.137341022491455,0.1385554820299148,0.0594048798084259,-0.3660715818405151,-0.1623581051826477,0.1493122279644012,0.0,0.0,0.1134642362594604,-0.0484858751296997
-0.1366451233625412,0.1303761750459671,0.0616716258227825,-0.3626817762851715,-0.1544466912746429,0.1582286655902862,0.0,0.0,0.5332366228103638,0.6115853786468506
-0.1356833428144455,0.1229194998741149,0.0886835902929306,-0.3306492567062378,-0.1469562798738479,0.1498083174228668,0.0,0.0,0.0216023921966552,-0.73101407289505
-0.1347303390502929,0.1155608743429184,0.0857234150171279,-0.3261355459690094,-0.1374092549085617,0.1909406036138534,0.0,0.0,0.1388324499130249,0.3478057384490967
-0.1337705552577972,0.1085947155952453,0.0861797854304313,-0.3087343573570251,-0.1276565641164779,0.1950537264347076,0.0,0.0,-0.0702378153800964,0.3052444458007812
-0.1327907592058181,0.1011888086795806,0.0875618308782577,-0.3282926380634308,-0.1173041686415672,0.2070483714342117,0.0,0.0,0.811126708984375,0.4642446041107178
-0.1317497193813324,0.0945789888501167,0.093359887599945,-0.2929615378379822,-0.1066263169050216,0.2135566920042038,0.0,0.0,0.2565445899963379,-0.0355845689773559
-0.1306838095188141,0.0883891656994819,0.0955292731523513,-0.2743460237979889,-0.0956456512212753,0.2196133583784103,0.0,0.0,-0.1341119408607483,0.6013698577880859
-0.1295422613620758,0.0817517340183258,0.1036316379904747,-0.2943612933158874,-0.0852242037653923,0.2084292471408844,0.0,0.0,0.6452164649963379,0.9482619762420654
-0.1283716261386871,0.075577862560749,0.1080312132835388,-0.2739027738571167,-0.0762756913900375,0.178970068693161,0.0,0.0,0.2873889207839966,0.6137968301773071
-0.1272133886814117,0.0695826634764671,0.1076592430472374,-0.2660593092441559,-0.0682028830051422,0.1614562422037124,0.0,0.0,0.4262628555297851,0.7845680713653564
-0.1258082389831543,0.0640638917684555,0.1331985294818878,-0.2449629306793213,-0.060962226241827,0.1448131054639816,0.0,0.0,0.4900944232940674,0.1937747001647949
-0.1242837905883789,0.0585986226797103,0.1442855149507522,-0.2425908297300338,-0.0528887622058391,0.1614692956209182,0.0,0.0,0.2086472511291504,0.772071123123169
-0.1225006133317947,0.0535213090479373,0.1709914207458496,-0.2254195064306259,-0.0456568337976932,0.1446388214826584,0.0,0.0,0.1754382848739624,-0.5336728692054749
-0.120701789855957,0.0488403178751468,0.1709481179714203,-0.2077975869178772,-0.0368282683193683,0.1765709519386291,0.0,0.0,0.1202446222305297,-0.2021273970603943
-0.118731215596199,0.0445834025740623,0.1870931088924408,-0.1889848560094833,-0.0269872788339853,0.1968196928501129,0.0,0.0,0.463935375213623,0.0030065774917602
-0.1166223511099815,0.040654931217432,0.2000383883714676,-0.174437791109085,-0.0162730049341917,0.2142857760190963,0.0,0.0,0.1545660495758056,-0.7501473426818848
-0.114509105682373,0.0371529683470726,0.1983925700187683,-0.1555490791797638,-0.0035159157123416,0.2551417946815491,0.0,0.0,0.2690513134002685,-0.7333518266677856
-0.112336441874504,0.0341275073587894,0.20224329829216,-0.1344973891973495,0.0113195152953267,0.2967087924480438,0.0,0.0,0.2345044612884521,-0.8536218404769897
-0.1100998893380165,0.0311751458793878,0.2062985152006149,-0.1314368247985839,0.028450408950448,0.3426178097724914,0.0,0.0,0.376926064491272,-0.5632389187812805
-0.1079647988080978,0.0285541638731956,0.1947287023067474,-0.1169483214616775,0.0469987131655216,0.3709659874439239,0.0,0.0,-0.0266012549400329,0.2941596508026123
-0.105758287012577,0.0254981610924005,0.2013472020626068,-0.136536031961441,0.066082939505577,0.3816847205162048,0.0,0.0,0.2296124696731567,0.2339667081832885
-0.1035213470458984,0.0226339921355247,0.2039470672607422,-0.1282840222120285,0.0856234729290008,0.390810489654541,0.0,0.0,-0.0854100584983825,0.4311919212341308
-0.1012080162763595,0.0193355176597833,0.2111060172319412,-0.1478764712810516,0.1056886464357376,0.4013034701347351,0.0,0.0,0.1454826593399047,-0.3002843260765075
-0.098751924932003,0.015989551320672,0.2244738042354583,-0.1503357589244842,0.1266912668943405,0.4200524389743805,0.0,0.0,0.1604666709899902,0.0649926662445068
-0.0962074249982833,0.0129381986334919,0.2325411587953567,-0.1376223862171173,0.1485228091478347,0.4366303980350494,0.0,1.0,0.5128834247589111,0.97264301776886
-0.0938147529959678,0.0110245319083333,0.2321135103702545,-0.0862039998173713,0.154245525598526,0.1125449761748313,0.0,1.0,-0.088441252708435,0.513216495513916
