x_pos,y_pos,x_vel,y_vel,angle,ang_vel,leg_1,leg_2,main_booster,lat_booster
-0.001526165055111,1.403229594230652,-0.1538584530353546,-0.3418032824993133,0.0011093624634668,0.021834697574377,0.0,0.0,-0.2203890085220337,0.4427691698074341
-0.0030545233748853,1.3951672315597534,-0.1532618403434753,-0.3583284318447113,0.0015299259684979,0.0084129022434353,0.0,0.0,-0.4538137912750244,0.9229452610015868
-0.0044958116486668,1.3867028951644895,-0.1416349112987518,-0.3761913478374481,-0.0009337813244201,-0.0492788404226303,0.0,0.0,0.0882503986358642,-0.4074776172637939
-0.0060161589644849,1.3783373832702637,-0.1485069692134857,-0.37180295586586,-0.0044236225076019,-0.0698030441999435,0.0,0.0,-0.1087446808815002,0.557051420211792
-0.0074837682768702,1.3695787191390991,-0.141229823231697,-0.3893032670021057,-0.0098974090069532,-0.1094857305288314,0.0,0.0,-0.4632088541984558,0.1434861421585083
-0.0089514730498194,1.360425591468811,-0.1405839174985885,-0.4068565964698791,-0.0160118751227855,-0.1223004236817359,0.0,0.0,0.4757788181304931,0.395862340927124
-0.0104307178407907,1.3516523838043213,-0.1410009413957595,-0.3900074064731598,-0.0228586010634899,-0.1369472295045852,0.0,0.0,0.0611437559127807,0.3033483028411865
-0.0118038179352879,1.3431049585342407,-0.1302153617143631,-0.3800150752067566,-0.0298776775598526,-0.1403944790363311,0.0,0.0,0.2516207695007324,-0.082158088684082
-0.0131662366911768,1.335114359855652,-0.1284698098897934,-0.3553124070167541,-0.0375640578567981,-0.1537417471408844,0.0,0.0,-0.2611070275306701,0.1937263011932373
-0.0145276067778468,1.3267298936843872,-0.1277327835559845,-0.3728765845298767,-0.0458665266633033,-0.166064903140068,0.0,0.0,0.0055252313613891,-0.1563937067985534
-0.0158185008913278,1.3184903860092163,-0.1203344464302063,-0.3664909303188324,-0.0545289665460586,-0.1732648164033889,0.0,0.0,-0.4373325109481811,0.0954564809799194
-0.0171078685671091,1.3098572492599487,-0.1195812970399856,-0.3840567469596863,-0.0637920871376991,-0.1852796077728271,0.0,0.0,-0.7972613573074341,-0.1644373536109924
-0.0183955188840627,1.3008310794830322,-0.1188262477517128,-0.4016182124614715,-0.0736466944217681,-0.1971104443073272,0.0,0.0,-0.3820785284042358,-0.9297516345977784
-0.0197467803955078,1.2914100885391235,-0.1262407600879669,-0.4191671907901764,-0.0824507102370262,-0.1760959774255752,0.0,0.0,-0.6530590653419495,-0.4644253849983215
-0.0210963245481252,1.2815958261489868,-0.125502347946167,-0.436730682849884,-0.0918272957205772,-0.1875490248203277,0.0,0.0,-0.4895426630973816,0.0489357709884643
-0.0224441532045602,1.2713885307312012,-0.1247759684920311,-0.4542956352233886,-0.1017643213272094,-0.1987588256597519,0.0,0.0,-0.0812660455703735,-0.4106020927429199
-0.023790169507265,1.2607884407043457,-0.1240671128034591,-0.4718621969223022,-0.112250231206417,-0.2097372114658355,0.0,0.0,0.2418065071105957,0.4108933210372925
-0.0249967575073242,1.2501975297927856,-0.1100896373391151,-0.4715351462364197,-0.1227703392505645,-0.2104213684797287,0.0,0.0,-0.6423715949058533,-0.6689870357513428
-0.0262452121824026,1.2392282485961914,-0.1148991957306861,-0.4883752763271332,-0.1326921731233596,-0.1984546482563018,0.0,0.0,-0.1645451188087463,-0.8023386597633362
-0.0275637619197368,1.227879762649536,-0.1232156157493591,-0.5051640272140503,-0.1413078010082245,-0.172327846288681,0.0,0.0,-0.7290679216384888,-0.2687907218933105
-0.028881262987852,1.2161383628845217,-0.1226304173469543,-0.522730827331543,-0.1504170596599578,-0.1822016686201095,0.0,0.0,-0.6014091372489929,-0.8399975299835205
-0.0302627570927143,1.204013705253601,-0.1302087903022766,-0.5396917462348938,-0.1583590060472488,-0.1588530242443084,0.0,0.0,-0.3228086233139038,-0.5192840695381165
-0.0316755287349224,1.191502809524536,-0.1337097287178039,-0.5568647980690002,-0.1659466028213501,-0.1517653316259384,0.0,0.0,-0.3190129995346069,-0.714299201965332
-0.0331383720040321,1.178602933883667,-0.1395285725593567,-0.5740892887115479,-0.1727157235145568,-0.1353947222232818,0.0,0.0,0.0989965200424194,-0.8705984950065613
-0.0347043052315712,1.1659910678863523,-0.151142880320549,-0.5611774921417236,-0.1781874895095825,-0.1094450131058693,0.0,0.0,-0.3603678941726684,-0.6743730902671814
-0.0363381393253803,1.1529852151870728,-0.1592068374156952,-0.5785428285598755,-0.1823794394731521,-0.083838365972042,0.0,0.0,0.7772375345230103,-0.8873579502105713
-0.0378951057791709,1.1407614946365356,-0.1529312580823898,-0.5436146259307861,-0.1851606220006942,-0.0556240305304527,0.0,0.0,0.0764322280883789,-0.7201917767524719
-0.0395054817199707,1.1289867162704468,-0.1592752784490585,-0.5235464572906494,-0.1869299262762069,-0.03538578748703,0.0,0.0,-0.0442965626716613,-0.2600007057189941
-0.0411178581416606,1.1168179512023926,-0.1591462790966034,-0.541103184223175,-0.1890328824520111,-0.0420595183968544,0.0,0.0,0.8164598941802979,-0.8058587312698364
-0.0427198410034179,1.1050667762756348,-0.1593474745750427,-0.5223774313926697,-0.1898794621229171,-0.016931839287281,0.0,0.0,-0.6240622401237488,-0.018649399280548
-0.0443245880305767,1.0929216146469116,-0.1593625247478485,-0.5399332642555237,-0.1910084635019302,-0.0225803144276142,0.0,0.0,-0.3714637756347656,-0.684643030166626
-0.0459934249520301,1.0803954601287842,-0.1670427471399307,-0.5566913485527039,-0.1908433884382248,0.0033015049993991,0.0,0.0,0.7742949724197388,0.4294840097427368
-0.0475898757576942,1.0687682628631592,-0.1591792106628418,-0.5168268084526062,-0.1913152486085891,-0.0094370869919657,0.0,0.0,-0.5308077335357666,0.4304211139678955
-0.0491909012198448,1.0567466020584106,-0.1594319194555282,-0.534381091594696,-0.1919845640659332,-0.0133862691000103,0.0,0.0,0.5133969783782959,-0.7344831228256226
-0.0507278442382812,1.0451898574829102,-0.1543579697608947,-0.5135465860366821,-0.1913162767887115,0.0133654344826936,0.0,0.0,-0.448061466217041,0.2214987277984619
-0.0522704124450683,1.0332385301589966,-0.1547815501689911,-0.5311000347137451,-0.1907839626073837,0.0106463907286524,0.0,0.0,-0.6584969162940979,0.5840772390365601
-0.0537760742008686,1.0208771228790283,-0.1498835980892181,-0.5494849681854248,-0.1914790570735931,-0.0139018921181559,0.0,0.0,0.4283785820007324,-0.8323093056678772
-0.055190660059452,1.0091044902801514,-0.1424013823270797,-0.5231016278266907,-0.1905235201120376,0.0191105492413043,0.0,0.0,-0.9074371457099916,0.719759464263916
-0.056559182703495,0.9969298839569092,-0.1364348828792572,-0.5411481261253357,-0.1909510344266891,-0.0085500506684184,0.0,0.0,-0.9058796167373656,-0.0766783952713012
-0.0579357147216796,0.98436039686203,-0.1372230350971222,-0.5586994290351868,-0.1913826167583465,-0.008632049895823,0.0,0.0,-0.9179133772850036,-0.4468610286712646
-0.0593207366764545,0.9713959693908693,-0.1381058692932129,-0.5762501955032349,-0.1917841136455536,-0.0080300122499465,0.0,0.0,-0.9427623152732848,-0.5330802798271179
-0.0607480034232139,0.9580448865890504,-0.1432316899299621,-0.5933182239532471,-0.1912710219621658,0.010261463932693,0.0,0.0,-0.9827950596809388,0.1998687982559204
-0.0621850006282329,0.9442986845970154,-0.1443066895008087,-0.6108680367469788,-0.1906588673591613,0.0122430901974439,0.0,0.0,-0.4799730777740478,-0.7177820801734924
-0.0636790245771408,0.9301692247390748,-0.1513425558805465,-0.6277292966842651,-0.1887108087539672,0.0389611721038818,0.0,0.0,-0.7565540075302124,-0.6246739625930786
-0.0652367621660232,0.9156519770622252,-0.1592091917991638,-0.6447734832763672,-0.185261383652687,0.068988598883152,0.0,0.0,-0.714672863483429,0.2354379892349243
-0.0668061226606369,0.9007397294044496,-0.160576194524765,-0.6623226404190063,-0.1816099286079406,0.0730291754007339,0.0,0.0,-0.3211146593093872,-0.0158728957176208
-0.0683877915143966,0.8854319453239441,-0.1620405167341232,-0.6798714399337769,-0.1777228116989135,0.0777423530817031,0.0,0.0,-0.0903174877166748,-0.1773668527603149
-0.0699823349714279,0.8697289824485779,-0.1636018455028534,-0.6974199414253235,-0.1735669523477554,0.0831169709563255,0.0,0.0,0.1287657022476196,0.1835817098617553
-0.0715868026018142,0.8544496893882751,-0.1644685715436935,-0.6786149740219116,-0.1695292145013809,0.0807545483112335,0.0,0.0,-0.9195415377616882,-0.1128966212272644
-0.0732053741812706,0.8387748599052429,-0.1662219911813736,-0.6961630582809448,-0.1651587337255478,0.0874092727899551,0.0,0.0,-0.7394558191299438,0.3108696937561035
-0.0748387351632118,0.8227047324180603,-0.1680701375007629,-0.7137109041213989,-0.1604248285293579,0.0946784988045692,0.0,0.0,-0.3407847881317138,0.2121891975402832
-0.0764875411987304,0.806239128112793,-0.170011818408966,-0.731258749961853,-0.1552976816892624,0.102542832493782,0.0,0.0,-0.3260596990585327,0.2505542039871216
-0.0781523734331131,0.78937828540802,-0.1720457375049591,-0.7488068342208862,-0.149748608469963,0.1109815463423729,0.0,0.0,0.0350772142410278,0.6374833583831787
-0.0797066688537597,0.772857129573822,-0.1601724326610565,-0.7338043451309204,-0.1450195014476776,0.0945823416113853,0.0,0.0,-0.7335250377655029,0.3108220100402832
-0.0812783241271972,0.7559404969215393,-0.1623856574296951,-0.7513516545295715,-0.1398143619298935,0.1041028052568435,0.0,0.0,-0.622207522392273,0.5080399513244629
-0.0828346237540245,0.7386191487312317,-0.1605033576488495,-0.769393265247345,-0.1349633932113647,0.0970193892717361,0.0,0.0,-0.4998835325241089,0.6315765380859375
-0.084351822733879,0.7208961248397827,-0.1556511223316192,-0.787335216999054,-0.1310432106256485,0.0784035623073577,0.0,0.0,0.406967282295227,0.5986824035644531
-0.0856385231018066,0.7035996317863464,-0.1322394162416458,-0.7684249877929688,-0.1274999380111694,0.0708658844232559,0.0,0.0,0.6254367828369141,0.7758886814117432
-0.0867000594735145,0.6870934367179871,-0.108876384794712,-0.7333837151527405,-0.1247847378253936,0.0543040260672569,0.0,0.0,-0.6702455282211304,0.6691716909408569
-0.0877355560660362,0.6701884865760803,-0.1056938022375106,-0.7511535286903381,-0.1226437017321586,0.0428205877542495,0.0,0.0,0.6486546993255615,0.5872862339019775
-0.0886463150382042,0.6534141898155212,-0.0928007811307907,-0.7453867197036743,-0.1209310516715049,0.0342530570924282,0.0,0.0,0.4308705329895019,-0.0213184356689453
-0.0895915031433105,0.6371641159057617,-0.0964604765176773,-0.7220629453659058,-0.1189922243356704,0.0387763269245624,0.0,0.0,0.028396725654602,0.5853049755096436
-0.0903886780142784,0.620972752571106,-0.0812608748674392,-0.7194979190826416,-0.1174614131450653,0.0306161642074584,0.0,0.0,0.5593340396881104,0.5005661249160767
-0.0910774245858192,0.6052367091178894,-0.0701472908258438,-0.6992774605751038,-0.1162047088146209,0.0251340009272098,0.0,0.0,-0.148951768875122,-0.3814995884895324
-0.0917892456054687,0.5891048312187195,-0.0731199607253074,-0.7168222665786743,-0.1142723336815834,0.0386476330459117,0.0,0.0,0.8072841167449951,-0.553574800491333
-0.0926375389099121,0.573573112487793,-0.0881835669279098,-0.6900481581687927,-0.1109450012445449,0.0665465518832206,0.0,0.0,0.3146144151687622,0.4698222875595093
-0.0934172645211219,0.5586578845977783,-0.08211400359869,-0.6625954508781433,-0.106836088001728,0.0821785032749176,0.0,0.0,-0.0799564719200134,0.6655652523040771
-0.0941624641418457,0.5433294177055359,-0.0778470113873481,-0.6810269951820374,-0.1035240888595581,0.0662399381399154,0.0,0.0,0.1990996599197387,0.4587866067886352
-0.0948485359549522,0.5285267233848572,-0.0727769061923027,-0.657616913318634,-0.09939556568861,0.0825706422328949,0.0,0.0,-0.0378350615501403,0.5845146179199219
-0.0955210700631141,0.5133200287818909,-0.0711621567606926,-0.6756003499031067,-0.0955150723457336,0.0776099264621734,0.0,0.0,0.1470706462860107,0.7464401721954346
-0.0961874946951866,0.498424619436264,-0.0697380229830741,-0.661823570728302,-0.0924436971545219,0.0614277012646198,0.0,0.0,0.4283860921859741,0.6598827838897705
-0.0967487320303917,0.4839270114898681,-0.0587041899561882,-0.6441769003868103,-0.089876502752304,0.0513435378670692,0.0,0.0,0.5094219446182251,0.8639606237411499
-0.0973296165466308,0.4702047109603882,-0.0595354437828063,-0.6097963452339172,-0.0884411036968231,0.0287078563123941,0.0,0.0,-0.1852041482925415,0.6281445026397705
-0.0978811234235763,0.4560791850090027,-0.0559576340019702,-0.627754271030426,-0.0876396149396896,0.0160295758396387,0.0,0.0,0.3300603628158569,-0.2767619490623474
-0.0984584838151931,0.4420318603515625,-0.0592003762722015,-0.6242395639419556,-0.0861861556768417,0.0290691908448934,0.0,0.0,0.7498581409454346,0.7458490133285522
-0.0988960266113281,0.4280776381492615,-0.044676125049591,-0.6201341152191162,-0.0852718576788902,0.0182859115302562,0.0,0.0,0.8150739669799805,0.3776741027832031
-0.0993631333112716,0.4142894446849823,-0.0482640340924263,-0.6127220392227173,-0.0837281867861747,0.0308732539415359,0.0,0.0,0.943716049194336,0.6347639560699463
-0.0997390747070312,0.4015010297298431,-0.0386511161923408,-0.5683141350746155,-0.0826799347996711,0.0209650099277496,0.0,0.0,0.1806762218475341,0.4589591026306152
-0.1000367179512977,0.3891813158988952,-0.0318995341658592,-0.5474275946617126,-0.0805666446685791,0.0422658659517765,0.0,0.0,-0.572722852230072,0.8703253269195557
-0.1003049835562706,0.3764677941799164,-0.0283507499843835,-0.564963698387146,-0.0790564492344856,0.0302036795765161,0.0,0.0,0.6703610420227051,0.0399031639099121
-0.1007041931152343,0.3638748526573181,-0.0416465811431407,-0.5595978498458862,-0.077342115342617,0.0342864319682121,0.0,0.0,0.4459794759750366,0.3084914684295654
-0.1010416001081466,0.3519167900085449,-0.0364561006426811,-0.5313315987586975,-0.0746513605117797,0.0538150481879711,0.0,0.0,0.0820903778076171,0.8936562538146973
-0.1013852134346962,0.3401276469230652,-0.0361005887389183,-0.5238749384880066,-0.0729313194751739,0.0344009026885032,0.0,0.0,0.0371755361557006,0.9398670196533204
-0.101691149175167,0.3285797834396362,-0.0312910601496696,-0.5132065415382385,-0.0722509324550628,0.013607695698738,0.0,0.0,-0.2287325263023376,0.9332325458526612
-0.1019514054059982,0.3166330754756927,-0.0256975330412387,-0.5309788584709167,-0.0725681334733963,-0.0063442336395382,0.0,0.0,0.1598947048187255,0.1988104581832885
-0.1021472960710525,0.3048950731754303,-0.020386841148138,-0.5216483473777771,-0.0717768669128418,0.0158252287656068,0.0,0.0,0.6804231405258179,0.1958166360855102
-0.1023202911019325,0.293279767036438,-0.0190472640097141,-0.5161533951759338,-0.0700464695692062,0.0346080586314201,0.0,0.0,-0.0521737933158874,0.6934316158294678
-0.1024562865495681,0.2812570929527282,-0.0145681174471974,-0.5342960357666016,-0.0690810605883598,0.0193080063909292,0.0,0.0,0.5555722713470459,0.8426114320755005
-0.1023595780134201,0.2696201801300049,0.0093092955648899,-0.5171802043914795,-0.068730928003788,0.0070025026798248,0.0,0.0,0.9631280899047852,-0.2259857654571533
-0.1020907387137413,0.2582718431949615,0.0249223038554191,-0.5042813420295715,-0.0667813047766685,0.0389924049377441,0.0,0.0,0.1960899829864502,0.6200816631317139
-0.1017655357718467,0.2473419457674026,0.030951926484704,-0.4857035279273987,-0.065237820148468,0.0308697037398815,0.0,0.0,0.7257585525512695,0.4804551601409912
-0.1013807281851768,0.2371993362903595,0.0359223708510398,-0.4506732225418091,-0.0627088323235511,0.0505795590579509,0.0,0.0,0.0058122873306274,0.6654810905456543
-0.1008549705147743,0.2272585779428482,0.0504297316074371,-0.4417243003845215,-0.0605902932584285,0.0423707589507103,0.0,0.0,0.0104248523712158,0.4835948944091797
-0.1002788543701171,0.2172156721353531,0.0543424971401691,-0.4462237954139709,-0.0573485791683197,0.064834214746952,0.0,0.0,0.5955820083618164,0.5236454010009766
-0.0997099876403808,0.2075133621692657,0.0539626665413379,-0.4311017394065857,-0.0544546395540237,0.0578787624835968,0.0,0.0,0.2349168062210083,0.3946685791015625
-0.0990646332502365,0.1983766108751297,0.0604585595428943,-0.4059390127658844,-0.050428956747055,0.0805139690637588,0.0,0.0,-0.2240214347839355,0.4926230907440185
-0.0984403640031814,0.188844546675682,0.0574933961033821,-0.4234881103038788,-0.0455638244748115,0.0973027199506759,0.0,0.0,0.3110848665237427,0.5939123630523682
-0.0978691130876541,0.1798729449510574,0.0527713596820831,-0.3986112475395202,-0.041252389550209,0.0862284526228904,0.0,0.0,-0.1390727162361145,0.624006986618042
-0.097260758280754,0.1705058962106704,0.0570620000362396,-0.4162164330482483,-0.0375216677784919,0.0746143087744712,0.0,0.0,0.1981712579727172,0.3286638259887695
-0.0966894179582595,0.1615614742040634,0.0526923350989818,-0.3974248468875885,-0.0331308990716934,0.0878155082464218,0.0,0.0,0.4814543724060058,0.3805274963378906
-0.0961875915527343,0.1532323211431503,0.0452324375510215,-0.3700814545154571,-0.0282438565045595,0.097740851342678,0.0,0.0,0.0922163724899292,0.6852166652679443
-0.0956577286124229,0.144998088479042,0.0485944636166095,-0.3658891320228576,-0.0239006709307432,0.0868634432554245,0.0,0.0,-0.2213332056999206,0.5233653783798218
-0.095110036432743,0.1363682299852371,0.0503733158111572,-0.383483737707138,-0.0195582434535026,0.0868486613035202,0.0,0.0,0.3756864070892334,0.8894221782684326
-0.0946407318115234,0.1279976665973663,0.043610580265522,-0.3719862103462219,-0.0162845999002456,0.0654728636145591,0.0,0.0,0.4028905630111694,0.5427893400192261
-0.0940342918038368,0.12014701962471,0.057340532541275,-0.3488816022872925,-0.013027012348175,0.0651517957448959,0.0,0.0,0.1500519514083862,0.7657930850982666
-0.0933271422982215,0.1122779920697212,0.0680656284093856,-0.3497168123722076,-0.0104141877964138,0.052256740629673,0.0,0.0,0.2411751747131347,0.4146637916564941
-0.0925157517194747,0.1048720180988311,0.0771296545863151,-0.3291321694850921,-0.0064622815698385,0.079038105905056,0.0,0.0,0.2405359745025634,0.461561918258667
-0.0917272567749023,0.0979454815387725,0.0740879625082016,-0.3078319430351257,-0.0017560987034812,0.0941236689686775,0.0,0.0,-0.1621126532554626,0.8872305154800415
-0.0908596962690353,0.0906343534588813,0.0833479985594749,-0.3249399065971374,0.0016000125324353,0.0671225115656852,0.0,0.0,0.2561901807785034,0.818063497543335
-0.089868351817131,0.0835897997021675,0.0964717641472816,-0.3130930960178375,0.0042223455384373,0.0524465516209602,0.0,0.0,0.55755615234375,0.4463930130004883
-0.0888920798897743,0.0773052051663398,0.0941689163446426,-0.2793318331241607,0.0076423394493758,0.0683996826410293,0.0,0.0,-0.1313148140907287,0.9334108829498292
-0.0878377929329872,0.0706349462270736,0.1031963676214218,-0.2964674234390259,0.00984603818506,0.0440739579498767,0.0,0.0,0.1874243021011352,-0.770333468914032
-0.0867833122611045,0.0640605986118316,0.1007670983672142,-0.2922307550907135,0.0144697790965437,0.0924748629331588,0.0,0.0,0.4653143882751465,0.269743800163269
-0.0858451873064041,0.0579119063913822,0.0888068005442619,-0.2733289897441864,0.0194146540015935,0.0988974347710609,0.0,0.0,0.3689980506896972,0.9525222778320312
-0.0849604606628418,0.0520047508180141,0.0846368372440338,-0.2625989019870758,0.0231976434588432,0.0756599754095077,0.0,0.0,0.3986093997955322,0.9906492233276368
-0.0840258598327636,0.0464200340211391,0.0908102095127105,-0.2482524067163467,0.0258145593106746,0.0523381307721138,0.0,0.0,0.5027707815170288,0.8979369401931763
-0.0830005630850792,0.0411704890429973,0.1008311361074447,-0.2333436012268066,0.027493193745613,0.0335727035999298,0.0,0.0,-0.0214147567749023,0.3849341869354248
-0.0819678306579589,0.035526406019926,0.1007445082068443,-0.2508970201015472,0.0299841053783893,0.0498181506991386,0.0,0.0,0.8077412843704224,0.6807245016098022
-0.0807792693376541,0.0306202508509159,0.11661858856678,-0.2180999368429184,0.032204020768404,0.0443982854485511,0.0,0.0,0.3747390508651733,0.8466696739196777
-0.0795104056596756,0.0263383015990257,0.1254920810461044,-0.1903384327888488,0.0335709266364574,0.0273382719606161,0.0,0.0,0.3702373504638672,0.2744358777999878
