x_pos,y_pos,x_vel,y_vel,angle,ang_vel,leg_1,leg_2,main_booster,lat_booster
-0.0015856742393225,1.403503656387329,-0.1601589471101761,-0.3296239674091339,0.0014180506113916,0.0279469098895788,0.0,0.0,-0.5610583424568176,0.6544439792633057
-0.0031770705245435,1.3959863185882568,-0.1587134301662445,-0.3341049253940582,0.0009973160922527,-0.0084147918969392,0.0,0.0,-0.1946003437042236,0.323704719543457
-0.0048284530639648,1.388347625732422,-0.1643109619617462,-0.3395015001296997,0.0001775042037479,-0.0163973830640316,0.0,0.0,-0.4132972955703735,0.8213222026824951
-0.0064866067841649,1.3805851936340332,-0.1632642596960067,-0.3449966311454773,-0.0023482646793127,-0.0505199916660785,0.0,0.0,0.1430873870849609,0.743567943572998
-0.0080406190827488,1.3733805418014526,-0.1510620415210724,-0.3202156126499176,-0.0066352407447993,-0.0857477709650993,0.0,0.0,-0.1356662511825561,0.1060954332351684
-0.0096499444916844,1.3660553693771362,-0.1561966836452484,-0.3255958259105682,-0.0113277491182088,-0.0938584506511688,0.0,0.0,-0.5379873514175415,0.0111465454101562
-0.0113131524994969,1.3586095571517944,-0.1611578315496444,-0.330968976020813,-0.016428280621767,-0.1020200029015541,0.0,0.0,-0.6535091996192932,-0.1054545640945434
-0.0130281448364257,1.351043462753296,-0.1659339964389801,-0.3363439440727234,-0.0219386592507362,-0.1102174371480941,0.0,0.0,-0.7310275435447693,-0.0564361214637756
-0.0147932050749659,1.343356966972351,-0.1705136001110077,-0.3417201042175293,-0.0278607681393623,-0.1184533238410949,0.0,0.0,0.1214652061462402,-0.1926809549331665
-0.0165928844362497,1.336289644241333,-0.1735622137784958,-0.3142375648021698,-0.034199085086584,-0.1267778724431991,0.0,0.0,-0.82596755027771,-0.0453489422798156
-0.0184383392333984,1.3291020393371582,-0.1777148395776748,-0.3196209073066711,-0.0409527532756328,-0.1350860446691513,0.0,0.0,-0.6044613718986511,0.4947156906127929
-0.0203271862119436,1.321794509887695,-0.1816357374191284,-0.3249970972537994,-0.0481235682964324,-0.1434293091297149,0.0,0.0,-0.7827599048614502,0.6748946905136108
-0.0221922881901264,1.3143656253814695,-0.1771944761276245,-0.3304837048053741,-0.0573405250906944,-0.1843561232089996,0.0,0.0,-0.688529372215271,0.4713233709335327
-0.0240957252681255,1.3068177700042725,-0.1806125342845916,-0.3358659744262695,-0.0669768080115318,-0.1927436590194702,0.0,0.0,-0.7314012050628662,-0.3560587763786316
-0.0260347370058298,1.299150466918945,-0.1837643235921859,-0.34124955534935,-0.0770349577069282,-0.2011810541152954,0.0,0.0,-0.6587017178535461,0.5899834632873535
-0.0279522892087698,1.291351079940796,-0.1797907799482345,-0.3472957015037536,-0.0889034867286682,-0.2373921573162078,0.0,0.0,-0.8307190537452698,-0.1955922842025756
-0.0298996921628713,1.2834333181381226,-0.1823702901601791,-0.3526844680309295,-0.1011954918503761,-0.2458621263504028,0.0,0.0,-0.7840001583099365,-0.4175294637680053
-0.0318741798400878,1.2753973007202148,-0.1846490800380706,-0.3580751121044159,-0.1139130964875221,-0.254375010728836,0.0,0.0,-0.8062756061553955,-0.8330698013305664
-0.0339264869689941,1.2672600746154783,-0.1934362053871154,-0.3625959455966949,-0.1256618946790695,-0.2349974811077118,0.0,0.0,-0.9601330161094666,0.5811254978179932
-0.0359600074589252,1.2589969635009766,-0.1901354193687439,-0.3684164583683014,-0.1388431638479232,-0.2636490166187286,0.0,0.0,-0.8059906363487244,-0.6933513879776001
-0.0380528457462787,1.2506297826766968,-0.1967664510011673,-0.3730890154838562,-0.1513589173555374,-0.2503378689289093,0.0,0.0,-0.9142428636550904,0.3224303722381592
-0.0401595123112201,1.2421447038650513,-0.1977367252111435,-0.3784839510917663,-0.1643053591251373,-0.2589522004127502,0.0,0.0,-0.8866280317306519,-0.7986913919448853
-0.0423253998160362,1.2335528135299685,-0.2044979035854339,-0.3832513689994812,-0.1764290928840637,-0.242496371269226,0.0,0.0,-0.834230899810791,-0.646696150302887
-0.0445431694388389,1.2248473167419434,-0.2104253470897674,-0.3882980346679687,-0.1878440827131271,-0.2283200472593307,0.0,0.0,-0.9061588048934937,-0.3978579044342041
-0.0467638969421386,1.2160236835479736,-0.2103146761655807,-0.3936932384967804,-0.1996919810771942,-0.2369792163372039,0.0,0.0,-0.8929277062416077,-0.8687118887901306
-0.0490696914494037,1.2070907354354858,-0.2205509841442108,-0.3984070718288421,-0.2098028808832168,-0.2022173106670379,0.0,0.0,-0.7290499806404114,-0.8793892860412598
-0.0514379516243934,1.198066234588623,-0.2281213998794555,-0.4023511707782745,-0.2185876667499542,-0.1756957173347473,0.0,0.0,-0.8286884427070618,-0.8996415138244629
-0.0538808815181255,1.1889601945877075,-0.2373697757720947,-0.4057596027851105,-0.2255967855453491,-0.1401824951171875,0.0,0.0,-0.8062313795089722,-0.6359442472457886
-0.056370448321104,1.1797606945037842,-0.2431530505418777,-0.4097698926925659,-0.2314785271883011,-0.1176347509026527,0.0,0.0,-0.7968616485595703,-0.7405450940132141
-0.0589032173156738,1.1704601049423218,-0.2485749721527099,-0.414109319448471,-0.2362528145313263,-0.0954858809709549,0.0,0.0,-0.6968014240264893,0.0749660730361938
-0.061415959149599,1.161040186882019,-0.2461419403553009,-0.4194914400577545,-0.2414620071649551,-0.1041839122772216,0.0,0.0,-0.5952237248420715,-0.4097166061401367
-0.0639043822884559,1.151501178741455,-0.2433037757873535,-0.4248741269111633,-0.2471052855253219,-0.1128653064370155,0.0,0.0,-0.3129446506500244,-0.4610165357589721
-0.0663646683096885,1.141843318939209,-0.2400593757629394,-0.4302573204040527,-0.2531814575195312,-0.1215233579277992,0.0,0.0,-0.1528502702713012,-0.6125395894050598
-0.0688451752066612,1.1320810317993164,-0.243015170097351,-0.4347571432590484,-0.2583246231079101,-0.102862998843193,0.0,0.0,-0.488588809967041,-0.6573382616043091
-0.0713377967476844,1.1222202777862549,-0.2450779676437378,-0.4389993250370025,-0.2626023888587951,-0.0855548828840255,0.0,0.0,-0.4139232039451599,0.2552218437194824
-0.0737900733947753,1.112240433692932,-0.2406178265810012,-0.4443818628787994,-0.2673074603080749,-0.0941013097763061,0.0,0.0,-0.4389879703521728,-0.3241482377052307
-0.0761977210640907,1.1021416187286377,-0.2357575446367263,-0.4497648179531097,-0.272437185049057,-0.1025943607091903,0.0,0.0,-0.4918280839920044,-0.5861538648605347
-0.078597642481327,1.0919452905654907,-0.2356744259595871,-0.4539765119552612,-0.2768714129924774,-0.0886845514178276,0.0,0.0,-0.6338476538658142,0.421056866645813
-0.0809452086687088,1.081629991531372,-0.2300271689891815,-0.4593594372272491,-0.2817235887050628,-0.0970432683825492,0.0,0.0,-0.4703348875045776,-0.5367997288703918
-0.0832749381661415,1.0712132453918457,-0.2288648188114166,-0.4637715518474579,-0.2859508395195007,-0.084544338285923,0.0,0.0,-0.0073911547660827,0.5034909248352051
-0.0855123549699783,1.060667634010315,-0.2184274643659591,-0.469747245311737,-0.2914241552352905,-0.1094665303826332,0.0,0.0,-0.5236552953720093,-0.5601979494094849
-0.0877197235822677,1.0500168800354004,-0.2159105986356735,-0.4743376076221466,-0.296397715806961,-0.0994718372821807,0.0,0.0,0.3557860851287842,-0.8421338796615601
-0.0897630676627159,1.0395967960357666,-0.20087531208992,-0.4638215005397796,-0.2999739646911621,-0.0715252459049224,0.0,0.0,0.3888509273529053,-0.1627195477485656
-0.0915242210030555,1.0296576023101809,-0.1726495921611786,-0.4424689710140228,-0.3035559058189392,-0.0716386064887046,0.0,0.0,-0.0900435447692871,-0.6068059206008911
-0.0932608619332313,1.0196149349212646,-0.1710985004901886,-0.4468742609024048,-0.3062114417552948,-0.053110547363758,0.0,0.0,-0.31770920753479,-0.2404692769050598
-0.0949194878339767,1.0094531774520874,-0.1629315465688705,-0.4522561132907867,-0.3092438876628876,-0.0606495328247547,0.0,0.0,-0.3988320827484131,-0.7761086225509644
-0.0965499877929687,0.9991931319236756,-0.1611305177211761,-0.4564119279384613,-0.3112283647060394,-0.0396900288760662,0.0,0.0,0.707665205001831,-0.5989960432052612
-0.0979944244027137,0.99012953042984,-0.1430725008249282,-0.4031258225440979,-0.3126543164253235,-0.0285192728042602,0.0,0.0,0.1085802316665649,-0.803082287311554
-0.0993453040719032,0.9817846417427064,-0.1349026709794998,-0.3709235489368438,-0.3128364682197571,-0.0036428910680115,0.0,0.0,0.3976672887802124,-0.5947806239128113
-0.1005365401506424,0.97396320104599,-0.1197548657655716,-0.347477912902832,-0.3121870458126068,0.0129886101931333,0.0,0.0,0.7071816921234131,-0.6870441436767578
-0.101351261138916,0.9668153524398804,-0.0834794417023658,-0.3172574937343597,-0.310112714767456,0.0414863564074039,0.0,0.0,0.3646625280380249,-0.6602886915206909
-0.1019827872514724,0.9604691863059998,-0.0660598129034042,-0.2814347147941589,-0.3070948719978332,0.0603569746017456,0.0,0.0,0.2329741716384887,-0.2742622494697571
-0.1023372635245323,0.9544408321380616,-0.0384453125298023,-0.2672983407974243,-0.3040017187595367,0.061863787472248,0.0,0.0,-0.6565412878990173,-0.3865297436714172
-0.1025905609130859,0.9482927918434144,-0.028034072369337,-0.2726781666278839,-0.3011967539787292,0.0560993738472461,0.0,0.0,0.3487489223480224,-0.5196868777275085
-0.102535530924797,0.9425529837608336,0.0017380019417032,-0.2543241381645202,-0.2973088920116424,0.0777573585510253,0.0,0.0,-0.61033034324646,-0.8583722114562988
-0.1024500876665115,0.9367245435714722,0.0030721297953277,-0.2579362988471985,-0.2916604578495025,0.1129687801003456,0.0,0.0,-0.4723100662231445,-0.5615481734275818
-0.1022910103201866,0.930797517299652,0.0097224963828921,-0.2621940076351166,-0.2852859199047088,0.1274901777505874,0.0,0.0,-0.3870866894721985,-0.5870053172111511
-0.1020551696419715,0.9247686266899108,0.0167089030146598,-0.2666292190551758,-0.2782155275344848,0.1414077579975128,0.0,0.0,-0.8779893517494202,-0.6627166271209717
-0.1017494201660156,0.9186455607414246,0.0227275229990482,-0.2706620991230011,-0.2701686918735504,0.1609365046024322,0.0,0.0,-0.9748941659927368,0.094239592552185
-0.1013291329145431,0.9124031066894532,0.0343402288854122,-0.2760432958602905,-0.2623109519481659,0.1571548879146576,0.0,0.0,-0.994213879108429,0.3134973049163818
-0.1007926911115646,0.9060413241386414,0.0461171120405197,-0.2814237177371979,-0.2546232938766479,0.1537528783082962,0.0,0.0,-0.9975775480270386,-0.2230801582336425
-0.1001381874084472,0.8995598554611206,0.0580485947430133,-0.2868034243583679,-0.2470861822366714,0.1507422775030136,0.0,0.0,-0.9982869625091552,0.7588275671005249
-0.0992944687604904,0.8929301500320435,0.0789025425910949,-0.2937463223934173,-0.2415284067392349,0.1111554130911827,0.0,0.0,-0.9853830337524414,-0.7781383395195007
-0.0983867645263671,0.8862027525901794,0.0839238315820694,-0.2978886663913727,-0.2345702350139618,0.1391635090112686,0.0,0.0,-0.9840691685676576,0.4057826995849609
-0.097356416285038,0.8793553113937378,0.096265509724617,-0.3032661080360412,-0.2277009487152099,0.1373854428529739,0.0,0.0,-0.9918373823165894,-0.6188675761222839
-0.0962592139840126,0.8724081516265869,0.1015131473541259,-0.3075126111507416,-0.2193955034017563,0.1661089658737182,0.0,0.0,-0.999550759792328,0.1694847345352172
-0.0950366035103797,0.8653414249420166,0.1140865534543991,-0.3128908574581146,-0.2111363708972931,0.1651827096939087,0.0,0.0,-0.985722005367279,0.0751922130584716
-0.0936873406171798,0.8581547141075134,0.1267650127410888,-0.3182686567306518,-0.2029020339250564,0.1646863520145416,0.0,0.0,-0.989835798740387,-0.5435023903846741
-0.0922494903206825,0.8508666753768921,0.1345755755901336,-0.3226795196533203,-0.1936232298612594,0.1855760514736175,0.0,0.0,-0.9895059466362,-0.2558785676956177
-0.0906825065612793,0.8434587717056274,0.1474430710077285,-0.3280580639839172,-0.1843263655900955,0.1859374344348907,0.0,0.0,-0.9986889362335204,-0.4265648126602173
-0.0889854431152343,0.835931122303009,0.1603957265615463,-0.3334363400936126,-0.1749902218580246,0.1867232024669647,0.0,0.0,-0.9978380799293518,-0.1867196559906005
-0.0871573463082313,0.8282836079597473,0.1734276115894317,-0.3388144075870514,-0.1655938029289245,0.1879280507564544,0.0,0.0,-0.9924439787864684,-0.5773885250091553
-0.0852511376142501,0.8205363750457764,0.1797381490468979,-0.3431441485881805,-0.1547090113162994,0.2176957428455352,0.0,0.0,-0.995101034641266,-0.671428382396698
-0.0832579582929611,0.8126806020736694,0.1871269047260284,-0.3479230999946594,-0.1425437033176422,0.2433063089847564,0.0,0.0,-0.9958271384239196,0.37486732006073
-0.0811309814453125,0.804705798625946,0.2003625929355621,-0.3533056378364563,-0.1302578598260879,0.2457172572612762,0.0,0.0,-0.9788170456886292,-0.0528657436370849
-0.0788694396615028,0.7966116666793823,0.2136566340923309,-0.3586884140968323,-0.1178323924541473,0.248509407043457,0.0,0.0,-0.997547209262848,-0.4718444347381592
-0.0764727592468261,0.788398802280426,0.2270044982433319,-0.3640714585781097,-0.1052488759160041,0.2516703009605407,0.0,0.0,-0.99038565158844,-0.1196244955062866
-0.0739400833845138,0.7800667881965637,0.2404018342494964,-0.3694548308849334,-0.092489555478096,0.2551866173744201,0.0,0.0,-0.991666316986084,-0.6131847500801086
-0.0713124275207519,0.7716280817985535,0.2486250847578048,-0.3742426931858063,-0.0784756988286972,0.2802771925926208,0.0,0.0,-0.9918060898780824,0.1680465936660766
-0.0685476288199424,0.7630707621574402,0.2621088624000549,-0.3796294629573822,-0.0642526745796203,0.2844606041908264,0.0,0.0,-0.9990144371986388,0.4843600988388061
-0.0656452178955078,0.7543949484825134,0.2756304144859314,-0.3850168883800506,-0.049804899841547,0.2889555394649505,0.0,0.0,-0.9987787008285522,-0.3759939670562744
-0.0626047104597091,0.7456011772155762,0.2891861200332641,-0.3904051184654236,-0.0351175516843795,0.2937468886375427,0.0,0.0,-0.9961644411087036,0.0570101737976074
-0.0594257339835166,0.7366892695426941,0.302772581577301,-0.3957942128181457,-0.0201765745878219,0.2988194823265075,0.0,0.0,-0.9982535243034364,0.0613226890563964
-0.0561078079044818,0.7276594042778015,0.3163864016532898,-0.4011842608451843,-0.0049686720594763,0.3041582107543945,0.0,0.0,-0.9987074732780457,0.552560567855835
-0.0526077263057231,0.7185140252113342,0.3354033529758453,-0.4064677655696869,0.0094417510554194,0.2882088124752044,0.0,0.0,-0.9947033524513244,-0.3936280012130737
-0.0489682182669639,0.7092507481575012,0.3490626215934753,-0.4118571877479553,0.0241435673087835,0.2940364480018616,0.0,0.0,-0.9917564392089844,-0.5805885195732117
-0.0452329628169536,0.6998625993728638,0.3572127819061279,-0.4175910651683807,0.0402576588094234,0.3222814798355102,0.0,0.0,-0.989523708820343,-0.8119201064109802
-0.0414118766784668,0.6903483867645264,0.3641068935394287,-0.4234327971935272,0.0580518953502178,0.3558846414089203,0.0,0.0,-0.9822821021080016,-0.9054171442985536
-0.0375045761466026,0.6807131767272949,0.3710309565067291,-0.4291062653064728,0.0775305554270744,0.3895730972290039,0.0,0.0,-0.9555800557136536,-0.868985116481781
-0.0335095413029193,0.6709501147270203,0.3781694769859314,-0.4351497590541839,0.098672866821289,0.4228465557098388,0.0,0.0,-0.5689839720726013,-0.7392844557762146
-0.0294333454221487,0.6610699892044067,0.3844839930534363,-0.4408102631568908,0.1216412186622619,0.4593669772148132,0.0,0.0,-0.7546812891960144,-0.6493082642555237
-0.025265883654356,0.6510729789733887,0.3921025395393371,-0.4465069472789764,0.1461851745843887,0.4908789992332458,0.0,0.0,0.2996922731399536,-0.3475993871688843
-0.0209379196166992,0.641764223575592,0.4074314534664154,-0.4164148271083832,0.1715379804372787,0.5070561170578003,0.0,0.0,0.6697006225585938,-0.6047858595848083
-0.0164644233882427,0.6328417062759399,0.4202515184879303,-0.3999159634113312,0.1987378001213073,0.5439968705177307,0.0,0.0,0.5149054527282715,-0.7407550811767578
-0.0120530128479003,0.6244610548019409,0.4124504923820495,-0.3765877485275268,0.2277036607265472,0.5793173313140869,0.0,0.0,0.7997698783874512,0.7454054355621338
-0.0075608254410326,0.6174072027206421,0.421621024608612,-0.3180140554904938,0.2557509541511535,0.5609456300735474,0.0,0.0,0.706545352935791,-0.4584655165672302
-0.0031017302535474,0.6110877394676208,0.4182499945163727,-0.2859276533126831,0.2840685844421386,0.5663532018661499,0.0,0.0,0.27392578125,0.1067485809326171
0.0012319565284997,0.605502188205719,0.4059903621673584,-0.2538273930549621,0.3123299777507782,0.5652279853820801,0.0,0.0,0.141757845878601,0.3736686706542969
0.0056128501892089,0.6005239486694336,0.4103229641914367,-0.2275027632713318,0.3412625789642334,0.5786522030830383,0.0,0.0,0.5098940134048462,0.9312644004821776
0.0099173542112112,0.59642094373703,0.404456615447998,-0.188752606511116,0.3686220049858093,0.5471885204315186,0.0,0.0,0.1698429584503173,0.9126739501953124
0.0141701698303222,0.5929575562477112,0.4009405970573425,-0.1604121625423431,0.3944863975048065,0.5172879099845886,0.0,0.0,0.3459630012512207,0.8937633037567139
0.0184487346559762,0.589969277381897,0.4051291942596435,-0.1393151581287384,0.4188985526561737,0.4882436394691467,0.0,0.0,0.5391781330108643,0.7899398803710938
0.0225828178226947,0.5876017808914185,0.3922309577465057,-0.1116837635636329,0.4418978095054626,0.4599851965904236,0.0,0.0,0.5573105812072754,0.7411544322967529
0.0265546794980764,0.5857265591621399,0.3774959444999695,-0.0897048786282539,0.4635014832019806,0.4320732057094574,0.0,0.0,0.7198859453201294,0.8418271541595459
0.0304953567683696,0.5848724842071533,0.3756223917007446,-0.0442519634962081,0.4839564859867096,0.4091003537178039,0.0,0.0,0.6171796321868896,0.955676794052124
0.0345334038138389,0.5844762325286865,0.3868775963783264,-0.0236637219786643,0.502912700176239,0.3791238665580749,0.0,0.0,0.750054121017456,0.5602459907531738
0.0384987816214561,0.585182249546051,0.3800938725471496,0.0252237413078546,0.5215340852737427,0.3724273145198822,0.0,0.0,0.745305061340332,0.6747292280197144
0.0422125831246376,0.5868648290634155,0.35602867603302,0.0687921419739723,0.5390914082527161,0.3511448204517364,0.0,0.0,0.7402942180633545,0.2202340364456176
0.0457283966243267,0.5897076725959778,0.3354164958000183,0.1197793930768966,0.5577790141105652,0.373752623796463,0.0,0.0,0.7387580871582031,0.9148321151733398
0.0491918548941612,0.593340277671814,0.3315572142601013,0.1551889777183532,0.5750744342803955,0.3459080159664154,0.0,0.0,0.446449875831604,0.9413236379623412
0.0524522773921489,0.5978196263313293,0.312761902809143,0.1932561993598938,0.5907720327377319,0.3139516413211822,0.0,0.0,0.1864547729492187,0.9954094886779784
0.0556344985961914,0.6030031442642212,0.3065199553966522,0.2250766307115554,0.604742705821991,0.279413491487503,0.0,0.0,0.4998438358306885,0.997979998588562
0.0588470473885536,0.6087180376052856,0.3110337853431701,0.2492256611585617,0.6170642971992493,0.2464312613010406,0.0,0.0,-0.0619518160820007,0.9952986240386964
0.0622410774230957,0.6143717765808105,0.330299973487854,0.2469286173582077,0.628115177154541,0.2210171222686767,0.0,0.0,-0.0273147821426391,0.9673545360565186
0.0658148750662803,0.6199592351913452,0.3493182063102722,0.2444024235010147,0.6379700303077698,0.1970967054367065,0.0,0.0,0.6083436012268066,0.9184198379516602
0.0692301765084266,0.6261338591575623,0.3348084688186645,0.2710790336132049,0.6462562680244446,0.1657247841358184,0.0,0.0,-0.359976053237915,0.883882999420166
0.0728321075439453,0.6322551965713501,0.3547529578208923,0.2693061828613281,0.6529917120933533,0.134709283709526,0.0,0.0,-0.2096254825592041,0.7967023849487305
0.0766241997480392,0.6383224129676819,0.3751298785209656,0.2675595581531524,0.6580814719200134,0.1017946377396583,0.0,0.0,-0.2207993268966674,0.4109019041061401
0.0805426612496376,0.6442729234695435,0.3874030709266662,0.2621624767780304,0.6636307835578918,0.1109865456819534,0.0,0.0,0.6854188442230225,0.7213988304138184
0.0841418281197547,0.6511615514755249,0.356363832950592,0.3042976558208465,0.6681032776832581,0.0894504711031913,0.0,0.0,0.7840218544006348,0.6936841011047363
0.0877593010663986,0.6584431529045105,0.3588987290859222,0.3221206963062286,0.6716902852058411,0.0717404335737228,0.0,0.0,0.717768669128418,0.6639220714569092
