x_pos,y_pos,x_vel,y_vel,angle,ang_vel,leg_1,leg_2,main_booster,lat_booster
-0.0015180588234215,1.4029849767684937,-0.1537608206272125,-0.3526736795902252,0.0017511713085696,0.0345424488186836,0.0,0.0,-0.2266243696212768,0.5736855268478394
-0.002981090452522,1.3944308757781982,-0.1467650234699249,-0.380186527967453,0.0022054244764149,0.0090868975967168,0.0,0.0,-0.1596465110778808,0.8535007238388062
-0.0043554306030273,1.3852307796478271,-0.1357827186584472,-0.4088940024375915,0.000574548379518,-0.0326205566525459,0.0,0.0,-0.3783832788467407,0.282233715057373
-0.0057223318144679,1.3753910064697266,-0.1350157260894775,-0.4373210668563843,-0.001082588918507,-0.0331456661224365,0.0,0.0,0.5424859523773193,0.94404935836792
-0.0068700788542628,1.3658277988433838,-0.1113637089729309,-0.4250413179397583,-0.004460456315428,-0.0675636976957321,0.0,0.0,0.4725306034088135,0.5444939136505127
-0.0078322412446141,1.356349229812622,-0.0920315310359001,-0.4212912023067474,-0.0086083132773637,-0.0829645469784736,0.0,0.0,-0.1895184516906738,-0.4499036073684692
-0.0087856296449899,1.34623122215271,-0.0911020338535308,-0.4497178196907043,-0.0127917192876338,-0.0836760625243187,0.0,0.0,-0.0453846454620361,-0.6944748163223267
-0.0097705842927098,1.3354767560958862,-0.0952838584780693,-0.4780056774616241,-0.015978530049324,-0.0637418925762176,0.0,0.0,0.6091388463973999,-0.1041685342788696
-0.010744571685791,1.325305700302124,-0.0940808802843093,-0.4520883858203888,-0.0192626845091581,-0.0656890198588371,0.0,0.0,-0.5859007835388184,-0.0778132677078247
-0.0117083545774221,1.3144949674606323,-0.0930194109678268,-0.480522483587265,-0.0225899051874876,-0.066550500690937,0.0,0.0,-0.0582391619682312,-0.4686739444732666
-0.0126616479828953,1.3030450344085691,-0.0919175297021865,-0.5089426040649414,-0.0259629115462303,-0.0674661919474601,0.0,0.0,-0.1814039349555969,-0.510003387928009
-0.0136395450681447,1.290955901145935,-0.0952298194169998,-0.5373367667198181,-0.0284915342926979,-0.0505767278373241,0.0,0.0,0.2943388223648071,-0.829151451587677
-0.0145397186279296,1.2790510654449463,-0.0891966968774795,-0.5291169285774231,-0.029298922047019,-0.0161493513733148,0.0,0.0,-0.156287670135498,-0.8775500059127808
-0.0154898641631007,1.2665011882781982,-0.0956971570849418,-0.5577605962753296,-0.0286191776394844,0.0135957766324281,0.0,0.0,0.0709245204925537,-0.153159499168396
-0.0163214690983295,1.254109263420105,-0.084232784807682,-0.5507363677024841,-0.0275635439902544,0.0211150962859392,0.0,0.0,-0.4652049541473388,0.6283261775970459
-0.0170826911926269,1.24106764793396,-0.0756418630480766,-0.579629123210907,-0.0280386228114366,-0.0095026362687349,0.0,0.0,0.2373193502426147,-0.7142537236213684
-0.0177537910640239,1.2283531427383425,-0.068167470395565,-0.5650679469108582,-0.0269918162375688,0.0209381729364395,0.0,0.0,-0.5371167659759521,-0.5475372076034546
-0.0184454917907714,1.2149957418441772,-0.0710086375474929,-0.5936315655708313,-0.0251761935651302,0.0363158024847507,0.0,0.0,-0.7678762674331665,0.059267520904541
-0.0191245079040527,1.2009990215301514,-0.0696785002946853,-0.6220517754554749,-0.023421773687005,0.035091608762741,0.0,0.0,-0.5915549993515015,-0.5283655524253845
-0.0198380462825298,1.1863641738891602,-0.0742629840970039,-0.6503944993019104,-0.0205399841070175,0.0576412267982959,0.0,0.0,-0.6892790794372559,-0.2463577985763549
-0.0205384250730276,1.1710898876190186,-0.0728940814733505,-0.6788190007209778,-0.0177227016538381,0.0563506968319416,0.0,0.0,-0.3012099862098694,-0.0526949167251586
-0.0212256424129009,1.1551764011383057,-0.0715059489011764,-0.7072433233261108,-0.0149703081697225,0.0550527572631835,0.0,0.0,-0.4767374992370605,-0.379999577999115
-0.0218995101749897,1.1386232376098633,-0.070100113749504,-0.7356678247451782,-0.0122841326519846,0.0537282302975654,0.0,0.0,0.0205694437026977,-0.0164142847061157
-0.0225142482668161,1.1217190027236938,-0.0643278062343597,-0.7512711882591248,-0.0094647258520126,0.0563932135701179,0.0,0.0,-0.1753216981887817,0.1949173212051391
-0.0231153480708599,1.1041754484176636,-0.0628913342952728,-0.7796986103057861,-0.0067134504206478,0.0550302788615226,0.0,0.0,0.6960616111755371,-0.0350030660629272
-0.023847484961152,1.0870566368103027,-0.0752242356538772,-0.7608258724212646,-0.0047227288596332,0.039814293384552,0.0,0.0,0.6813077926635742,-0.424996554851532
-0.0245581623166799,1.0704073905944824,-0.073031447827816,-0.7399643659591675,-0.0027829424943774,0.0387958399951458,0.0,0.0,0.4336369037628174,-0.1978463530540466
-0.0253661163151264,1.054193377494812,-0.0821557193994522,-0.7206233739852905,-0.0014370868448168,0.0269170645624399,0.0,0.0,0.092987060546875,-0.1747573018074035
-0.0262454040348529,1.0381087064743042,-0.0888157933950424,-0.7148745059967041,-0.0005603168392553,0.0175354517996311,0.0,0.0,-0.1736614108085632,-0.4585988521575928
-0.0271102897822856,1.021384596824646,-0.0873127281665802,-0.7432963252067566,0.0002464722492732,0.0161358378827571,0.0,0.0,0.6827967166900635,-0.4345013499259949
-0.0279418937861919,1.005314588546753,-0.0840027034282684,-0.7142280340194702,0.0010711880167946,0.0164944604039192,0.0,0.0,-0.3130097389221191,-0.0401439070701599
-0.0287590976804494,0.9886049032211304,-0.0824823230504989,-0.7426497340202332,0.0018256370676681,0.0150888115167617,0.0,0.0,0.6507604122161865,0.1659311056137085
-0.0296456329524517,0.972456991672516,-0.0889613628387451,-0.7176839709281921,0.0021280699875205,0.0060489736497402,0.0,0.0,-0.4246098399162292,-0.5206546187400818
-0.0305631645023822,0.9556646347045898,-0.0931426659226417,-0.7463239431381226,0.0035052243620157,0.0275428351014852,0.0,0.0,0.2804349660873413,0.3068792819976806
-0.0314550399780273,0.9389622807502748,-0.0905685573816299,-0.742335855960846,0.0048705260269343,0.027306055650115,0.0,0.0,-0.45024573802948,-0.0392168164253234
-0.0323321335017681,0.9216203093528748,-0.0890213251113891,-0.7707575559616089,0.0061659235507249,0.0259078852832317,0.0,0.0,-0.121830940246582,0.5689609050750732
-0.033151339739561,0.903636395931244,-0.0820642188191413,-0.7992865443229675,0.006309637799859,0.0028741718269884,0.0,0.0,0.8586552143096924,-0.4544316530227661
-0.0339181907474994,0.886297881603241,-0.0769626200199127,-0.7706019878387451,0.0065821674652397,0.0054505029693245,0.0,0.0,0.5416851043701172,-0.2574563026428222
-0.0347119346261024,0.8694989085197449,-0.0794155672192573,-0.7466219663619995,0.0066159586422145,0.0006761460681445,0.0,0.0,0.5498204231262207,-0.6247139573097229
-0.0355151183903217,0.852916419506073,-0.0816102176904678,-0.7370088696479797,0.0078879864886403,0.0254405476152896,0.0,0.0,-0.2000170946121215,0.1548503637313842
-0.0363033302128315,0.8356943726539612,-0.0800405293703079,-0.7654306292533875,0.0090922880917787,0.0240859687328338,0.0,0.0,0.2058064937591552,0.7244930267333984
-0.0369207374751567,0.8184065222740173,-0.0615591518580913,-0.7683500051498413,0.0089102322235703,-0.0036412619519978,0.0,0.0,0.6051545143127441,-0.4218538999557495
-0.0374314300715923,0.8009373545646667,-0.0512568838894367,-0.776405930519104,0.0090984646230936,0.0037646465934813,0.0,0.0,0.635216236114502,0.2901853322982788
-0.0378335006535053,0.7836150527000427,-0.0407863743603229,-0.7698914408683777,0.0096757020801305,0.0115444865077734,0.0,0.0,0.242701768875122,0.4423632621765136
-0.038253117352724,0.765984833240509,-0.0423327460885047,-0.7835651636123657,0.0100467782467603,0.0074213882908225,0.0,0.0,0.2169570922851562,0.3252058029174804
-0.0386261940002441,0.7480849623680115,-0.0377707481384277,-0.7955569624900818,0.0105105647817254,0.0092757223173975,0.0,0.0,0.536118745803833,0.0676213502883911
-0.0389315597712993,0.7301695346832275,-0.031215127557516,-0.7962418794631958,0.011173871345818,0.0132662756368517,0.0,0.0,0.3533031940460205,0.5197796821594238
-0.03928804397583,0.7126438021659851,-0.0349702313542366,-0.7789210081100464,0.0105084907263517,-0.0133078191429376,0.0,0.0,-0.1181367635726928,0.5792309045791626
-0.039593506604433,0.6944841742515564,-0.0289014130830764,-0.8070839047431946,0.0088840797543525,-0.0324884429574012,0.0,0.0,0.2500262260437011,-0.4129353761672973
-0.0399031639099121,0.6762620210647583,-0.0291789658367633,-0.8098598122596741,0.0071260351687669,-0.0351610444486141,0.0,0.0,0.597718358039856,0.0188208818435668
-0.0400627143681049,0.6582304239273071,-0.014758912846446,-0.8014037609100342,0.0059513235464692,-0.0234943144023418,0.0,0.0,0.4710745811462402,-0.339374303817749
-0.0402620323002338,0.6405426859855652,-0.0184428561478853,-0.7861149311065674,0.0044823233038187,-0.0293800197541713,0.0,0.0,0.5654162168502808,0.4274263381958008
-0.04034423828125,0.6228479743003845,-0.0071660922840237,-0.7864251732826233,0.0034366785548627,-0.0209126621484756,0.0,0.0,0.6310153007507324,0.560504674911499
-0.0403660759329795,0.6057006120681763,5.237525328993797e-05,-0.7621042728424072,0.0012305767741054,-0.0441223010420799,0.0,0.0,0.8104501962661743,-0.3210757970809936
-0.0402098670601844,0.5887154340744019,0.0171432886272668,-0.7548941373825073,-0.0002732556895352,-0.0300766583532094,0.0,0.0,0.1042433977127075,0.3237318992614746
-0.0401021018624305,0.5715633034706116,0.0126573871821165,-0.762319028377533,-0.0021241018548607,-0.0370169654488563,0.0,0.0,0.6686313152313232,-0.1487423181533813
-0.0398821830749511,0.5549787878990173,0.0234730914235115,-0.7370907664299011,-0.0035858391784131,-0.0292348712682724,0.0,0.0,0.4130963087081909,0.17721688747406
-0.0395266525447368,0.5386195778846741,0.0365234836935997,-0.727082371711731,-0.0045501603744924,-0.0192862376570701,0.0,0.0,0.4203488826751709,0.2646677494049072
-0.0390882492065429,0.5226820111274719,0.0445607639849185,-0.7083349823951721,-0.00526436092332,-0.0142839280888438,0.0,0.0,0.1515078544616699,-0.3241745829582214
-0.0386846549808979,0.5069270133972168,0.0413806848227977,-0.7002274990081787,-0.0062695415690541,-0.0201037600636482,0.0,0.0,0.0258491039276123,-0.3740420341491699
-0.0382323265075683,0.490877091884613,0.0461435429751873,-0.7133331894874573,-0.0071714995428919,-0.0180390998721122,0.0,0.0,0.4702762365341186,-0.3153344392776489
-0.0378493294119834,0.4751249551773071,0.0396747849881649,-0.700100839138031,-0.0085284514352679,-0.0271389968693256,0.0,0.0,0.3541157245635986,-0.4033414125442505
-0.0373460762202739,0.4593678712844848,0.0512715503573417,-0.7003196477890015,-0.0094576179981231,-0.0185835231095552,0.0,0.0,0.5295319557189941,-0.8761725425720215
-0.0368667617440223,0.4438243508338928,0.0471151322126388,-0.6908150315284729,-0.0086505599319934,0.016141002997756,0.0,0.0,0.6697585582733154,0.0610873699188232
-0.0363605506718158,0.4282490015029907,0.0498019568622112,-0.6922337412834167,-0.0078440783545374,0.0161297135055065,0.0,0.0,0.9080615043640136,-0.1029039621353149
-0.0359765999019146,0.4130597114562988,0.0382923558354377,-0.6750805974006653,-0.0077343638986349,0.0021942323073744,0.0,0.0,0.8509629964828491,-0.0851923823356628
-0.0355456359684467,0.3986686766147613,0.0429062508046627,-0.6395962238311768,-0.0075471103191375,0.0037450450472533,0.0,0.0,0.1864082813262939,-0.1548435688018798
-0.035038661211729,0.383952647447586,0.0502576157450675,-0.6540461778640747,-0.0071191438473761,0.0085594430565834,0.0,0.0,0.8771467208862305,-0.5653883814811707
-0.0345214828848838,0.3700586557388305,0.0500908493995666,-0.6175040006637573,-0.0055054244585335,0.0322744213044643,0.0,0.0,0.408947229385376,-0.029718279838562
-0.034066867083311,0.3561313450336456,0.0442323014140129,-0.618986189365387,-0.0042914682999253,0.0242791343480348,0.0,0.0,0.6750596761703491,0.0670671463012695
-0.0336870178580284,0.3425949811935425,0.0372188538312912,-0.601615309715271,-0.003534993622452,0.0151293408125638,0.0,0.0,0.7963356971740723,0.5462143421173096
-0.0332104675471782,0.329434722661972,0.0479087010025978,-0.5849011540412903,-0.0037906237412244,-0.0051123546436429,0.0,0.0,0.639437198638916,-0.2269335985183715
-0.0328432098031044,0.3168927729129791,0.0375997275114059,-0.5574229955673218,-0.0046609877608716,-0.0174072086811065,0.0,0.0,0.4738507270812988,-0.18093341588974
-0.0323927886784076,0.3044835925102234,0.0456388071179389,-0.5515208840370178,-0.0052498555742204,-0.0117772910743951,0.0,0.0,0.7424033880233765,-0.6205222010612488
-0.0320122726261615,0.2920495271682739,0.0375035479664802,-0.5526265501976013,-0.0047203842550516,0.0105894766747951,0.0,0.0,0.6505537033081055,-0.408254861831665
-0.0315472595393657,0.2794625163078308,0.0456710793077945,-0.5594186186790466,-0.0038950827438384,0.0165060739964246,0.0,0.0,0.850813627243042,-0.0431653261184692
-0.0311009399592876,0.2668066322803497,0.0439775288105011,-0.5624819993972778,-0.0032503744587302,0.0128939626738429,0.0,0.0,0.6521162986755371,-0.4645031690597534
-0.0306453704833984,0.254701018333435,0.0449642613530159,-0.5380232930183411,-0.0026596554089337,0.0118143716827034,0.0,0.0,0.6799936294555664,-0.1369768977165222
-0.0300909988582134,0.2431999742984771,0.0544610731303691,-0.5111570954322815,-0.0017061954131349,0.0190692748874425,0.0,0.0,0.6353949308395386,-0.8586298823356628
-0.0297121051698923,0.2322821021080017,0.0354081988334655,-0.4852350950241089,0.0007467639516107,0.0490589849650859,0.0,0.0,0.4147937297821045,-0.031337022781372
-0.0294293407350778,0.2211502194404602,0.026324650272727,-0.4947529733181,0.0026764133945107,0.0385929010808467,0.0,0.0,0.6015996932983398,0.4780799150466919
-0.0290946010500192,0.2105285227298736,0.0313366204500198,-0.472080647945404,0.0047775977291166,0.0420238338410854,0.0,0.0,0.5926063060760498,0.6438953876495361
-0.0288032535463571,0.2000990211963653,0.028557002544403,-0.463533341884613,0.005353997927159,0.0115277981385588,0.0,0.0,0.860854983329773,-0.4441472291946411
-0.028563117608428,0.1901747733354568,0.023728784173727,-0.4410801827907562,0.0056381435133516,0.0056830449029803,0.0,0.0,0.5444357395172119,-0.4286400079727173
-0.0283233635127544,0.18059141933918,0.0237459819763898,-0.4259275496006012,0.0058652418665587,0.0045419568195939,0.0,0.0,0.5625174045562744,-0.7316343784332275
-0.0280396454036235,0.171194389462471,0.0265072584152221,-0.4176546931266784,0.0077138915657997,0.0369728505611419,0.0,0.0,0.7503881454467773,0.4074176549911499
-0.0277193076908588,0.1617021709680557,0.0300401654094457,-0.4218877255916595,0.0096757896244525,0.0392379015684127,0.0,0.0,0.5620682239532471,-0.6843757629394531
-0.0273468978703022,0.1521371901035308,0.0336877293884754,-0.4251372516155243,0.0131930774077773,0.0703457817435264,0.0,0.0,0.6075630187988281,-0.5393667221069336
-0.0268569942563772,0.1427684873342514,0.0439344495534896,-0.4164424836635589,0.0181824043393135,0.0997865051031112,0.0,0.0,0.7804832458496094,-0.5934693813323975
-0.0262470245361328,0.1333967000246048,0.0543169192969799,-0.4166192412376404,0.024774270132184,0.1318375468254089,0.0,0.0,0.7608085870742798,-0.5979385375976562
-0.0256973262876272,0.1245891153812408,0.0470984168350696,-0.391597181558609,0.0325393974781036,0.1553024500608444,0.0,0.0,0.6194989681243896,-0.6238805055618286
-0.0251753814518451,0.1162616834044456,0.0429986640810966,-0.3703335225582123,0.0416235625743866,0.1816832423210144,0.0,0.0,0.4170601367950439,0.7515590190887451
-0.024485969915986,0.1081672757863998,0.0610664971172809,-0.3599938154220581,0.0493999533355236,0.1555279791355133,0.0,0.0,0.1480371952056884,-0.2112001776695251
-0.0237253196537494,0.099779188632965,0.0678721219301223,-0.3730967938899994,0.0575043596327304,0.1620881855487823,0.0,0.0,0.8734016418457031,0.521621584892273
-0.0230073928833007,0.0916136801242828,0.0648319646716117,-0.3631941974163055,0.0643903836607933,0.1377204656600952,0.0,0.0,0.6873235702514648,0.7472472190856934
-0.0221810340881347,0.0841519236564636,0.076979860663414,-0.3318848311901092,0.0699827000498771,0.1118464097380638,0.0,0.0,0.3940171003341675,-0.784608006477356
-0.021460723131895,0.0767608284950256,0.0648286417126655,-0.3288497626781463,0.0771125927567482,0.1425978690385818,0.0,0.0,0.6188634634017944,0.647908091545105
-0.0208705905824899,0.069892942905426,0.0534040220081806,-0.3055366277694702,0.08265932649374,0.1109347566962242,0.0,0.0,0.3819186687469482,-0.1088669300079345
-0.0202455520629882,0.063267670571804,0.0565634481608867,-0.2947976291179657,0.088549755513668,0.1178085431456565,0.0,0.0,0.4765211343765259,-0.7619928121566772
-0.0197829250246286,0.0569957345724105,0.0388680323958396,-0.2792062759399414,0.0958777219057083,0.1465594470500946,0.0,0.0,0.7146809101104736,0.475615382194519
-0.0194705016911029,0.0512330643832683,0.0242470949888229,-0.2565831542015075,0.1028161868453025,0.138769119977951,0.0,0.0,0.6159133911132812,0.902841567993164
-0.0191549304872751,0.0455620139837265,0.02642123401165,-0.2524134218692779,0.1079252362251281,0.1021806448698043,0.0,0.0,0.7176778316497803,0.7412964105606079
-0.0189715381711721,0.0401728488504886,0.0149393584579229,-0.2397667616605758,0.1112889349460601,0.0672741830348968,0.0,0.0,0.8459112644195557,0.9673514366149902
-0.0189552307128906,0.0349960438907146,0.0004809532256331,-0.2301676273345947,0.1124365776777267,0.0229526609182357,0.0,0.0,0.6473183631896973,0.98444402217865
-0.0188164710998535,0.0302867274731397,0.0145488427951931,-0.2092528641223907,0.1117693409323692,-0.0133444722741842,0.0,0.0,0.7373065948486328,0.855350136756897
-0.0185755733400583,0.0255322083830833,0.0263420846313238,-0.2111463844776153,0.1095318123698234,-0.044750440865755,0.0,0.0,0.8553440570831299,0.638770580291748
-0.0181985851377248,0.0214576814323663,0.0407820306718349,-0.1808689385652542,0.1064732670783996,-0.0611711032688617,0.0,0.0,0.5731396675109863,0.5430241823196411
-0.0178758613765239,0.017853507772088,0.0365002080798149,-0.1598888784646988,0.102278783917427,-0.0838894695043563,0.0,0.0,0.144263744354248,-0.3036812543869018
-0.0175108909606933,0.0145083284005522,0.0402588695287704,-0.1484219133853912,0.0985498577356338,-0.0745786428451538,0.0,0.0,0.0181218385696411,-0.1432056427001953
-0.0171307567507028,0.0110639426857233,0.041554257273674,-0.1528540998697281,0.0950465947389602,-0.0700653195381164,0.0,0.0,0.4289742708206177,-0.1073601245880127
-0.0169030185788869,0.0086834644898772,0.042876660823822,-0.1046409532427787,0.0751230493187904,-0.3984712660312652,0.0,1.0,0.5269181728363037,-0.2583914995193481
-0.0166743285953998,0.0067638251930475,0.0427494272589683,-0.0844397023320198,0.055459339171648,-0.3932744562625885,0.0,1.0,-0.0150858163833618,-0.0195431113243103
-0.0164457317441701,0.0042098257690668,0.042752631008625,-0.1128936856985092,0.0357961542904377,-0.3932639956474304,0.0,0.0,0.3958494663238525,-0.763070285320282
-0.0164099689573049,0.0017960167024284,0.0221140068024396,-0.1069383099675178,0.0174889117479324,-0.3661446869373321,0.0,0.0,0.2843384742736816,-0.5675894021987915
-0.0165424346923828,-0.0006034159450791,0.0058759073726832,-0.1065267175436019,-0.0013854865683242,-0.3774881660938263,0.0,1.0,0.3215086460113525,0.2426581382751464
-0.0166587829589843,-0.001923813833855,-0.00125638989266,-0.0587255097925663,-0.0116265080869197,-0.2048203945159912,1.0,1.0,0.6831185817718506,-0.2043173313140869
-0.0166798587888479,-0.0020620368886739,-0.0010275890817865,-0.0061513660475611,-0.0126902842894196,-0.021275732666254,1.0,1.0,-0.5862346887588501,0.0736945867538452
-0.0166913028806448,-0.0018466376932337,-0.0029184012673795,0.0096034733578562,-0.0109751503914594,0.0342557057738304,1.0,1.0,-0.8164832592010498,-0.1779549121856689
-0.0166752822697162,-0.0013261103304103,-0.0024043859448283,0.0231591574847698,-0.0070185461081564,0.079131044447422,1.0,1.0,-0.3227198123931885,0.4396696090698242
-0.0166411399841308,-0.0006064915796741,-0.0020932035986334,0.0319980755448341,-0.0015917309792712,0.1085340157151222,1.0,1.0,-0.4657706022262573,0.911369800567627
-0.0165608413517475,-0.0005020642420277,0.0072056101635098,0.00463996687904,-0.0007830086979083,0.0161746777594089,1.0,1.0,-0.641286313533783,0.1700377464294433
