x_pos,y_pos,x_vel,y_vel,angle,ang_vel,leg_1,leg_2,main_booster,lat_booster
-0.0015686989063397,1.4030941724777222,-0.1590534746646881,-0.3478212654590606,0.0019612873438745,0.0387029834091663,0.0,0.0,0.0247778012260819,-0.8298502421418362
-0.003211498260498,1.395186185836792,-0.1680512726306915,-0.3514755070209503,0.0056863161735236,0.074508398771286,0.0,0.0,-0.8883144915478169,-0.6177055376868317
-0.0049391747452318,1.3867428302764893,-0.177647665143013,-0.3752915263175964,0.0105188516899943,0.0966593921184539,0.0,0.0,-0.4689370646057049,0.8702268741766226
-0.0066595077514648,1.3777672052383425,-0.1756849884986877,-0.3989435732364654,0.0141264181584119,0.072158008813858,0.0,0.0,0.5894149656290155,0.7633039769944385
-0.0082401279360055,1.3692089319229126,-0.1606201231479644,-0.380392462015152,0.016652375459671,0.0505239441990852,0.0,0.0,-0.7691479000654984,0.7854260645660147
-0.0097939493134617,1.3601210117340088,-0.156160369515419,-0.4039164185523987,0.0174267254769802,0.0154883414506912,0.0,0.0,-0.3020532362167289,0.9790549791604716
-0.011323070153594,1.3505048751831057,-0.1519647389650344,-0.4273762106895447,0.016491625458002,-0.01870415546,0.0,0.0,-0.1014200230532187,0.5426235658394066
-0.012848949059844,1.3403613567352295,-0.1504384875297546,-0.4508034586906433,0.0143713923171162,-0.042408749461174,0.0,0.0,-0.5658513481241163,0.9043480411025135
-0.0143555644899606,1.329698920249939,-0.1468965709209442,-0.4738541841506958,0.0106496233493089,-0.0744423642754554,0.0,0.0,0.6349133718406466,-0.5103129151443029
-0.0159618370234966,1.3195868730545044,-0.1580310016870498,-0.4494026005268097,0.008089936338365,-0.0511984936892986,0.0,0.0,-0.6413360655318718,-0.8854423333079652
-0.017679214477539,1.3089443445205688,-0.1708230674266815,-0.4729952216148376,0.0071849883534014,-0.0181007180362939,0.0,0.0,0.8278572093665719,-0.868175917377505
-0.0194346420466899,1.2986466884613037,-0.1767014563083648,-0.457680881023407,0.0083188535645604,0.0226794779300689,0.0,0.0,-0.4563402022544758,0.5348885562881457
-0.0211912151426076,1.2878217697143557,-0.1756432950496673,-0.4811019003391266,0.0083102788776159,-0.000171772800968,0.0,0.0,-0.3530503229044881,-0.771256018927216
-0.0230541229248046,1.276458978652954,-0.1877972185611724,-0.5050265192985535,0.0098030986264348,0.02985898591578,0.0,0.0,-0.758851231118987,0.971283522286992
-0.0248753540217876,1.2645771503448486,-0.1813769042491912,-0.5280736088752747,0.0090608168393373,-0.014847045764327,0.0,0.0,0.7217706207478638,0.9334083069645416
-0.0265512466430664,1.2526215314865112,-0.1653002351522445,-0.5313485860824585,0.0068101529031991,-0.045017335563898,0.0,0.0,-0.485783941764885,-0.6752016086202943
-0.0283214561641216,1.240142822265625,-0.1759320199489593,-0.554597795009613,0.0057314983569085,-0.0215750467032194,0.0,0.0,0.4777023350556728,-0.5188945375409397
-0.0300510413944721,1.2276332378387451,-0.1734037101268768,-0.5559908151626587,0.0061714923940598,0.0088003650307655,0.0,0.0,0.8618874054807171,-0.6334728786080688
-0.0317725166678428,1.215956449508667,-0.1743133962154388,-0.5189696550369263,0.0083097238093614,0.042768444865942,0.0,0.0,0.0002199265729831,0.7157352185314103
-0.0335508361458778,1.2042630910873413,-0.1786384284496307,-0.5197146534919739,0.0091159278526902,0.016125563532114,0.0,0.0,-0.4727329799322195,0.7994606802310431
-0.0353066436946392,1.1920461654663086,-0.1745779812335968,-0.5429661870002747,0.0081227533519268,-0.0198654327541589,0.0,0.0,-0.2910497260627709,-0.9843438139532944
-0.0371930114924907,1.1792926788330078,-0.1896917521953582,-0.5668354034423828,0.0091677708551287,0.0209023132920265,0.0,0.0,0.3912294900863118,0.6425470988276604
-0.0389669425785541,1.1666978597640991,-0.1775038838386535,-0.559770405292511,0.0092826867476105,0.0022984775714576,0.0,0.0,-0.0728230551844137,-0.6629361510056466
-0.0408415794372558,1.1535645723342896,-0.1888732612133026,-0.5837105512619019,0.0106734512373805,0.0278176758438348,0.0,0.0,0.4884879151486589,0.9230879600858856
-0.0428491607308387,1.1407721042633057,-0.2002524435520172,-0.5685487985610962,0.0101722665131092,-0.0100244861096143,0.0,0.0,-0.3630474178883902,-0.7500182964366047
-0.0449849143624305,1.1274306774139404,-0.2150475978851318,-0.5929630994796753,0.0116233425214886,0.0290214326232671,0.0,0.0,-0.0542678790842017,0.5399744249404071
-0.0471323952078819,1.113563060760498,-0.2152124196290969,-0.6163407564163208,0.0120863672345876,0.0092601794749498,0.0,0.0,-0.3770727910810283,-0.5962929027302901
-0.049392033368349,1.099170446395874,-0.2279751747846603,-0.639693021774292,0.0140782063826918,0.0398368760943412,0.0,0.0,0.4331332664569485,0.7551155728415297
-0.0517820343375206,1.0852601528167725,-0.2393859326839447,-0.6182414293289185,0.0144488345831632,0.0074127712287008,0.0,0.0,0.7199340649493517,0.8561833630551208
-0.0541905388236045,1.0715785026550293,-0.2395305931568145,-0.6080593466758728,0.0131470886990427,-0.0260348916053771,0.0,0.0,-0.3491070661776376,-0.7798510237249867
-0.0567134842276573,1.0573742389678955,-0.2525650560855865,-0.6313036680221558,0.0134120415896177,0.0052992738783359,0.0,0.0,-0.7047020196914673,0.951245903968811
-0.0592253692448139,1.042635440826416,-0.2498466968536377,-0.6550459265708923,0.0120869493111968,-0.0265018139034509,0.0,0.0,-0.8257468342781067,0.9379396438598632
-0.0617278106510639,1.027376413345337,-0.2473129779100418,-0.6781589388847351,0.0092012723907828,-0.0577134676277637,0.0,0.0,-0.9017705917358398,0.357302188873291
-0.0642845183610916,1.011587381362915,-0.2527902722358703,-0.7017288208007812,0.006357199512422,-0.0568817257881164,0.0,0.0,-0.6236292123794556,0.671288013458252
-0.0668408423662185,0.9952699542045592,-0.2514021098613739,-0.7252073884010315,0.0021758745424449,-0.0836262479424476,0.0,0.0,-0.9881349802017212,0.3074102401733398
-0.0694512352347374,0.9784223437309264,-0.2568365037441253,-0.7487779259681702,-0.0019794169347733,-0.0831058546900749,0.0,0.0,-0.8265295624732971,0.2893764972686767
-0.0721156150102615,0.9610447883605956,-0.2622460722923279,-0.7723484039306641,-0.0061164265498518,-0.0827400237321853,0.0,0.0,-0.8892498016357422,0.694720983505249
-0.074775218963623,0.9431419372558594,-0.2602919042110443,-0.7957111597061157,-0.0117115089669823,-0.1119018197059631,0.0,0.0,-0.9820069670677184,0.6299757957458496
-0.0774415954947471,0.9247156977653505,-0.2597929835319519,-0.8190173506736755,-0.0184740982949733,-0.1352516114711761,0.0,0.0,-0.8344863653182983,0.8631658554077148
-0.0800898522138595,0.9057589769363404,-0.2561410665512085,-0.8426519632339478,-0.0270379371941089,-0.1712766587734222,0.0,0.0,-0.1186632513999939,0.7340542078018188
-0.0827430710196495,0.8862772583961487,-0.2554224133491516,-0.8660603165626526,-0.0368135310709476,-0.1955123394727707,0.0,0.0,0.1087453365325927,0.0143823623657226
-0.0853532776236534,0.8667885661125183,-0.2514893114566803,-0.8664258122444153,-0.0462240949273109,-0.1882113665342331,0.0,0.0,0.3587703704833984,-0.206276535987854
-0.0879239067435264,0.8471516370773315,-0.2478998601436615,-0.8730603456497192,-0.0552897751331329,-0.1813135296106338,0.0,0.0,0.8496397733688354,0.265092134475708
-0.0904029831290245,0.8278626203536987,-0.2392182648181915,-0.8576326370239258,-0.0638723671436309,-0.1716517955064773,0.0,0.0,0.1255745887756347,-0.3423934578895569
-0.0929484367370605,0.8083474040031433,-0.2456958591938018,-0.8677475452423096,-0.0726201683282852,-0.1749566495418548,0.0,0.0,0.9554026126861572,-0.1505626440048217
-0.0954620391130447,0.7888886332511902,-0.2427338808774948,-0.8652776479721069,-0.0811594203114509,-0.1707852184772491,0.0,0.0,0.9806193113327026,-0.4622001647949219
-0.0979100242257118,0.769692599773407,-0.2364691793918609,-0.8536316156387329,-0.0894088074564933,-0.1649880409240722,0.0,0.0,0.9846234321594238,-0.075920283794403
-0.100453183054924,0.7514817118644714,-0.2453154772520065,-0.8099361062049866,-0.0983364284038543,-0.1785523891448974,0.0,0.0,0.3990912437438965,0.1651694774627685
-0.1030923873186111,0.7337546944618225,-0.2543376386165619,-0.7885311841964722,-0.1078422591090202,-0.1901166439056396,0.0,0.0,0.1123187541961669,0.4499244689941406
-0.1057579964399337,0.716011643409729,-0.2568625509738922,-0.7893139719963074,-0.1174770966172218,-0.1926966905593872,0.0,0.0,0.3248193264007568,0.7666316032409668
-0.1082296371459961,0.6983882784843445,-0.2360462844371795,-0.7841766476631165,-0.1285419017076492,-0.221296340227127,0.0,0.0,0.0383123159408569,-0.8908494710922241
-0.1108018904924392,0.6809524893760681,-0.2478287518024444,-0.7757605314254761,-0.1378936320543289,-0.1870347112417221,0.0,0.0,0.1538338661193847,-0.0897926688194274
-0.1133030876517295,0.663433313369751,-0.2410206496715545,-0.7795022130012512,-0.1469675749540329,-0.1814787685871124,0.0,0.0,0.8638062477111816,-0.5359021425247192
-0.1157567054033279,0.6467335224151611,-0.2372866570949554,-0.7430329918861389,-0.1550353169441223,-0.1613545715808868,0.0,0.0,0.7154649496078491,-0.2885293364524841
-0.1180253028869628,0.6302188634872437,-0.21942238509655,-0.7347808480262756,-0.1624697595834732,-0.1486887484788894,0.0,0.0,-0.2799708843231201,-0.4657466411590576
-0.1203391104936599,0.6131747364997864,-0.2238702028989792,-0.7583557367324829,-0.1699897199869156,-0.150399163365364,0.0,0.0,0.741318941116333,-0.5983728170394897
-0.1224963217973709,0.5968332886695862,-0.2095968276262283,-0.7269958853721619,-0.1761248707771301,-0.122702956199646,0.0,0.0,0.6757293939590454,-0.7822245955467224
-0.1244860664010047,0.5809513330459595,-0.1946166604757309,-0.7063903212547302,-0.1804931908845901,-0.0873664319515228,0.0,0.0,0.6752018928527832,-0.5294641256332397
-0.1263296157121658,0.5657660961151123,-0.1811883449554443,-0.6752861142158508,-0.1836715340614318,-0.0635668560862541,0.0,0.0,0.3394296169281006,-0.45263671875
-0.1281594336032867,0.5510073304176331,-0.1794468760490417,-0.6563847661018372,-0.1872319877147674,-0.0712087750434875,0.0,0.0,-0.3560925126075744,-0.382939338684082
-0.1300305426120758,0.5357188582420349,-0.1834645718336105,-0.6799565553665161,-0.1908911764621734,-0.0731837600469589,0.0,0.0,0.8875049352645874,-0.1797425746917724
-0.1319022178649902,0.5211131572723389,-0.1829013079404831,-0.6496942043304443,-0.1951812952756881,-0.0858026817440986,0.0,0.0,0.2901557683944702,0.285954475402832
-0.1336402893066406,0.5065439939498901,-0.1698740422725677,-0.6480424404144287,-0.1991283595561981,-0.0789412707090377,0.0,0.0,0.7145688533782959,-0.5479689836502075
-0.1353072226047516,0.4923860728740692,-0.1638437211513519,-0.6296278834342957,-0.2020090371370315,-0.0576135106384754,0.0,0.0,0.7002222537994385,-0.2491973638534546
-0.1369208395481109,0.4783019721508026,-0.1584352999925613,-0.626360297203064,-0.2049594670534134,-0.0590081699192523,0.0,0.0,0.8869688510894775,0.3877336978912353
-0.1385716497898101,0.4647225439548492,-0.1614041477441787,-0.60404372215271,-0.2086726874113083,-0.0742645114660263,0.0,0.0,0.734382152557373,0.9139440059661864
-0.1399748772382736,0.4519120454788208,-0.1347515881061554,-0.5701531171798706,-0.2142880707979202,-0.1123072654008865,0.0,0.0,0.5760972499847412,-0.4526641368865967
-0.1412761658430099,0.4389558136463165,-0.124822236597538,-0.5766114592552185,-0.219653382897377,-0.1073062643408775,0.0,0.0,0.9186906814575196,-0.884643018245697
-0.1424272507429123,0.4269427359104156,-0.1115240603685379,-0.5344506502151489,-0.2232781797647476,-0.07249616086483,0.0,0.0,0.7471985816955566,0.4023396968841553
-0.1435963660478592,0.4151652753353119,-0.1127581000328064,-0.5240784287452698,-0.2274786680936813,-0.0840102061629295,0.0,0.0,0.7644405364990234,-0.7868322134017944
-0.1447977125644683,0.4039753079414367,-0.1172330826520919,-0.4977818131446838,-0.2304196059703827,-0.0588191263377666,0.0,0.0,0.1664357185363769,0.8996195793151855
-0.1458341628313064,0.3928658962249756,-0.0988464206457138,-0.4945076406002044,-0.2352832853794098,-0.0972735285758972,0.0,0.0,0.771073579788208,-0.9435057640075684
-0.1469081938266754,0.3826375007629394,-0.1041547507047653,-0.4551189243793487,-0.2385865747928619,-0.0660653710365295,0.0,0.0,0.5989186763763428,0.0406502485275268
-0.147808164358139,0.3726686239242553,-0.0869550928473472,-0.4435568153858185,-0.2416818737983703,-0.0619059279561042,0.0,0.0,0.9406511783599854,0.2728921175003052
-0.148662656545639,0.3628532588481903,-0.0820986926555633,-0.4367913603782654,-0.245082601904869,-0.0680146664381027,0.0,0.0,0.8703980445861816,-0.4439147710800171
-0.1493778228759765,0.3530156910419464,-0.0684026256203651,-0.4377502501010895,-0.2482507079839706,-0.0633617490530014,0.0,0.0,0.9601609706878662,-0.6668379902839661
-0.1501087248325348,0.3432615399360657,-0.0710670500993728,-0.4338578879833221,-0.2503047883510589,-0.041081391274929,0.0,0.0,0.8711621761322021,-0.4342692494392395
-0.1506484001874923,0.3342866599559784,-0.051795594394207,-0.3992577195167541,-0.2525286078453064,-0.0444761961698532,0.0,0.0,0.7828710079193115,-0.8608691692352295
-0.1509612053632736,0.3260585069656372,-0.030849352478981,-0.3657696545124054,-0.2529635727405548,-0.0086992215365171,0.0,0.0,0.6256290674209595,-0.1533899307250976
-0.151199534535408,0.3185098171234131,-0.0227729845792055,-0.3356775641441345,-0.2540374100208282,-0.0214766263961792,0.0,0.0,-0.6299384236335754,-0.6063422560691833
-0.1515137702226638,0.3104471862316131,-0.031702883541584,-0.3582929074764251,-0.2537566125392914,0.0056157549843192,0.0,0.0,-0.1259974241256714,-0.5112316608428955
-0.1518811285495758,0.3018732666969299,-0.0378364510834217,-0.3808754682540893,-0.252637654542923,0.0223788917064666,0.0,0.0,0.5066431760787964,-0.4135162234306335
-0.1522231101989746,0.2935662865638733,-0.0347484163939952,-0.3691021800041199,-0.2520773112773895,0.0112066138535738,0.0,0.0,0.3946864604949951,-0.1324779391288757
-0.1524823158979416,0.2855779528617859,-0.0261332988739013,-0.355000227689743,-0.2518631517887115,0.0042830212041735,0.0,0.0,0.6114304065704346,-0.6413168907165527
-0.1526462584733963,0.2780774235725403,-0.0177197996526956,-0.3331327140331268,-0.2505111992359161,0.0270390920341014,0.0,0.0,0.015454888343811,-0.160605788230896
-0.1526824980974197,0.2705467045307159,-0.0050620739348232,-0.3344537317752838,-0.2490452378988266,0.0293194111436605,0.0,0.0,-0.7088286280632019,-0.2074880599975586
-0.1527304649353027,0.2624862194061279,-0.0061074113473296,-0.3580258190631866,-0.2477139830589294,0.026625171303749,0.0,0.0,-0.5509942770004272,-0.1758407950401306
-0.1527892053127288,0.2538957595825195,-0.0070433234795928,-0.3815978467464447,-0.2465182393789291,0.0239147320389747,0.0,0.0,-0.0115121006965637,-0.7356740832328796
-0.1529000252485275,0.2447914183139801,-0.0132307903841137,-0.4042801558971405,-0.2443360984325409,0.0436428003013134,0.0,0.0,0.054013967514038,-0.3525871634483337
-0.1528723686933517,0.2354911714792251,0.000356713484507,-0.4129438996315002,-0.2418796122074127,0.0491294860839843,0.0,0.0,0.4444547891616821,-0.7598708271980286
-0.1527575552463531,0.226646676659584,0.007699959911406,-0.3924719989299774,-0.2380308657884597,0.0769749134778976,0.0,0.0,-0.0153496861457824,-0.7706813812255859
-0.1527042388916015,0.2172986418008804,0.0002082635619444,-0.4146510064601898,-0.2328405976295471,0.1038060635328292,0.0,0.0,0.5157992839813232,-0.6300033330917358
-0.1524422615766525,0.2082907706499099,0.0197041928768157,-0.3993344306945801,-0.2262512594461441,0.1317872107028961,0.0,0.0,0.2064607143402099,-0.3608574867248535
-0.1520595550537109,0.1990773528814315,0.0315525904297828,-0.4084727466106415,-0.2194608747959137,0.1358080804347992,0.0,0.0,0.006749153137207,-0.1736465692520141
-0.1516445130109787,0.1897993385791778,0.0350776351988315,-0.411414235830307,-0.212958738207817,0.1300423294305801,0.0,0.0,0.7114925384521484,-0.7174729704856873
-0.1510040313005447,0.1812984496355056,0.0561046600341796,-0.3766922652721405,-0.2049447447061538,0.160279780626297,0.0,0.0,-0.0805209279060363,-0.4901306629180908
-0.1503656357526779,0.1722684949636459,0.056016206741333,-0.4002690613269806,-0.1970718801021576,0.1574572473764419,0.0,0.0,0.4662280082702636,-0.4988170266151428
-0.1496988236904144,0.1637802720069885,0.0595076791942119,-0.3763167262077331,-0.1898514777421951,0.144408494234085,0.0,0.0,0.6694068908691406,-0.6155104041099548
-0.1488536894321441,0.1557915061712265,0.0760140344500541,-0.3539890348911285,-0.1813072264194488,0.1708850115537643,0.0,0.0,-0.0256029367446899,-0.1610959768295288
-0.1480084359645843,0.1472736746072769,0.0761436372995376,-0.3775663375854492,-0.1729052066802978,0.1680402010679245,0.0,0.0,0.1488360166549682,-0.070813238620758
-0.147129625082016,0.1390110999345779,0.079896405339241,-0.3663199543952942,-0.1649118512868881,0.1598671674728393,0.0,0.0,0.5913267135620117,-0.2683243751525879
-0.1461944580078125,0.130934864282608,0.0857746303081512,-0.3581041097640991,-0.1571720838546753,0.154795303940773,0.0,0.0,0.3064267635345459,-0.7084444761276245
-0.1453402489423751,0.1230721324682235,0.0765594691038131,-0.3485420644283294,-0.148309051990509,0.177260547876358,0.0,0.0,0.6601002216339111,-0.0855202674865722
-0.1445553749799728,0.1154946386814117,0.0704476460814476,-0.3359999358654022,-0.1402885466814041,0.1604101061820984,0.0,0.0,0.8633723258972168,-0.3540824651718139
-0.14353609085083,0.1085666045546531,0.0934705212712287,-0.307135671377182,-0.1318585872650146,0.1685992032289505,0.0,0.0,0.5872509479522705,0.3726269006729126
-0.1424085646867752,0.1016249731183052,0.1041568368673324,-0.3077776134014129,-0.1232991740107536,0.1711883246898651,0.0,0.0,0.6080135107040405,-0.0901206135749816
-0.1410458534955978,0.0952336639165878,0.1271410882472992,-0.283330500125885,-0.1142298653721809,0.1813859492540359,0.0,0.0,-0.0990962386131286,-0.4625985622406006
-0.139679342508316,0.0883132815361023,0.127671480178833,-0.3069078326225281,-0.105303555727005,0.1785259991884231,0.0,0.0,0.8650168180465698,-0.6724224090576172
-0.1380866020917892,0.0822917520999908,0.1486304253339767,-0.2669079899787903,-0.0947489291429519,0.211092472076416,0.0,0.0,-0.1121088862419128,-0.0382186770439147
-0.1364893019199371,0.0757416561245918,0.1492185294628143,-0.2904875576496124,-0.084336943924427,0.2082397937774658,0.0,0.0,0.4178110361099243,0.0579985380172729
-0.1348344832658767,0.0697106942534446,0.1551463305950164,-0.2674881815910339,-0.0740959718823432,0.2048193961381912,0.0,0.0,0.2025755643844604,0.0162230730056762
-0.1330881118774414,0.0640037357807159,0.1642188131809234,-0.2531618773937225,-0.0637927651405334,0.2060643434524536,0.0,0.0,0.2613664865493774,-0.0469447374343872
-0.1312529593706131,0.0582859851419925,0.172946810722351,-0.2537013590335846,-0.0533465519547462,0.20892433822155,0.0,0.0,0.5567255020141602,-0.0551945567131042
-0.1294966638088226,0.0529213510453701,0.1657397449016571,-0.2381049841642379,-0.0435745120048522,0.1954409182071685,0.0,0.0,0.5477612018585205,0.0878371000289917
-0.1278343200683593,0.0477582775056362,0.1570510119199752,-0.2292308509349823,-0.0344991497695446,0.1815072000026703,0.0,0.0,0.6109427213668823,0.2875757217407226
-0.1261687278747558,0.0428911074995994,0.1576107442378997,-0.2161384373903274,-0.0256606880575418,0.1767693012952804,0.0,0.0,0.7246568202972412,-0.1224626302719116
-0.1244564056396484,0.0383287779986858,0.1622844785451889,-0.2026466280221939,-0.016835868358612,0.176496610045433,0.0,0.0,0.6354780197143555,0.3944315910339355
-0.1226037964224815,0.0337677337229251,0.1758596450090408,-0.2026327699422836,-0.0075511536560952,0.1856941878795623,0.0,0.0,0.7447774410247803,-0.2750853896141052
-0.1206376999616622,0.0297595839947462,0.1868622899055481,-0.17811881005764,0.0020724951755255,0.1924730390310287,0.0,0.0,0.6568363904953003,-0.4986114501953125
-0.1186431869864463,0.0264358613640069,0.1897230744361877,-0.1477637141942978,0.0116762109100818,0.1920744776725769,0.0,0.0,0.4438763856887817,-0.0091556310653686
