x_pos,y_pos,x_vel,y_vel,angle,ang_vel,leg_1,leg_2,main_booster,lat_booster
-0.0015404701698571,1.4031137228012085,-0.1560926735401153,-0.3469468355178833,0.0018286990234628,0.0360775962471962,0.0,0.0,0.9379966436957028,-0.9913923256726194
-0.0031090737320482,1.3956267833709717,-0.1608112007379531,-0.3327612280845642,0.0057294662110507,0.0780235975980758,0.0,0.0,0.2643815757298613,0.9960879669254976
-0.0044981958344578,1.3880869150161743,-0.1409468352794647,-0.335115909576416,0.0077358619309961,0.0401318557560443,0.0,0.0,0.6727337483776195,-0.9506281310747754
-0.0061177252791821,1.3807896375656128,-0.1656776666641235,-0.324348121881485,0.0114271165803074,0.0738319009542465,0.0,0.0,-0.8750144946311134,-0.79881216224165
-0.0078026773408055,1.372983455657959,-0.1734797805547714,-0.3469858765602112,0.0163599904626607,0.0986663773655891,0.0,0.0,0.2286825057514434,0.6641879372204644
-0.009343815036118,1.3652758598327637,-0.1579446047544479,-0.3426061868667602,0.0201558656990528,0.0759243741631507,0.0,0.0,0.827921511146996,0.5700802235434539
-0.0108948703855276,1.3580164909362793,-0.1577063798904419,-0.3226813673973083,0.0227250587195158,0.0513884797692298,0.0,0.0,-0.8892553410302746,0.8310459168279285
-0.0123793603852391,1.350251317024231,-0.1489365100860595,-0.3451213240623474,0.0232098419219255,0.0096965162083506,0.0,0.0,0.6746377163631212,0.840750344690065
-0.0138454437255859,1.3432587385177612,-0.1453511863946914,-0.3107670545578003,0.0219629686325788,-0.0249395463615655,0.0,0.0,0.7525353493478868,-0.8755434118510761
-0.015412425622344,1.336913824081421,-0.157138705253601,-0.2820025980472564,0.0223984979093074,0.0087113734334707,0.0,0.0,0.0927810180472101,-0.9530860138360152
-0.0170090682804584,1.3306483030319214,-0.1619617044925689,-0.2785058915615082,0.0246621575206518,0.045277364552021,0.0,0.0,-0.3339536858142666,0.934016923938044
-0.0185366626828908,1.3238731622695925,-0.1528858840465545,-0.3011192679405212,0.0247875899076461,0.0025090517010539,0.0,0.0,-0.3016427730634128,0.6907717660366978
-0.0200106613337993,1.3165934085845947,-0.1457586735486984,-0.3235191404819488,0.0231708772480487,-0.0323371402919292,0.0,0.0,-0.2067600532046802,-0.5507464180869128
-0.0215349197387695,1.3087964057922363,-0.1516778022050857,-0.346518337726593,0.022436348721385,-0.0146919563412666,0.0,0.0,0.5685354993261629,-0.8840854372888032
-0.023007582873106,1.301674485206604,-0.1484311372041702,-0.3165523409843445,0.0235807709395885,0.0228904765099287,0.0,0.0,-0.68867650632663,0.5208023124513832
-0.0244423858821392,1.2940372228622437,-0.143302172422409,-0.3394346237182617,0.0234016049653291,-0.0035833443980664,0.0,0.0,-0.4415015920895557,-0.5054248375951429
-0.0259181968867778,1.2858940362930298,-0.1480656266212463,-0.3619250655174255,0.0238876678049564,0.0097218817099928,0.0,0.0,0.8693404956163564,-0.6652407197997416
-0.027292251586914,1.2778747081756592,-0.1395709067583084,-0.356453537940979,0.0260214079171419,0.0426786318421363,0.0,0.0,0.2698077417921296,-0.7053416924413664
-0.028663445264101,1.270277500152588,-0.1406842768192291,-0.3377202451229095,0.0295544825494289,0.0706677213311195,0.0,0.0,-0.4061012284129508,0.964145461762652
-0.0299765579402446,1.262171983718872,-0.133080393075943,-0.3602802157402038,0.0312984660267829,0.0348829552531242,0.0,0.0,-0.2471049550204751,0.7564348478130596
-0.03122453764081,1.2535648345947266,-0.1245921403169632,-0.382538229227066,0.0310857780277729,-0.0042541013099253,0.0,0.0,-0.9226106267167208,0.8387214450537323
-0.0324113853275775,1.2444453239440918,-0.1166010126471519,-0.4052698910236358,0.0290333107113838,-0.0410530641674995,0.0,0.0,0.744332082308836,-0.7122798935963908
-0.0335275642573833,1.235680103302002,-0.1111568063497543,-0.3895569443702698,0.0285826176404953,-0.0090151811018586,0.0,0.0,-0.3317452839550554,-0.6505101425372055
-0.0346938148140907,1.226394772529602,-0.1171724945306778,-0.4126903712749481,0.029122456908226,0.0107981842011213,0.0,0.0,0.4266228497173088,-0.592836350500875
-0.0360608100891113,1.2174259424209597,-0.1379890739917755,-0.398645281791687,0.0303933918476104,0.0254210289567708,0.0,0.0,0.468316859869532,-0.5193740714264408
-0.0376301780343055,1.2088574171066284,-0.1587515175342559,-0.3808586299419403,0.0321862362325191,0.0358568578958511,0.0,0.0,-0.6611092091866446,-0.8513948995955746
-0.0392688736319541,1.1997804641723633,-0.167227417230606,-0.4034973382949829,0.0354950688779354,0.0661769658327102,0.0,0.0,-0.4005422154558591,0.6267087322750167
-0.0408705696463584,1.1902012825012207,-0.1623569279909134,-0.4257881045341491,0.0376568362116813,0.043235145509243,0.0,0.0,0.9634320133994044,-0.7728437765521259
-0.042737103998661,1.181484937667847,-0.1898368149995803,-0.3874782919883728,0.0407969281077384,0.0628018900752067,0.0,0.0,0.3864180393383443,0.8272556734213925
-0.0445747375488281,1.1728707551956177,-0.1850700229406356,-0.3828869462013244,0.0420903414487838,0.025868197903037,0.0,0.0,0.0614793196574907,0.7441183167719918
-0.0463619232177734,1.164574146270752,-0.1783594340085983,-0.3687311112880707,0.0417312532663345,-0.0071816807612776,0.0,0.0,-0.4264572262763977,0.9803204536437988
-0.0480799674987793,1.1557652950286863,-0.1695300638675689,-0.3914434015750885,0.0394914969801902,-0.0447953268885612,0.0,0.0,-0.2325808405876159,0.9835797548294068
-0.0497287735342979,1.1464589834213257,-0.1607110798358917,-0.4135058224201202,0.0353762134909629,-0.0823054462671279,0.0,0.0,-0.5076649188995361,0.6832787990570068
-0.0513259880244731,1.1366387605667114,-0.1541362106800079,-0.4363340735435486,0.0298584718257188,-0.1103547662496566,0.0,0.0,-0.8391488194465637,0.9837359189987184
-0.0528394691646099,1.1263140439987185,-0.1435416787862777,-0.4587401151657104,0.0221410356462001,-0.1543485075235366,0.0,0.0,-0.4574931263923645,0.8195662498474121
-0.0542819015681743,1.115488052368164,-0.1345270276069641,-0.481042742729187,0.0125523200258612,-0.191774383187294,0.0,0.0,-0.8732771873474121,0.503004789352417
-0.05568103864789,1.1041510105133057,-0.1290382593870163,-0.5038194060325623,0.0018140430329367,-0.214765578508377,0.0,0.0,-0.7479500770568848,0.4075872898101806
-0.057074449956417,1.092304825782776,-0.1282628774642944,-0.526523768901825,-0.0091183129698038,-0.2186471968889236,0.0,0.0,-0.6738475561141968,0.3692593574523926
-0.0584613792598247,1.0799496173858645,-0.127424880862236,-0.5492285490036011,-0.0202456284314394,-0.2225463688373565,0.0,0.0,-0.7669378519058228,-0.834551215171814
-0.0599041953682899,1.0670883655548096,-0.134421557188034,-0.5717802047729492,-0.0299866758286952,-0.1948209404945373,0.0,0.0,-0.7456814646720886,-0.9707970023155212
-0.0614297874271869,1.053729772567749,-0.1447935998439788,-0.5938930511474609,-0.0376495942473411,-0.1532584726810455,0.0,0.0,-0.1372863054275512,-0.4428999423980713
-0.0629471763968467,1.0398614406585691,-0.1437842100858688,-0.6165933012962341,-0.0455086156725883,-0.1571804583072662,0.0,0.0,-0.9978398680686952,-0.9333590269088744
-0.0645180717110633,1.0254770517349243,-0.1505188345909118,-0.6395164132118225,-0.0520079024136066,-0.1299856901168823,0.0,0.0,-0.0830726027488708,-0.9270493984222412
-0.066141128540039,1.0105855464935305,-0.1570924073457718,-0.6620333790779114,-0.0571625605225563,-0.1030928343534469,0.0,0.0,-0.9889341592788696,-0.7306650876998901
-0.0678165405988693,0.9951805472373962,-0.1637011766433715,-0.6848207712173462,-0.060961615294218,-0.0759811028838157,0.0,0.0,-0.9021146297454834,-0.9528404474258424
-0.0695518478751182,0.9792618155479432,-0.1712636947631836,-0.7075937986373901,-0.0632050335407257,-0.0448678508400917,0.0,0.0,-0.5577430725097656,-0.9059962630271912
-0.0713411346077919,0.9628336429595948,-0.1781119406223297,-0.7301694750785828,-0.0640217885375022,-0.0163349248468875,0.0,0.0,0.4059646129608154,0.0199753046035766
-0.0731697082519531,0.946966588497162,-0.1813882440328598,-0.7052704691886902,-0.0654726773500442,-0.0290178246796131,0.0,0.0,-0.6374770998954773,-0.8905799388885498
-0.0750724822282791,0.9306053519248962,-0.1908061206340789,-0.727147102355957,-0.0649483352899551,0.0104869985952973,0.0,0.0,-0.8042464256286621,-0.1075247526168823
-0.0769636183977127,0.9137334823608398,-0.1894560158252716,-0.7498428225517273,-0.0646122992038726,0.0067206970416009,0.0,0.0,-0.5069144368171692,-0.4578534364700317
-0.0788428336381912,0.8963512182235718,-0.1880740821361541,-0.7725384831428528,-0.0644625797867775,0.0029943748377263,0.0,0.0,-0.7227814793586731,0.647602915763855
-0.080663301050663,0.8784583806991577,-0.1808400750160217,-0.7952924370765686,-0.0656619593501091,-0.0239874143153429,0.0,0.0,-0.0637793540954589,-0.7438226342201233
-0.08251953125,0.8600555658340454,-0.1854506283998489,-0.8179076313972473,-0.0658320561051368,-0.0034021802712231,0.0,0.0,0.6088393926620483,0.4779200553894043
-0.0843087211251258,0.8423046469688416,-0.1785767376422882,-0.7889429926872253,-0.0661668851971626,-0.0066965343430638,0.0,0.0,0.1857924461364746,0.6845632791519165
-0.0858876258134841,0.8245471119880676,-0.1561515778303146,-0.7892975211143494,-0.0678840056061744,-0.034342423081398,0.0,0.0,0.6326272487640381,-0.2441704273223877
-0.0875156372785568,0.8069857358932495,-0.160459280014038,-0.7806157469749451,-0.0702112019062042,-0.0465439483523368,0.0,0.0,-0.3758294582366943,-0.6360387802124023
-0.0891722664237022,0.7889242172241211,-0.1642163097858429,-0.8028033375740051,-0.0716383382678031,-0.0285425428301095,0.0,0.0,0.6577656269073486,0.7282297611236572
-0.09055757522583,0.7713452577590942,-0.1357741802930832,-0.7814216613769531,-0.0743733346462249,-0.0546998903155326,0.0,0.0,0.7226672172546387,-0.1089916229248046
-0.0917874351143837,0.7545314431190491,-0.1204183548688888,-0.7474120259284973,-0.0769111141562461,-0.0507554598152637,0.0,0.0,-0.3022767305374145,-0.6253376603126526
-0.0930583029985427,0.737218976020813,-0.125779703259468,-0.7695081830024719,-0.0782038792967796,-0.0258555021136999,0.0,0.0,0.7284855842590332,0.1627196073532104
-0.0942310318350792,0.7199691534042358,-0.1160627752542495,-0.7667205333709717,-0.0794044807553291,-0.0240116920322179,0.0,0.0,0.57843017578125,0.0776940584182739
-0.0954315215349197,0.7032224535942078,-0.1182344406843185,-0.7443986535072327,-0.0811997726559639,-0.035905934870243,0.0,0.0,0.2148715257644653,-0.4829843044281006
-0.0964958220720291,0.6865226626396179,-0.10489521920681,-0.7422932386398315,-0.0827222988009452,-0.0304503496736288,0.0,0.0,-0.0314156413078308,0.2006678581237793
-0.0975452437996864,0.669312596321106,-0.1032589077949523,-0.7649890780448914,-0.0843878388404846,-0.033310517668724,0.0,0.0,0.3611785173416137,0.3882602453231811
-0.0985453575849533,0.6520847678184509,-0.0982158929109573,-0.7657806873321533,-0.0861621126532554,-0.0354857631027698,0.0,0.0,0.5826930999755859,0.0848345756530761
-0.0995996445417404,0.6352080702781677,-0.1029480323195457,-0.7502228617668152,-0.0886190235614776,-0.0491380132734775,0.0,0.0,0.6993978023529053,-0.7852815985679626
-0.1005976647138595,0.6191502809524536,-0.098831333220005,-0.7137387990951538,-0.089591272175312,-0.0194449760019779,0.0,0.0,0.4657940864562988,-0.6103690266609192
-0.101526640355587,0.6029581427574158,-0.093182660639286,-0.7196311354637146,-0.089303009212017,0.0057651484385132,0.0,0.0,0.6389961242675781,0.1853353977203369
-0.1023377403616905,0.5875172019004822,-0.0814056172966957,-0.6862443685531616,-0.089010402560234,0.005852258298546,0.0,0.0,-0.0731584429740905,0.2657676935195923
-0.1031332015991211,0.5715658664703369,-0.0797251388430595,-0.7089400887489319,-0.0888324454426765,0.0035591754131019,0.0,0.0,0.2571879625320434,-0.1050528883934021
-0.1039367690682411,0.5558831095695496,-0.0801017209887504,-0.6970270276069641,-0.0890873670578002,-0.0050982404500246,0.0,0.0,0.3948507308959961,0.1551934480667114
-0.1046518310904502,0.5404713749885559,-0.0712718367576599,-0.6849794387817383,-0.0893266648054122,-0.0047860601916909,0.0,0.0,0.6313478946685791,0.2125799655914306
-0.1054033264517784,0.525812029838562,-0.0742156580090522,-0.651581883430481,-0.0902537479996681,-0.0185416899621486,0.0,0.0,0.1544538736343383,0.4123715162277221
-0.1060513481497764,0.5112380385398865,-0.0640119761228561,-0.6477798223495483,-0.0910374894738197,-0.0156746972352266,0.0,0.0,0.0628840923309326,-0.2546954154968261
-0.1066821068525314,0.4965324103832245,-0.0620905384421348,-0.6536458730697632,-0.0920105054974556,-0.0194601602852344,0.0,0.0,0.5098409652709961,0.1984373331069946
-0.1072075814008712,0.4817513525485992,-0.0517697110772132,-0.6569834351539612,-0.0927797183394432,-0.0153843341395258,0.0,0.0,0.8928329944610596,-0.3680275678634643
-0.1077168434858322,0.4670456349849701,-0.0499102510511875,-0.6536519527435303,-0.0937948524951934,-0.0203025601804256,0.0,0.0,0.9019687175750732,0.3162770271301269
-0.1081340759992599,0.4531944096088409,-0.0405795872211456,-0.6156818270683289,-0.0949277281761169,-0.0226577017456293,0.0,0.0,0.302634596824646,-0.3263609409332275
-0.1084113121032714,0.4397840797901153,-0.0268056634813547,-0.5960704684257507,-0.0958366468548774,-0.018178567290306,0.0,0.0,0.2940495014190674,0.0347336530685424
-0.1086985617876052,0.4268318116664886,-0.0273328609764575,-0.5757483839988708,-0.097214937210083,-0.0275656916201114,0.0,0.0,-0.1065048575401306,-0.7203486561775208
-0.1090389266610145,0.4133715629577636,-0.0343493446707725,-0.5982103943824768,-0.0969088748097419,0.0061213397420942,0.0,0.0,0.625868558883667,-0.2533568143844604
-0.1092483550310134,0.4005564451217651,-0.0213779211044311,-0.5695310831069946,-0.0964716598391532,0.008744191378355,0.0,0.0,0.6338410377502441,0.3478155136108398
-0.109486386179924,0.3880950510501861,-0.0237304158508777,-0.5538470149040222,-0.0965454205870628,-0.0014750367263332,0.0,0.0,0.044563889503479,-0.4111469984054565
-0.1097013503313064,0.3757678270339966,-0.0212219730019569,-0.5478928685188293,-0.0968219488859176,-0.0055306097492575,0.0,0.0,0.4776986837387085,-0.4904216527938843
-0.1098504066467285,0.3638654053211212,-0.0145313935354352,-0.5290217399597168,-0.0971855297684669,-0.0072715743444859,0.0,0.0,-0.2230606079101562,-0.0765803456306457
-0.1099832504987716,0.3514523506164551,-0.0128816990181803,-0.5517168045043945,-0.0975818485021591,-0.0079266456887125,0.0,0.0,0.8043673038482666,-0.7675322890281677
-0.1100962609052658,0.3390840291976928,-0.0124767590314149,-0.5496267676353455,-0.0964193418622016,0.0232501626014709,0.0,0.0,0.7057734727859497,-0.6578069925308228
-0.110101893544197,0.3268135786056518,-0.0032851372379809,-0.5451805591583252,-0.0937297418713569,0.0537921413779258,0.0,0.0,0.8645291328430176,0.727222204208374
-0.1097946166992187,0.3149615228176117,0.0290728919208049,-0.5266576409339905,-0.0920948535203933,0.0326977185904979,0.0,0.0,0.8918362855911255,0.2334744930267334
-0.1092709526419639,0.3032513558864593,0.0499896667897701,-0.5203056931495667,-0.0897363424301147,0.0471703968942165,0.0,0.0,0.7873677015304565,-0.1443570852279663
-0.1086645126342773,0.2922457754611969,0.0582940280437469,-0.4890003502368927,-0.0874168649315834,0.0463898219168186,0.0,0.0,0.0108803510665893,-0.5707286596298218
-0.1080253571271896,0.2814305424690246,0.0604029297828674,-0.4804722964763641,-0.0839363187551498,0.0696110129356384,0.0,0.0,0.0049549341201782,0.3858850002288818
-0.10726098716259,0.2707020044326782,0.0725760757923126,-0.4766161143779754,-0.0801081210374832,0.0765638500452041,0.0,0.0,0.4912148714065552,0.3288848400115967
-0.1063666343688964,0.2598925530910492,0.0851445943117141,-0.4801951944828033,-0.0758579447865486,0.0850034803152084,0.0,0.0,-0.3651522397994995,-0.1762503385543823
-0.1054567322134971,0.2485727667808532,0.0866908729076385,-0.5028914213180542,-0.0716033726930618,0.0850914269685745,0.0,0.0,0.5910683870315552,-0.3710192441940307
-0.1043906211853027,0.2379769682884216,0.1019178479909896,-0.470707356929779,-0.0669641122221946,0.0927851423621177,0.0,0.0,-0.0620640516281127,-0.5779611468315125
-0.1033567413687706,0.2268754094839096,0.0974836274981498,-0.4931468665599823,-0.0611189268529415,0.1169037073850631,0.0,0.0,0.71918785572052,0.2458181381225586
-0.1023862808942794,0.2165149301290512,0.0917205363512039,-0.4602586925029754,-0.0558590814471244,0.1051968559622764,0.0,0.0,0.4107600450515747,0.5478677749633789
-0.1012437790632247,0.2065288871526718,0.1098287105560302,-0.4436642825603485,-0.0514864772558212,0.0874520689249038,0.0,0.0,0.3201223611831665,-0.1264510750770568
-0.1000983268022537,0.1969338059425354,0.1103041619062423,-0.4263072311878204,-0.0472928546369075,0.0838723480701446,0.0,0.0,-0.220115065574646,-0.5239455103874207
-0.0989851951599121,0.1868355423212051,0.1058457121253013,-0.448649913072586,-0.0418917350471019,0.1080225333571434,0.0,0.0,0.2797590494155884,0.0287736654281616
-0.0978606194257736,0.1768062859773636,0.1070470362901687,-0.4456027150154114,-0.0365565158426761,0.1067044883966445,0.0,0.0,0.433758020401001,0.1011946201324462
-0.0968040451407432,0.1670547127723693,0.1007106155157089,-0.433293879032135,-0.0316645465791225,0.0978392735123634,0.0,0.0,0.4378963708877563,0.3876360654830932
-0.095849797129631,0.1574822962284088,0.0910539925098419,-0.4253533482551574,-0.027351738885045,0.086256168782711,0.0,0.0,0.5551837682723999,-0.1221107244491577
-0.0947635620832443,0.1484097093343734,0.1037584319710731,-0.4031433463096618,-0.0225497055798769,0.0960407108068466,0.0,0.0,-0.0692411065101623,0.1654521226882934
-0.093663789331913,0.1388268619775772,0.1050861105322837,-0.4258399903774261,-0.0177184995263814,0.0966238528490066,0.0,0.0,0.7419620752334595,0.0477639436721801
-0.0923834815621376,0.129936009645462,0.1223916187882423,-0.3950904607772827,-0.0121498424559831,0.1113734021782875,0.0,0.0,0.1753835678100586,-0.759747326374054
-0.0911619216203689,0.1213709712028503,0.1149649247527122,-0.3806277215480804,-0.0050573982298374,0.1418487727642059,0.0,0.0,0.3650861978530884,0.8128423690795898
-0.0897265449166297,0.1133627519011497,0.1377981007099151,-0.3559101819992065,0.0006121199694462,0.1133904904127121,0.0,0.0,-0.072269320487976,-0.9158883690834044
-0.0883418098092079,0.1048445552587509,0.1310782730579376,-0.3786072432994842,0.0079032778739929,0.1458233445882797,0.0,0.0,0.8032824993133545,0.4619154930114746
-0.0869598388671875,0.0971530526876449,0.1308203786611557,-0.3419008553028106,0.015189048834145,0.1457156240940094,0.0,0.0,0.3872686624526977,-0.8585342168807983
-0.0855860710144043,0.0899510011076927,0.1281648576259613,-0.3202104568481445,0.0242758952081203,0.181736871600151,0.0,0.0,0.1594079732894897,0.9817157983779908
-0.0840639099478721,0.0827220529317855,0.1449644565582275,-0.3214201331138611,0.0314409136772155,0.1433006972074508,0.0,0.0,0.0201032161712646,0.1431039571762085
-0.0826178565621376,0.0755519717931747,0.1376744210720062,-0.3188311457633972,0.0382856726646423,0.1368948519229889,0.0,0.0,0.8504272699356079,0.987740397453308
-0.0812649726867675,0.0687285736203193,0.13056680560112,-0.303389698266983,0.0429474711418151,0.09323600679636,0.0,0.0,0.5983500480651855,0.8308188915252686
-0.079882338643074,0.0622143857181072,0.1352322101593017,-0.2896119654178619,0.0459455661475658,0.0599617846310138,0.0,0.0,0.4741255044937134,-0.6127558350563049
-0.0785343199968338,0.0559001788496971,0.130448892712593,-0.2807704508304596,0.0502423085272312,0.0859351530671119,0.0,0.0,0.5226820707321167,-0.3472034931182861
-0.0770728141069412,0.0495811812579631,0.1412178725004196,-0.2810158431529999,0.055118627846241,0.0975262597203254,0.0,0.0,0.7823877334594727,0.4787213802337646
-0.0755373015999794,0.0438654981553554,0.1481044739484787,-0.2542402446269989,0.0605018325150013,0.1076642498373985,0.0,0.0,0.7486345767974854,0.5034899711608887
-0.073976419866085,0.0389288030564785,0.1515543162822723,-0.2195983976125717,0.0649807304143905,0.0895778909325599,0.0,0.0,0.3997976779937744,-0.4269018173217773
-0.0723700523376464,0.0338826738297939,0.1558420211076736,-0.2244880348443985,0.0697243884205818,0.0948733165860176,0.0,0.0,0.7392499446868896,-0.9660964012145996
