x_pos,y_pos,x_vel,y_vel,angle,ang_vel,leg_1,leg_2,main_booster,lat_booster
-0.0015639305347576,1.4032013416290283,-0.15901680290699,-0.3430551588535309,0.0023478108923882,0.0463564284145832,0.0,0.0,0.0487539837493165,0.6854674713533654
-0.0030778883956372,1.3955190181732178,-0.1529316008090973,-0.341443657875061,0.0038642212748527,0.0303318984806537,0.0,0.0,0.7815579560812285,0.7602094517471043
-0.0044171335175633,1.3880620002746582,-0.1348512470722198,-0.3314194679260254,0.0047682537697255,0.018082395195961,0.0,0.0,-0.1933438957431719,0.8931292086164788
-0.0057409284636378,1.380179524421692,-0.1323879659175872,-0.3503381907939911,0.0047785635106265,0.000206402153708,0.0,0.0,-0.8178560810019069,0.9698515836894314
-0.0070131300017237,1.3718775510787964,-0.1253850013017654,-0.3689683675765991,0.0029771740082651,-0.0360313132405281,0.0,0.0,0.6225487869042623,0.8263213469137294
-0.0081130024045705,1.3639525175094604,-0.1073098182678222,-0.3522222936153412,0.0003223951207473,-0.0531005151569843,0.0,0.0,0.1935789862393198,0.8026753597894681
-0.0092094419524073,1.3562300205230713,-0.105849489569664,-0.3432193696498871,-0.0034396487753838,-0.0752478390932083,0.0,0.0,-0.911514457329644,0.7811537935680442
-0.0102703096345067,1.3480868339538574,-0.1008228212594986,-0.3619478344917297,-0.0086390944197773,-0.103998377919197,0.0,0.0,0.3005533546428596,-0.5284546456869932
-0.011418342590332,1.34051513671875,-0.1110709309577941,-0.3365457653999328,-0.0123329758644104,-0.0738846659660339,0.0,0.0,-0.4337871099166017,-0.549840854535903
-0.0126509666442871,1.3325244188308716,-0.1211024075746536,-0.3551620244979858,-0.0144639248028397,-0.0426227785646915,0.0,0.0,-0.4193405168308137,-0.5979948158171744
-0.0139652248471975,1.3241119384765625,-0.1307621300220489,-0.3738962709903717,-0.0151166394352912,-0.0130553152412176,0.0,0.0,-0.6361248717937478,-0.6720345761824995
-0.0153675079345703,1.31527578830719,-0.1412217020988464,-0.3927030563354492,-0.0141412932425737,0.0195084959268569,0.0,0.0,-0.2286083760184791,-0.7648117100600729
-0.0168584827333688,1.3060216903686523,-0.1517392545938491,-0.4112772047519684,-0.0115355746820569,0.0521192364394664,0.0,0.0,-0.0597112030550217,0.5095950208923263
-0.0183463096618652,1.2963387966156006,-0.1507121622562408,-0.4303361773490906,-0.0096258595585823,0.038198284804821,0.0,0.0,-0.5052602339755781,-0.7251987954584432
-0.0199193954467773,1.2862409353256226,-0.1607817113399505,-0.4487723708152771,-0.0061934399418532,0.0686549395322799,0.0,0.0,-0.0622778053102339,-0.8721545135812704
-0.021590519696474,1.2757105827331543,-0.1724210977554321,-0.4680040776729584,-0.0009379173861816,0.1051196604967117,0.0,0.0,0.9505883604439376,-0.611440074859924
-0.0231767650693655,1.2662794589996338,-0.1660605818033218,-0.4191691279411316,0.0064134569838643,0.1470408737659454,0.0,0.0,0.0308509904900728,-0.5089471634256688
-0.0247479435056448,1.256772756576538,-0.1661486476659774,-0.4225776493549347,0.0153366485610604,0.1784800887107849,0.0,0.0,0.462351054175256,0.5439923431630356
-0.0262358672916889,1.2479181289672852,-0.1573397815227508,-0.393647164106369,0.0237795207649469,0.1688728034496307,0.0,0.0,0.2132406739527543,-0.5398704960066343
-0.0278830528259277,1.2392605543136597,-0.1745616942644119,-0.3849624097347259,0.0335217788815498,0.1948627829551696,0.0,0.0,-0.7851728485558156,0.9130571721486254
-0.029484461992979,1.2301921844482422,-0.1681265980005264,-0.403235524892807,0.0414118096232414,0.1578149646520614,0.0,0.0,0.4223266424412435,0.8554312529553623
-0.0310641285032033,1.2212727069854736,-0.1645749360322952,-0.3966213762760162,0.0479521043598651,0.130817636847496,0.0,0.0,-0.2234944975798745,-0.6273153461062826
-0.0327240005135536,1.211927056312561,-0.1739105284214019,-0.4156309366226196,0.055793959647417,0.1568509638309478,0.0,0.0,-0.833668803175954,0.6005317260493879
-0.034372042864561,1.2021572589874268,-0.1716873198747635,-0.4344900548458099,0.0626126676797866,0.136386439204216,0.0,0.0,0.882530879351989,-0.7265409199590652
-0.0363395698368549,1.1930431127548218,-0.2049852609634399,-0.4054336249828338,0.0707652047276496,0.1630654633045196,0.0,0.0,-0.4033688795681467,0.9429634063298652
-0.0382908806204795,1.1834964752197266,-0.2022134512662887,-0.4246461689472198,0.0777774453163147,0.140244722366333,0.0,0.0,0.7389586265554222,0.5574152596915186
-0.0402940735220909,1.174680233001709,-0.2065666168928146,-0.3921710252761841,0.0839614793658256,0.123680792748928,0.0,0.0,-0.8287740188390644,0.7576223350091555
-0.0422914512455463,1.165455341339111,-0.2050376236438751,-0.410301148891449,0.0892195403575897,0.1051611676812172,0.0,0.0,0.9964810403421478,-0.627520642536799
-0.0446297638118267,1.157182693481445,-0.2401874363422393,-0.3680672347545624,0.0955127030611038,0.1258634030818939,0.0,0.0,-0.8863116436507874,-0.5933066548512582
-0.0470562949776649,1.1484787464141846,-0.2504615783691406,-0.3873619139194488,0.103262260556221,0.1549911946058273,0.0,0.0,-0.347254261093284,0.8383849313597218
-0.0494550690054893,1.13937246799469,-0.2461622655391693,-0.4051636755466461,0.1095030084252357,0.124814823269844,0.0,0.0,-0.8478349447250366,0.9955729246139526
-0.0518244728446006,1.1298494338989258,-0.2416896820068359,-0.4236010313034057,0.1142220646142959,0.0943811014294624,0.0,0.0,-0.8456795811653137,0.9695136547088624
-0.0541676506400108,1.1199243068695068,-0.2375803738832473,-0.4413742125034332,0.1174605414271354,0.0647698119282722,0.0,0.0,-0.6129305362701416,0.992092490196228
-0.0564788803458213,1.1095796823501587,-0.2327820360660553,-0.45988929271698,0.1191121488809585,0.0330323502421379,0.0,0.0,-0.7562041282653809,0.9968826770782472
-0.0587477684020996,1.098828911781311,-0.2266629636287689,-0.4777968823909759,0.1188864484429359,-0.0045139319263398,0.0,0.0,-0.65297532081604,0.9940474033355712
-0.0609742179512977,1.0876771211624146,-0.2205179929733276,-0.4954682290554046,0.1167682036757469,-0.0423649288713932,0.0,0.0,-0.976245641708374,0.994937300682068
-0.0631624236702919,1.0761107206344604,-0.2149171531200409,-0.5137637853622437,0.112895481288433,-0.0774548202753067,0.0,0.0,-0.8659732341766357,0.9761073589324952
-0.0653058066964149,1.0641430616378784,-0.2084803134202957,-0.5314631462097168,0.1070794314146041,-0.1163208708167076,0.0,0.0,-0.967302143573761,0.997244119644165
-0.067412182688713,1.0517759323120115,-0.203020840883255,-0.5491207838058472,0.0995187163352966,-0.151214450597763,0.0,0.0,-0.9264081716537476,0.882735013961792
-0.0694807022809982,1.038999080657959,-0.1974730044603347,-0.5672716498374939,0.0902223065495491,-0.1859286278486251,0.0,0.0,-0.9959627389907836,0.9916796684265136
-0.0715193748474121,1.0258175134658811,-0.1929353177547454,-0.5852258801460266,0.0793934091925621,-0.2165780961513519,0.0,0.0,-0.9986392259597778,0.6695542335510254
-0.0735273361206054,1.012220859527588,-0.1883200407028198,-0.6036826372146606,0.0670432299375534,-0.2470035254955291,0.0,0.0,-0.9925934076309204,-0.3023481369018554
-0.0755674391984939,0.9982033371925354,-0.1915890574455261,-0.6224986910820007,0.0547678470611572,-0.245507925748825,0.0,0.0,-0.9976685047149658,0.8153970241546631
-0.0775632858276367,0.9837694764137268,-0.1853170990943908,-0.6410443782806396,0.0406669899821281,-0.282017171382904,0.0,0.0,-0.9636417627334596,0.3705253601074219
-0.0795888900756836,0.9689150452613832,-0.1883430927991867,-0.659864068031311,0.0266207922250032,-0.2809237241744995,0.0,0.0,-0.9854954481124878,-0.6294407844543457
-0.0816889777779579,0.9536320567131042,-0.1969950497150421,-0.679071307182312,0.0137766860425472,-0.2568821012973785,0.0,0.0,-0.982758402824402,-0.3348581790924072
-0.083816148340702,0.9379281401634216,-0.1997447311878204,-0.6978880763053894,0.0009684037067927,-0.2561656534671783,0.0,0.0,-0.9567639827728271,-0.9275326132774352
-0.0860561355948448,0.921812891960144,-0.2132719010114669,-0.7162690758705139,-0.0096243871375918,-0.2118556052446365,0.0,0.0,-0.9725905656814576,0.2250493764877319
-0.0883204489946365,0.9052758812904358,-0.2157093286514282,-0.7350813746452332,-0.0201987661421298,-0.2114877700805664,0.0,0.0,-0.7047480344772339,-0.530529797077179
-0.0906505584716796,0.8883170485496521,-0.2234306782484054,-0.7538881897926331,-0.0296708550304174,-0.1894420087337494,0.0,0.0,-0.3195488452911377,-0.5365756750106812
-0.0930340737104415,0.8709375858306885,-0.2295764684677124,-0.7726248502731323,-0.0383274853229522,-0.1731324344873428,0.0,0.0,-0.8487091064453125,-0.3646258115768432
-0.0954365730285644,0.853135883808136,-0.2314771860837936,-0.7914339900016785,-0.0469889640808105,-0.1732297390699386,0.0,0.0,-0.9728308320045472,-0.2931489944458008
-0.0978562384843826,0.8349121809005737,-0.2331815212965011,-0.8102432489395142,-0.0556622594594955,-0.173466145992279,0.0,0.0,-0.6288752555847168,0.4901132583618164
-0.10029087215662,0.8162664771080017,-0.2346812188625335,-0.8290523886680603,-0.0643539130687713,-0.1738335192203521,0.0,0.0,-0.0111786127090454,-0.0497874617576599
-0.1027387604117393,0.7971985936164856,-0.2359687387943267,-0.8478617072105408,-0.0730701088905334,-0.1743237823247909,0.0,0.0,0.5330638885498047,-0.0982508659362793
-0.105253979563713,0.7783727645874023,-0.242272064089775,-0.8371885418891907,-0.0822266861796379,-0.1831321269273758,0.0,0.0,0.9113569259643556,-0.1558271646499633
-0.1075939163565635,0.7604896426200867,-0.2252068072557449,-0.7953049540519714,-0.0909158214926719,-0.1737828850746154,0.0,0.0,-0.2862384915351867,0.2735974788665771
-0.1099401488900184,0.7421848177909851,-0.2258192598819732,-0.8141143918037415,-0.0996453538537025,-0.174590989947319,0.0,0.0,0.393395185470581,-0.804282009601593
-0.1122135147452354,0.7245011329650879,-0.2202161997556686,-0.7864290475845337,-0.1067208871245384,-0.1415104866027832,0.0,0.0,0.066596508026123,-0.1113938093185424
-0.1144836395978927,0.7071597576141357,-0.2196104079484939,-0.771276593208313,-0.1140727549791336,-0.147037386894226,0.0,0.0,0.1347287893295288,-0.397233784198761
-0.1166893988847732,0.6897690296173096,-0.2132850587368011,-0.7734931111335754,-0.1213143765926361,-0.1448326110839843,0.0,0.0,0.7556378841400146,-0.7116761207580566
-0.1189726814627647,0.6731007099151611,-0.2221576869487762,-0.7413274049758911,-0.127445638179779,-0.1226253286004066,0.0,0.0,-0.4315882921218872,-0.0502458810806274
-0.1212506294250488,0.6560099720954895,-0.2215779572725296,-0.7601340413093567,-0.1336349546909332,-0.1237866505980491,0.0,0.0,0.6259434223175049,-0.0514798164367675
-0.1234175711870193,0.6393888592720032,-0.2105306684970855,-0.7392805814743042,-0.1397773176431656,-0.1228471249341964,0.0,0.0,0.1475570201873779,0.022903561592102
-0.1255304366350174,0.6227577328681946,-0.2050863802433014,-0.7397547364234924,-0.1459564566612243,-0.1235827803611755,0.0,0.0,0.7180665731430054,-0.2615880966186523
-0.12766894698143,0.6066445112228394,-0.2070038765668869,-0.7168338894844055,-0.15279421210289,-0.136754959821701,0.0,0.0,0.5463652610778809,0.060464859008789
-0.1296511590480804,0.5912918448448181,-0.1914113909006118,-0.6830571293830872,-0.1596028804779052,-0.1361732333898544,0.0,0.0,-0.5491538047790527,-0.7663209438323975
-0.1316695213317871,0.5755200982093811,-0.1962738037109375,-0.7015700936317444,-0.1651558130979538,-0.1110584959387779,0.0,0.0,0.8048264980316162,-0.5004708766937256
-0.1335230767726898,0.5607133507728577,-0.1808474510908126,-0.6585850119590759,-0.1696753650903701,-0.0903906002640724,0.0,0.0,-0.3083449602127075,-0.4179387092590332
-0.1353559494018554,0.5454840064048767,-0.178710401058197,-0.6773905158042908,-0.1742578893899917,-0.0916503593325614,0.0,0.0,0.3925254344940185,-0.328052818775177
-0.1371433287858963,0.5306952595710754,-0.1737479865550995,-0.657871663570404,-0.17926025390625,-0.1000476628541946,0.0,0.0,0.4062376022338867,-0.7291932106018066
-0.1388394385576248,0.516274631023407,-0.1660753488540649,-0.641348659992218,-0.1828133314847946,-0.0710615292191505,0.0,0.0,0.6489453315734863,-0.2792091369628906
-0.1404824256896972,0.5027095675468445,-0.1601080596446991,-0.6034114360809326,-0.1870191544294357,-0.0841167420148849,0.0,0.0,0.018579363822937,-0.3757539987564087
-0.1419866532087326,0.4892339408397674,-0.1463875919580459,-0.5994307994842529,-0.1910707503557205,-0.0810323134064674,0.0,0.0,-0.5564264059066772,0.635686993598938
-0.1434153616428375,0.4753172695636749,-0.137584775686264,-0.6192071437835693,-0.1963826566934585,-0.1062381714582443,0.0,0.0,0.4977072477340698,-0.9149423837661744
-0.1447589844465255,0.4614026844501495,-0.1309423893690109,-0.6188833117485046,-0.1998346745967865,-0.0690404549241066,0.0,0.0,0.6348159313201904,-0.5676925182342529
-0.1460811644792556,0.4475769400596618,-0.1297881156206131,-0.6148093342781067,-0.2022796273231506,-0.0488990060985088,0.0,0.0,0.8662580251693726,-0.5350074172019958
-0.1472398787736892,0.4346653521060943,-0.1144545301795005,-0.5740459561347961,-0.2037152498960495,-0.0287120435386896,0.0,0.0,0.9566256999969482,0.7134331464767456
-0.1480117738246917,0.4227087795734405,-0.0745552331209182,-0.5317649841308594,-0.2063677310943603,-0.0530494824051857,0.0,0.0,0.9334566593170166,-0.6536054611206055
-0.1487388610839843,0.411799281835556,-0.070997804403305,-0.4851075410842895,-0.2080944776535034,-0.0345348492264747,0.0,0.0,0.9431486129760742,-0.3714466094970703
-0.1494970321655273,0.4010856747627258,-0.0733822584152221,-0.4765024781227112,-0.2105500847101211,-0.049112431704998,0.0,0.0,0.7370684146881104,-0.6317076086997986
-0.1500464379787445,0.3911751508712768,-0.0538497976958751,-0.440623790025711,-0.2116388976573944,-0.0217766836285591,0.0,0.0,0.8185089826583862,-0.4992725849151611
-0.1505324393510818,0.3818056583404541,-0.0469949170947074,-0.4166498482227325,-0.2132565081119537,-0.0323523320257663,0.0,0.0,0.7529944181442261,-0.1525404453277588
-0.1508828103542328,0.3730860650539398,-0.0331699289381504,-0.3878107666969299,-0.2151494920253753,-0.0378596894443035,0.0,0.0,-0.1548075675964355,0.1217538118362426
-0.1511922776699066,0.3639433681964874,-0.029076512902975,-0.4066138863563537,-0.2170418202877044,-0.0378466509282588,0.0,0.0,0.507565975189209,-0.8106933832168579
-0.1513215005397796,0.3551473617553711,-0.0127977235242724,-0.390948623418808,-0.2171627134084701,-0.0024179446045309,0.0,0.0,-0.3987770080566406,-0.4323087930679321
-0.1514082849025726,0.3459283113479614,-0.0085744839161634,-0.4097512662410736,-0.2172683775424957,-0.0021135464776307,0.0,0.0,0.4386073350906372,-0.7025071382522583
-0.1513441056013107,0.336783766746521,0.0049452581442892,-0.4062113463878631,-0.2157852500677108,0.0296628177165985,0.0,0.0,-0.6325884461402893,-0.3306678533554077
-0.1512363404035568,0.3272159993648529,0.0092772077769041,-0.4250138401985168,-0.2142713516950607,0.0302780531346797,0.0,0.0,0.0160127878189086,-0.4353352189064026
-0.150949090719223,0.3175532519817352,0.0267989337444305,-0.4291751086711883,-0.2123220860958099,0.0389852598309516,0.0,0.0,-0.6959396004676819,-0.5061056613922119
-0.1506559401750564,0.3074837923049927,0.0263130664825439,-0.4471044838428497,-0.2092951834201812,0.060538075864315,0.0,0.0,0.9195823669433594,-0.4436326026916504
-0.1500992774963379,0.2982731759548187,0.052441693842411,-0.4089080393314361,-0.2060465663671493,0.06497223675251,0.0,0.0,-0.6785277724266052,0.0782667398452758
-0.1494970321655273,0.2886395454406738,0.0569399110972881,-0.4277106523513794,-0.2027338445186615,0.0662543028593063,0.0,0.0,0.1250171661376953,-0.3368867635726928
-0.1487366706132888,0.2788885831832886,0.0723591968417167,-0.432876318693161,-0.1990306973457336,0.0740629211068153,0.0,0.0,-0.4720203876495361,-0.8651695251464844
-0.1480030119419098,0.268734335899353,0.0677296370267868,-0.4505553841590881,-0.1933578699827194,0.1134565100073814,0.0,0.0,0.3165596723556518,0.0387221574783325
-0.1470242440700531,0.2591497600078583,0.0918398052453994,-0.4252015650272369,-0.1872827410697937,0.121502473950386,0.0,0.0,0.04318368434906,0.2527120113372803
-0.145945742726326,0.2496761828660965,0.1017656475305557,-0.4202934205532074,-0.1811764687299728,0.1221254840493202,0.0,0.0,-0.3292678594589233,-0.2307037711143493
-0.1448197364807129,0.2397797703742981,0.1064006090164184,-0.4390977621078491,-0.1749619543552398,0.1242904886603355,0.0,0.0,-0.1509532928466797,-0.3761858940124511
-0.1436460465192794,0.2294604927301406,0.1110560297966003,-0.457902044057846,-0.1686302274465561,0.1266345083713531,0.0,0.0,0.5621161460876465,-0.2250745296478271
-0.1423549652099609,0.219780147075653,0.1228819638490676,-0.4295449256896972,-0.1624066084623336,0.124472439289093,0.0,0.0,0.1944801807403564,-0.2352573871612548
-0.1409872025251388,0.2104928344488144,0.1307022422552108,-0.4121182560920715,-0.1563246548175811,0.1216390132904052,0.0,0.0,-0.4574953317642212,-0.6879804134368896
-0.1396268904209137,0.2007937580347061,0.1283570826053619,-0.4302845895290375,-0.1486663669347763,0.1531656682491302,0.0,0.0,0.0042052268981933,-0.0797208547592163
-0.1382338553667068,0.1912300735712051,0.1318081170320511,-0.424322247505188,-0.1411834359169006,0.1496587097644806,0.0,0.0,-0.1591228246688842,-0.0622268915176391
-0.1367917954921722,0.1812438070774078,0.1365403085947036,-0.44312784075737,-0.133539080619812,0.1528869569301605,0.0,0.0,0.5434470176696777,-0.2846285700798034
-0.1351129561662674,0.1718132346868515,0.1595724374055862,-0.4184135794639587,-0.1252670884132385,0.1654394418001175,0.0,0.0,-0.3465887904167175,-0.312246561050415
-0.1333847939968109,0.1619601547718048,0.1643259078264236,-0.4372202455997467,-0.1168166473507881,0.1690090447664261,0.0,0.0,0.6642229557037354,-0.3615583181381225
-0.131372258067131,0.1528042405843734,0.1918798983097076,-0.4062251150608063,-0.1075036153197288,0.1862604320049286,0.0,0.0,0.0553492307662963,-0.4138392210006714
-0.1292712241411209,0.1439676880836486,0.2005859911441803,-0.3920775353908539,-0.0980633050203323,0.1888062804937362,0.0,0.0,0.6126583814620972,-0.1993900537490844
-0.1269000023603439,0.1359337866306305,0.2267443686723709,-0.3564143478870392,-0.0877758786082267,0.2057485878467559,0.0,0.0,0.3957376480102539,-0.7888368368148804
-0.1244258880615234,0.1282086670398712,0.2351286113262176,-0.3426624238491058,-0.07560695707798,0.2433786392211914,0.0,0.0,0.2159028053283691,-0.7103230953216553
-0.121917724609375,0.1209754347801208,0.2368731051683426,-0.3208312392234802,-0.0618108697235584,0.2759216129779815,0.0,0.0,0.0229321718215942,-0.5416287183761597
-0.1193298324942588,0.1140566915273666,0.2434472292661667,-0.3069390654563904,-0.0466449223458766,0.3033187389373779,0.0,0.0,0.0528012514114379,-0.6213957071304321
-0.1166692748665809,0.1071521118283271,0.2491497099399566,-0.3064276576042175,-0.0299383867532014,0.3341307938098907,0.0,0.0,0.57216477394104,-0.253172218799591
-0.1140567809343338,0.1007153838872909,0.2446266710758209,-0.2858242392539978,-0.0135307144373655,0.3281534314155578,0.0,0.0,-0.0224924683570861,-0.7419996857643127
-0.1114649772644043,0.0938591584563255,0.2404942810535431,-0.304655522108078,0.0049131982959806,0.3688784837722778,0.0,0.0,0.4008188247680664,0.0029642581939697
-0.108843132853508,0.0873012617230415,0.2433303296566009,-0.2916282117366791,0.0235251728445291,0.3722396194934845,0.0,0.0,0.7110966444015503,-0.2605912685394287
-0.1061568260192871,0.0811544954776763,0.2494078129529953,-0.2735982239246368,0.0425202101469039,0.3799006342887878,0.0,0.0,0.6179327964782715,-0.2364753484725952
-0.1033069640398025,0.0751258954405784,0.2649061381816864,-0.2686311900615692,0.0623713210225105,0.397022008895874,0.0,0.0,0.7311074733734131,0.1633831262588501
-0.1003491431474685,0.0697619020938873,0.2749752402305603,-0.2393927723169326,0.0829647853970527,0.4118693470954895,0.0,0.0,0.6848766803741455,-0.2336931228637695
-0.0973833054304122,0.0652138069272041,0.275407612323761,-0.2034454494714737,0.1039517223834991,0.4197386801242828,0.0,0.0,0.4492582082748413,0.4785457849502563
