x_pos,y_pos,x_vel,y_vel,angle,ang_vel,leg_1,leg_2,main_booster,lat_booster
-0.0016134262550622,1.4031274318695068,-0.1630223393440246,-0.3463339805603027,0.0014935337239876,0.0294413808733224,0.0,0.0,-0.2387628555297851,0.840989351272583
-0.0032455443870276,1.3948572874069214,-0.162502184510231,-0.3675625622272491,0.0007975767366588,-0.0139198405668139,0.0,0.0,-0.2438864111900329,0.2993786334991455
-0.0049674035981297,1.3860896825790403,-0.1711160987615585,-0.3896692395210266,-0.0002504014701116,-0.0209616310894489,0.0,0.0,0.3689862489700317,0.9546747207641602
-0.006816673092544,1.3774430751800537,-0.1815065592527389,-0.3842940926551819,-0.0036470827180892,-0.0679400935769081,0.0,0.0,0.2159359455108642,0.910529613494873
-0.0085712429136037,1.3690216541290283,-0.1698997169733047,-0.3743088543415069,-0.0091392137110233,-0.1098524332046508,0.0,0.0,-0.5205064415931702,0.392581582069397
-0.0104139326140284,1.3601038455963137,-0.1783436983823776,-0.3963978588581085,-0.0150012262165546,-0.1172510609030723,0.0,0.0,-0.3747994899749756,0.670015811920166
-0.0122936246916651,1.3506888151168823,-0.1803578287363052,-0.4185450375080108,-0.0225154999643564,-0.15029938519001,0.0,0.0,-0.4940378069877624,0.8964498043060303
-0.0141719821840524,1.3407775163650513,-0.1776200979948043,-0.4406827986240387,-0.0326233245432376,-0.2021756619215011,0.0,0.0,-0.312926173210144,0.6210832595825195
-0.0160883907228708,1.3303755521774292,-0.179822489619255,-0.4626055061817169,-0.0443190671503543,-0.2339365035295486,0.0,0.0,-0.2079572081565857,0.5615532398223877
-0.0180459022521972,1.3194795846939087,-0.1824177354574203,-0.4847086369991302,-0.0575131066143512,-0.2639051079750061,0.0,0.0,-0.2637505531311035,-0.044734239578247
-0.020087718963623,1.3080896139144895,-0.1904682666063308,-0.5068070888519287,-0.0710977017879486,-0.2717167735099792,0.0,0.0,-0.1382999420166015,0.6153656244277954
-0.0221590045839548,1.296198844909668,-0.1916472613811493,-0.5292854905128479,-0.0864415243268013,-0.3069049417972564,0.0,0.0,-0.101520299911499,0.6780718564987183
-0.0242475513368845,1.2838103771209717,-0.1913468241691589,-0.5517063736915588,-0.1038187146186828,-0.3475755155086517,0.0,0.0,0.0758643150329589,0.373672604560852
-0.0263482090085744,1.2712675333023071,-0.1924161911010742,-0.5587781667709351,-0.1213830262422561,-0.3513184189796448,0.0,0.0,-0.2418179512023925,-0.3199711441993713
-0.0285285953432321,1.258232593536377,-0.200019359588623,-0.5808941721916199,-0.1393504440784454,-0.3593813478946686,0.0,0.0,-0.2130142450332641,-0.0794322490692138
-0.0307872779667377,1.2447059154510498,-0.2074863910675048,-0.6030101180076599,-0.157723069190979,-0.3674860000610351,0.0,0.0,-0.1588094234466552,-0.6991465091705322
-0.0331638343632221,1.230705499649048,-0.2199968546628952,-0.624212384223938,-0.1754217147827148,-0.3540048897266388,0.0,0.0,0.1019902229309082,-0.6387327909469604
-0.0355170257389545,1.2165619134902954,-0.2187073677778244,-0.6306535005569458,-0.1921132504940033,-0.3338611721992492,0.0,0.0,0.914451003074646,-0.96799898147583
-0.0377171523869037,1.2032902240753174,-0.2051969766616821,-0.5918427109718323,-0.2070579975843429,-0.2989220023155212,0.0,0.0,-0.1488558053970337,-0.7309630513191223
-0.0400530807673931,1.189544916152954,-0.2200569808483123,-0.6128544211387634,-0.2207554131746292,-0.2739731967449188,0.0,0.0,0.7395861148834229,-0.8977771401405334
-0.042207907885313,1.176445484161377,-0.2035930454730987,-0.5840218663215637,-0.2328163534402847,-0.2412404268980026,0.0,0.0,0.6177468299865723,-0.8605539202690125
-0.0443849563598632,1.1634985208511353,-0.2071531265974044,-0.5771253108978271,-0.2435497790575027,-0.214687705039978,0.0,0.0,0.7339540719985962,-0.7480195760726929
-0.0464026443660259,1.150855302810669,-0.1926063746213913,-0.5634554624557495,-0.2528905570507049,-0.1868317574262619,0.0,0.0,0.147680401802063,-0.9516195058822632
-0.0484482757747173,1.1380290985107422,-0.1968830972909927,-0.571399986743927,-0.260742574930191,-0.1570548415184021,0.0,0.0,0.4042615890502929,-0.960506021976471
-0.0506201758980751,1.1255862712860107,-0.2108940780162811,-0.5541471838951111,-0.2671797573566437,-0.128755584359169,0.0,0.0,0.6865447759628296,-0.8097072243690491
-0.0528829582035541,1.1137619018554688,-0.2209025174379348,-0.5265141129493713,-0.2726968228816986,-0.1103413477540016,0.0,0.0,0.8915748596191406,-0.5449133515357971
-0.0550130829215049,1.1026628017425537,-0.2082975804805755,-0.4941719472408294,-0.2775289118289947,-0.0966418460011482,0.0,0.0,0.5408107042312622,-0.3845617771148681
-0.0571012496948242,1.0922296047210691,-0.2031369507312774,-0.464795708656311,-0.2833635210990906,-0.1166919693350792,0.0,0.0,-0.3016421794891357,-0.7826257944107056
-0.0593085289001464,1.081338882446289,-0.2165169268846511,-0.4848514497280121,-0.2877009809017181,-0.0867490023374557,0.0,0.0,0.3913619518280029,-0.2746654748916626
-0.0614611618220806,1.0705516338348389,-0.2105398476123809,-0.4803771376609802,-0.2925650179386139,-0.0972809642553329,0.0,0.0,-0.270545482635498,-0.8296138644218445
-0.0637136474251747,1.0593056678771973,-0.2216918915510177,-0.5005378127098083,-0.296233981847763,-0.0733794644474983,0.0,0.0,0.3701333999633789,-0.8037542700767517
-0.0660283118486404,1.0481412410736084,-0.2289716303348541,-0.4967063069343567,-0.2988116443157196,-0.0515530183911323,0.0,0.0,0.8084282875061035,-0.3557908535003662
-0.0682043060660362,1.0377795696258545,-0.2142595946788787,-0.4612047970294952,-0.3022613823413849,-0.0689948946237564,0.0,0.0,0.6576333045959473,0.416212797164917
-0.0703627616167068,1.0274698734283447,-0.211777776479721,-0.4590581357479095,-0.30646413564682,-0.0840549543499946,0.0,0.0,0.8345122337341309,-0.6142430305480957
-0.0723631829023361,1.0176758766174316,-0.1968019753694534,-0.4359837770462036,-0.3098252415657043,-0.0672227293252945,0.0,0.0,0.4965080022811889,-0.3549482822418213
-0.074159525334835,1.008358120918274,-0.1760224401950836,-0.4148993492126465,-0.3135735988616943,-0.0749673098325729,0.0,0.0,-0.6342840790748596,-0.0338063240051269
-0.0759719833731651,0.9985456466674804,-0.1771840006113052,-0.4369943737983703,-0.3177885115146637,-0.0842982679605484,0.0,0.0,-0.4865075349807739,-0.8428375720977783
-0.0778535827994346,0.9882737398147584,-0.185214415192604,-0.4571816027164459,-0.3208555281162262,-0.0613403096795082,0.0,0.0,-0.2454851865768432,-0.6199914813041687
-0.0797901153564453,0.9775380492210388,-0.1915595233440399,-0.4776062071323395,-0.3230398297309875,-0.0436857305467128,0.0,0.0,0.7867205142974854,-0.0720655918121337
-0.0814916640520095,0.9672281742095948,-0.1677366346120834,-0.4587588906288147,-0.3255583941936493,-0.0503715090453624,0.0,0.0,-0.6606706976890564,-0.899105429649353
-0.0832686424255371,0.9564706087112428,-0.1769032925367355,-0.4782921075820923,-0.3263854384422302,-0.0165407974272966,0.0,0.0,0.3986315727233886,-0.0913450717926025
-0.0847983360290527,0.9457976818084716,-0.1521786749362945,-0.4745307266712188,-0.3272106051445007,-0.0165035165846347,0.0,0.0,0.0325251817703247,-0.8473548293113708
-0.0862521156668663,0.9348973631858826,-0.1457673013210296,-0.4843742251396179,-0.3267976939678192,0.008258456364274,0.0,0.0,0.3283838033676147,-0.8775107264518738
-0.087533950805664,0.9240935444831848,-0.1299063116312027,-0.4797792434692383,-0.3250073194503784,0.0358069241046905,0.0,0.0,-0.0139651894569396,-0.428727388381958
-0.0887968987226486,0.912795066833496,-0.1275474578142166,-0.5018743872642517,-0.3237062990665436,0.0260203871876001,0.0,0.0,0.7734222412109375,-0.6128384470939636
-0.0899197608232498,0.9015037417411804,-0.1143837794661521,-0.5013668537139893,-0.3215199410915375,0.0437277555465698,0.0,0.0,-0.2002537250518798,-0.6731836199760437
-0.0910617858171463,0.8897369503974915,-0.1170141696929931,-0.5223512053489685,-0.3185967206954956,0.0584644302725791,0.0,0.0,0.5672614574432373,-0.8614980578422546
-0.0921012908220291,0.8786987066268921,-0.1078187823295593,-0.4897371828556061,-0.3145672082901001,0.080590434372425,0.0,0.0,0.1993842124938964,-0.729232132434845
-0.093086339533329,0.8680654168128967,-0.1032400727272033,-0.4715716540813446,-0.3096600174903869,0.0981435477733612,0.0,0.0,-0.2005085945129394,-0.7834622263908386
-0.0940953269600868,0.8569647669792175,-0.1067406311631202,-0.4921269714832306,-0.3036027252674103,0.1211450919508934,0.0,0.0,0.0418328046798706,-0.6460581421852112
-0.0949065238237381,0.8458620309829712,-0.0878740102052688,-0.4920668303966522,-0.2966269254684448,0.1395167261362075,0.0,0.0,-0.2357237935066223,-0.2683535814285278
-0.0956740379333496,0.834264874458313,-0.0830266699194908,-0.5141648054122925,-0.2901540100574493,0.1294578313827514,0.0,0.0,-0.7912219166755676,-0.3738061785697937
-0.0963949188590049,0.8221731781959534,-0.0778906419873237,-0.5362620949745178,-0.2841853499412536,0.1193732619285583,0.0,0.0,-0.7812707424163818,-0.5621878504753113
-0.0971077904105186,0.8096107244491577,-0.0777191892266273,-0.5570987462997437,-0.2775818407535553,0.1320699751377105,0.0,0.0,-0.9388280510902404,-0.2399138212203979
-0.0977688804268837,0.7965535521507263,-0.07205730676651,-0.5791956782341003,-0.2714845836162567,0.1219450235366821,0.0,0.0,-0.5690315961837769,-0.2023423910140991
-0.0983758941292762,0.7830020785331726,-0.0661569610238075,-0.601291835308075,-0.2658942937850952,0.111805759370327,0.0,0.0,-0.50672847032547,-0.6672336459159851
-0.0989682227373123,0.7689791917800903,-0.0653237849473953,-0.6221440434455872,-0.2596657872200012,0.124570332467556,0.0,0.0,-0.6815693378448486,-0.3408885598182678
-0.0995020866394043,0.7544617652893066,-0.0589936263859272,-0.6442399621009827,-0.2539451122283935,0.1144141778349876,0.0,0.0,-0.5323320031166077,-0.1558223962783813
-0.0999756827950477,0.7394495606422424,-0.0524703450500965,-0.6663349866867065,-0.2487322986125946,0.1042559146881103,0.0,0.0,-0.8501030802726746,-0.7705243825912476
-0.1004523262381553,0.7239744067192078,-0.0540144555270671,-0.6867246627807617,-0.2422678917646408,0.1292882114648819,0.0,0.0,-0.6059322357177734,0.2909212112426758
-0.1008651703596115,0.7080044746398926,-0.0471460595726966,-0.7088199853897095,-0.2363109737634658,0.1191380769014358,0.0,0.0,-0.2650142908096313,-0.2374573945999145
-0.1012126952409744,0.6915397047996521,-0.0401235111057758,-0.7309144735336304,-0.2308610528707504,0.1089988574385643,0.0,0.0,-0.4355683922767639,-0.5190073847770691
-0.1015253067016601,0.6745898723602295,-0.0369673520326614,-0.7524400949478149,-0.2250866144895553,0.1154886484146118,0.0,0.0,-0.0429906249046325,-0.0709500908851623
-0.1017699241638183,0.6571452021598816,-0.0296706818044185,-0.7745340466499329,-0.2198173403739929,0.1053854823112487,0.0,0.0,0.3467245101928711,-0.7795158624649048
-0.1019280403852462,0.6396961212158203,-0.0220747683197259,-0.7745960354804993,-0.2134777009487152,0.1267928481101989,0.0,0.0,0.6681702136993408,-0.6319757103919983
-0.1020700484514236,0.6226862072944641,-0.0209335591644048,-0.7550424337387085,-0.2066852897405624,0.1358478814363479,0.0,0.0,0.159342885017395,-0.4301358461380005
-0.1020026206970214,0.6060582399368286,0.0004310798831284,-0.7381494641304016,-0.2003237307071685,0.1272310316562652,0.0,0.0,0.4491171836853027,-0.235787034034729
-0.1017412170767784,0.5892909169197083,0.0199899766594171,-0.7443946599960327,-0.1941275149583816,0.1239241957664489,0.0,0.0,0.4319760799407959,-0.6445679068565369
-0.1012873649597168,0.5731322169303894,0.0383695922791957,-0.7172618508338928,-0.187077522277832,0.1409998685121536,0.0,0.0,0.0867924690246582,-0.191043734550476
-0.1007622703909874,0.5569546818733215,0.0462608598172664,-0.7182273864746094,-0.1808069944381714,0.1254101693630218,0.0,0.0,0.4654848575592041,-0.8918030858039856
-0.100213810801506,0.5412158370018005,0.0474004074931144,-0.6986140608787537,-0.1733395904302597,0.1493478715419769,0.0,0.0,0.0933247804641723,-0.575622022151947
-0.0995409935712814,0.5255976319313049,0.0591236539185047,-0.6932143568992615,-0.1651691049337387,0.1634099632501602,0.0,0.0,-0.2254445552825927,-0.5399309396743774
-0.0988422408699989,0.509503185749054,0.060869175940752,-0.7143298387527466,-0.1561648845672607,0.1800841987133026,0.0,0.0,0.4345314502716064,0.3614983558654785
-0.097925566136837,0.4936420619487762,0.0828333646059036,-0.7040344476699829,-0.1473436206579208,0.1764255464076995,0.0,0.0,0.706902027130127,-0.676827073097229
-0.0969630256295204,0.4779005646705627,0.0866193100810051,-0.6986963152885437,-0.1377300173044204,0.1922713369131088,0.0,0.0,0.6434266567230225,-0.2947710752487182
-0.0958109870553016,0.4621308147907257,0.1057026386260986,-0.700028657913208,-0.1282712817192077,0.189174622297287,0.0,0.0,0.4144939184188843,-0.0558995008468627
-0.0945701599121093,0.4463035762310028,0.1151634231209755,-0.7026883959770203,-0.1193994209170341,0.1774373203516006,0.0,0.0,0.4840791225433349,-0.553566038608551
-0.0932166129350662,0.4310567378997803,0.1257868111133575,-0.676898717880249,-0.1098950132727623,0.1900877058506012,0.0,0.0,0.1374232769012451,-0.612271785736084
-0.0917086601257324,0.4161564111709595,0.1403482407331466,-0.6615050435066223,-0.0995221436023712,0.2074575722217559,0.0,0.0,0.141775369644165,-0.7118197679519653
-0.0902078598737716,0.4016329050064087,0.1387172192335128,-0.6447677612304688,-0.0882617831230163,0.2252074182033538,0.0,0.0,0.3450082540512085,0.2879739999771118
-0.0887081176042556,0.387031614780426,0.139530062675476,-0.648366391658783,-0.0779199078679084,0.2068376094102859,0.0,0.0,0.4692695140838623,0.1443822383880615
-0.087037369608879,0.3729823529720306,0.156875804066658,-0.6239128708839417,-0.0678338631987571,0.2017210721969604,0.0,0.0,-0.1612103581428527,-0.2357022762298584
-0.0852860435843467,0.3584378957748413,0.1653609424829483,-0.6460055112838745,-0.0581592991948127,0.1934914588928222,0.0,0.0,0.2163339853286743,-0.1106257438659668
-0.0834648162126541,0.3441488146781921,0.1729284971952438,-0.6347360610961914,-0.049071729183197,0.1817513108253479,0.0,0.0,0.5206108093261719,-0.4327112436294555
-0.0815416350960731,0.3303293585777282,0.1835628449916839,-0.6139370799064636,-0.0404233261942863,0.1729681491851806,0.0,0.0,0.3972878456115722,-0.5350761413574219
-0.0794795006513595,0.3167495727539062,0.1965753585100174,-0.603312075138092,-0.0308986864984035,0.190492495894432,0.0,0.0,0.3737702369689941,-0.2608529925346374
-0.0773069411516189,0.3031002283096313,0.2078845053911209,-0.6064748167991638,-0.0216441713273525,0.1850902587175369,0.0,0.0,0.4328985214233398,-0.3498551249504089
-0.074964240193367,0.2894763946533203,0.2248701304197311,-0.605399489402771,-0.0123638166114687,0.1856070160865783,0.0,0.0,0.7577924728393555,-0.5607364177703857
-0.0724086761474609,0.2762657403945923,0.2449053078889846,-0.5870826244354248,-0.0018471422372385,0.2103335559368133,0.0,0.0,0.5379631519317627,-0.7991325855255127
-0.0696887001395225,0.2631043195724487,0.2598207592964172,-0.5849781632423401,0.0101775331422686,0.2404933869838714,0.0,0.0,0.8171766996383667,-0.4875967502593994
-0.0669004470109939,0.2506872713565826,0.2669689655303955,-0.5519911646842957,0.0218778345733881,0.2340064793825149,0.0,0.0,0.45555579662323,-0.6320329308509827
-0.064064122736454,0.2387816309928894,0.2707310914993286,-0.5293774604797363,0.0346196815371513,0.2548367083072662,0.0,0.0,0.5553452968597412,-0.7899896502494812
-0.0610987655818462,0.2273293137550354,0.2820862531661987,-0.5093851685523987,0.0488930940628051,0.2854684293270111,0.0,0.0,0.722712516784668,-0.8159424662590027
-0.0580150596797466,0.2158882170915603,0.29230797290802,-0.5090922117233276,0.0647700577974319,0.3175391554832458,0.0,0.0,0.5049899816513062,-0.574845016002655
-0.0549750328063964,0.2046369612216949,0.2871471643447876,-0.5008708238601685,0.0814556553959846,0.3337121903896332,0.0,0.0,0.7353478670120239,-0.1854051351547241
-0.0518364906311035,0.1942580342292785,0.2967958450317383,-0.4622991681098938,0.0983602181077003,0.338091105222702,0.0,0.0,0.4339903593063354,-0.5483940839767456
-0.0487277992069721,0.1841137707233429,0.2929661870002746,-0.4521350562572479,0.1161375790834426,0.3555471897125244,0.0,0.0,0.1516966819763183,0.2187819480895996
-0.0456857681274414,0.1742875128984451,0.2868885695934295,-0.4381596744060516,0.1333679258823394,0.3446067869663238,0.0,0.0,0.4838067293167114,0.3005200624465942
-0.0425656326115131,0.1649155914783477,0.2944893538951874,-0.4181919693946838,0.1508380621671676,0.3494023978710174,0.0,0.0,0.4092808961868286,0.3465065956115722
-0.0395030006766319,0.1559893488883972,0.2891070544719696,-0.3985524177551269,0.1679994463920593,0.3432276844978332,0.0,0.0,0.1074439287185669,0.4632606506347656
-0.0364948287606239,0.147298201918602,0.2840258479118347,-0.3882560431957245,0.184831216931343,0.3366353809833526,0.0,0.0,0.155653715133667,0.7116377353668213
-0.0334303863346576,0.1386348158121109,0.2911893725395202,-0.3870105445384979,0.2001665979623794,0.3067072331905365,0.0,0.0,-0.0219292640686035,-0.1720088124275207
-0.0302818305790424,0.1294776797294616,0.299674391746521,-0.4091112911701202,0.2154776751995086,0.3062222301959991,0.0,0.0,0.1862566471099853,-0.228398323059082
-0.027234936133027,0.1203429996967315,0.2900393903255462,-0.4081890881061554,0.2302888631820678,0.2962240576744079,0.0,0.0,0.2666695117950439,-0.1109479069709777
-0.0241506583988666,0.1115470007061958,0.2934432029724121,-0.3933505713939667,0.2454992830753326,0.3042083382606506,0.0,0.0,0.4328722953796386,-0.23016357421875
-0.0210084915161132,0.1027422770857811,0.2990034222602844,-0.3939361870288849,0.2610026001930237,0.3100661337375641,0.0,0.0,0.7191739082336426,-0.4685412645339966
-0.0178415291011333,0.0946531593799591,0.3008102774620056,-0.3624307513236999,0.2772734761238098,0.3254175782203674,0.0,0.0,0.6557061672210693,-0.5939929485321045
-0.014873313717544,0.0871685817837715,0.279804527759552,-0.3359743058681488,0.2947753667831421,0.350037157535553,0.0,0.0,0.4502826929092407,-0.4270387887954712
-0.0119197843596339,0.0803228691220283,0.2777709364891052,-0.3079208433628082,0.3129691779613495,0.3638763129711151,0.0,0.0,0.296730637550354,-0.2699908018112182
-0.0089659690856933,0.0736620500683784,0.2774961292743683,-0.300005555152893,0.3315729796886444,0.3720763325691223,0.0,0.0,0.0723166465759277,-0.3029218316078186
-0.0061061857268214,0.0672587975859642,0.2680894136428833,-0.2888109087944031,0.3503078520298004,0.3746966421604156,0.0,0.0,0.4079116582870483,0.3547201156616211
-0.0033453940413892,0.061336051672697,0.2579123377799988,-0.2677716016769409,0.3694531619548797,0.3829065561294555,0.0,0.0,0.388994812965393,0.3747279644012451
-0.0005784988170489,0.0554979182779789,0.2581998705863952,-0.2643699049949646,0.3891009986400604,0.3929567039012909,0.0,0.0,0.4773049354553222,0.5137777328491211
0.0019889832474291,0.0498926751315593,0.2394660264253616,-0.2539555430412292,0.4076027572154999,0.3700351119041443,0.0,0.0,0.4626152515411377,0.566288948059082
0.0043857572600245,0.044375117868185,0.2236541956663131,-0.2499316781759262,0.4248801171779632,0.3455478847026825,0.0,0.0,0.650200605392456,0.3423470258712768
0.0066701890900731,0.0405146703124046,0.2277473509311676,-0.1717494428157806,0.4257546365261078,0.0176645163446664,0.0,1.0,0.9612473249435424,0.9853169918060304
0.0087112430483102,0.0380941741168499,0.2216731309890747,-0.1023811176419258,0.4068026840686798,-0.3790065348148346,0.0,1.0,0.981003761291504,0.1801367998123169
0.0105182649567723,0.0364898554980754,0.2141516506671905,-0.0621040984988212,0.371109127998352,-0.7138486504554749,0.0,1.0,0.7246919870376587,-0.9613629579544068
0.0121117588132619,0.0354160405695438,0.1905782520771026,-0.0399801544845104,0.3381989896297455,-0.6582308411598206,0.0,0.0,-0.9975310564041138,-0.927737832069397
0.0137178422883152,0.0338325351476669,0.1901619285345077,-0.0637604370713234,0.3074062764644623,-0.6158788800239563,0.0,0.0,-0.9905923008918762,-0.8894273042678833
