x_pos,y_pos,x_vel,y_vel,angle,ang_vel,leg_1,leg_2,main_booster,lat_booster
-0.0014936446677893,1.403064250946045,-0.1509004980325698,-0.3491487503051758,0.0013697854010388,0.0269911233335733,0.0,0.0,0.1703663591935413,0.0449132887290301
-0.0029225349426269,1.395161509513855,-0.1440297663211822,-0.3512310981750488,0.0025070041883736,0.0227473229169845,0.0,0.0,0.4750053755291101,0.2325084068901471
-0.0042057037353515,1.3872394561767578,-0.1296769380569458,-0.3520918488502502,0.0038500425871461,0.0268633961677551,0.0,0.0,-0.9003837308616902,0.033447629113666
-0.0054630278609693,1.3787572383880615,-0.1267294138669967,-0.3769959211349487,0.0048348042182624,0.019696831703186,0.0,0.0,-0.4436718910630173,-0.5054349778496284
-0.0067272186279296,1.3697161674499512,-0.1278548240661621,-0.4018340408802032,0.0062570394948124,0.0284473448991775,0.0,0.0,0.56674089687674,0.5104995964849777
-0.007792186923325,1.3608882427215576,-0.1069621816277504,-0.3923526108264923,0.0067212563008069,0.0092851789668202,0.0,0.0,-0.4699501854860379,-0.0987416562418521
-0.0088355066254735,1.3514999151229858,-0.1044680625200271,-0.417256623506546,0.006855912040919,0.0026935217902064,0.0,0.0,0.3520871813030448,0.551994081730563
-0.0096857072785496,1.3423491716384888,-0.0840468555688858,-0.4066987633705139,0.0058904713951051,-0.019310625270009,0.0,0.0,0.303923269775298,-0.4835113043220151
-0.0105305667966604,1.333628535270691,-0.0831473916769027,-0.387577474117279,0.0045720627531409,-0.0263708475977182,0.0,0.0,-0.1512205487884124,-0.494006124006159
-0.011357975192368,1.3243474960327148,-0.0811028257012367,-0.4124808609485626,0.0029578173998743,-0.0322877764701843,0.0,0.0,-0.8743601804212411,-0.4601092469584663
-0.0121691701933741,1.3145065307617188,-0.0792071968317031,-0.4373759031295776,0.0010603406699374,-0.0379528924822807,0.0,0.0,0.2901753454895865,-0.0532075017551521
-0.0129109378904104,1.3047243356704712,-0.0722428932785987,-0.4347692131996155,-0.0008455417118966,-0.0381212420761585,0.0,0.0,0.7229274981108971,-0.5340345545102796
-0.0135356904938817,1.2954784631729126,-0.0617787465453147,-0.410925954580307,-0.0015352624468505,-0.0137958005070686,0.0,0.0,-0.3102746910807143,0.0462941350425984
-0.0141484262421727,1.285672307014465,-0.0603251047432422,-0.4358306527137756,-0.0024670851416885,-0.0186383482068777,0.0,0.0,0.6281325547437402,-0.9678334534973148
-0.0146676059812307,1.2765343189239502,-0.0529044494032859,-0.4061286151409149,-0.0014988268958404,0.0193673204630613,0.0,0.0,0.4808112860181603,-0.3339378472721761
-0.0150786396116018,1.267235517501831,-0.0423371195793151,-0.4132837951183319,-0.0002795501495711,0.0243880562484264,0.0,0.0,-0.4790443547786298,-0.3714527904771368
-0.015481281094253,1.2573764324188232,-0.0413055792450904,-0.438180536031723,0.0007467693067155,0.020528394728899,0.0,0.0,-0.9711409947832412,-0.994269010659986
-0.0159366615116596,1.2469487190246582,-0.0479273423552513,-0.4634570479393005,0.0031049344688653,0.0471675209701061,0.0,0.0,-0.1171626495761031,0.856425789156856
-0.0163074489682912,1.2359691858291626,-0.0373090282082557,-0.4879764318466186,0.0033304614480584,0.0045111374929547,0.0,0.0,-0.623703414771023,0.3272505877938932
-0.016673183068633,1.2244296073913574,-0.0366610772907733,-0.5128749012947083,0.0034188444260507,0.0017680178862065,0.0,0.0,0.0155896042126157,-0.0194062763104752
-0.0169579498469829,1.2130234241485596,-0.0288184341043233,-0.5069435834884644,0.0037539824843406,0.0067034079693257,0.0,0.0,0.744482522987328,0.6429165660351894
-0.0171771999448537,1.2017543315887451,-0.0209032129496336,-0.5008434653282166,0.0027455408126115,-0.0201708860695362,0.0,0.0,0.9229614103624808,-0.93495296282929
-0.0173027999699115,1.1908748149871826,-0.0136510748416185,-0.4835410714149475,0.0038200737908482,0.0214926861226558,0.0,0.0,-0.7463624781225848,0.1492011786329879
-0.0174271576106548,1.1794350147247314,-0.0134633528068661,-0.5084440112113953,0.0048359562642872,0.0203193798661232,0.0,0.0,0.2647042378698176,-0.017806975841683
-0.0176621433347463,1.16817307472229,-0.0239765234291553,-0.5005284547805786,0.0053126392886042,0.0095346262678503,0.0,0.0,-0.1239346212573475,0.6875976054497182
-0.0178560260683298,1.1563334465026855,-0.0188025627285242,-0.5262031555175781,0.0047391364350914,-0.0114700822159647,0.0,0.0,-0.5965520282820265,0.95790431807387
-0.0179743766784667,1.1439402103424072,-0.0093299141153693,-0.550803542137146,0.0022565210238099,-0.0496521927416324,0.0,0.0,-0.4127721921825722,-0.1448776046713302
-0.0180943496525287,1.1309869289398191,-0.0095124412328004,-0.5757005214691162,-0.0001960801600944,-0.0490518286824226,0.0,0.0,0.9105027502584724,0.7192339365834417
-0.018322467803955,1.1188231706619265,-0.0185424331575632,-0.5406169891357422,-0.0044149700552225,-0.0843778103590011,0.0,0.0,0.3396903788153189,0.9293085725547714
-0.0184974670410156,1.1066887378692627,-0.0114193754270672,-0.5393341779708862,-0.0104221394285559,-0.1201432943344116,0.0,0.0,0.6775581871044563,0.5926691486884283
-0.0185992233455181,1.095289945602417,-0.0030384454876184,-0.5066835880279541,-0.0174603685736656,-0.1407647281885147,0.0,0.0,-0.8077487349510193,-0.9306396842002868
-0.0187875740230083,1.0833280086517334,-0.0139381047338247,-0.5317038893699646,-0.0222915150225162,-0.0966230183839798,0.0,0.0,-0.7601578235626221,-0.973776638507843
-0.0190670974552631,1.0708181858062744,-0.0254301074892282,-0.5560322403907776,-0.0247809253633022,-0.0497882738709449,0.0,0.0,-0.9447667002677916,-0.9331007599830629
-0.0194324497133493,1.0577428340911863,-0.0362468585371971,-0.5811364054679871,-0.0250590834766626,-0.0055633787997066,0.0,0.0,-0.7974332571029663,-0.5916888117790222
-0.0198474880307912,1.0441100597381592,-0.0425589196383953,-0.6058822870254517,-0.0240119751542806,0.0209420584142208,0.0,0.0,-0.6346029043197632,-0.2868043184280395
-0.0202667228877544,1.0299170017242432,-0.0431909710168838,-0.630778431892395,-0.0227648243308067,0.0249429289251565,0.0,0.0,-0.7622350454330444,-0.3087929487228393
-0.0206903461366891,1.0151638984680176,-0.043848305940628,-0.6556745767593384,-0.0212984252721071,0.0293281022459268,0.0,0.0,-0.7799260020256042,0.1623659133911132
-0.0211183540523052,0.9998504519462584,-0.0445236898958683,-0.6805707216262817,-0.0195942278951406,0.0340838842093944,0.0,0.0,-0.2701151371002197,0.3942279815673828
-0.0215506553649902,0.9839769005775452,-0.0452097840607166,-0.7054669260978699,-0.0176344178617,0.0391958728432655,0.0,0.0,-0.6046639680862427,0.2768813371658325
-0.0219870563596487,0.9675431847572328,-0.0458992011845111,-0.7303631901741028,-0.0154019799083471,0.0446486733853817,0.0,0.0,-0.508931577205658,0.4185571670532226
-0.0224273689091205,0.9505494236946106,-0.0465844795107841,-0.75525963306427,-0.0128806540742516,0.0504264906048774,0.0,0.0,-0.5717025399208069,0.2809131145477295
-0.0228713043034076,0.9329953193664552,-0.0472580902278423,-0.7801561951637268,-0.0100550018250942,0.0565130524337291,0.0,0.0,-0.3484464883804321,0.6214791536331177
-0.023261547088623,0.914873480796814,-0.0407507494091987,-0.8054065108299255,-0.0083459299057722,0.0341814793646335,0.0,0.0,0.6664631366729736,0.511638879776001
-0.0235028266906738,0.8969883322715759,-0.0254690833389759,-0.7948896288871765,-0.0070260763168334,0.0263969004154205,0.0,0.0,0.5251808166503906,0.293911337852478
-0.0237822532653808,0.8789511919021606,-0.0294465571641922,-0.8016455173492432,-0.0055340873077511,0.0298395790159702,0.0,0.0,0.0977572202682495,0.4884151220321655
-0.024031639099121,0.860686719417572,-0.026964496821165,-0.811751127243042,-0.0035430795978754,0.0398204922676086,0.0,0.0,0.4008882045745849,0.6909370422363281
-0.0241691581904888,0.842426061630249,-0.0148451505228877,-0.8115835189819336,-0.0024567840155214,0.0217256173491477,0.0,0.0,-0.0539467334747314,0.6961071491241455
-0.0242624282836914,0.8236125707626343,-0.0096656046807765,-0.8361569046974182,-0.0021166356746107,0.0068030729889869,0.0,0.0,0.0002754926681518,0.7518540620803833
-0.0243884082883596,0.8049612641334534,-0.0117761837318539,-0.8289439678192139,-0.0029242066666483,-0.0161513127386569,0.0,0.0,0.5815629959106445,0.0926421880722045
-0.0245321281254291,0.7864803671836853,-0.0138694886118173,-0.8213760852813721,-0.0034268433228135,-0.0100527396425604,0.0,0.0,0.0786682367324829,0.2836313247680664
-0.0245791431516408,0.7679979801177979,-0.0050402199849486,-0.821437418460846,-0.0030892202630639,0.0067523270845413,0.0,0.0,0.4386708736419678,0.6021871566772461
-0.0246283523738384,0.7499217391014099,-0.0043487981893122,-0.8033891916275024,-0.0036517602857202,-0.0112508339807391,0.0,0.0,0.0426551103591918,0.7582046985626221
-0.0245327949523925,0.7317011952400208,0.0111812558025121,-0.8098065257072449,-0.0052548456005752,-0.0320618525147438,0.0,0.0,0.3539339303970337,0.2120852470397949
-0.024426270276308,0.7139010429382324,0.0118353432044386,-0.7911236882209778,-0.0064175212755799,-0.0232535228133201,0.0,0.0,-0.051429808139801,-0.1269577145576477
-0.0243135448545217,0.6955406069755554,0.0120036918669939,-0.8160200715065002,-0.0071460399776697,-0.0145702492445707,0.0,0.0,-0.2037505507469177,0.2251207828521728
-0.0241935737431049,0.6766200661659241,0.0122887464240193,-0.8409163355827332,-0.0074350391514599,-0.0057799289934337,0.0,0.0,-0.0228581428527832,0.2460266351699829
-0.0240650177001953,0.657139241695404,0.0126974834129214,-0.8658125400543213,-0.00727967498824,0.0031071864068508,0.0,0.0,0.5694998502731323,0.3073375225067138
-0.0237908363342285,0.6380577683448792,0.0262009799480438,-0.8480565547943115,-0.006069095339626,0.024211386218667,0.0,0.0,0.3133678436279297,0.3902944326400757
-0.0234417915344238,0.6193974614143372,0.0329382307827472,-0.8293425440788269,-0.0041311178356409,0.038759596645832,0.0,0.0,0.0717428922653198,0.6015105247497559
-0.023085594177246,0.6009467244148254,0.0344804301857948,-0.8200246095657349,-0.0030103728640824,0.0224150512367486,0.0,0.0,0.4209109544754028,0.3747153282165527
-0.0226700790226459,0.5824134945869446,0.0397438444197177,-0.8236972689628601,-0.0012267034035176,0.0356731489300727,0.0,0.0,-0.0559537410736084,0.5952672958374023
-0.0221994407474994,0.5633230805397034,0.0457966849207878,-0.8484606146812439,3.22847772622481e-05,0.0251797437667846,0.0,0.0,0.8112936019897461,-0.0743140578269958
-0.0215757377445697,0.5445230603218079,0.0599907822906971,-0.835557222366333,0.0023820262867957,0.0469946935772895,0.0,0.0,0.6559282541275024,-0.1473691463470459
-0.0209105499088764,0.5260846018791199,0.063552588224411,-0.8194939494132996,0.0053074634633958,0.058508813381195,0.0,0.0,0.3487163782119751,0.5307333469390869
-0.02017717435956,0.5075735449790955,0.0709555596113205,-0.8227295279502869,0.0076616457663476,0.0470835864543914,0.0,0.0,0.8613235950469971,-0.3738641142845154
-0.0195655822753906,0.4894994497299194,0.0589593462646007,-0.8033056259155273,0.0098404446616768,0.043575931340456,0.0,0.0,0.8627779483795166,-0.3392033576965332
-0.0189145095646381,0.4723129272460937,0.0623064935207366,-0.7638630270957947,0.0126022165641188,0.0552354641258716,0.0,0.0,0.5194926261901855,0.0660498142242431
-0.0181649215519428,0.4549714028835296,0.0713362693786621,-0.7707704901695251,0.0161852668970823,0.0716609731316566,0.0,0.0,0.9009010791778564,-0.1261157393455505
-0.017371654510498,0.4385439157485962,0.0750764831900596,-0.7301636934280396,0.0203850232064723,0.0839950665831565,0.0,0.0,0.6963353157043457,-0.0227590203285217
-0.0166544914245605,0.4222824871540069,0.0674356743693351,-0.7227928638458252,0.024611247703433,0.0845248848199844,0.0,0.0,0.8020650148391724,0.4757401943206787
-0.0160232540220022,0.4065650999546051,0.0588295981287956,-0.698625385761261,0.0288480725139379,0.0847364068031311,0.0,0.0,0.7740368843078613,0.1077479124069213
-0.0153440479189157,0.391291469335556,0.0630036145448684,-0.678930938243866,0.0337118804454803,0.0972760766744613,0.0,0.0,0.5609252452850342,0.6720268726348877
-0.0147352218627929,0.3766577541828155,0.0571026615798473,-0.6504757404327393,0.0374351553618907,0.0744656026363372,0.0,0.0,0.3479022979736328,0.0528336763381958
-0.0140458103269338,0.3621739745140075,0.0644080191850662,-0.6438453793525696,0.0419100075960159,0.089497186243534,0.0,0.0,0.7807986736297607,0.2138091325759887
-0.0133700370788574,0.3477599918842315,0.0627443864941597,-0.6407633423805237,0.046690858900547,0.0956170037388801,0.0,0.0,0.8087596893310547,0.7877845764160156
-0.0125244138762354,0.3333214223384857,0.0806629061698913,-0.6418420672416687,0.0505468472838401,0.0771199464797973,0.0,0.0,0.7221033573150635,0.3392213582992553
-0.0116849895566701,0.3188506364822387,0.0797153115272522,-0.6432905793190002,0.0547238886356353,0.0835411623120307,0.0,0.0,0.8420822620391846,0.7297660112380981
-0.0107999797910451,0.3051553666591644,0.0852852016687393,-0.6087986826896667,0.0578972473740577,0.0634670630097389,0.0,0.0,0.7269546985626221,0.4843807220458984
-0.0098321912810206,0.2921847105026245,0.0927018225193023,-0.5766380429267883,0.0619300082325935,0.0806550756096839,0.0,0.0,0.1860543489456176,0.4738004207611084
-0.0089303972199559,0.2795253992080688,0.0860008597373962,-0.5628129243850708,0.0660618394613266,0.0826368257403373,0.0,0.0,0.3885624408721924,0.5637092590332031
-0.0080676078796386,0.2667100727558136,0.0830291360616684,-0.5697156190872192,0.0692818909883499,0.0644011050462722,0.0,0.0,0.7309505939483643,0.3064639568328857
-0.0071651460602879,0.2545789778232574,0.086316704750061,-0.5393481850624084,0.0731677040457725,0.077716089785099,0.0,0.0,0.6493802070617676,0.3530718088150024
-0.0063488958403468,0.2427367717027664,0.0777025371789932,-0.5265176892280579,0.0770549550652504,0.07774518430233,0.0,0.0,0.8698947429656982,-0.0347589254379272
-0.0055947303771972,0.231475219130516,0.071301981806755,-0.5007296800613403,0.0811236575245857,0.0813744217157363,0.0,0.0,0.6674666404724121,-0.827307403087616
-0.0049160001799464,0.2207041829824447,0.0616596229374408,-0.4790625274181366,0.0872834846377372,0.1231962665915489,0.0,0.0,0.3940130472183227,0.024971604347229
-0.0041441917419433,0.2101172506809234,0.0701552852988243,-0.4709555804729461,0.0942501723766326,0.1393338292837143,0.0,0.0,0.5867725610733032,0.5196514129638672
-0.0032733916305005,0.1994664520025253,0.0805708840489387,-0.4737935066223144,0.1007128730416297,0.1292536556720733,0.0,0.0,0.5039184093475342,0.4364669322967529
-0.0022890090476721,0.1888165026903152,0.0910575315356254,-0.4738467037677765,0.108030617237091,0.146355003118515,0.0,0.0,0.623235821723938,0.5600981712341309
-0.0010986328125,0.1784765571355819,0.1119341477751731,-0.4600846171379089,0.1150902956724166,0.1411935091018676,0.0,0.0,0.6708486080169678,-0.1842458844184875
0.0002558708074502,0.1681964695453643,0.1272262036800384,-0.4575461149215698,0.1232643723487854,0.1634817868471145,0.0,0.0,0.8046072721481323,0.3638874292373657
0.0015749931335449,0.1585783511400222,0.1232499480247497,-0.4282096028327942,0.1318709403276443,0.1721313297748565,0.0,0.0,0.4949511289596557,0.0528528690338134
0.0029047012794762,0.1494280844926834,0.1237377151846885,-0.4075215756893158,0.1410669684410095,0.1839205920696258,0.0,0.0,-0.0386014580726623,0.0476076602935791
0.0043090819381177,0.1397196352481842,0.1307674199342727,-0.4324303865432739,0.1507217437028885,0.1930956840515136,0.0,0.0,0.2156182527542114,-0.0087425112724304
0.0058272359892725,0.1298262178897857,0.1413438618183136,-0.440801203250885,0.1611773520708084,0.209112212061882,0.0,0.0,0.5568907260894775,0.03162682056427
0.0072972299531102,0.1200736388564109,0.1363298594951629,-0.4346401989459991,0.1718602478504181,0.2136580199003219,0.0,0.0,0.7730998992919922,0.6983416080474854
0.0088387485593557,0.1111794337630271,0.1442210078239441,-0.396476686000824,0.1818171888589859,0.1991392374038696,0.0,0.0,0.5370560884475708,-0.4026165008544922
0.0103439334779977,0.1025028824806213,0.1402526199817657,-0.386919617652893,0.1921276748180389,0.2062098532915115,0.0,0.0,0.4445068836212158,0.4019291400909424
0.0116915702819824,0.0942615568637847,0.1245711222290992,-0.3676361739635467,0.2023874521255493,0.2051956355571746,0.0,0.0,0.445610761642456,0.4082518815994262
0.013074493035674,0.0863829478621482,0.1273207366466522,-0.3516991436481476,0.2134508043527603,0.2212669402360916,0.0,0.0,0.4622597694396972,0.514188289642334
0.0143905635923147,0.0789207518100738,0.1213773116469383,-0.333167165517807,0.2237994223833084,0.2069724053144455,0.0,0.0,0.4041410684585571,0.7656385898590088
0.0156328193843364,0.071830928325653,0.1151991486549377,-0.3164946436882019,0.2329365164041519,0.1827418208122253,0.0,0.0,0.7163839340209961,0.5965347290039062
0.0168617255985736,0.0649431571364402,0.1146995425224304,-0.3074393272399902,0.2412495017051696,0.1662598699331283,0.0,0.0,0.6316454410552979,0.4086910486221313
0.0179248806089162,0.0583213903009891,0.0982390493154525,-0.2956495881080627,0.2494751960039138,0.1645137816667556,0.0,0.0,0.8371515274047852,0.7706564664840698
0.0188158992677927,0.051941379904747,0.0824986025691032,-0.2846900820732116,0.2562043368816376,0.1345827579498291,0.0,0.0,0.8332507610321045,0.675457239151001
0.0197687149047851,0.0462327115237712,0.0892978906631469,-0.2547772824764251,0.2623097598552704,0.1221085339784622,0.0,0.0,0.615424394607544,0.3373774290084839
0.0207771304994821,0.0405119508504867,0.0941626578569412,-0.2554686367511749,0.2691333889961242,0.1364722847938537,0.0,0.0,0.7715151309967041,0.5675394535064697
0.0218626018613576,0.0355043746531009,0.1021608710289001,-0.2237475961446762,0.2756846249103546,0.1310245990753173,0.0,0.0,0.3852137327194214,-0.5397627949714661
0.0228021629154682,0.0308564286679029,0.0861323326826095,-0.2080681324005127,0.2837157547473907,0.1606227457523346,0.0,0.0,0.0540697574615478,0.2315295934677124
0.0237405784428119,0.0274475198239088,0.1025427430868148,-0.1498396247625351,0.2748112082481384,-0.1780503988265991,0.0,1.0,0.9918272495269777,0.7178821563720703
0.0245351791381835,0.0253596883267164,0.1069284304976463,-0.0878890752792358,0.2467056661844253,-0.5621646642684937,0.0,1.0,0.770437479019165,-0.5116596817970276
0.0250063892453908,0.0244242772459983,0.0837950855493545,-0.0358457341790199,0.2094894647598266,-0.744361400604248,0.0,1.0,0.572860836982727,-0.6543383002281189
0.0253661163151264,0.0240163654088974,0.0696892291307449,-0.0137085253372788,0.1755673587322235,-0.6784424781799316,0.0,1.0,0.2274136543273925,-0.8174334764480591
0.025669002905488,0.0235626082867383,0.0625090897083282,-0.0166748519986867,0.1433458477258682,-0.64443039894104,0.0,0.0,-0.9974016547203064,-0.3884570598602295
0.0260653495788574,0.022563038393855,0.0715624839067459,-0.0416630953550338,0.1115570217370987,-0.6357772350311279,0.0,0.0,-0.9798890352249146,-0.7986189126968384
0.0264800079166889,0.0210013482719659,0.07113578915596,-0.0674557387828826,0.0821320936083793,-0.5884989500045776,0.0,0.0,-0.8362340927124023,-0.7892674803733826
0.0269256588071584,0.018882118165493,0.0722289085388183,-0.0928926989436149,0.0547626577317714,-0.5473888516426086,0.0,0.0,-0.5438187122344971,-0.7195615768432617
0.027413273230195,0.016206631436944,0.0746467560529708,-0.1181631833314895,0.02918734960258,-0.5115066766738892,0.0,0.0,0.8249211311340332,-0.9747310280799866
0.0280702598392963,0.0135692693293094,0.0889674797654151,-0.1169229373335838,0.006217083428055,-0.4594055116176605,0.0,0.0,0.7053921222686768,-0.9335131645202636
0.0288592334836721,0.0114412400871515,0.0996956229209899,-0.0946189612150192,-0.0143174650147557,-0.4106909334659576,0.0,0.0,0.7582497596740723,-0.9490678310394288
0.0297134406864643,0.0100555755198001,0.1038410291075706,-0.0618604309856891,-0.0325083509087562,-0.3638177216053009,0.0,0.0,-0.2581366896629333,-0.8132960796356201
0.0306084640324115,0.0081072906032204,0.1060414165258407,-0.087029680609703,-0.048844326287508,-0.3267197012901306,0.0,0.0,0.8058364391326904,-0.8641947507858276
