x_pos,y_pos,x_vel,y_vel,angle,ang_vel,leg_1,leg_2,main_booster,lat_booster
-0.0014705657958984,1.403066873550415,-0.1498665064573288,-0.3490306735038757,0.0025106722023338,0.0495812408626079,0.0,0.0,-0.3938190937042236,0.7597464323043823
-0.0028246878646314,1.394675850868225,-0.1370120346546173,-0.3729344010353088,0.0040991399437189,0.031773068010807,0.0,0.0,0.3485277891159057,0.9490729570388794
-0.003929519560188,1.3862158060073853,-0.1110822185873985,-0.3760015666484833,0.004689173772931,0.0118017634376883,0.0,0.0,-0.2680845260620117,0.8350399732589722
-0.0049327849410474,1.3771957159042358,-0.1003684252500534,-0.4008899927139282,0.0047233500517904,0.0006836419343017,0.0,0.0,0.0480101108551025,0.2619123458862304
-0.0058092116378247,1.3682392835617063,-0.0888513475656509,-0.398066908121109,0.005919077899307,0.0239165443927049,0.0,0.0,-0.4075053930282593,0.5962303876876831
-0.0065829278901219,1.3587249517440796,-0.0778932049870491,-0.4228620529174804,0.0064350813627243,0.0103211859241127,0.0,0.0,-0.6803867220878601,-0.1063729524612426
-0.0073134424164891,1.3486531972885132,-0.0743526294827461,-0.4476400017738342,0.0077206022106111,0.025713000446558,0.0,0.0,-0.5618928074836731,-0.634787380695343
-0.0080405231565237,1.338025450706482,-0.0757407024502754,-0.4723628461360931,0.0107196439057588,0.0599863454699516,0.0,0.0,-0.690035879611969,-0.0513888001441955
-0.0087287900969386,1.3268404006958008,-0.0726342275738716,-0.4971441030502319,0.0144854728132486,0.0753235593438148,0.0,0.0,-0.7431538105010986,-0.7109734416007996
-0.0094367023557424,1.3151015043258667,-0.0767972841858863,-0.5217968821525574,0.0204279832541942,0.1188607811927795,0.0,0.0,-0.3690230250358581,0.6040449142456055
-0.0100562097504735,1.3028078079223633,-0.0673457533121109,-0.5464687943458557,0.0257668681442737,0.1067876443266868,0.0,0.0,-0.7711135745048523,-0.2335709929466247
-0.0106441499665379,1.2899574041366575,-0.0649640411138534,-0.5712525248527527,0.0318708978593349,0.1220917925238609,0.0,0.0,-0.8296018242835999,0.4158668518066406
-0.0112031940370798,1.276550054550171,-0.0628454387187957,-0.596036970615387,0.0387376248836517,0.1373470574617386,0.0,0.0,-0.7202107310295105,0.6339683532714844
-0.0116802211850881,1.2625837326049805,-0.0539985224604606,-0.620905339717865,0.0449650920927524,0.1245606169104576,0.0,0.0,-0.5336811542510986,0.5048353672027588
-0.0120850559324026,1.248069167137146,-0.0462870635092258,-0.6452745199203491,0.0507162623107433,0.1150335669517517,0.0,0.0,-0.5151162147521973,0.0173097848892211
-0.0124692916870117,1.2329983711242676,-0.045008085668087,-0.6700606942176819,0.0572262555360794,0.1302116215229034,0.0,0.0,-0.4314347505569458,0.5471153259277344
-0.0127835273742675,1.217381715774536,-0.037409208714962,-0.6943114995956421,0.0631561875343322,0.1186094656586647,0.0,0.0,-0.5641382932662964,0.3830640316009521
-0.0130834579467773,1.2012088298797607,-0.0367382988333702,-0.7190989255905151,0.0698412582278251,0.1337136626243591,0.0,0.0,-0.4970525503158569,0.5783354043960571
-0.0133196832612156,1.184490442276001,-0.0297737065702676,-0.7433359622955322,0.075941726565361,0.122020199894905,0.0,0.0,-0.5858577489852905,0.89765465259552
-0.0134867671877145,1.167222261428833,-0.0220578704029321,-0.7677541971206665,0.0812458768486976,0.106092669069767,0.0,0.0,-0.1365208029747009,0.8796591758728027
-0.0135658262297511,1.1494144201278689,-0.0118596004322171,-0.7916858196258545,0.0851740837097168,0.0785710364580154,0.0,0.0,-0.3120721578598022,0.7214839458465576
-0.0135855674743652,1.1310532093048096,-0.0052041886374354,-0.8162402510643005,0.0883833691477775,0.0641911178827285,0.0,0.0,-0.4937267303466797,0.8715770244598389
-0.0135241504758596,1.1121454238891602,0.0042928648181259,-0.840462327003479,0.0902232229709625,0.0368004404008388,0.0,0.0,0.5168960094451904,0.8364031314849854
-0.0133563037961721,1.09311842918396,0.0157552883028984,-0.8457075357437134,0.0912407040596008,0.0203515756875276,0.0,0.0,0.229161262512207,0.7981275320053101
-0.0132988933473825,1.074244260787964,0.0057015167549252,-0.8388540148735046,0.0912834107875824,0.0008543499861843,0.0,0.0,0.6525399684906006,0.8543486595153809
-0.0134117128327488,1.0558356046676636,-0.0100806187838315,-0.8180888295173645,0.0900858938694,-0.0239503197371959,0.0,0.0,0.8050615787506104,0.6263101100921631
-0.0135591505095362,1.0380672216415403,-0.0130067821592092,-0.7896018624305725,0.0883704200387001,-0.034309409558773,0.0,0.0,0.2164769172668457,0.0003520250320434
-0.0138763431459665,1.0206375122070312,-0.0302598178386688,-0.7745721936225891,0.0869233086705207,-0.0289422459900379,0.0,0.0,0.6842842102050781,0.1925157308578491
-0.014418601989746,1.003813624382019,-0.0528645105659961,-0.747643768787384,0.0855668410658836,-0.0271295402199029,0.0,0.0,0.6434471607208252,-0.1687614321708679
-0.015050983056426,0.9871554970741272,-0.0624744780361652,-0.7403247356414795,0.0848115906119346,-0.0151049317792057,0.0,0.0,0.3791344165802002,0.8503053188323975
-0.0156906135380268,0.971017062664032,-0.0621987394988536,-0.7171610593795776,0.0830675810575485,-0.0348803699016571,0.0,0.0,-0.6447304487228394,0.007866621017456
-0.0163654331117868,0.9543219804763794,-0.0664028227329254,-0.7419444918632507,0.0820022746920585,-0.0213062949478626,0.0,0.0,0.1334027051925659,0.4952273368835449
-0.0171805378049612,0.9378852248191832,-0.0808474570512771,-0.7304832935333252,0.0813423544168472,-0.013198047876358,0.0,0.0,-0.8902881741523743,0.4396841526031494
-0.0180381778627634,0.9208917617797852,-0.0857617110013961,-0.7552662491798401,0.0813377127051353,-9.281621169066057e-05,0.0,0.0,0.5070574283599854,0.5074653625488281
-0.0189326293766498,0.9042047262191772,-0.0891090482473373,-0.7416280508041382,0.0810048803687095,-0.006656733341515,0.0,0.0,-0.7836542725563049,0.3346917629241943
-0.0198768619447946,0.8869609236717224,-0.0947147011756897,-0.766410768032074,0.0812990665435791,0.0058837761171162,0.0,0.0,-0.2759544253349304,0.8477790355682373
-0.0208101272583007,0.869163453578949,-0.0926084592938423,-0.7909496426582336,0.0805902406573295,-0.0141767095774412,0.0,0.0,0.8909686803817749,0.7879855632781982
-0.0217610355466604,0.8521313667297363,-0.0934916958212852,-0.7568997144699097,0.0790055617690086,-0.0316934920847415,0.0,0.0,-0.1266419291496276,0.1260350942611694
-0.0227721221745014,0.8345423936843872,-0.1000852361321449,-0.7816821336746216,0.0779953300952911,-0.0202051512897014,0.0,0.0,0.5658094882965088,-0.1057381629943847
-0.0238648410886526,0.8172610998153687,-0.1089341193437576,-0.7680409550666809,0.0776627510786056,-0.0066513726487755,0.0,0.0,-0.133301556110382,0.9537105560302734
-0.0249629020690917,0.7994380593299866,-0.1084190234541893,-0.7920636534690857,0.0762968882918357,-0.0273174904286861,0.0,0.0,0.1428256034851074,0.9074935913085938
-0.0259869582951068,0.7816173434257507,-0.0997339934110641,-0.7918999195098877,0.0736565962433815,-0.05280577018857,0.0,0.0,-0.0947797298431396,0.4311057329177856
-0.0270839687436819,0.7632395625114441,-0.1075263991951942,-0.8166819214820862,0.0714988484978675,-0.0431549623608589,0.0,0.0,0.8556573390960693,0.9298317432403564
-0.0281027797609567,0.7452123761177063,-0.0984947830438613,-0.8010475039482117,0.0681560039520263,-0.0668569803237915,0.0,0.0,0.8864531517028809,0.9303380250930786
-0.0292006488889455,0.7271228432655334,-0.1048856750130653,-0.8037628531455994,0.0633004903793335,-0.097110167145729,0.0,0.0,0.0678809881210327,0.8237168788909912
-0.0302941314876079,0.7088011503219604,-0.1031935065984726,-0.8140571117401123,0.0572156347334384,-0.1216974258422851,0.0,0.0,0.885324239730835,0.8480455875396729
-0.0313579551875591,0.6906938552856445,-0.0990393459796905,-0.8044976592063904,0.0499590300023555,-0.1451319456100464,0.0,0.0,0.4828544855117798,0.2394217252731323
-0.0326472297310829,0.6731438040733337,-0.121443010866642,-0.7797741293907166,0.0425662957131862,-0.1478545367717743,0.0,0.0,-0.5352389812469482,0.5185108184814453
-0.0339944846928119,0.6550437808036804,-0.1267340630292892,-0.8042410016059875,0.0346641428768634,-0.1580429673194885,0.0,0.0,0.0595422983169555,0.7140977382659912
-0.035404585301876,0.6368762850761414,-0.1318158209323883,-0.8072553277015686,0.0255881585180759,-0.1815199553966522,0.0,0.0,0.2706408500671386,0.7391073703765869
-0.0367380157113075,0.6188181042671204,-0.1230457797646522,-0.8024458289146423,0.0154240187257528,-0.2032825499773025,0.0,0.0,0.3504250049591064,0.3620765209197998
-0.0382248871028423,0.6011059284210205,-0.138354405760765,-0.7871397733688354,0.0052253305912017,-0.2039740979671478,0.0,0.0,0.2440736293792724,0.2258508205413818
-0.0397305488586425,0.5833402276039124,-0.1407611072063446,-0.7895821332931519,-0.0044487840496003,-0.1934823393821716,0.0,0.0,0.3402366638183594,0.2288460731506347
-0.0413321480154991,0.5659887194633484,-0.1504757702350616,-0.7712296843528748,-0.0140072386711835,-0.1911692768335342,0.0,0.0,-0.6496742963790894,0.4222025871276855
-0.043037224560976,0.5480810403823853,-0.160890981554985,-0.7960156798362732,-0.0235023722052574,-0.1899027824401855,0.0,0.0,0.9362549781799316,0.6337156295776367
-0.0449046120047569,0.5304449200630188,-0.1755432784557342,-0.7840374112129211,-0.0345535911619663,-0.2210244238376617,0.0,0.0,0.3694843053817749,0.8130884170532227
-0.0467040054500103,0.5132431387901306,-0.1672042310237884,-0.7648635506629944,-0.0471314042806625,-0.2515561878681183,0.0,0.0,-0.6715839505195618,0.2130427360534668
-0.0486124046146869,0.4954860508441925,-0.1780566424131393,-0.7896553874015808,-0.0597675032913684,-0.2527222037315368,0.0,0.0,0.5732855796813965,0.8956277370452881
-0.0504337325692176,0.478343665599823,-0.1675666123628616,-0.7625304460525513,-0.0741747543215751,-0.2881450057029724,0.0,0.0,0.27020263671875,-0.1862200498580932
-0.0523810386657714,0.4615569114685058,-0.1797566562891006,-0.7468864917755127,-0.0889903381466865,-0.2963119447231293,0.0,0.0,-0.7880678772926331,-0.0490081906318664
-0.0544420257210731,0.4442157447338104,-0.190974161028862,-0.7716845870018005,-0.1039816737174987,-0.299826830625534,0.0,0.0,0.3341574668884277,-0.3850539922714233
-0.0566397681832313,0.427178144454956,-0.2040941715240478,-0.7583917379379272,-0.1195607036352157,-0.3115812838077545,0.0,0.0,-0.4393289089202881,-0.4390819072723388
-0.0589540489017963,0.4095866978168487,-0.2155193835496902,-0.7831928133964539,-0.135388895869255,-0.3165640234947204,0.0,0.0,0.4916856288909912,-0.6030933856964111
-0.0613356605172157,0.3922696411609649,-0.223251536488533,-0.7710636854171753,-0.1502443850040435,-0.2971099019050598,0.0,0.0,0.9209837913513184,-0.5825900435447693
-0.0638027191162109,0.3750936388969421,-0.2327122390270233,-0.7648487091064453,-0.1642272472381591,-0.2796575129032135,0.0,0.0,0.945686101913452,-0.0403024554252624
-0.0664198845624923,0.3584294021129608,-0.2467276155948639,-0.7423557639122009,-0.1792336851358413,-0.3001288175582886,0.0,0.0,0.8734347820281982,-0.1348592042922973
-0.0689610466361045,0.3426374197006225,-0.2389063537120819,-0.7037750482559204,-0.1945069432258606,-0.3054657578468323,0.0,0.0,0.2952679395675659,0.1742219924926757
-0.0715167969465255,0.3266107439994812,-0.2402931004762649,-0.7143729329109192,-0.2098904699087143,-0.3076705634593963,0.0,0.0,0.91838276386261,-0.2082793712615966
-0.0739581137895584,0.3114753663539886,-0.2286147326231002,-0.6749609708786011,-0.2255638390779495,-0.3134674429893493,0.0,0.0,0.8339052200317383,-0.1326704025268554
-0.0765071883797645,0.2965904474258423,-0.2385319024324417,-0.6641420722007751,-0.242180734872818,-0.3323382139205932,0.0,0.0,0.84574294090271,-0.2248334884643554
-0.0790987014770507,0.2822918593883514,-0.2419048994779586,-0.6384301781654358,-0.2597562670707702,-0.3515107333660126,0.0,0.0,0.7069694995880127,-0.7640870213508606
-0.0816742926836013,0.268384575843811,-0.2414747774600982,-0.6210395693778992,-0.2762229144573211,-0.3293322920799255,0.0,0.0,0.9113386869430542,-0.4863830804824829
-0.0842524543404579,0.2553963661193847,-0.2406189739704132,-0.5806035399436951,-0.293906033039093,-0.3536625802516937,0.0,0.0,0.6694533824920654,-0.4716559648513794
-0.0867164582014083,0.242662250995636,-0.2291131913661956,-0.569553792476654,-0.3117921054363251,-0.3577213883399963,0.0,0.0,0.7977919578552246,-0.6114556789398193
-0.089260958135128,0.2300201058387756,-0.237804502248764,-0.5655441284179688,-0.3291012942790985,-0.3461836874485016,0.0,0.0,0.8788506984710693,-0.9901556968688964
-0.0918078422546386,0.2173373997211456,-0.2396175563335418,-0.5671886801719666,-0.344850480556488,-0.3149837851524353,0.0,0.0,0.8707274198532104,-0.9700545072555542
-0.0944640189409256,0.2046949714422226,-0.2518845498561859,-0.5652399659156799,-0.3592811822891235,-0.2886140942573547,0.0,0.0,0.9661092758178712,-0.965749979019165
-0.0969956368207931,0.1928796619176864,-0.2408035546541214,-0.5282758474349976,-0.3723475635051727,-0.2613281607627868,0.0,0.0,0.9188592433929444,-0.9438577890396118
-0.0992822647094726,0.1818286031484604,-0.2177696228027343,-0.4940367937088012,-0.3839119672775268,-0.2312880456447601,0.0,0.0,0.9844400882720948,-0.9977858662605286
-0.1015387549996376,0.171727254986763,-0.2159336805343628,-0.4516028463840484,-0.3942820131778717,-0.2074006050825119,0.0,0.0,0.97985577583313,-0.8998832106590271
-0.1039973273873329,0.1617528796195984,-0.236985445022583,-0.4457931220531463,-0.4037692546844482,-0.1897451430559158,0.0,0.0,0.5752663612365723,-0.9689642786979676
-0.1063169464468956,0.1522919684648513,-0.2244428098201751,-0.4226463437080383,-0.4118532836437225,-0.161680519580841,0.0,0.0,0.8981201648712158,-0.991586446762085
-0.1086919754743576,0.143311008810997,-0.2311156690120697,-0.4010281264781952,-0.4187410473823547,-0.1377548426389694,0.0,0.0,0.7404923439025879,-0.7804864645004272
-0.1110198050737381,0.1348342299461364,-0.2271858155727386,-0.3784222602844238,-0.4247990250587463,-0.1211593523621559,0.0,0.0,0.8745681047439575,-0.8449794054031372
-0.1132239326834678,0.1269423812627792,-0.2157933264970779,-0.3521507382392883,-0.4298059046268463,-0.1001379117369651,0.0,0.0,0.9067760705947876,-0.9641740322113036
-0.1152461990714073,0.1193902790546417,-0.1989890784025192,-0.3366429507732391,-0.4333218336105346,-0.0703183859586715,0.0,0.0,0.9715564250946044,-0.9153167605400084
-0.1172673255205154,0.1118581369519233,-0.2000294029712677,-0.3354039490222931,-0.4355854392051697,-0.045272096991539,0.0,0.0,0.9572818279266356,-0.7182456254959106
-0.119163230061531,0.1043770611286163,-0.1884852945804596,-0.3328364193439483,-0.4367848336696625,-0.0239881761372089,0.0,0.0,0.9610226154327391,-0.7797984480857849
-0.1207869499921798,0.0971819460391998,-0.162499114871025,-0.3197462260723114,-0.4366569221019745,0.0025584159884601,0.0,0.0,0.9318126440048218,-0.7241478562355042
-0.1222402602434158,0.0899794697761535,-0.1465401947498321,-0.3197358548641205,-0.4353359341621399,0.0264195445924997,0.0,0.0,0.9868416786193848,-0.7266036868095398
-0.1235002502799034,0.0834976062178611,-0.1279385089874267,-0.2874814867973327,-0.4332287609577179,0.0421434417366981,0.0,0.0,0.9907736778259276,-0.9666706919670104
-0.124536707997322,0.0777351483702659,-0.1068493127822876,-0.2551277279853821,-0.4297511875629425,0.0695505887269973,0.0,0.0,0.9853235483169556,-0.8747109174728394
-0.1252824813127517,0.07245584577322,-0.0790903568267822,-0.233266144990921,-0.4248582422733307,0.0978589802980423,0.0,0.0,0.9722230434417723,-0.3985741138458252
-0.1258887350559234,0.0670814141631126,-0.064987689256668,-0.237555980682373,-0.4201359152793884,0.0944466367363929,0.0,0.0,0.9164774417877196,-0.6470144391059875
-0.1264911592006683,0.0620321370661258,-0.065029039978981,-0.2229992002248764,-0.4149681031703949,0.1033556908369064,0.0,0.0,0.9514079093933104,-0.7659608125686646
-0.1267662942409515,0.0578075498342514,-0.0333426520228385,-0.1860627233982086,-0.408693790435791,0.1254869997501373,0.0,0.0,0.8070626258850098,-0.9596527218818665
-0.1270194947719574,0.0539482459425926,-0.0322877690196037,-0.1695314943790435,-0.4012085795402527,0.1497033834457397,0.0,0.0,0.8391401767730713,-0.8925593495368958
-0.1272599250078201,0.0508968941867351,-0.0318277180194854,-0.133432075381279,-0.3928635418415069,0.1669009029865265,0.0,0.0,0.3484401702880859,-0.9762141704559326
-0.1274054497480392,0.0480834357440471,-0.0236056055873632,-0.1225690171122551,-0.383198618888855,0.193298190832138,0.0,0.0,0.3203662633895874,-0.8380382061004639
-0.1275604218244552,0.0456213802099227,-0.0254918001592159,-0.1067763268947601,-0.3725841641426086,0.2122888267040252,0.0,0.0,0.3679615259170532,-0.8204250335693359
-0.1277490556240081,0.0435560084879398,-0.0297216270118951,-0.0890103429555893,-0.361102283000946,0.2296371161937713,0.0,0.0,0.1790465116500854,-0.7726427912712097
-0.128016859292984,0.0414776168763637,-0.0384697392582893,-0.0894828587770462,-0.3487979173660278,0.2460871934890747,0.0,0.0,0.1083395481109619,-0.7206720113754272
-0.1284116804599762,0.0394911393523216,-0.0518424808979034,-0.0853400006890297,-0.3358375430107116,0.2592072784900665,0.0,0.0,0.3109169006347656,-0.7442823052406311
-0.1289789229631424,0.0376349054276943,-0.0697359293699264,-0.079534150660038,-0.3222760260105133,0.2712310552597046,0.0,0.0,0.2638145685195923,-0.4356670379638672
-0.1294221878051757,0.0359701476991176,-0.0570219345390796,-0.0712174400687217,-0.3090885281562805,0.2637501955032348,0.0,0.0,0.2862218618392944,-0.3675997257232666
-0.1298587769269943,0.0341418124735355,-0.0559059605002403,-0.0787092894315719,-0.2964299619197845,0.2531711757183075,0.0,0.0,0.3422012329101562,0.2351237535476684
-0.1301274299621582,0.0325983613729476,-0.03894579783082,-0.0661886781454086,-0.2839772701263428,0.2490536421537399,0.0,0.0,0.1766489744186401,0.3406376838684082
-0.130381777882576,0.0313046090304851,-0.0367619693279266,-0.0553375668823719,-0.2723518311977386,0.2325085401535034,0.0,0.0,0.1876760721206665,-0.0526707172393798
-0.1304963082075119,0.030303893610835,-0.022547272965312,-0.0424549430608749,-0.2610048055648803,0.2269406616687774,0.0,0.0,-0.2008978724479675,0.2377909421920776
-0.1307343542575836,0.0287497863173484,-0.0341837331652641,-0.0672600045800209,-0.2504114210605621,0.2118678390979766,0.0,0.0,-0.0614091157913208,0.5728669166564941
-0.1310506761074066,0.0266307685524225,-0.0401789620518684,-0.0927448570728302,-0.2417114377021789,0.1739993095397949,0.0,0.0,-0.0027156472206115,0.6692308187484741
-0.1313802748918533,0.02458356320858,-0.0524635910987854,-0.0879120677709579,-0.2218849956989288,0.3965682685375213,1.0,0.0,0.6055393218994141,0.9724926948547364
-0.1314472258090973,0.022610530257225,-0.0252088364213705,-0.0850260779261589,-0.203180119395256,0.3741269707679748,1.0,0.0,0.6101056337356567,0.7531156539916992
-0.1314620971679687,0.020992049947381,-0.0183286201208829,-0.0697061643004417,-0.1862315535545349,0.3389720320701599,1.0,0.0,0.6513254642486572,0.96490216255188
-0.1314488351345062,0.0195942968130111,-0.0134456874802708,-0.060332778841257,-0.1714021414518356,0.2965883314609527,1.0,0.0,0.3710500001907348,0.995208978652954
-0.1312983483076095,0.0183175653219223,0.0022363197058439,-0.0553137846291065,-0.1585791110992431,0.2564601898193359,1.0,0.0,0.5600075721740723,0.9285207986831664
-0.1309685707092285,0.0172057002782821,0.0219771228730678,-0.0482810102403163,-0.1475827693939209,0.2199269533157348,1.0,0.0,0.190325379371643,0.8958392143249512
-0.130414679646492,0.0159484967589378,0.0443332269787788,-0.0548164173960685,-0.1365622729063034,0.2204102575778961,1.0,0.0,0.214916706085205,0.3814840316772461
-0.1297211647033691,0.0148681020364165,0.0579460375010967,-0.0470156669616699,-0.1252104938030243,0.227035641670227,1.0,0.0,0.2215006351470947,0.4392642974853515
-0.1289346665143966,0.0141158672049641,0.0671459436416626,-0.0325042717158794,-0.1137733235955238,0.228743627667427,0.0,0.0,-0.5088000297546387,0.767707109451294
