x_pos,y_pos,x_vel,y_vel,angle,ang_vel,leg_1,leg_2,main_booster,lat_booster
-0.001495361328125,1.4029521942138672,-0.1513178050518036,-0.3541260659694671,0.0015972164692357,0.031494140625,0.0,0.0,-0.3583881082274573,-0.5200108161429042
-0.0030006407760083,1.3943328857421875,-0.152919590473175,-0.3830917179584503,0.003976269159466,0.0475861057639122,0.0,0.0,-0.1839031967040236,0.6694726293592286
-0.0044145584106445,1.3850361108779907,-0.1420870721340179,-0.4131859242916107,0.0046595907770097,0.0136677967384457,0.0,0.0,-0.064483295580801,0.8788331671648172
-0.0057469368912279,1.375064730644226,-0.1324708014726638,-0.4431709349155426,0.0039099394343793,-0.0149947898462414,0.0,0.0,-0.7216225667906007,-0.593460720557391
-0.0070904730819165,1.3644226789474487,-0.1345378160476684,-0.4729757308959961,0.004084997344762,0.0035016671754419,0.0,0.0,-0.1150478694203251,0.5754523944141945
-0.0083539960905909,1.353108048439026,-0.1251547038555145,-0.5028692483901978,0.0029017087072134,-0.0236674323678016,0.0,0.0,0.4796684221132941,-0.9279337204556042
-0.0096912384033203,1.3418965339660645,-0.1344408839941024,-0.4982872903347015,0.003607332939282,0.0141137586906552,0.0,0.0,-0.0627405497176321,-0.7863395464620818
-0.0110522266477346,1.330014944076538,-0.1381246894598007,-0.5280815362930298,0.0056003569625318,0.0398642309010028,0.0,0.0,-0.5242962306971086,0.8268496076991244
-0.0123276710510253,1.3174707889556885,-0.1280923187732696,-0.5575250387191772,0.0061421697027981,0.0108376648277044,0.0,0.0,-0.8803910769310499,-0.8972713056737625
-0.0136528965085744,1.3042593002319336,-0.1350645869970321,-0.5871883034706116,0.0086552985012531,0.0502670519053936,0.0,0.0,-0.5637628965528374,-0.851820257696519
-0.0150156021118164,1.290375590324402,-0.1405075639486313,-0.6170793175697327,0.0128396144136786,0.0836939588189125,0.0,0.0,0.9954669190925692,-0.6118307203430022
-0.0163246151059865,1.276776671409607,-0.1368884444236755,-0.6044570207595825,0.0187579728662967,0.1183778196573257,0.0,0.0,0.2507214837618996,0.6239560515384144
-0.0174671169370412,1.263307809829712,-0.1194778680801391,-0.5986939072608948,0.0239292290061712,0.1034346222877502,0.0,0.0,0.2196599274467547,-0.9492328706763808
-0.0186139103025198,1.2495511770248413,-0.1221628412604332,-0.6115496754646301,0.0313325598835945,0.1480802595615387,0.0,0.0,0.4892798196746064,0.9074756485593588
-0.0195526126772165,1.2362565994262695,-0.1000697985291481,-0.5910114645957947,0.0374637730419635,0.1226353049278259,0.0,0.0,0.797675683574375,0.9393723658845148
-0.0202812198549509,1.22277569770813,-0.077779546380043,-0.5992822647094727,0.0423360727727413,0.0974548384547233,0.0,0.0,0.9652832438806898,-0.7132494301463899
-0.0209183692932128,1.2101643085479736,-0.0709325522184372,-0.5607265830039978,0.0494773089885711,0.1428376734256744,0.0,0.0,0.598120586171546,0.8252665961582789
-0.0213418956845998,1.1974334716796875,-0.0486060082912445,-0.5660311579704285,0.0556707233190536,0.1238795518875122,0.0,0.0,0.4460639342086054,-0.7452826303970614
-0.0217567440122365,1.185093879699707,-0.0498626194894313,-0.548759400844574,0.0639602914452552,0.1658066064119339,0.0,0.0,0.9634166604512427,-0.9029602409040558
-0.0223797801882028,1.1730729341506958,-0.0727469176054,-0.5347415208816528,0.0743149071931839,0.2071111500263214,0.0,0.0,-0.3763707559251206,-0.5292326865205343
-0.0230256076902151,1.16038179397583,-0.0763567090034484,-0.5646677017211914,0.0859973803162574,0.2336699664592743,0.0,0.0,0.5210210085509099,0.9184847319472312
-0.0236123092472553,1.147635579109192,-0.0691292211413383,-0.5671389698982239,0.0963857397437095,0.2077854871749878,0.0,0.0,0.429200661627644,-0.966070889764054
-0.0241836551576852,1.1349287033081057,-0.0701679810881614,-0.5656349658966064,0.1093440353870391,0.2591888308525085,0.0,0.0,-0.8577107047286316,-0.9438024721830685
-0.0248122215270996,1.1215318441390991,-0.0781183093786239,-0.5966016054153442,0.1245216578245163,0.3035796284675598,0.0,0.0,0.0367698042616999,-0.6765557830562454
-0.0256388671696186,1.108041286468506,-0.0997165143489837,-0.6010951995849609,0.1415224969387054,0.3400472402572632,0.0,0.0,0.5589409679037247,-0.8836455124695983
-0.0267740245908498,1.0948063135147097,-0.1326965987682342,-0.5901554822921753,0.16066275537014,0.3828052878379822,0.0,0.0,0.7351953393059398,-0.6878757102303662
-0.0280762668699026,1.082027554512024,-0.1513130962848663,-0.5703524351119995,0.1817857176065445,0.4224591255187988,0.0,0.0,-0.203556619760594,0.7167009571251775
-0.0293319709599018,1.068603277206421,-0.146050676703453,-0.5992752909660339,0.2023888379335403,0.4120621085166931,0.0,0.0,0.2938429490831549,0.7835240805480824
-0.0307598114013671,1.0553951263427734,-0.1621123701333999,-0.5897855162620544,0.2219031900167465,0.3902870416641235,0.0,0.0,0.1515639953355372,0.7249770022266326
-0.0322198867797851,1.0420297384262085,-0.1644258201122284,-0.5969045162200928,0.2405755519866943,0.3734477460384369,0.0,0.0,-0.2146891944656515,-0.6560281124379435
-0.0337281227111816,1.027988314628601,-0.1710423976182937,-0.6275030970573425,0.26116743683815,0.4118377268314361,0.0,0.0,-0.8847514390945435,0.9845041036605836
-0.0351691246032714,1.0133028030395508,-0.163150742650032,-0.6562061309814453,0.2806812524795532,0.3902763426303863,0.0,0.0,-0.523135781288147,0.9960081577301024
-0.036546517163515,0.9979891777038574,-0.155617743730545,-0.6841495633125305,0.2991022765636444,0.3684202432632446,0.0,0.0,-0.1482394337654113,0.9995259046554564
-0.0378547683358192,0.9820327162742616,-0.1475154757499694,-0.7127086520195007,0.3163822293281555,0.3455989360809326,0.0,0.0,-0.1096975207328796,0.9723849296569824
-0.0390892997384071,0.9654489159584044,-0.1387426108121872,-0.7404800653457642,0.3322979807853699,0.3183154463768005,0.0,0.0,0.4710264205932617,0.9630658626556396
-0.0404569618403911,0.9492065906524658,-0.1507528573274612,-0.7251695394515991,0.3469332456588745,0.2927055656909942,0.0,0.0,0.0186452865600585,0.8840048313140869
-0.0418729782104492,0.9327149391174316,-0.1544552743434906,-0.7361142635345459,0.3604533672332763,0.2704026401042938,0.0,0.0,0.0940651893615722,0.9914621114730836
-0.0433691963553428,0.9163283109664916,-0.1611102521419525,-0.7312310934066772,0.372608333826065,0.2430988103151321,0.0,0.0,0.0203920602798461,0.9805905818939208
-0.0450148582458496,0.9000376462936401,-0.1747748553752899,-0.72672438621521,0.3834484815597534,0.2168032377958297,0.0,0.0,0.0688966512680053,0.9807958602905272
-0.0467181205749511,0.883683443069458,-0.179250106215477,-0.7292829751968384,0.3929561376571655,0.1901528537273407,0.0,0.0,-0.0455185174942016,0.9581301212310792
-0.0483684539794921,0.8667047023773193,-0.1730524003505706,-0.7568544149398804,0.4015312194824219,0.1715013533830642,0.0,0.0,-0.5799432396888733,0.974712371826172
-0.0499355308711528,0.8491101264953613,-0.1631008088588714,-0.783805787563324,0.408389002084732,0.1371562778949737,0.0,0.0,0.2478673458099365,0.9959321022033693
-0.0514452941715717,0.8312613368034363,-0.1561085134744644,-0.7947677969932556,0.413917988538742,0.1105797886848449,0.0,0.0,-0.255562424659729,0.9585886001586914
-0.0528764724731445,0.8127955794334412,-0.1467597782611847,-0.8217718601226807,0.4178501963615417,0.0786444097757339,0.0,0.0,0.0974512100219726,0.9942651987075806
-0.0543439872562885,0.7939470410346985,-0.1491729319095611,-0.8384341597557068,0.4204682111740112,0.0523600168526172,0.0,0.0,0.2089109420776367,0.9869766235351562
-0.0558036789298057,0.7748275399208069,-0.1471713930368423,-0.8501155972480774,0.4217710196971893,0.0260562114417552,0.0,0.0,0.210495114326477,0.9965507984161376
-0.0572782531380653,0.7555632591247559,-0.1474271416664123,-0.8561795949935913,0.421732097864151,-0.0007785593043081,0.0,0.0,0.3134739398956299,0.997490167617798
-0.0590523704886436,0.7365319132804871,-0.1760820597410202,-0.845446765422821,0.4203056693077087,-0.0285294260829687,0.0,0.0,-0.1283293962478637,0.9456193447113036
-0.0607771873474121,0.7168752551078796,-0.1704094409942627,-0.8730127215385437,0.4180639386177063,-0.0448339134454727,0.0,0.0,0.4695634841918945,0.9999940395355223
-0.0626338943839073,0.6972026824951172,-0.1823324859142303,-0.8733541369438171,0.414464920759201,-0.0719805583357811,0.0,0.0,0.1892206668853759,0.9992294311523438
-0.0644731521606445,0.6775471568107605,-0.1793304979801178,-0.872237503528595,0.4095073044300079,-0.0991523042321205,0.0,0.0,0.2277165651321411,0.9998860359191896
-0.0665065795183181,0.6579999327659607,-0.1974698454141616,-0.8670825958251953,0.4031995832920074,-0.1261545270681381,0.0,0.0,-0.1962807178497314,0.9991061687469482
-0.0684528350830078,0.6378344893455505,-0.1871518194675445,-0.8941420316696167,0.395187109708786,-0.1602490991353988,0.0,0.0,0.4614747762680053,0.9967918395996094
-0.0705970749258995,0.6180338859558105,-0.2056683301925659,-0.8776241540908813,0.3858365714550018,-0.1870100200176239,0.0,0.0,-0.0731620788574218,0.9924044609069824
-0.0726488083600997,0.597617506980896,-0.1946694552898407,-0.9045950174331664,0.3746687769889831,-0.2233561277389526,0.0,0.0,0.4941086769104004,0.9985582828521729
-0.0748722106218338,0.577113687992096,-0.2104708850383758,-0.9082193970680236,0.3621090948581695,-0.2511936128139496,0.0,0.0,0.549506664276123,0.9988380670547484
-0.0771925002336502,0.557095468044281,-0.2189145535230636,-0.8864487409591675,0.3483057618141174,-0.2760666310787201,0.0,0.0,0.3179484605789184,0.995966911315918
-0.0794996246695518,0.5372790098190308,-0.2163270711898803,-0.8773190379142761,0.3332294225692749,-0.3015270233154297,0.0,0.0,0.5537418127059937,0.9899566173553468
-0.0819087028503418,0.5179814100265503,-0.2252611666917801,-0.8541494607925415,0.3169227540493011,-0.3261334896087646,0.0,0.0,0.153031587600708,0.9963885545730592
-0.0844706520438194,0.4988153576850891,-0.2391964495182037,-0.8482118844985962,0.2993166446685791,-0.3521222472190857,0.0,0.0,0.1100872755050659,0.998837947845459
-0.0869832038879394,0.4793854355812073,-0.2329091131687164,-0.8598853349685669,0.2804041802883148,-0.3782495558261871,0.0,0.0,0.6625938415527344,0.9878932237625122
-0.0897192955017089,0.4602984189987182,-0.2537760734558105,-0.8446304202079773,0.2600789070129394,-0.4065057635307312,0.0,0.0,0.6055049896240234,0.9959321022033693
-0.0923683196306228,0.441356360912323,-0.2438232451677322,-0.8382775187492371,0.2386110723018646,-0.4293569028377533,0.0,0.0,0.8446094989776611,0.9683141708374025
-0.0950667411088943,0.4227871000766754,-0.2474952042102813,-0.8218395113945007,0.2159604579210281,-0.453012466430664,0.0,0.0,0.829301118850708,0.9832215309143066
-0.0977628678083419,0.4042259454727173,-0.2459326684474945,-0.8216511011123657,0.1920765936374664,-0.477677434682846,0.0,0.0,0.8979297876358032,0.981543779373169
-0.1006555557250976,0.3859795331954956,-0.2639724612236023,-0.807867169380188,0.1666933000087738,-0.5076665282249451,0.0,0.0,0.9634240865707396,0.9776008129119872
-0.1036004051566124,0.3686135709285736,-0.2678917348384857,-0.7690591216087341,0.140115737915039,-0.531550943851471,0.0,0.0,0.5562829971313477,0.9958271980285645
-0.1064023971557617,0.3510186970233917,-0.2523002028465271,-0.7796056866645813,0.1123606860637664,-0.5551014542579651,0.0,0.0,0.858258843421936,0.9413949251174928
-0.109188362956047,0.3342236280441284,-0.2495115250349044,-0.7445131540298462,0.0834978222846984,-0.5772576332092285,0.0,0.0,0.1772623062133789,0.8472027778625488
-0.1119944602251052,0.3172677755355835,-0.2504057586193084,-0.7521775960922241,0.053618174046278,-0.5975933074951172,0.0,0.0,0.7461016178131104,-0.2420995831489563
-0.1149154677987098,0.3007161915302276,-0.2621316313743591,-0.7348194122314453,0.0240035224705934,-0.592293381690979,0.0,0.0,0.2975280284881592,-0.1393632292747497
-0.1178022399544715,0.2842378616333008,-0.2595030665397644,-0.732155978679657,-0.0047883884981274,-0.5758386850357056,0.0,0.0,0.7649075984954834,-0.0853493213653564
-0.1207984909415245,0.268452525138855,-0.2705286145210266,-0.7019127011299133,-0.0335090160369873,-0.5744128823280334,0.0,0.0,0.2988795042037964,-0.3256381750106811
-0.1236961334943771,0.2526829838752746,-0.261685699224472,-0.7017272114753723,-0.0612579435110092,-0.5549788475036621,0.0,0.0,0.92923104763031,-0.2287312746047973
-0.1265777647495269,0.2369381934404373,-0.260651558637619,-0.7011204957962036,-0.0884880200028419,-0.5446017980575562,0.0,0.0,0.7796831130981445,-0.2369497418403625
-0.1293263435363769,0.2210432142019271,-0.2484508752822876,-0.7082099318504333,-0.114682137966156,-0.5238826870918274,0.0,0.0,0.9405983686447144,-0.4580188989639282
-0.1320352554321289,0.2050845026969909,-0.2450803220272064,-0.7114596962928772,-0.1403547674417495,-0.5134531259536743,0.0,0.0,0.9802539348602296,-0.4716490507125854
-0.1345881521701812,0.1898748725652694,-0.2302291393280029,-0.6785331964492798,-0.1653849184513092,-0.5006030797958374,0.0,0.0,0.9825761318206788,-0.5171019434928894
-0.1368850767612457,0.175437644124031,-0.2067460268735885,-0.6443679928779602,-0.1883854418992996,-0.4600103795528412,0.0,0.0,0.9762399196624756,-0.2799181342124939
-0.1390944421291351,0.16181181371212,-0.1981539726257324,-0.6086530089378357,-0.2113271206617355,-0.4588339924812317,0.0,0.0,0.9932459592819214,-0.4525399208068847
-0.1413346230983734,0.148153930902481,-0.2012933790683746,-0.6104297637939453,-0.2343159615993499,-0.4597770273685455,0.0,0.0,0.9938582181930542,-0.6414036750793457
-0.1433110237121582,0.1352249681949615,-0.1771184504032135,-0.5780227780342102,-0.2551984488964081,-0.4176499843597412,0.0,0.0,0.995851993560791,-0.5463042855262756
-0.1452378332614898,0.122701346874237,-0.173607662320137,-0.5600417256355286,-0.2746926546096802,-0.3898836076259613,0.0,0.0,0.9996606111526488,-0.2782151103019714
-0.1469627320766449,0.1107193082571029,-0.1538760066032409,-0.536145806312561,-0.2938356697559356,-0.38286092877388,0.0,0.0,0.9977927207946776,-0.767504870891571
-0.1484702080488205,0.0993175581097602,-0.1343306750059127,-0.5101443529129028,-0.310798704624176,-0.3392606377601623,0.0,0.0,0.9818053245544434,-0.939584732055664
-0.1496785134077072,0.0882220119237899,-0.1071712374687194,-0.4961256980895996,-0.3249951899051666,-0.2839292883872986,0.0,0.0,0.9998173713684082,-0.9795168042182922
-0.1507519781589508,0.0770552232861518,-0.0963143408298492,-0.4988209307193756,-0.3365096151828766,-0.2302877455949783,0.0,0.0,0.9999215602874756,-0.9770674109458924
-0.1515724211931228,0.0658747777342796,-0.0737499594688415,-0.4988657236099243,-0.3451907336711883,-0.1736222058534622,0.0,0.0,0.9993000030517578,-0.8884421586990356
-0.1519905030727386,0.0549317225813865,-0.0362292677164077,-0.4877098202705383,-0.3510500192642212,-0.1171857714653015,0.0,0.0,0.9981253147125244,-0.7357183694839478
-0.1520771980285644,0.0439164265990257,-0.0055189868435263,-0.4903410971164703,-0.3543616235256195,-0.0662322267889976,0.0,0.0,0.9995827674865724,-0.5193608403205872
-0.1518387794494629,0.0335339158773422,0.0254113487899303,-0.4618338644504547,-0.3560184240341186,-0.0331353172659873,1.0,0.0,0.97926664352417,0.0355446338653564
-0.1513149291276931,0.0249888282269239,0.0390728190541267,-0.3771156966686249,-0.3402997553348541,0.3169025480747223,1.0,0.0,0.985782027244568,-0.6282147169113159
-0.1502663642168045,0.0176061727106571,0.0698684453964233,-0.3202744424343109,-0.3040217459201813,0.725371778011322,1.0,0.0,0.9994891881942748,0.2390692234039306
-0.1488672196865081,0.0108081670477986,0.0861282125115394,-0.2918736636638641,-0.2487857043743133,1.1047247648239136,1.0,0.0,0.999985933303833,-0.369401216506958
-0.1472840309143066,0.0048117493279278,0.0905233547091484,-0.2565397322177887,-0.1801334619522094,1.3731900453567505,1.0,0.0,0.9990671873092652,-0.3301817774772644
-0.1453787833452224,-0.0001552009634906,0.1178691387176513,-0.2136035859584808,-0.1074670776724815,1.4535329341888428,1.0,1.0,-0.9999235272407532,0.784348726272583
-0.1434680968523025,-0.0050783064216375,0.1384454369544983,-0.2161845415830612,-0.0563891604542732,1.0202596187591553,1.0,1.0,0.996546983718872,0.7214301824569702
-0.1417491883039474,-0.008534743450582,0.1416163891553878,-0.1527787148952484,-0.0265394933521747,0.5969198346138,1.0,1.0,0.770366907119751,0.7885079383850098
-0.1399440765380859,-0.0107655553147196,0.1664280146360397,-0.0989702492952346,-0.0126671977341175,0.2774036228656769,1.0,1.0,-0.798513650894165,-0.9934232234954834
-0.1382710486650467,-0.0127368001267313,0.1590081304311752,-0.0875705033540725,-0.0044977986253798,0.1633642017841339,1.0,1.0,-0.7321639060974121,-0.962896168231964
-0.1366944313049316,-0.0143066784366965,0.1498731076717376,-0.0697761550545692,0.0031707922462373,0.1533508598804474,1.0,1.0,-0.8129845857620239,-0.9911938309669496
-0.1351915299892425,-0.0154202608391642,0.1406008154153823,-0.0495486445724964,0.0127182602882385,0.1909243911504745,1.0,1.0,-0.8960207104682922,-0.9981667399406432
-0.1337755173444748,-0.0160863064229488,0.129861906170845,-0.029750632122159,0.0242921467870473,0.2314484566450119,1.0,1.0,-0.8939485549926758,-0.9977689981460572
-0.1324633657932281,-0.0163679383695125,0.1191653832793235,-0.012762195430696,0.0361685529351234,0.2374984920024871,1.0,1.0,-0.904167652130127,-0.9568520784378052
-0.1312339752912521,-0.0163133647292852,0.1134861260652542,0.0021702190861105,0.0454812310636043,0.1862293034791946,1.0,1.0,-0.8686069846153259,-0.8573354482650757
-0.1300930976867675,-0.0159690752625465,0.1083670631051063,0.0151161849498748,0.0511250495910644,0.1128598898649215,1.0,1.0,-0.8832513689994812,-0.7395082116127014
-0.1290221214294433,-0.0153422262519598,0.1050905808806419,0.0277892109006643,0.0531100109219551,0.039692148566246,1.0,1.0,-0.8413626551628113,-0.7879372239112854
-0.1280271559953689,-0.0144928954541683,0.098688431084156,0.0377203896641731,0.0539142042398452,0.0160842314362525,1.0,1.0,-0.8766534924507141,-0.8227434158325195
-0.1270825415849685,-0.0135028390213847,0.0935128331184387,0.0439713783562183,0.0548457130789756,0.0186335779726505,1.0,1.0,-0.8549575209617615,-0.8812320828437805
-0.1261957138776779,-0.0124770542606711,0.0867735967040062,0.0455232188105583,0.0567302554845809,0.0376929901540279,1.0,1.0,-0.7935215830802917,-0.7549007534980774
-0.1253692656755447,-0.0114944009110331,0.0801251679658889,0.0435788221657276,0.0592141561210155,0.0496789813041687,1.0,1.0,-0.7829380631446838,-0.6550306677818298
-0.1245927810668945,-0.010620143264532,0.0752606987953186,0.0387643799185752,0.0615748427808284,0.0472154952585697,1.0,1.0,-0.7134478688240051,-0.2837255001068115
-0.1238182038068771,-0.009891047142446,0.0759272426366806,0.0323435068130493,0.0630974397063255,0.0304578579962253,1.0,1.0,-0.7033151388168335,-0.3489424586296081
-0.1230405792593956,-0.0093122981488704,0.0763696357607841,0.0256628077477216,0.0644840449094772,0.0277382526546716,1.0,1.0,-0.6476854681968689,-0.5482258200645447
-0.1223416328430175,-0.0090567730367183,0.0717945322394371,0.0114372419193387,0.0626041889190673,-0.0375947766005992,1.0,1.0,-0.537642240524292,-0.408460259437561
-0.1216322928667068,-0.0089251659810543,0.0719411447644233,0.0058911596424877,0.0616041608154773,-0.019999910145998,1.0,1.0,-0.5380843877792358,-0.4703202247619629
-0.1209143623709678,-0.0088712712749838,0.0722414776682853,0.0024141857866197,0.0611573047935962,-0.0089376904070377,1.0,1.0,-0.7404493689537048,-0.6392565369606018
-0.1202334389090538,-0.008864726871252,0.0682022348046302,0.0002931385242845,0.061044692993164,-0.0022536399774253,1.0,1.0,-0.6634644269943237,-0.4424755573272705
-0.1195485144853591,-0.0088184503838419,0.0688909739255905,0.002072763396427,0.0606497600674629,-0.0078995460644364,1.0,1.0,-0.6282645463943481,-0.6647385954856873
-0.1189169883728027,-0.0087266471236944,0.063883252441883,0.0041087823919951,0.0599265545606613,-0.0144647834822535,1.0,1.0,-0.5843149423599243,-0.3664961457252502
-0.118283174932003,-0.0085477260872721,0.064736895263195,0.0080067263916134,0.0585832595825195,-0.0268654022365808,1.0,1.0,-0.5940677523612976,-0.5339494347572327
