x_pos,y_pos,x_vel,y_vel,angle,ang_vel,leg_1,leg_2,main_booster,lat_booster
-0.0015442848671227,1.4032111167907717,-0.1563172191381454,-0.3426225483417511,0.0016886420780792,0.0333048924803733,0.0,0.0,0.0777956640353123,0.7754431250161075
-0.003009223844856,1.395559787750244,-0.1465494632720947,-0.3400603830814361,0.001738469232805,0.000997447874397,0.0,0.0,-0.6772647514664929,-0.7786774003485608
-0.0045412061735987,1.3874887228012085,-0.1543689221143722,-0.3587182164192199,0.0028970688581466,0.0231742989271879,0.0,0.0,0.378561703355168,-0.6319014737618167
-0.006251907441765,1.3796268701553345,-0.173185333609581,-0.3494227826595306,0.0049868612550199,0.0417997390031814,0.0,0.0,0.759611116350039,0.9607713737693164
-0.0077548981644213,1.3723978996276855,-0.1506591886281967,-0.3212834596633911,0.005342754535377,0.0071186488494277,0.0,0.0,-0.8444249305421445,-0.707250352589748
-0.0093179699033498,1.364754319190979,-0.1576810926198959,-0.3397258222103119,0.006699988618493,0.0271473713219165,0.0,0.0,-0.4813713465606672,0.8698774910720497
-0.0108316419646143,1.3566980361938477,-0.150974228978157,-0.3580568730831146,0.0063212942332029,-0.0075747855007648,0.0,0.0,0.0799945602199749,-0.9237282724527376
-0.0123204234987497,1.3488658666610718,-0.1502909362316131,-0.3481048941612243,0.0077113071456551,0.0278029236942529,0.0,0.0,-0.2480233562942519,-0.7857357748417381
-0.0138873104006052,1.340628147125244,-0.1596287935972213,-0.3661433756351471,0.0106164989992976,0.0581094846129417,0.0,0.0,-0.8145953402060202,0.751757243765859
-0.0154092786833643,1.3319826126098633,-0.153560921549797,-0.384252667427063,0.0119667509570717,0.027007445693016,0.0,0.0,-0.1901275760714316,0.925059498659592
-0.016861343756318,1.3229258060455322,-0.1443816721439361,-0.4025123715400696,0.0111596351489424,-0.0161440689116716,0.0,0.0,0.2576253056401187,-0.6953047463981117
-0.0183247569948434,1.31405770778656,-0.1469633281230926,-0.3941496312618255,0.0117651978507637,0.0121122784912586,0.0,0.0,-0.2338911370569145,-0.6348464515157253
-0.0198393817991018,1.3047785758972168,-0.1530133038759231,-0.4124214053153991,0.013300304301083,0.0307050310075283,0.0,0.0,-0.5967413775870865,0.6249919224679285
-0.0213100425899028,1.2950812578201294,-0.1471730172634124,-0.430989146232605,0.0134020084515213,0.0020342078059911,0.0,0.0,-0.818518430254892,-0.6165050172279015
-0.0228283889591693,1.284976363182068,-0.1528330445289611,-0.4491199254989624,0.0143925724551081,0.019812986254692,0.0,0.0,-0.2770488597196798,-0.6609876404036426
-0.0243988987058401,1.2744492292404177,-0.1590930521488189,-0.4678888916969299,0.0164110101759433,0.040372435003519,0.0,0.0,-0.9216955379906446,-0.77409850182921
-0.0260255821049213,1.263516902923584,-0.1658633649349212,-0.4859248399734497,0.0195724051445722,0.0632338598370552,0.0,0.0,-0.50497490515213,-0.8404702307612164
-0.0277111046016216,1.2521625757217407,-0.1729944348335266,-0.5046994090080261,0.0239704307168722,0.0879680663347244,0.0,0.0,-0.0428317251834129,-0.7145669883477777
-0.029451560229063,1.240400314331055,-0.1796629875898361,-0.5228678584098816,0.0295234434306621,0.1110700964927673,0.0,0.0,0.9000893434761659,0.8978239723252313
-0.0312495231628417,1.2291991710662842,-0.183369979262352,-0.4979085624217987,0.0330671146512031,0.0708798244595527,0.0,0.0,0.2267858701034972,-0.86003750316179
-0.0330310836434364,1.2184300422668457,-0.1835112273693084,-0.478759765625,0.0383732393383979,0.1061315909028053,0.0,0.0,-0.7913891584678536,0.9966915956628994
-0.0347376838326454,1.2072465419769287,-0.1739590466022491,-0.4971303939819336,0.0416353158652782,0.0652474090456962,0.0,0.0,0.3738242305580752,0.9104930060927294
-0.0362726226449012,1.1963393688201904,-0.1550557613372802,-0.48480886220932,0.0431804545223712,0.0309053063392639,0.0,0.0,0.2660634203237795,-0.7020824472879528
-0.0378174781799316,1.185369610786438,-0.1575220972299575,-0.4876312613487243,0.0461933985352516,0.0602644570171833,0.0,0.0,-0.80371841306488,0.8935271502644142
-0.0393119826912879,1.1739927530288696,-0.1511083841323852,-0.5056865215301514,0.047833401709795,0.032802727073431,0.0,0.0,-0.6447072190727947,0.7921066787129873
-0.0407613739371299,1.1621887683868408,-0.1453877836465835,-0.524634063243866,0.0482690669596195,0.0087132966145873,0.0,0.0,0.7459217134212233,0.6529294174047381
-0.0421944633126258,1.1511298418045044,-0.142434537410736,-0.4914813935756683,0.0474088452756404,-0.0172041468322277,0.0,0.0,0.0299974454571332,0.6364034547697166
-0.0436959266662597,1.1404321193695068,-0.1478886753320694,-0.475384920835495,0.0451757758855819,-0.0446611531078815,0.0,0.0,-0.4146270302608934,0.9979520196233944
-0.0451372154057025,1.1293336153030396,-0.1402933001518249,-0.4931560158729553,0.0413857065141201,-0.0758012384176254,0.0,0.0,-0.5847284557038444,0.7262067766971864
-0.0465238578617572,1.1178226470947266,-0.1334205418825149,-0.5114571452140808,0.0362042412161827,-0.1036292314529419,0.0,0.0,0.2706777974058389,0.9564007547087016
-0.0478424057364463,1.1068910360336304,-0.1246895417571067,-0.4856991767883301,0.0291316118091344,-0.1414529234170913,0.0,0.0,0.4043557524550014,0.6563383470494057
-0.0491925254464149,1.0961005687713623,-0.1263967454433441,-0.479432463645935,0.0206246841698884,-0.1701386868953704,0.0,0.0,0.8463123954235021,-0.913970947620794
-0.0507352836430072,1.0862443447113037,-0.1473274976015091,-0.4379804730415344,0.0137676130980253,-0.1371411681175232,0.0,0.0,-0.4348737045673196,0.8659428901336692
-0.0522157661616802,1.0759687423706057,-0.1395607888698578,-0.4566337764263153,0.0053841955959796,-0.1676684617996215,0.0,0.0,-0.5434182356436847,0.9922903247739302
-0.0536144264042377,1.065284013748169,-0.1293364912271499,-0.4748817980289459,-0.0050104800611734,-0.207893818616867,0.0,0.0,0.4354944031929653,0.6460164008769057
-0.0549397468566894,1.0551774501800537,-0.1207519322633743,-0.4492626786231994,-0.0166379287838935,-0.2325490266084671,0.0,0.0,-0.0997391833465508,0.9044150197628974
-0.05619478225708,1.044653296470642,-0.1120030656456947,-0.4679453670978546,-0.0299662947654724,-0.2665672302246094,0.0,0.0,-0.6434650797383554,0.9926472631816428
-0.0573638901114463,1.0337224006652832,-0.1013206988573074,-0.4862003922462463,-0.0453715287148952,-0.3081045746803283,0.0,0.0,0.5274260682049408,0.7151942650022685
-0.0584783554077148,1.0235555171966553,-0.0943789184093475,-0.4524539113044739,-0.0622504092752933,-0.3375774621963501,0.0,0.0,0.3939651395011891,-0.6600263421597896
-0.0595840439200401,1.013750076293945,-0.0949132367968559,-0.4365200698375702,-0.0777416080236435,-0.3098239600658417,0.0,0.0,0.3966774521200833,0.7241684815954058
-0.060678195208311,1.0045301914215088,-0.0921927392482757,-0.4107513725757599,-0.0948089137673378,-0.3413461148738861,0.0,0.0,-0.954008162021637,-0.2474569082260131
-0.0617691986262798,0.9949007034301758,-0.0919234305620193,-0.429145872592926,-0.1118484288454055,-0.3407903909683227,0.0,0.0,-0.8168405294418335,-0.9705979824066162
-0.0629216209053993,0.9848616719245912,-0.0997530966997146,-0.4474127888679504,-0.127239391207695,-0.307819128036499,0.0,0.0,-0.8738133907318115,-0.8832587599754333
-0.0641284957528114,0.974421501159668,-0.1067403182387352,-0.4652626812458038,-0.1411283910274505,-0.2777803540229797,0.0,0.0,-0.6905173063278198,-0.835854172706604
-0.0654025077819824,0.9635750651359558,-0.1153028756380081,-0.483254075050354,-0.1532083749771118,-0.2415997087955474,0.0,0.0,-0.9990347027778624,-0.457084596157074
-0.066672995686531,0.9523171186447144,-0.1149937286972999,-0.5016361474990845,-0.1652573645114898,-0.2409795820713043,0.0,0.0,-0.9906468987464904,-0.8417415022850037
-0.0679992660880088,0.9406577348709106,-0.1221415847539901,-0.519396185874939,-0.1757626384496688,-0.2101050615310669,0.0,0.0,-0.8900601863861084,-0.0858358144760131
-0.0693219155073165,0.928586483001709,-0.1218274384737014,-0.5377752184867859,-0.1862362474203109,-0.2094723433256149,0.0,0.0,-0.9359850883483888,-0.799035906791687
-0.0707159042358398,0.9161311984062196,-0.1309446990489959,-0.5546506643295288,-0.1947170048952102,-0.1696155965328216,0.0,0.0,-0.926945149898529,-0.827977180480957
-0.072172924876213,0.9032806158065796,-0.1390170156955719,-0.5720326900482178,-0.2014467269182205,-0.1345944702625274,0.0,0.0,-0.9896113276481628,-0.9757463335990906
-0.0736840218305587,0.8900343775749207,-0.1459496170282364,-0.589432954788208,-0.2066517174243927,-0.1040994971990585,0.0,0.0,-0.7521608471870422,-0.2985376715660095
-0.0751918777823448,0.876375138759613,-0.1456535905599594,-0.6078051328659058,-0.2118259817361831,-0.1034854277968406,0.0,0.0,-0.8973295092582703,-0.5288945436477661
-0.0767303481698036,0.8623104691505432,-0.1496128141880035,-0.6257026791572571,-0.216101586818695,-0.0855121612548828,0.0,0.0,-0.9808788895606996,-0.9312376976013184
-0.0783358588814735,0.84786456823349,-0.1582046896219253,-0.6423857808113098,-0.2184772491455078,-0.0475133582949638,0.0,0.0,-0.9706245064735411,-0.5744535326957703
-0.0799722671508789,0.8330143094062805,-0.1621704399585724,-0.6602296829223633,-0.2199561893939972,-0.0295790042728185,0.0,0.0,-0.8263031840324402,-0.60901939868927
-0.0816606506705284,0.8177661895751953,-0.1688100397586822,-0.677698016166687,-0.2199895977973938,-0.0006680906517431,0.0,0.0,-0.9085014462471008,-0.8691188097000122
-0.0834018737077713,0.8021314144134521,-0.1755835860967636,-0.6946612596511841,-0.2185147702693939,0.0294964127242565,0.0,0.0,-0.4437447190284729,-0.6648120880126953
-0.085179902613163,0.7860991358757019,-0.1803157031536102,-0.712178647518158,-0.215982586145401,0.0506438687443733,0.0,0.0,-0.0703227519989013,-0.1957509517669677
-0.0869560241699218,0.7696534991264343,-0.1801418960094452,-0.7305492162704468,-0.2134286016225814,0.0510793551802635,0.0,0.0,-0.735325276851654,-0.2068302631378173
-0.0887305289506912,0.7527945041656494,-0.1799940913915634,-0.7489197850227356,-0.2108549177646637,0.0514736473560333,0.0,0.0,0.0291073322296142,-0.2084654569625854
-0.0904241576790809,0.7358506917953491,-0.1720736771821975,-0.7526773810386658,-0.20811627805233,0.0547727048397064,0.0,0.0,-0.1817502975463867,-0.1869751214981079
-0.0921166390180587,0.7184935808181763,-0.1719836890697479,-0.7710481286048889,-0.2053626477718353,0.0550727322697639,0.0,0.0,0.7549446821212769,0.2722687721252441
-0.0935679450631141,0.7014896273612976,-0.1484787911176681,-0.7552649974822998,-0.2019897997379303,0.0674569904804229,0.0,0.0,-0.0197161436080932,0.1227668523788452
-0.0950189605355262,0.684072732925415,-0.1484539955854416,-0.7736360430717468,-0.1986074298620224,0.0676470398902893,0.0,0.0,0.9227259159088136,0.7743532657623291
-0.0963090881705284,0.6669017672538757,-0.1308449208736419,-0.7629071474075317,-0.1967564523220062,0.0370192006230354,0.0,0.0,0.6562292575836182,-0.3950063586235046
-0.0976054221391677,0.6502255797386169,-0.1309075951576233,-0.7409994006156921,-0.1954763531684875,0.0256021171808242,0.0,0.0,0.1022846698760986,-0.1253339052200317
-0.0987776741385459,0.6339719295501709,-0.1185611858963966,-0.7222064137458801,-0.1941302120685577,0.0269231982529163,0.0,0.0,-0.3764263987541199,-0.3499288558959961
-0.0999511703848838,0.6173050403594971,-0.1186859384179115,-0.7405769228935242,-0.1927878409624099,0.0268473271280527,0.0,0.0,0.7965347766876221,-0.7973849773406982
-0.1009774208068847,0.6016093492507935,-0.1056198105216026,-0.6971971988677979,-0.1897817552089691,0.0601219311356544,0.0,0.0,0.0695458650588989,-0.3979420661926269
-0.1020079627633094,0.5859691500663757,-0.1057489290833473,-0.6947758793830872,-0.1870690137147903,0.0542546436190605,0.0,0.0,-0.1442455649375915,-0.3494727611541748
-0.1030411720275878,0.5699157118797302,-0.1060006842017173,-0.7131471633911133,-0.1843719780445099,0.053940862417221,0.0,0.0,0.9563496112823486,-0.6704800724983215
-0.1039557456970214,0.5545409321784973,-0.0955672264099121,-0.6828185319900513,-0.1802492439746856,0.0824543982744216,0.0,0.0,0.5573484897613525,0.6626753807067871
-0.104809284210205,0.5399567484855652,-0.087843433022499,-0.6478896737098694,-0.1777527034282684,0.0499307513236999,0.0,0.0,-0.4547648429870605,0.1176546812057495
-0.1056670174002647,0.5249592661857605,-0.0882317125797271,-0.6662610173225403,-0.1752852499485016,0.0493488684296608,0.0,0.0,0.4963563680648803,-0.5469791293144226
-0.1065431609749794,0.5100874900817871,-0.0910528302192688,-0.660561740398407,-0.1718378067016601,0.0689489692449569,0.0,0.0,0.518695592880249,-0.4349178671836853
-0.1073118224740028,0.4952283501625061,-0.0805555433034896,-0.6599856615066528,-0.1681399941444397,0.0739559903740882,0.0,0.0,0.8041307926177979,0.1404509544372558
-0.1080581694841384,0.4805128872394562,-0.0781259983777999,-0.6536290645599365,-0.1646456569433212,0.069886639714241,0.0,0.0,0.78924560546875,0.3427813053131103
-0.1086789146065712,0.4666576683521271,-0.0654764622449874,-0.61541348695755,-0.1612422615289688,0.0680680125951767,0.0,0.0,0.059045672416687,-0.0966774225234985
-0.1091718673706054,0.4531512856483459,-0.0528825931251049,-0.5998997092247009,-0.1576558202505111,0.071728691458702,0.0,0.0,-0.1052393913269043,0.6924128532409668
-0.1096274405717849,0.4392281770706177,-0.0479636564850807,-0.6185521483421326,-0.1552528589963913,0.0480596646666526,0.0,0.0,0.7742888927459717,-0.7140339016914368
-0.1102416962385177,0.4254599511623382,-0.0648623183369636,-0.6115650534629822,-0.1518260389566421,0.0685363188385963,0.0,0.0,0.8850449323654175,-0.5163381099700928
-0.1107197776436805,0.41261887550354,-0.0523427948355674,-0.5702577233314514,-0.1472908109426498,0.0907043516635894,0.0,0.0,0.2567006349563598,0.250223159790039
-0.1112188324332237,0.4000313878059387,-0.0540117807686328,-0.5590439438819885,-0.1431884914636612,0.082046166062355,0.0,0.0,0.2615453004837036,0.1731270551681518
-0.1116949096322059,0.387808233499527,-0.0514505989849567,-0.5428857207298279,-0.1393618434667587,0.0765328630805015,0.0,0.0,-0.5821325778961182,0.2680917978286743
-0.1121811866760253,0.3751721084117889,-0.0523768365383148,-0.5612583160400391,-0.1356229931116104,0.0747770965099334,0.0,0.0,0.7956770658493042,-0.3747528791427612
-0.1124986633658409,0.3630436658859253,-0.0358491837978363,-0.538675844669342,-0.13153937458992,0.081672266125679,0.0,0.0,0.3144922256469726,-0.2133406400680542
-0.1127729415893554,0.3509034812450409,-0.0315170101821422,-0.539206326007843,-0.1274679154157638,0.081429436802864,0.0,0.0,0.5011703968048096,0.9316198825836182
-0.1128451377153396,0.3388555645942688,-0.0094334427267313,-0.5352736115455627,-0.1252619624137878,0.0441190153360366,0.0,0.0,0.7202032804489136,-0.391189694404602
-0.11270322650671,0.3272507488727569,0.01136683113873,-0.5155341029167175,-0.1224584132432937,0.0560711026191711,0.0,0.0,0.6502888202667236,0.2871177196502685
-0.1123878508806228,0.3157939314842224,0.0281905177980661,-0.5089205503463745,-0.1191274896264076,0.0666182786226272,0.0,0.0,0.3150238990783691,0.1255581378936767
-0.112019158899784,0.3048155307769775,0.0336644724011421,-0.4876768290996551,-0.115939974784851,0.0637502968311309,0.0,0.0,0.414102554321289,-0.1842538714408874
-0.1115628257393837,0.2943868935108185,0.0424329675734043,-0.4632506072521209,-0.1127582341432571,0.0636348277330398,0.0,0.0,-0.149896502494812,-0.4714722633361816
-0.1111207008361816,0.2835451960563659,0.0411383286118507,-0.481623113155365,-0.1097103953361511,0.0609569922089576,0.0,0.0,0.5350954532623291,0.3106738328933716
-0.11056699603796,0.272727370262146,0.0520020425319671,-0.4805483520030975,-0.1063685938715934,0.0668360143899917,0.0,0.0,0.6220816373825073,-0.1724973917007446
-0.1100268363952636,0.2622504532337188,0.0510452464222908,-0.465429812669754,-0.1034104973077774,0.059162002056837,0.0,0.0,0.3063979148864746,-0.1531282067298889
-0.1093651801347732,0.2523681223392486,0.0630184188485145,-0.4390021562576294,-0.1002933755517005,0.0623425245285034,0.0,0.0,-0.1102678775787353,-0.4272550344467163
-0.1087197288870811,0.2420727312564849,0.061564028263092,-0.4573746919631958,-0.097332090139389,0.0592254325747489,0.0,0.0,0.4630930423736572,-0.1723246574401855
-0.1081319823861122,0.2324320822954177,0.0564675442874431,-0.4283235371112823,-0.0950417295098304,0.0458074733614921,0.0,0.0,-0.2804207801818847,-0.6965461373329163
-0.1076078414916992,0.2223886847496032,0.0490734875202178,-0.4461658895015716,-0.0917287692427635,0.0662595108151435,0.0,0.0,0.2370829582214355,-0.7093307971954346
-0.1071499809622764,0.2127904444932937,0.0412506498396396,-0.4263146221637726,-0.0872316062450409,0.0899429470300674,0.0,0.0,0.0624675750732421,-0.1534852981567382
-0.1067207306623458,0.2035059332847595,0.038803931325674,-0.4124129116535187,-0.0831568613648414,0.0814952701330185,0.0,0.0,-0.074675977230072,-0.1810942888259887
-0.1063096076250076,0.1938083469867706,0.037181731313467,-0.4307858645915985,-0.079263150691986,0.0778743177652359,0.0,0.0,0.170756459236145,0.6204988956451416
-0.1059260368347168,0.1843408644199371,0.0360073558986187,-0.4206552505493164,-0.0769339352846145,0.0465844459831714,0.0,0.0,0.3916285037994385,0.6052188873291016
-0.105617806315422,0.175129160284996,0.0301641728729009,-0.4093755483627319,-0.0762858837842941,0.0129610523581504,0.0,0.0,0.1105700731277465,-0.4749947786331177
-0.1052207946777343,0.1662187129259109,0.0389111116528511,-0.3959820568561554,-0.0755031183362007,0.0156551618129014,0.0,0.0,-0.2031368613243103,-0.1714920401573181
-0.1048430427908897,0.1568950712680816,0.0371845141053199,-0.4143537580966949,-0.0749192759394645,0.0116770174354314,0.0,0.0,0.6015915870666504,0.3078882694244385
-0.1042892485857009,0.1482488512992859,0.0543394796550273,-0.3842272162437439,-0.0738880410790443,0.0206246264278888,0.0,0.0,-0.0503762960433959,-0.7635306119918823
-0.1038173660635948,0.1392027884721756,0.0447544157505035,-0.4019301831722259,-0.0714839175343513,0.0480823814868927,0.0,0.0,0.505239725112915,0.1502375602722168
-0.1031802147626876,0.1308945268392563,0.0608907751739025,-0.3691231310367584,-0.0686893165111541,0.055892027914524,0.0,0.0,0.4050019979476928,-0.2218180894851684
-0.1024646759033203,0.1229041889309883,0.0686429589986801,-0.3549952208995819,-0.0658091455698013,0.0576034560799598,0.0,0.0,0.3476181030273437,-0.8055416345596313
-0.1017954796552658,0.1155127361416816,0.0626076906919479,-0.3283275961875915,-0.0615495555102825,0.0851920172572135,0.0,0.0,-0.2031623125076294,0.2409529685974121
-0.1011468917131424,0.1077082976698875,0.0607795007526874,-0.3467006385326385,-0.0575114153325557,0.0807626843452453,0.0,0.0,0.7239394187927246,0.1357674598693847
-0.1004074066877365,0.1002001166343689,0.0696932524442672,-0.3335394263267517,-0.0533091127872467,0.0840461328625679,0.0,0.0,0.2581198215484619,-0.3668452501296997
-0.099756620824337,0.0929916948080062,0.0614921674132347,-0.3202516436576843,-0.049765508621931,0.0708718970417976,0.0,0.0,0.2532532215118408,0.6834394931793213
-0.0991621017456054,0.0859575122594833,0.0576418526470661,-0.3125732839107513,-0.0479735881090164,0.035838283598423,0.0,0.0,0.3061116933822632,0.7504880428314209
-0.0985269546508789,0.0791744589805603,0.0634802132844924,-0.3014655709266662,-0.0479341186583042,0.0007892033900134,0.0,0.0,0.414719820022583,-0.4435452222824096
-0.0978686362504959,0.0726610496640205,0.0659302696585655,-0.2894869148731231,-0.0480282232165336,-0.0018820932600647,0.0,0.0,0.184396743774414,0.1390963792800903
-0.0971253365278244,0.066113956272602,0.0742256194353103,-0.2909776270389557,-0.0479282662272453,0.0019992196466773,0.0,0.0,0.4593727588653564,0.0129777193069458
-0.0962881073355674,0.0600525252521038,0.0834644958376884,-0.2693909704685211,-0.0476715266704559,0.0051347278058528,0.0,0.0,0.3176249265670776,-0.3124293088912964
-0.0954212173819542,0.0545403324067592,0.0865866169333458,-0.2449839264154434,-0.0475661642849445,0.0021070702932775,0.0,0.0,-0.2522661685943603,-0.519872784614563
-0.0946121215820312,0.048611793667078,0.0801163762807846,-0.2634657919406891,-0.0467828139662742,0.0156670361757278,0.0,0.0,0.415097713470459,0.4701085090637207
