x_pos,y_pos,x_vel,y_vel,angle,ang_vel,leg_1,leg_2,main_booster,lat_booster
-0.001506996108219,1.402984619140625,-0.1520354002714157,-0.3526937365531921,0.0011873167240992,0.0233785696327686,0.0,0.0,-0.9933162256891954,0.9826413354508012
-0.0029118538368493,1.3944275379180908,-0.1389361321926117,-0.380313515663147,-0.0003408710181247,-0.030566181987524,0.0,0.0,-0.6527377427136376,-0.7632595713697469
-0.0043429373763501,1.385224461555481,-0.1421623677015304,-0.4090257287025451,-0.0012687419075518,-0.0185592155903577,0.0,0.0,0.5058739108255073,-0.7992149184738935
-0.0059348107315599,1.3760621547698977,-0.1590530574321746,-0.407211422920227,-0.0014038133667781,-0.0027017949614673,0.0,0.0,-0.0768319982022365,-0.9459790209341192
-0.0075610158964991,1.366262912750244,-0.1633836477994918,-0.4355217218399048,-0.000647458480671,0.0151284234598279,0.0,0.0,0.0902260583671628,0.96983379149786
-0.0089767454192042,1.3563597202301023,-0.1398012787103653,-0.4401407241821289,-0.0023968152236193,-0.0349904410541057,0.0,0.0,-0.8316479283886691,-0.6184142666129857
-0.01041498221457,1.345816731452942,-0.1427561342716217,-0.4685783386230469,-0.0034593399614095,-0.0212523825466632,0.0,0.0,0.1473049057607691,-0.9734937779266604
-0.0117760654538869,1.3353103399276731,-0.1364036798477172,-0.4669479727745056,-0.0031639724038541,0.0059078414924442,0.0,0.0,0.1137003663633411,0.8355634292745284
-0.0130477901548147,1.3250190019607544,-0.125187337398529,-0.4574021697044372,-0.0051178778521716,-0.0390816703438758,0.0,0.0,0.7258303452231676,-0.7632967101767162
-0.0143435476347804,1.3152309656143188,-0.1285327225923538,-0.4350265860557556,-0.0061497637070715,-0.0206400118768215,0.0,0.0,0.2823710535945927,-0.995765669249055
-0.0156022068113088,1.3054956197738647,-0.126260444521904,-0.4326754212379455,-0.0057653547264635,0.0076890811324119,0.0,0.0,0.2980089863345905,-0.6836967267945229
-0.0168145187199115,1.2957415580749512,-0.1224921494722366,-0.4335126280784607,-0.0045153126120567,0.0250029806047678,0.0,0.0,0.6151568602554784,0.7720971074759642
-0.0177846904844045,1.2863757610321045,-0.096408762037754,-0.4162597954273224,-0.0051192655228078,-0.0120799783617258,0.0,0.0,-0.1233424603016886,-0.6138426847050549
-0.0187587738037109,1.2763644456863403,-0.0972817316651344,-0.4449450671672821,-0.0052403775043785,-0.0024228186812251,0.0,0.0,0.1756323217164068,0.700746892886863
-0.0195206645876169,1.266599178314209,-0.0742063075304031,-0.4340180456638336,-0.0072011165320873,-0.0392184033989906,0.0,0.0,0.4443334321400121,0.8235334699551113
-0.0200662612915039,1.2565722465515137,-0.0504736080765724,-0.4456648230552673,-0.0112395640462636,-0.0807765573263168,0.0,0.0,-0.3162359834009742,0.8592772691730635
-0.0204853061586618,1.2459146976470947,-0.0350908897817134,-0.4737432301044464,-0.0179710499942302,-0.1346421986818313,0.0,0.0,0.1709196125424215,0.9038308571195316
-0.0206660274416208,1.2350034713745115,-0.0088861975818872,-0.4850784242153168,-0.0270465034991502,-0.1815258860588073,0.0,0.0,0.3094511396525952,0.7579098800374385
-0.020637035369873,1.2244089841842651,0.0140750873833894,-0.4711044132709503,-0.0381083078682422,-0.221256285905838,0.0,0.0,0.914901389663122,0.9710031676182664
-0.0205631256103515,1.2141611576080322,0.0212994627654552,-0.4558711647987366,-0.0518780685961246,-0.2754201591014862,0.0,0.0,0.4866140151628439,0.69140507010536
-0.0202251430600881,1.2042810916900637,0.0494562871754169,-0.4397356808185577,-0.0673763006925582,-0.3099925518035888,0.0,0.0,-0.3589831206730265,0.7301813503871353
-0.0197793003171682,1.19375479221344,0.0623185858130455,-0.4687221944332123,-0.0849574506282806,-0.351654440164566,0.0,0.0,0.1292349720324024,0.6669665039076226
-0.0190992355346679,1.1831296682357788,0.0875280797481536,-0.4734472632408142,-0.1043408811092376,-0.3877038657665252,0.0,0.0,0.1819015557060064,0.9954083345938636
-0.0182081218808889,1.172171711921692,0.1111906021833419,-0.488713264465332,-0.1263118386268615,-0.4394587576389313,0.0,0.0,0.4328117261835371,-0.8354168892501543
-0.0173972137272357,1.1614521741867063,0.1022298485040664,-0.4783453941345215,-0.1473913639783859,-0.4216280877590179,0.0,0.0,-0.0608006305392954,-0.7676403173363543
-0.0166093818843364,1.1500985622406006,0.0985734313726425,-0.50667804479599,-0.1671652942895889,-0.3954786360263824,0.0,0.0,-0.0819375164037843,-0.9172513886469242
-0.015838336199522,1.1381350755691528,0.0956082567572593,-0.5339053869247437,-0.1857138574123382,-0.3709716200828552,0.0,0.0,-0.9771930458832694,-0.7173600964536151
-0.015079784207046,1.1255637407302856,0.0931467860937118,-0.5609920024871826,-0.2031091302633285,-0.3479053378105163,0.0,0.0,0.5067453036406246,0.7664606559586844
-0.0141929630190134,1.113424301147461,0.1082501262426376,-0.542342483997345,-0.2228597402572631,-0.3950127363204956,0.0,0.0,-0.9355408290580942,0.6581250275014403
-0.0132014276459813,1.1006332635879517,0.1204636916518211,-0.5718643069267273,-0.2444933205842971,-0.4326717853546142,0.0,0.0,-0.0762765056815701,-0.8859378946015707
-0.0122174266725778,1.087243914604187,0.1185036674141883,-0.5985492467880249,-0.2649854123592376,-0.4098418653011322,0.0,0.0,0.3465840775766453,-0.6049082417749585
-0.0111963273957371,1.0737820863723757,0.1216253414750099,-0.6019685864448547,-0.2849903702735901,-0.4000994265079498,0.0,0.0,-0.0990204553195261,0.6214867998678746
-0.0100753782317042,1.059675693511963,0.1331074237823486,-0.6312060952186584,-0.3066762387752533,-0.433718204498291,0.0,0.0,-0.6278551976320366,0.9818616000762131
-0.0088315960019826,1.0448986291885376,0.1475500911474228,-0.661834180355072,-0.3307554721832275,-0.4815849363803863,0.0,0.0,0.6036614313121382,-0.99285950290854
-0.0073870657943189,1.030385971069336,0.1660578697919845,-0.6501112580299377,-0.3533787429332733,-0.4524656236171722,0.0,0.0,-0.167796353475961,0.9295255907638748
-0.0058100698515772,1.0152108669281006,0.1815341562032699,-0.6805152297019958,-0.3785504996776581,-0.5034350156784058,0.0,0.0,-0.5937267757313351,0.819292025264225
-0.004115676973015,0.9993690848350524,0.1950882226228714,-0.7111169695854187,-0.4059313535690307,-0.547617495059967,0.0,0.0,0.470778690179118,-0.6668014252230186
-0.0021041869185864,0.9838470220565796,0.225694939494133,-0.6971378326416016,-0.4324417114257812,-0.5302072167396545,0.0,0.0,0.6352641167643669,-0.6738902486058169
0.0002348899870412,0.9688987135887146,0.2574889957904815,-0.6718394756317139,-0.4582114815711975,-0.51539546251297,0.0,0.0,-0.009129256911472,0.8390744822591726
0.0026990890037268,0.9532782435417176,0.2718667685985565,-0.7028859257698059,-0.486397385597229,-0.5637185573577881,0.0,0.0,-0.20937409655409,0.9273590506757124
0.0052826879546046,0.9369964599609376,0.2853481471538543,-0.7334662675857544,-0.5167528986930847,-0.6071098446846008,0.0,0.0,0.7390339374542236,-0.9946765303611756
0.0082618715241551,0.9207547307014464,0.3229754865169525,-0.7316360473632812,-0.5454087257385254,-0.5731180906295776,0.0,0.0,0.4500457048416137,-0.9960803389549256
0.0114622116088867,0.9042137265205384,0.3432953953742981,-0.7448305487632751,-0.5724762678146362,-0.5413508415222168,0.0,0.0,0.1116203069686889,-0.9927648901939392
0.0149212833493947,0.8874893188476562,0.3675094246864319,-0.752815842628479,-0.5980247259140015,-0.5109704732894897,0.0,0.0,0.0409015417098999,-0.9876461625099182
0.0184565540403127,0.8704472184181213,0.3734538555145263,-0.7666844129562378,-0.6219973564147949,-0.4794520437717438,0.0,0.0,0.1291300058364868,-0.9974627494812012
0.0221533775329589,0.853080689907074,0.3879918456077575,-0.7807884216308594,-0.6443982124328613,-0.4480184614658355,0.0,0.0,-0.2120716571807861,-0.9990646839141846
0.0258574485778808,0.8351417779922485,0.3872936367988586,-0.8059073090553284,-0.6653996706008911,-0.4200286865234375,0.0,0.0,-0.153590440750122,-0.9988064169883728
0.0295590404421091,0.81666499376297,0.3851338028907776,-0.829174280166626,-0.6843281388282776,-0.3785689175128937,0.0,0.0,-0.197661817073822,-0.9992931485176086
0.0332561507821083,0.7976519465446472,0.3827970325946808,-0.8522465825080872,-0.7010930180549622,-0.3352976739406585,0.0,0.0,-0.3785014152526855,-0.9971254467964172
0.0369559302926063,0.7780811190605164,0.3815370798110962,-0.8764132857322693,-0.716110348701477,-0.300346702337265,0.0,0.0,-0.4170162081718445,-0.9987186193466188
0.0406761169433593,0.7579345107078552,0.3825401067733764,-0.9015912413597108,-0.7299602627754211,-0.2769978046417236,0.0,0.0,-0.1221795082092285,-0.9974195957183838
0.0444011688232421,0.7372429966926575,0.3814651370048523,-0.9250141978263856,-0.7418779730796814,-0.2383530139923095,0.0,0.0,-0.1226984858512878,-0.999919056892395
0.0481418594717979,0.7159773111343384,0.3819567561149597,-0.9500042796134948,-0.7524803280830383,-0.2120476514101028,0.0,0.0,0.5251860618591309,-0.999881625175476
0.052401065826416,0.6949652433395386,0.4324379563331604,-0.9379584789276124,-0.7613183259963989,-0.1767597198486328,0.0,0.0,0.1796400547027588,-0.9903210997581482
0.0569988265633583,0.6736430525779724,0.4650150239467621,-0.951001524925232,-0.7684789896011353,-0.1432133018970489,0.0,0.0,0.0899398326873779,-0.9981926679611206
0.0617659576237201,0.6521762013435364,0.480581134557724,-0.9565940499305724,-0.7738096117973328,-0.1066119074821472,0.0,0.0,-0.2063684463500976,-0.9999412894248962
0.0665555968880653,0.63014817237854,0.4817661643028259,-0.9808540940284728,-0.7776796221733093,-0.0774005800485611,0.0,0.0,-0.2976865172386169,-0.9987456798553468
0.071369744837284,0.6075494885444641,0.4832611680030823,-1.0056060552597046,-0.7802485227584839,-0.0513772256672382,0.0,0.0,-0.5825352668762207,-0.99959397315979
0.0762056335806846,0.5843929052352905,0.4843117594718933,-1.029655933380127,-0.7812507152557373,-0.0200434364378452,0.0,0.0,-0.7013110518455505,-0.9992403984069824
0.081049159169197,0.560697615146637,0.4835227429866791,-1.0525810718536377,-0.7801094651222229,0.0228251758962869,0.0,0.0,-0.8196814656257629,-0.9996216893196106
0.0859032645821571,0.5364342331886292,0.4833994805812835,-1.0770480632781982,-0.7773135304450989,0.0559174343943595,0.0,0.0,-0.751909077167511,-0.9939539432525636
0.0907613784074783,0.5116317868232727,0.4821583330631256,-1.0999468564987185,-0.7722702026367188,0.1008671075105667,0.0,0.0,-0.7306349873542786,-0.9961990118026732
0.0956398025155067,0.4862549602985382,0.4831321835517883,-1.1248213052749634,-0.7658013105392456,0.1293775737285614,0.0,0.0,-0.5516080856323242,-0.9968909621238708
0.1005311012268066,0.4603192806243896,0.4830516874790191,-1.1488277912139893,-0.7575089335441589,0.1658482700586319,0.0,0.0,-0.6579374074935913,-0.9825119972229004
0.1054302230477333,0.4338191449642181,0.4824162423610687,-1.173101782798767,-0.747363805770874,0.2029023170471191,0.0,0.0,-0.436574637889862,-0.9965774416923524
0.1103275269269943,0.4067775309085846,0.4803619980812073,-1.1961246728897097,-0.7348161339759827,0.2509527802467346,0.0,0.0,-0.432345986366272,-0.9884276986122132
0.1152418106794357,0.3791822493076324,0.4805087447166443,-1.2199658155441284,-0.7203816771507263,0.2886893451213836,0.0,0.0,-0.2580827474594116,-0.991732656955719
0.120167352259159,0.3510081171989441,0.4802335798740387,-1.2450789213180542,-0.7042979001998901,0.3216749429702759,0.0,0.0,0.1229985952377319,-0.9898865222930908
0.1254988610744476,0.3229236006736755,0.5190907120704651,-1.240371584892273,-0.6862220764160156,0.3615171015262604,0.0,0.0,0.2339622974395752,-0.9746761322021484
0.1309975683689117,0.2947609722614288,0.5340526103973389,-1.243186354637146,-0.6661738753318787,0.4009644389152527,0.0,0.0,0.4934625625610351,-0.9914865493774414
0.1368089616298675,0.2668482661247253,0.5634588003158569,-1.2314904928207395,-0.6441460847854614,0.4405563473701477,0.0,0.0,0.4567806720733642,-0.981069803237915
0.1429823935031891,0.2390023618936538,0.5976845026016235,-1.2279773950576782,-0.6200783848762512,0.4813554286956787,0.0,0.0,0.4065961837768554,-0.984792709350586
0.1494812071323394,0.2115869671106338,0.6282060742378235,-1.2083945274353027,-0.5939964056015015,0.5216401219367981,0.0,0.0,0.0490212440490722,-0.965618908405304
0.1562376022338867,0.1840121299028396,0.6518858671188354,-1.215140461921692,-0.5659302473068237,0.5613226890563965,0.0,0.0,-0.0790126323699951,-0.9487373232841492
0.1629941910505294,0.1558635979890823,0.6496301889419556,-1.2403539419174194,-0.5357598066329956,0.6034089922904968,0.0,0.0,0.3121461868286133,-0.9851184487342834
0.1699356138706207,0.1274211704730987,0.6657852530479431,-1.253253698348999,-0.5034961700439453,0.6452730298042297,0.0,0.0,0.5177448987960815,-0.9752633571624756
0.1769974678754806,0.098831832408905,0.6754822731018066,-1.2597678899765017,-0.4691828787326813,0.6862660646438599,0.0,0.0,0.65852952003479,-0.885159432888031
0.1844207793474197,0.0707427337765693,0.709330677986145,-1.2376984357833862,-0.4329546391963959,0.724565863609314,0.0,0.0,0.7336699962615967,-0.9412981867790222
0.1922931671142578,0.0431913696229457,0.7516334056854248,-1.2140237092971802,-0.3945368826389313,0.7683550119400024,0.0,0.0,0.8324508666992188,-0.9972043037414552
0.2003848999738693,0.0164084769785404,0.7710937857627869,-1.1803181171417236,-0.3541201651096344,0.8083347082138062,1.0,0.0,-0.2173772454261779,0.8334298133850098
0.2083402574062347,-0.0095144649967551,0.7438367605209351,-1.1410038471221924,-0.2993627190589905,1.0965408086776731,1.0,0.0,0.8825252056121826,0.0293998718261718
0.2173047065734863,-0.0327142514288425,0.7706345915794373,-0.7255986928939819,-0.1950050294399261,4.332343578338623,1.0,1.0,0.8825252056121826,0.0293998718261718
