x_pos,y_pos,x_vel,y_vel,angle,ang_vel,leg_1,leg_2,main_booster,lat_booster
-0.0015260695945471,1.403213620185852,-0.154423639178276,-0.3425124287605285,0.0016159779625013,0.0318660214543342,0.0,0.0,0.6036537084044704,0.7838686178903108
-0.0029378891922533,1.3957873582839966,-0.1411613076925277,-0.3300526738166809,0.0016014247667044,-0.000290255062282,0.0,0.0,-0.9976220368509392,-0.6533624226365774
-0.0043910024687647,1.3879446983337402,-0.1461828649044037,-0.3485597968101501,0.0024532652460038,0.0170383844524621,0.0,0.0,0.0529704922263143,-0.6623368640936207
-0.0059843063354492,1.3801662921905518,-0.161273181438446,-0.345714122056961,0.0043773003853857,0.038484301418066,0.0,0.0,0.3939400872456868,0.8448680925507326
-0.0073910714127123,1.3728060722351074,-0.140968456864357,-0.3271235227584839,0.0046704770065844,0.0058640977367758,0.0,0.0,0.8745824406624061,0.8492033967121628
-0.0085629466921091,1.3659595251083374,-0.1160311922430992,-0.3042844533920288,0.0035320646129548,-0.0227705687284469,0.0,0.0,0.4637085797876497,-0.9240041422504462
-0.009831428527832,1.3594691753387451,-0.1274222135543823,-0.2884693443775177,0.0040905904024839,0.0111716846004128,0.0,0.0,0.5982304340095757,0.9427609261096724
-0.0108646396547555,1.3535106182098389,-0.1021162495017051,-0.2648190557956695,0.002911367220804,-0.0235867518931627,0.0,0.0,0.1990840020280535,0.8129840159275252
-0.0118440631777048,1.3480613231658936,-0.0950318425893783,-0.2421895116567611,2.5300456400145777e-05,-0.0577267408370971,0.0,0.0,-0.1371316306366596,-0.8260319228635083
-0.0128870010375976,1.3422062397003174,-0.1029447317123413,-0.2602269351482391,-0.0013008681125938,-0.0265255235135555,0.0,0.0,0.5145762531244529,0.741793100447649
-0.0137811657041311,1.3367581367492676,-0.0866832509636879,-0.2421442866325378,-0.0040041767060756,-0.0540712587535381,0.0,0.0,0.5999937921213427,0.9246273790046656
-0.0145208360627293,1.331663727760315,-0.0694257766008377,-0.2264380306005478,-0.0084923645481467,-0.0897723063826561,0.0,0.0,0.0679682188245656,-0.7981034444459585
-0.0152187347412109,1.3268402814865112,-0.0668613985180854,-0.2143908888101577,-0.011395426467061,-0.0580664500594139,0.0,0.0,-0.4964740536867971,0.9513559146007702
-0.0158300399780273,1.3215959072113037,-0.0560164526104927,-0.233129933476448,-0.016448738053441,-0.1010752096772193,0.0,0.0,-0.9944081880497436,-0.9396211541433142
-0.0164944641292095,1.3159520626068115,-0.0627395287156105,-0.2508813142776489,-0.0201102886348962,-0.0732378512620925,0.0,0.0,0.5374159836318211,-0.6613134313454203
-0.0170904155820608,1.3103028535842896,-0.0574322342872619,-0.2511106431484222,-0.0222504939883947,-0.0428079515695571,0.0,0.0,-0.6433280602509597,-0.6823488609073172
-0.0177239421755075,1.3042519092559814,-0.0622195377945899,-0.2689462602138519,-0.023369101807475,-0.0223741419613361,0.0,0.0,0.4388168624378763,-0.9148537790095596
-0.0182770732790231,1.2982693910598757,-0.0561503991484642,-0.2658811509609222,-0.0225358456373214,0.0166665650904178,0.0,0.0,-0.5203070952977085,0.7142463916925315
-0.0187603943049907,1.2918803691864014,-0.047498095780611,-0.283971220254898,-0.0233589950948953,-0.016464514657855,0.0,0.0,-0.2517100919898816,0.9359797365047566
-0.0191753394901752,1.285077691078186,-0.0390252619981765,-0.3023777902126312,-0.0257933810353279,-0.0486923269927501,0.0,0.0,0.9256684030622616,-0.6504819242511493
-0.0194547660648822,1.2791789770126345,-0.0272224638611078,-0.2621804475784302,-0.026510015130043,-0.0143337696790695,0.0,0.0,0.7891403346399728,-0.9641130545697978
-0.0197790153324604,1.2735846042633057,-0.0336787924170494,-0.2486184984445572,-0.0252801738679409,0.0245989821851253,0.0,0.0,-0.7869160815584775,0.9356266518638584
-0.0200089458376169,1.2675745487213137,-0.0219615586102008,-0.2671290934085846,-0.0262948740273714,-0.0202957317233085,0.0,0.0,-0.5780189421321167,-0.6100235744574178
-0.0202768333256244,1.2611486911773682,-0.0268772933632135,-0.2855963110923767,-0.0262143407016992,0.0016107807168737,0.0,0.0,-0.989839601538749,-0.6307568849001353
-0.020601749420166,1.2543160915374756,-0.034173522144556,-0.3036459982395172,-0.0245567336678504,0.033155046403408,0.0,0.0,0.8004474768088392,0.7712669179975415
-0.0210161209106445,1.248209834098816,-0.0412238575518131,-0.2713900506496429,-0.02476367354393,-0.0041388110257685,0.0,0.0,0.1117192981874635,0.6740209401367122
-0.0213574413210153,1.2424278259277344,-0.0326091796159744,-0.2569999694824219,-0.0262698624283075,-0.030123746022582,0.0,0.0,0.3220779072251074,0.8794735752832079
-0.0217267982661724,1.237236499786377,-0.0335804112255573,-0.2307871282100677,-0.0295865926891565,-0.066334918141365,0.0,0.0,-0.4355621168177286,-0.6673831889011779
-0.0221559517085552,1.2316429615020752,-0.0412404611706733,-0.2486443668603897,-0.0312416404485702,-0.0331005305051803,0.0,0.0,0.700124798135191,-0.8834962805810722
-0.0226592067629098,1.2263915538787842,-0.0504422485828399,-0.2333875596523285,-0.0311286021023988,0.0022608346771448,0.0,0.0,0.43140718659217,-0.6222782099293793
-0.0231669433414936,1.2218377590179443,-0.0522341951727867,-0.2023660689592361,-0.0296873319894075,0.0288254078477621,0.0,0.0,0.4067162409720708,0.8746992889354437
-0.0236659049987792,1.2174276113510132,-0.0495627894997596,-0.1960130035877227,-0.030011823400855,-0.0064898580312728,0.0,0.0,0.3508680845032585,-0.8819335330232589
-0.0242881774902343,1.213604211807251,-0.0636661201715469,-0.1699005663394928,-0.0285942554473876,0.0283514596521854,0.0,0.0,-0.5191362128670391,-0.6175319247381876
-0.0249613765627145,1.2093666791915894,-0.0701883286237716,-0.1882808953523636,-0.0257578957825899,0.0567269697785377,0.0,0.0,-0.1511661015785874,-0.7762179540059508
-0.0256912223994731,1.2047224044799805,-0.0774483159184455,-0.2063411027193069,-0.021356388926506,0.0880300775170326,0.0,0.0,0.1570241675284609,0.841914860987415
-0.0263257026672363,1.200465440750122,-0.0662840157747268,-0.1891582757234573,-0.0185560919344425,0.0560058541595935,0.0,0.0,-0.3522693855297976,-0.9667963978116284
-0.0270378105342388,1.1957952976226809,-0.0761457979679107,-0.2075152099132537,-0.0136843053624033,0.0974358469247818,0.0,0.0,-0.6117957928662161,-0.7843281935562467
-0.0278060920536518,1.190721869468689,-0.083315297961235,-0.2254425585269928,-0.0072851167060434,0.1279838532209396,0.0,0.0,0.0122740423686917,-0.8274693656275893
-0.0286630634218454,1.1860227584838867,-0.0939074009656906,-0.2088271528482437,0.0008219034061767,0.1621402204036712,0.0,0.0,0.1779219225805941,-0.7560586899591747
-0.0295561794191598,1.1815650463104248,-0.0991455540060997,-0.1981601566076278,0.0105208922177553,0.1939798295497894,0.0,0.0,0.2181840754389774,-0.921746507939683
-0.0306196212768554,1.177564263343811,-0.118049144744873,-0.1779395639896392,0.0220785569399595,0.2311533242464065,0.0,0.0,-0.9990617036819458,0.9033703804016112
-0.0315969474613666,1.1731548309326172,-0.1073091626167297,-0.1961428225040435,0.0315356403589248,0.1891418397426605,0.0,0.0,-0.9990010857582092,0.9968173503875732
-0.0324830040335655,1.1683287620544434,-0.0959194973111152,-0.2146587073802948,0.0387539826333522,0.14436736702919,0.0,0.0,-0.9955185651779176,0.9837664365768432
-0.0332797057926654,1.1630957126617432,-0.0847223997116088,-0.2327190339565277,0.0437536314129829,0.0999928563833236,0.0,0.0,-0.9830044507980348,0.9862463474273682
-0.0340049751102924,1.157445192337036,-0.075802244246006,-0.2512345910072326,0.0469836816191673,0.0646012872457504,0.0,0.0,-0.9947853684425354,0.9892990589141846
-0.0346482284367084,1.1513798236846924,-0.0655074939131736,-0.2696127295494079,0.048152357339859,0.0233733225613832,0.0,0.0,-0.9637956023216248,0.9764583110809326
-0.0352093689143657,1.1449042558670044,-0.0551853105425834,-0.2877678275108337,0.0472343787550926,-0.0183596592396497,0.0,0.0,-0.9963433146476746,0.992987871170044
-0.0357108116149902,1.1380332708358765,-0.0476331003010273,-0.3053024113178253,0.0447559468448162,-0.0495689250528812,0.0,0.0,-0.9823270440101624,0.9348058700561525
-0.0361594185233116,1.1307635307312012,-0.0409196987748146,-0.3229810297489166,0.0408702231943607,-0.0777144730091095,0.0,0.0,-0.8977016806602478,0.0915460586547851
-0.0366131775081157,1.1230833530426023,-0.0414810106158256,-0.3412427306175232,0.0370241329073905,-0.0769218876957893,0.0,0.0,-0.9518623948097228,0.0867794752120971
-0.0370729453861713,1.114992380142212,-0.0421128422021865,-0.359504371881485,0.033212587237358,-0.0762308239936828,0.0,0.0,-0.9636685252189636,0.5453618764877319
-0.0375003814697265,1.1064965724945068,-0.0379298776388168,-0.3774959146976471,0.0284485351294279,-0.095281183719635,0.0,0.0,-0.9863786101341248,0.2312221527099609
-0.0379355438053607,1.0975902080535889,-0.0387074723839759,-0.3957581520080566,0.0237075444310903,-0.094819851219654,0.0,0.0,-0.9898874163627625,-0.1464250683784485
-0.0383790023624897,1.0882731676101685,-0.0395600423216819,-0.4140203595161438,0.0189832244068384,-0.0944865047931671,0.0,0.0,-0.96984201669693,0.4398014545440674
-0.0388316139578819,1.0785456895828247,-0.0404887907207012,-0.4322824776172638,0.0142687335610389,-0.0942898467183113,0.0,0.0,-0.8503745198249817,-0.647377610206604
-0.0393536575138568,1.068403244018555,-0.0489391833543777,-0.4507436454296112,0.0110486065968871,-0.06440269947052,0.0,0.0,-0.9760435819625854,-0.0660830736160278
-0.0398865714669227,1.0578502416610718,-0.0500232502818107,-0.4690048098564148,0.0078233545646071,-0.0645050257444381,0.0,0.0,-0.8802679181098938,-0.4274215698242187
-0.0404312126338481,1.0468864440917969,-0.0511860959231853,-0.4872659742832184,0.0045848875306546,-0.0647692754864692,0.0,0.0,-0.9942329525947572,0.597578763961792
-0.0409353263676166,1.0355186462402344,-0.0457600578665733,-0.505233108997345,-1.1209741387574468e-05,-0.0919217020273208,0.0,0.0,-0.9951732754707336,-0.1415570974349975
-0.0414530746638774,1.02374005317688,-0.0470819175243377,-0.5234951376914978,-0.0046378904953598,-0.0925337821245193,0.0,0.0,-0.9932684898376464,-0.8062408566474915
-0.0420435890555381,1.0115444660186768,-0.0558105781674385,-0.5420455932617188,-0.0078376103192567,-0.0639944151043891,0.0,0.0,-0.987852931022644,-0.9355466365814208
-0.0427356734871864,0.9989437460899352,-0.06812534481287,-0.5600342154502869,-0.0089166378602385,-0.0215804688632488,0.0,0.0,-0.992062211036682,0.8395264148712158
-0.0433640480041503,0.9859291315078736,-0.0596423931419849,-0.5784486532211304,-0.0120671764016151,-0.0630107969045639,0.0,0.0,-0.8126447796821594,-0.5333898067474365
-0.0440501198172569,0.972505509853363,-0.0663711279630661,-0.5966337323188782,-0.0142683992162346,-0.0440246537327766,0.0,0.0,-0.8863179683685303,-0.0620610117912292
-0.0447541251778602,0.958670735359192,-0.068090982735157,-0.6148945093154907,-0.0165501683950424,-0.0456356853246688,0.0,0.0,-0.3030314445495605,-0.5389072299003601
-0.0455285087227821,0.944426953792572,-0.0763388350605964,-0.6330705881118774,-0.0176314748823642,-0.0216261912137269,0.0,0.0,-0.960345983505249,0.1570930480957031
-0.0463226325809955,0.9297723770141602,-0.0782145410776138,-0.6513310670852661,-0.0188155621290206,-0.0236818231642246,0.0,0.0,-0.3474314212799072,-0.0555762648582458
-0.0471374504268169,0.914706826210022,-0.0801668241620063,-0.6695916652679443,-0.0201139561831951,-0.0259678810834884,0.0,0.0,-0.779305100440979,0.0003107786178588
-0.0479738228023052,0.8992305397987366,-0.0821946114301681,-0.6878523230552673,-0.0215384326875209,-0.0284892208874225,0.0,0.0,-0.8664143681526184,-0.9016966223716736
-0.0489151962101459,0.8833422660827637,-0.0946522206068039,-0.706139326095581,-0.0210277792066335,0.010212886147201,0.0,0.0,-0.9231675863265992,0.5800933837890625
-0.0498408302664756,0.8670444488525391,-0.0919429808855056,-0.7243606448173523,-0.0216449704021215,-0.0123437838628888,0.0,0.0,-0.2422645688056945,-0.4884327054023742
-0.0507905967533588,0.8503356575965881,-0.0941894724965095,-0.7426212430000305,-0.0224247258156538,-0.0155951976776123,0.0,0.0,-0.730704665184021,0.4569480419158935
-0.051765251904726,0.8332163095474243,-0.0965058654546737,-0.7608818411827087,-0.0233795549720525,-0.0190962739288806,0.0,0.0,0.1167221069335937,-0.8911953568458557
-0.0527688972651958,0.8162717223167419,-0.1010111570358276,-0.7530804872512817,-0.0227361638098955,0.0128676099702715,0.0,0.0,-0.2591888904571533,-0.2196235656738281
-0.0537990555167198,0.7989165186882019,-0.1034623235464096,-0.7713411450386047,-0.0222931280732154,0.0088606365025043,0.0,0.0,0.4897037744522095,0.1952390670776367
-0.054788589477539,0.7815878391265869,-0.0994809940457344,-0.7701531052589417,-0.0217795725911855,0.0102711534127593,0.0,0.0,0.3381285667419433,0.3764660358428955
-0.055825900286436,0.7642616629600525,-0.1038989871740341,-0.7700549364089966,-0.021610289812088,0.0033856853842735,0.0,0.0,0.0806646347045898,-0.1161298751831054
-0.0568862929940223,0.747302770614624,-0.1059373468160629,-0.7537276744842529,-0.0217050090432167,-0.0018942445749416,0.0,0.0,0.2923065423965454,-0.3569504022598266
-0.0578996650874614,0.7308880686759949,-0.1012828797101974,-0.7295446991920471,-0.0217615775763988,-0.0011313329450786,0.0,0.0,-0.5189690589904785,0.4052211046218872
-0.0589432716369628,0.7140625715255737,-0.1040383353829383,-0.7478053569793701,-0.0220823120325803,-0.0064145633950829,0.0,0.0,-0.2122460603713989,-0.3639156818389892
-0.0600177757441997,0.696826159954071,-0.1068486794829368,-0.7660661339759827,-0.0226798579096794,-0.0119505850598216,0.0,0.0,0.6868513822555542,0.086158275604248
-0.0610643401741981,0.6803881525993347,-0.1039539352059364,-0.7305929660797119,-0.0233762096613645,-0.0139270620420575,0.0,0.0,-0.3274200558662414,0.0637152194976806
-0.0621431358158588,0.6635391712188721,-0.1068679317831993,-0.748853862285614,-0.0243743117898702,-0.0199621878564357,0.0,0.0,0.1400705575942993,0.201501727104187
-0.0632811561226844,0.6469824314117432,-0.1122936457395553,-0.7358832955360413,-0.0258614383637905,-0.0297426097095012,0.0,0.0,0.1335620880126953,0.7612626552581787
-0.0643892288208007,0.6307364106178284,-0.10742948949337,-0.7221112847328186,-0.0291963331401348,-0.066697783768177,0.0,0.0,-0.6836088299751282,0.4684088230133056
-0.0655312538146972,0.6140796542167664,-0.1104836016893386,-0.7403733134269714,-0.0328692235052585,-0.0734579712152481,0.0,0.0,0.2510051727294922,0.467779278755188
-0.0666812881827354,0.5974001288414001,-0.1110179424285888,-0.741402804851532,-0.036808792501688,-0.0787914544343948,0.0,0.0,0.6188623905181885,0.3053662776947021
-0.0677610412240028,0.5808965563774109,-0.1040440797805786,-0.7335935235023499,-0.0406890287995338,-0.0776048004627227,0.0,0.0,0.8394155502319336,0.2526634931564331
-0.06868676841259,0.5649253726005554,-0.089031770825386,-0.7099295258522034,-0.0441839024424552,-0.0698975250124931,0.0,0.0,0.9369125366210938,0.2128381729125976
-0.0694646835327148,0.5492257475852966,-0.0746386647224426,-0.6978561878204346,-0.0473060868680477,-0.0624435767531394,0.0,0.0,0.2202110290527343,0.7613556385040283
-0.0701972991228103,0.5339487195014954,-0.0681611150503158,-0.6791470646858215,-0.0523413196206092,-0.1007046326994896,0.0,0.0,0.4688155651092529,0.2650374174118042
-0.0709038749337196,0.5192695260047913,-0.0652930662035942,-0.6526055932044983,-0.0576536878943443,-0.1062472835183143,0.0,0.0,-0.5565838813781738,-0.1732955574989318
-0.0716478377580642,0.5041801929473877,-0.0686049982905387,-0.6708702445030212,-0.063380479812622,-0.1145359128713607,0.0,0.0,0.0871399641036987,-0.8705160021781921
-0.072407342493534,0.4889922440052032,-0.0714924782514572,-0.675213634967804,-0.0677839517593383,-0.0880695730447769,0.0,0.0,0.2042970657348632,-0.047335922718048
-0.0732178688049316,0.4739535748958587,-0.0759883075952529,-0.6686232686042786,-0.0727982893586158,-0.1002868190407753,0.0,0.0,0.6231274604797363,-0.702279269695282
-0.0739694610238075,0.4597772657871246,-0.0712473690509796,-0.6302507519721985,-0.0766667425632476,-0.0773692727088928,0.0,0.0,-0.5622397065162659,-0.5394114255905151
-0.0748040229082107,0.4451957941055298,-0.0802144110202789,-0.6482393741607666,-0.0798710584640502,-0.0640863329172134,0.0,0.0,0.6396526098251343,0.2097642421722412
-0.0757376700639724,0.4313992261886596,-0.0890877842903137,-0.6134123206138611,-0.0841068625450134,-0.0847160369157791,0.0,0.0,0.4407447576522827,-0.2973059415817261
-0.0765838623046875,0.418092668056488,-0.0802267044782638,-0.5916555523872375,-0.0884598940610885,-0.0870604664087295,0.0,0.0,0.3837864398956299,-0.5328534245491028
-0.0775042548775672,0.4053308665752411,-0.0881283804774284,-0.56742924451828,-0.0923391655087471,-0.0775854066014289,0.0,0.0,0.0381771326065063,0.6032699346542358
-0.0784316062927246,0.3928675949573517,-0.0870495811104774,-0.5542809367179871,-0.0979783460497856,-0.1127836927771568,0.0,0.0,-0.1014646291732788,-0.6543957591056824
-0.0794528946280479,0.380000352859497,-0.0973139554262161,-0.5722029209136963,-0.1027507707476615,-0.0954485386610031,0.0,0.0,-0.6985623240470886,-0.7110214829444885
-0.0805811882019043,0.3667341470718384,-0.1092238575220108,-0.5898615717887878,-0.1063282638788223,-0.0715501382946968,0.0,0.0,0.8534140586853027,0.708370566368103
-0.0818137153983116,0.3539531826972961,-0.1172940880060195,-0.5684833526611328,-0.1122514680027961,-0.1184638887643814,0.0,0.0,-0.7126104235649109,0.8369729518890381
-0.0830092430114746,0.3407545685768127,-0.1111017689108848,-0.5872625708580017,-0.1206469237804412,-0.1679091602563858,0.0,0.0,-0.0552104711532592,-0.3136767148971557
-0.0842454880475997,0.3271468877792358,-0.1146694868803024,-0.6055338978767395,-0.1295588910579681,-0.1782395392656326,0.0,0.0,-0.66301029920578,-0.6238174438476562
-0.0855594649910926,0.313142329454422,-0.1228682249784469,-0.6231877207756042,-0.138044998049736,-0.1697220653295517,0.0,0.0,0.4457600116729736,-0.8851590752601624
-0.0869119614362716,0.2997640371322632,-0.1279662996530532,-0.5952821373939514,-0.1453115046024322,-0.1453301012516021,0.0,0.0,-0.2459331750869751,-0.7720685005187988
-0.0883508697152137,0.2859955132007599,-0.1372600495815277,-0.6125943064689636,-0.1519280225038528,-0.1323304027318954,0.0,0.0,0.7669477462768555,-0.2129645347595214
-0.0896565467119216,0.2727183699607849,-0.1237847656011581,-0.5907997488975525,-0.158704474568367,-0.1355290114879608,0.0,0.0,0.8440291881561279,-0.8815145492553711
-0.0909361839294433,0.2604091763496399,-0.1223919764161109,-0.5476794838905334,-0.1642694622278213,-0.1112993210554122,0.0,0.0,-0.1248508095741272,-0.2332954406738281
-0.0922571197152137,0.2476908564567566,-0.1259938329458236,-0.5659496784210205,-0.1703805029392242,-0.1222209706902504,0.0,0.0,0.9065861701965332,-0.7484742999076843
-0.0934890732169151,0.2353310883045196,-0.1182767301797866,-0.5498964786529541,-0.1753147691488266,-0.0986849814653396,0.0,0.0,0.9098827838897704,-0.0124948024749755
-0.0947771072387695,0.2236548960208892,-0.1226803660392761,-0.5196791291236877,-0.1814568042755127,-0.1228405833244323,0.0,0.0,0.5632905960083008,-0.865924596786499
-0.0962202101945877,0.2123412638902664,-0.1391653567552566,-0.5034637451171875,-0.1866123676300048,-0.1031113639473915,0.0,0.0,0.3786901235580444,0.6762112379074097
-0.0975844413042068,0.2013023644685745,-0.1293575018644333,-0.4915242195129394,-0.1937200427055359,-0.1421538293361663,0.0,0.0,0.9604556560516356,0.4400931596755981
-0.0988380461931228,0.1907776743173599,-0.1178804486989975,-0.4687642753124237,-0.2012483924627304,-0.1505670845508575,0.0,0.0,0.8406789302825928,-0.7594839334487915
-0.0999573692679405,0.1803966611623764,-0.1057490706443786,-0.4622319042682647,-0.2074792981147766,-0.1246179714798927,0.0,0.0,0.9021191596984864,-0.7547745108604431
-0.1008944511413574,0.1707463562488556,-0.088744506239891,-0.429608404636383,-0.2124849259853363,-0.1001129373908042,0.0,0.0,0.8441505432128906,-0.9777002930641174
-0.1017264351248741,0.162030890583992,-0.0796819180250167,-0.3878639638423919,-0.2160395681858062,-0.0710927248001098,0.0,0.0,0.428831934928894,-0.9388036131858826
