x_pos,y_pos,x_vel,y_vel,angle,ang_vel,leg_1,leg_2,main_booster,lat_booster
-0.0015037537086755,1.4034796953201294,-0.1524012833833694,-0.3306821882724762,0.0018212888389825,0.0359308943152427,0.0,0.0,0.1507443189620971,0.7390315532684326
-0.002887439681217,1.3963963985443115,-0.1387942135334015,-0.3148134052753448,0.0022380461450666,0.0083364006131887,0.0,0.0,-0.3731974959373474,0.2901420593261719
-0.0042483331635594,1.3891676664352417,-0.1365578770637512,-0.3212722539901733,0.0027009285986423,0.0092585114762187,0.0,0.0,-0.1491080522537231,0.2902390956878662
-0.0055850981734693,1.3817942142486572,-0.1341785490512848,-0.3277060687541961,0.0032021289225667,0.0100249033421278,0.0,0.0,-0.5273330211639404,0.5660660266876221
-0.0068422318436205,1.37427818775177,-0.1248773112893104,,0.0023751072585582,-0.01654171384871,0.0,0.0,0.0282299518585205,0.6113591194152832
-0.0079287532716989,1.3671241998672483,-0.1067496314644813,-0.3179570436477661,0.0004959689103998,-0.0375865809619426,0.0,0.0,-0.6312519907951355,0.0634764432907104
-0.0089869499206542,1.3598253726959229,-0.1039299145340919,-0.3243931829929352,-0.0013662372948601,-0.0372475981712341,0.0,0.0,-0.510036289691925,0.2392356395721435
-0.0100153926759958,1.3523818254470823,-0.1009658128023147,-0.3308237791061401,-0.003218667814508,-0.0370522104203701,0.0,0.0,-0.4519770741462707,-0.0111491680145263
-0.0110126491636037,1.344793677330017,-0.0978575199842453,-0.3372550308704376,-0.0050679189153015,-0.0369886010885238,0.0,0.0,-0.0389553308486938,0.35019052028656
-0.0119774816557765,1.3370609283447266,-0.0946059972047805,-0.3436870276927948,-0.0069205234758555,-0.0370552912354469,0.0,0.0,-0.8681572675704956,0.4474818706512451
-0.0129084587097167,1.3291834592819214,-0.0912120938301086,-0.3501190841197967,-0.0087827406823635,-0.0372476615011692,0.0,0.0,-0.6628704071044922,0.0927447080612182
-0.0138042448088526,1.3211612701416016,-0.0876770988106727,-0.3565511703491211,-0.0106606017798185,-0.037560798227787,0.0,0.0,-0.9199622273445128,-0.4527734518051147
-0.0146635053679347,1.3129944801330566,-0.0840025693178176,-0.3629833161830902,-0.0125599084421992,-0.0379895232617855,0.0,0.0,-0.9130217432975768,0.261640191078186
-0.015485000796616,1.3046830892562866,-0.080190323293209,-0.3694154918193817,-0.0144861349835991,-0.0385284051299095,0.0,0.0,-0.8175395727157593,0.0896970033645629
-0.0162672996520996,1.296226978302002,-0.076242409646511,-0.3758477568626404,-0.0164445471018552,-0.0391719527542591,0.0,0.0,-0.9357210993766784,0.582378625869751
-0.0169548038393259,1.2876181602478027,-0.0653556510806083,-0.3826589286327362,-0.0198060348629951,-0.0672359988093376,0.0,0.0,-0.679795503616333,0.6679363250732422
-0.0175356864929199,1.2788705825805664,-0.0530040673911571,-0.3888534903526306,-0.0248365625739097,-0.1006194576621055,0.0,0.0,-0.922590672969818,-0.098543643951416
-0.018073558807373,1.2699787616729736,-0.0486548952758312,-0.3952878713607788,-0.0299122221767902,-0.1015222519636154,0.0,0.0,-0.8225136995315552,-0.8358283638954163
-0.0186223033815622,1.2609528303146362,-0.0511092320084571,-0.4012334644794464,-0.0336445868015289,-0.074653759598732,0.0,0.0,-0.9628162980079652,-0.406247615814209
-0.0191257484257221,1.2517821788787842,-0.0465170517563819,-0.4076672792434692,-0.0374308861792087,-0.0757326036691665,0.0,0.0,-0.9165782332420348,-0.261410117149353
-0.0195826534181833,1.2424672842025757,-0.0418053790926933,-0.4141009449958801,-0.0412735380232334,-0.0768599882721901,0.0,0.0,-0.878671407699585,-0.4231313467025757
-0.0199917796999216,0.0,-0.036977969110012,-0.4205346405506134,-0.0451757833361625,-0.0780516415834426,0.0,0.0,-0.8385676145553589,-0.4299060106277466
-0.0203521735966205,1.223404049873352,-0.0320381857454776,-0.426968514919281,-0.0491402149200439,-0.0792955309152603,0.0,0.0,-0.930869162082672,-0.7433590888977051
-0.0207150466740131,1.213651180267334,-0.0335296280682086,-0.4335559606552124,-0.0518634766340255,-0.0544697418808937,0.0,0.0,-0.6717268824577332,-0.9142442941665648
-0.0211161617189645,1.203763127326965,-0.0395712479948997,-0.4394895434379577,-0.0524052195250988,-0.0108357639983296,0.0,0.0,-0.8666133284568787,-0.4070602655410766
-0.0214663501828908,1.193708896636963,-0.0344001464545726,-0.4468746781349182,-0.0530154556035995,-0.0122048202902078,0.0,0.0,-0.6166265606880188,-0.688163161277771
-0.0218176841735839,1.183518648147583,-0.035823218524456,-0.4528745710849762,-0.0523332729935646,0.0136438710615038,0.0,0.0,-0.8940542936325073,-0.5475406646728516
-0.0221677776426076,1.1731938123703003,-0.0369750000536441,-0.4588218927383423,-0.0503934547305107,0.0387963950634002,0.0,0.0,-0.8554079532623291,-0.4475098848342895
-0.022463321685791,1.1627241373062134,-0.0314488112926483,-0.465252548456192,-0.0485230013728141,0.0374089106917381,0.0,0.0,-0.8152357339859009,-0.752231776714325
-0.0227651596069335,1.1521116495132446,-0.0335657820105552,-0.471559077501297,-0.045173030346632,0.0669992491602897,0.0,0.0,-0.9519409537315368,0.1239789724349975
-0.0230106357485055,1.14135479927063,-0.0278702937066555,-0.4779903292655945,-0.0418911390006542,0.0656379237771034,0.0,0.0,-0.9129332900047302,0.554785966873169
-0.0231609344482421,1.130447506904602,-0.0173116140067577,-0.4846991598606109,-0.0396376959979534,0.0450688414275646,0.0,0.0,-0.954062044620514,-0.0902242660522461
-0.0232533458620309,1.1193958520889282,-0.011461560614407,-0.4911298453807831,-0.0374493896961212,0.0437658950686454,0.0,0.0,-0.4608228802680969,-0.260431706905365
-0.023287296295166,1.1081995964050293,-0.0055397297255694,-0.4975605010986328,-0.0353241823613643,0.0425041057169437,0.0,0.0,-0.9325085282325744,0.0188790559768676
-0.023261833935976,1.0968587398529053,0.0004502700758166,-0.5039910674095154,-0.033259592950344,0.0412916056811809,0.0,0.0,-0.9138554334640504,0.1929585933685302
-0.0231764800846576,1.0853734016418457,0.0065048760734498,-0.510421633720398,-0.0312527790665626,0.040136344730854,0.0,0.0,-0.9766855835914612,-0.2253817319869995
-0.0230305679142475,1.073743224143982,0.0126205738633871,-0.5168522000312805,-0.0293004605919122,0.0390462502837181,0.0,0.0,-0.8154089450836182,0.0110762119293212
-0.0228233337402343,1.0619686841964722,0.0187939032912254,-0.5232826471328735,-0.027399007230997,0.0380292311310768,0.0,0.0,-0.9776750802993774,0.2059715986251831
-0.0225543025881052,1.0500491857528689,0.0250214580446481,-0.5297130942344666,-0.0255443509668111,0.037093199789524,0.0,0.0,-0.8569554686546326,0.2020967006683349
-0.0222229957580566,1.0379854440689087,0.0312998816370964,-0.5361435413360596,-0.02373200468719,0.0362467765808105,0.0,0.0,-0.9709737300872804,0.5307188034057617
-0.021794032305479,1.0257799625396729,0.0419673323631286,-0.5424438118934631,-0.0228252317756414,0.0181354414671659,0.0,0.0,-0.9102818965911864,-0.1222879886627197
-0.0213018413633108,1.013430118560791,0.0483376830816268,-0.5488739013671875,-0.0219508148729801,0.0174885969609022,0.0,0.0,-0.9411436915397644,-0.1483323574066162
-0.0207457542419433,1.000935435295105,0.0547491908073425,-0.5553041100502014,-0.0211031604558229,0.0169532001018524,0.0,0.0,-0.9578511118888856,-0.0125731825828552
-0.020125389099121,0.9882963299751282,0.0611987300217151,-0.5617342591285706,-0.0202763266861438,0.016536671668291,0.0,0.0,-0.9713459610939026,0.049086570739746
-0.0194402690976858,0.9755122661590576,0.0676832124590873,-0.5681644678115845,-0.0194640178233385,0.0162461809813976,0.0,0.0,-0.940129280090332,-0.1321768760681152
-0.0186902042478323,0.962583601474762,0.0741996243596077,-0.5745945572853088,-0.0186595767736434,0.0160886459052562,0.0,0.0,-0.9682682156562804,-0.605588436126709
-0.0179177280515432,0.9495083093643188,0.0753379166126251,-0.5811048150062561,-0.0167739484459161,0.0377126559615135,0.0,0.0,-0.9806658625602722,-0.3584921360015869
-0.0170794483274221,0.9362882375717164,0.0819092318415641,-0.5875350832939148,-0.0148818911984562,0.0378413274884223,0.0,0.0,-0.9640926122665404,-0.6395264267921448
-0.0162367820739746,0.9229308366775512,0.0807611495256424,-0.5936376452445984,-0.011423522606492,0.0691672712564468,0.0,0.0,-0.9752103090286256,0.5601255893707275
-0.0152850151062011,0.9094263911247252,0.0927406102418899,-0.6001812815666199,-0.0090179620310664,0.0481111742556095,0.0,0.0,-0.9852896928787231,-0.2828348278999328
-0.0142665859311819,0.8957772850990295,0.0993725210428237,-0.6066116690635681,-0.0065821502357721,0.0487162247300148,0.0,0.0,-0.9774414896965028,-0.5680572390556335
-0.0132306097075343,0.881987988948822,0.0998411327600479,-0.6128467321395874,-0.002869906835258,0.074244700372219,0.0,0.0,-0.9734880328178406,0.2403104305267334
-0.0121274944394826,0.8680542707443237,0.1064992100000381,-0.6192779541015625,0.0008898767991922,0.0751955956220626,0.0,0.0,-0.9777272939682008,-0.4001767039299011
-0.0109572410583496,0.8539758920669556,0.1131661087274551,-0.6257092356681824,0.004706225823611,0.0763269588351249,0.0,0.0,-0.978768229484558,-0.7048608660697937
-0.0097615243867039,0.8397502899169922,0.1145729571580886,-0.6322750449180603,0.0096432389691472,0.0987401828169822,0.0,0.0,-0.9926703572273254,-0.0485637187957763
-0.008498191833496,0.825380265712738,0.121249035000801,-0.6387072205543518,0.0146555295214056,0.1002458781003952,0.0,0.0,-0.899055540561676,-0.5879027843475342
-0.0072066308930516,0.8108707070350647,0.1229947954416275,-0.6449472904205322,0.0207390170544385,0.1216699331998825,0.0,0.0,-0.9831320643424988,-0.1933862566947937
-0.005847358610481,0.7962168455123901,0.1296686232089996,-0.6513806581497192,0.0269172843545675,0.1235653981566429,0.0,0.0,-0.9782313108444214,0.1459871530532837
-0.0044203759171068,0.7814189195632935,0.1363369673490524,-0.6578141450881958,0.0332003161311149,0.1256606727838516,0.0,0.0,-0.9645503163337708,0.0407801866531372
-0.0029256821144372,0.7664769291877747,0.1429968774318695,-0.6642477512359619,0.0395982302725315,0.1279584169387817,0.0,0.0,-0.9704992771148682,-0.3924819231033325
-0.0013631820911541,0.7513908743858337,0.1496452689170837,-0.6706816554069519,0.0461212880909442,0.1304609328508377,0.0,0.0,-0.9791990518569946,-0.4824877977371216
0.0002669334353413,0.7361608147621155,0.156279057264328,-0.6771157383918762,0.0527797862887382,0.1331700533628463,0.0,0.0,-0.9864774346351624,-0.8614320158958435
0.0019106864929199,0.7207803726196289,0.1561130136251449,-0.6838858723640442,0.0609471537172794,0.1633476763963699,0.0,0.0,-0.9761613607406616,-0.324227511882782
0.003621959593147,0.7052563428878784,0.16270811855793,-0.6903224587440491,0.0692708492279052,0.1664737164974212,0.0,0.0,-0.956735372543335,-0.7898852825164795
0.0053392411209642,0.6895768046379089,0.1615828424692154,-0.6973757147789001,0.079315036535263,0.200883463025093,0.0,0.0,-0.794226348400116,0.8293287754058838
0.0071756364777684,0.6737604737281799,0.1746454387903213,-0.7034489512443542,0.0882239714264869,0.1781787574291229,0.0,0.0,-0.8467968106269836,0.6064977645874023
0.0091279987245798,0.6578142642974854,0.1873287558555603,-0.7092074155807495,0.0960667729377746,0.1568562686443328,0.0,0.0,-0.9208561778068542,0.512728214263916
0.0111934663727879,0.6417247653007507,0.199602335691452,-0.7155452370643616,0.1029485836625099,0.1376360058784485,0.0,0.0,-0.9516700506210328,-0.2932196855545044
0.0133253093808889,0.6254915595054626,0.2060387134552002,-0.7219809889793396,0.1100390404462814,0.1418092846870422,0.0,0.0,-0.9233858585357666,-0.123952031135559
0.0155231477692723,0.6091148853302002,0.212431713938713,-0.7284172177314758,0.1173485219478607,0.1461894810199737,0.0,0.0,-0.8814458847045898,-0.3776938915252685
0.0177866928279399,0.5925944447517395,0.2187770158052444,-0.734853982925415,0.1248872727155685,0.150774747133255,0.0,0.0,-0.6158658266067505,-0.7192556858062744
0.0200618747621774,0.5759220123291016,0.2183343172073364,-0.7417945265769958,0.1340275406837463,0.1828052699565887,0.0,0.0,-0.4884901046752929,0.8491041660308838
0.0224532131105661,0.5591261982917786,0.2310561835765838,-0.7472251057624817,0.1420790553092956,0.1610301584005355,0.0,0.0,-0.2276650667190551,0.6180465221405029
0.024963092058897,0.5421987175941467,0.244047999382019,-0.7530134916305542,0.1490036398172378,0.1384910941123962,0.0,0.0,-0.1549731492996215,-0.2605077028274536
0.027536679059267,0.5251275897026062,0.2501549124717712,-0.7594508528709412,0.1561973094940185,0.1438737660646438,0.0,0.0,-0.0721006989479065,-0.3703675270080566
0.0301733016967773,0.5079131722450256,0.2561891973018646,-0.7658888101577759,0.1636697351932525,0.1494484692811966,0.0,0.0,-0.1070163249969482,-0.5146409273147583
0.0328307151794433,0.4905399978160858,0.2568931877613067,-0.7731368541717529,0.1725179404020309,0.1769642531871795,0.0,0.0,0.638170599937439,0.5245151519775391
0.0354460701346397,0.4741990566253662,0.2534941136837005,-0.7272180318832397,0.1805856972932815,0.1613553464412689,0.0,0.0,0.0463272333145141,0.7136141061782837
0.0381412506103515,0.4585151970386505,0.2625643014907837,-0.697923481464386,0.1875684410333633,0.1396548897027969,0.0,0.0,-0.5306092500686646,-0.580161452293396
0.0408422462642192,0.4426787197589874,0.2614588141441345,-0.7049576044082642,0.1962439119815826,0.1735097467899322,0.0,0.0,0.3773705959320068,0.4215197563171386
0.0434423461556434,0.427074134349823,0.2515690624713897,-0.6946794986724854,0.2047445029020309,0.1700121909379959,0.0,0.0,0.8190613985061646,0.810188889503479
0.0460326187312603,0.4126463532447815,0.2517960667610168,-0.6422557234764099,0.2120400369167328,0.145910695195198,0.0,0.0,-0.0652815103530883,0.4201037883758545
0.0486796386539936,0.398075520992279,0.257140576839447,-0.6486961245536804,0.2196765094995498,0.1527293622493744,0.0,0.0,0.6332149505615234,-0.5876303315162659
0.0511334426701068,0.3843109905719757,0.2364658862352371,-0.6131084561347961,0.2287002652883529,0.1804749518632888,0.0,0.0,-0.0558544993400573,0.8871958255767822
0.0537075027823448,0.3704315423965454,0.2498902082443237,-0.6180503368377686,0.2363245189189911,0.1524853408336639,0.0,0.0,-0.1378175020217895,0.4218935966491699
0.0563343986868858,0.3564093112945556,0.2548229098320007,-0.6244922280311584,0.2443134039640426,0.1597776114940643,0.0,0.0,0.7967348098754883,-0.2537818551063537
0.0589475631713867,0.3427956104278564,0.2529806792736053,-0.6064580082893372,0.2527936100959778,0.1696042120456695,0.0,0.0,0.2165721654891967,0.7382974624633789
0.0616682991385459,0.3295156061649322,0.2647668719291687,-0.5914996266365051,0.2602515518665313,0.1491589248180389,0.0,0.0,0.7227771282196045,-0.0208894610404968
0.064432144165039,0.3170153796672821,0.268013060092926,-0.5570728182792664,0.268805593252182,0.1710810363292694,0.0,0.0,0.457330584526062,-0.4237695336341858
0.0672681778669357,0.3049249649047851,0.2743257582187652,-0.5390825271606445,0.278321772813797,0.1903236210346222,0.0,0.0,0.3494929075241089,-0.4405965805053711
0.0699754729866981,0.2935757935047149,0.2610995769500732,-0.5062740445137024,0.2882165312767029,0.1978951394557953,0.0,0.0,0.5711846351623535,0.1350734233856201
0.072548009455204,0.283134788274765,0.2471348792314529,-0.4660812318325043,0.2986539304256439,0.2087482213973999,0.0,0.0,0.6822372674942017,0.6015019416809082
0.075136087834835,0.2736091613769531,0.2491837292909622,-0.4253711104393005,0.3086118698120117,0.1991587579250335,0.0,0.0,0.4623775482177734,-0.0430676341056823
0.0777592658996582,0.2643955051898956,0.2519168257713318,-0.4117437303066253,0.3194017708301544,0.2157972157001495,0.0,0.0,0.4193050861358642,-0.1508747339248657
0.0802374854683876,0.2556422054767608,0.2372587025165558,-0.3914048075675964,0.3304077684879303,0.2201196849346161,0.0,0.0,0.822197437286377,0.0119392871856689
0.0825281143188476,0.2481433898210525,0.2177165001630783,-0.3359229862689972,0.3422762453556061,0.2373694628477096,0.0,0.0,0.6450937986373901,-0.2961912155151367
0.0846367850899696,0.2412927448749542,0.1992627680301666,-0.3072820603847503,0.3544735908508301,0.2439469844102859,0.0,0.0,0.6560654640197754,-0.1202154159545898
0.0863792449235916,0.2353581339120865,0.1628152430057525,-0.2666321992874145,0.3665356338024139,0.241239994764328,0.0,0.0,0.8606785535812378,0.3476232290267944
0.0879562348127365,0.230436161160469,0.1454681456089019,-0.2219388484954834,0.3794979453086853,0.2592463791370392,0.0,0.0,0.7066993713378906,0.5685241222381592
0.089253045618534,0.2264491915702819,0.1183459013700485,-0.1802620142698288,0.3915837705135345,0.2417164146900177,0.0,0.0,0.7426445484161377,0.1258485317230224
0.090186595916748,0.2233667969703674,0.0820170193910598,-0.1401648372411728,0.403722733259201,0.2427792102098465,0.0,0.0,0.3230016231536865,0.5621697902679443
0.0910002738237381,0.2207054048776626,0.0707722604274749,-0.1213446706533432,0.4151179492473602,0.2279043942689895,0.0,0.0,-0.4716407656669616,0.6023638248443604
0.0918610543012619,0.2179269194602966,0.0760456547141075,-0.1264778077602386,0.4259709417819977,0.2170598804950714,0.0,0.0,0.1417241096496582,0.4622820615768432
0.0924869552254676,0.2154376804828643,0.0526121333241462,-0.1136898845434188,0.4368131160736084,0.2168441116809845,0.0,0.0,-0.4490014910697937,0.1247278451919555
0.0931189507246017,0.2128079682588577,0.0528298020362854,-0.1201457232236862,0.4481296241283417,0.2263300120830536,0.0,0.0,-0.567595362663269,0.8465007543563843
0.0938216224312782,0.2100784927606582,0.0612846724689006,-0.1242208108305931,0.4579877257347107,0.1971628963947296,0.0,0.0,-0.490308403968811,0.901336431503296
0.0946001037955284,0.2072723954916,0.0706003308296203,-0.1271185278892517,0.4659784138202667,0.1598135530948639,0.0,0.0,-0.5805176496505737,0.1746531724929809
0.0953748673200607,0.204325333237648,0.0698068663477897,-0.1335716396570205,0.4744543135166168,0.1695180982351303,0.0,0.0,-0.3258874416351318,0.9005224704742432
0.096216395497322,0.2013060897588729,0.0782116502523422,-0.1362383663654327,0.4810657799243927,0.1322293579578399,0.0,0.0,-0.5864608287811279,0.7776491641998291
0.0971082672476768,0.1981932967901229,0.0844630450010299,-0.1400002539157867,0.4863274395465851,0.1052334308624267,0.0,0.0,-0.5644235610961914,0.8859597444534302
0.0980439186096191,0.1949947476387024,0.0900777727365493,-0.1433901935815811,0.490228533744812,0.0780221000313758,0.0,0.0,-0.6212881803512573,0.811004638671875
0.0990218147635459,0.1917103677988052,0.0955493673682212,-0.1467740386724472,0.4927360713481903,0.0501509495079517,0.0,0.0,-0.6638733744621277,0.6695438623428345
0.1000328063964843,0.1883236318826675,0.0998414605855941,-0.1509745121002197,0.4941484928131103,0.0282484199851751,0.0,0.0,-0.4443480968475342,0.824007511138916
0.1010651588439941,0.1848330348730087,0.1027627140283584,-0.1553045958280563,0.4946760237216949,0.0105506405234336,0.0,0.0,-0.5090871453285217,0.6431710720062256
0.102106288075447,0.1812277138233184,0.1041500195860862,-0.1602279990911483,0.4946422278881073,-0.0006760423420928,0.0,0.0,-0.3945236206054687,0.8137074708938599
0.1031721085309982,0.1775241196155548,0.1076335683465004,-0.1642270684242248,0.4934597909450531,-0.0236490033566951,0.0,0.0,-0.6864625215530396,0.7778267860412598
0.1042617782950401,0.1737227588891983,0.1110922545194625,-0.1681855618953704,0.4910753667354584,-0.0476882942020893,0.0,0.0,-0.124755322933197,0.7555286884307861
0.1053816825151443,0.1698248237371444,0.1153941750526428,-0.1720324605703354,0.4872715771198272,-0.0760760307312011,0.0,0.0,-0.3964020013809204,0.7098500728607178
0.106519415974617,0.1658336967229843,0.1182945743203163,-0.1757990419864654,0.4822345077991485,-0.1007418259978294,0.0,0.0,-0.2148147225379943,0.7618454694747925
0.1076691597700119,0.1617509424686432,0.1205514818429946,-0.1795224100351333,0.476025640964508,-0.1241770759224891,0.0,0.0,-0.4166451692581177,0.5448741912841797
0.1088193878531456,0.1575541049242019,0.121301844716072,-0.1843844056129455,0.4690681397914886,-0.1391499191522598,0.0,0.0,0.0045959949493408,0.5164096355438232
0.1098491698503494,0.1537915766239166,0.1097107753157615,-0.16496641933918,0.4616333544254303,-0.1486964523792266,0.0,0.0,-0.058922529220581,0.1447662115097046
