x_pos,y_pos,x_vel,y_vel,angle,ang_vel,leg_1,leg_2,main_booster,lat_booster
-0.0015907287597656,1.4035028219223022,-0.1609511077404022,-0.3296615183353424,0.0016775934491306,0.0330861024558544,0.0,0.0,-0.5092057585716248,0.6868510246276855
-0.0031912804115563,1.3959836959838867,-0.1600904166698455,-0.334185391664505,0.0017136639216914,0.0007220697589218,0.0,0.0,-0.0348612666130065,0.6838721036911011
-0.0047949790023267,1.3883373737335205,-0.1586226820945739,-0.3398310244083404,-1.0153746188734658e-05,-0.0344794653356075,0.0,0.0,-0.1299121975898742,0.8856172561645508
-0.0064119338057935,1.3805664777755735,-0.1584427803754806,-0.345374196767807,-0.0032319603487849,-0.0644421577453613,0.0,0.0,-0.1225523948669433,0.4441595077514648
-0.0080986972898244,1.3726739883422852,-0.1653366088867187,-0.3507857620716095,-0.0065287631005048,-0.0659421384334564,0.0,0.0,-0.3213822841644287,-0.2876322269439697
-0.0098554613068699,1.3646600246429443,-0.1722902506589889,-0.3561974167823791,-0.0098838387057185,-0.0671075657010078,0.0,0.0,-0.320537805557251,0.1300452947616577
-0.0116827962920069,1.3565244674682615,-0.1792983710765838,-0.3616091609001159,-0.0132790682837367,-0.0679108947515487,0.0,0.0,0.0846356153488159,0.5930794477462769
-0.0134187694638967,1.348902940750122,-0.1691462695598602,-0.3387781679630279,-0.0176938585937023,-0.0883038491010665,0.0,0.0,-0.4600061178207397,0.1556112766265869
-0.0152259822934865,1.3411600589752195,-0.1762464344501495,-0.3441959321498871,-0.022111564874649,-0.0883622094988823,0.0,0.0,-0.4460254311561584,0.4954690933227539
-0.0171043388545513,1.333295464515686,-0.1833871752023697,-0.3496065735816955,-0.0265137497335672,-0.0880519747734069,0.0,0.0,-0.3371847867965698,0.0280539989471435
-0.0190541259944438,1.3253093957901,-0.1905639320611953,-0.3550190031528473,-0.0308812540024518,-0.0873581767082214,0.0,0.0,-0.4752542972564697,0.331138014793396
-0.0210754387080669,1.3172019720077517,-0.1977726221084594,-0.3604316115379333,-0.0351949892938137,-0.0862826257944107,0.0,0.0,-0.8968555331230164,0.7566602230072021
-0.0230957977473735,1.308972954750061,-0.1959052085876464,-0.3658859133720398,-0.0412601418793201,-0.1213139295578002,0.0,0.0,-0.7946321964263916,0.0726561546325683
-0.0251877792179584,1.3006227016448977,-0.203160211443901,-0.3712999522686004,-0.0472324565052986,-0.119457259774208,0.0,0.0,-0.8162331581115723,0.5738744735717773
-0.0272953025996685,1.292153239250183,-0.2034173905849456,-0.3766711354255676,-0.0544987991452217,-0.1453401148319244,0.0,0.0,-0.9248995780944824,0.8241904973983765
-0.0293981544673442,1.2835466861724854,-0.2011122405529022,-0.3828661739826202,-0.0635711103677749,-0.1814627647399902,0.0,0.0,-0.6021995544433594,0.5824102163314819
-0.0315155982971191,1.2748210430145264,-0.2013072222471237,-0.3882829248905182,-0.0739152431488037,-0.2069015502929687,0.0,0.0,-0.8912934064865112,0.4305962324142456
-0.0337042808532714,1.265974760055542,-0.208608478307724,-0.3937029540538788,-0.0840939730405807,-0.2035928070545196,0.0,0.0,-0.5897493362426758,0.8178374767303467
-0.0358889587223529,1.2570064067840576,-0.2064963579177856,-0.3993078172206878,-0.0959775894880294,-0.237693578004837,0.0,0.0,-0.6768499612808228,-0.1710209250450134
-0.0381445884704589,1.247917890548706,-0.2138005495071411,-0.40473073720932,-0.1076618358492851,-0.2337060868740081,0.0,0.0,-0.7914177775382996,0.4510544538497925
-0.040470790117979,1.2387089729309082,-0.2211043536663055,-0.4101532697677612,-0.119132399559021,-0.2294317036867141,0.0,0.0,-0.4809394478797912,0.6039913892745972
-0.0428196899592876,0.0,-0.2223672568798065,-0.4162101447582245,-0.1316036134958267,-0.2494463175535202,0.0,0.0,-0.6981356143951416,-0.3737074136734009
-0.0452386848628521,1.219906449317932,-0.2296553552150726,-0.4216343462467193,-0.1438312828540802,-0.2445750534534454,0.0,0.0,-0.8704925775527954,-0.7232449650764465
-0.0477786064147949,1.2103272676467896,-0.2432889193296432,-0.4268057644367218,-0.1545292735099792,-0.213978961110115,0.0,0.0,-0.4179708957672119,0.4037103652954101
-0.0503883361816406,0.0,-0.2505553364753723,-0.432226151227951,-0.1649593412876129,-0.2086203396320343,0.0,0.0,-0.319068431854248,-0.5911933779716492
-0.0531270988285541,1.1908022165298462,-0.2651965320110321,-0.437650978565216,-0.173637568950653,-0.1735643893480301,0.0,0.0,-0.4028216004371643,0.468921422958374
-0.0559351928532123,1.1808558702468872,-0.2724495530128479,-0.4430623650550842,-0.1820267587900161,-0.1677837669849395,0.0,0.0,0.1388593912124633,0.4438410997390747
-0.0587982162833213,1.1716517210006714,-0.2778201699256897,-0.4101372361183166,-0.1905339360237121,-0.1701436936855316,0.0,0.0,-0.6211017966270447,0.2871840000152588
-0.0617298111319541,1.162326097488403,-0.2850167155265808,-0.4155476689338684,-0.1987334191799163,-0.1639896780252456,0.0,0.0,-0.8267186880111694,0.8101249933242798
-0.0646697059273719,1.152857542037964,-0.2846066057682037,-0.4221124053001404,-0.2081899046897888,-0.189129889011383,0.0,0.0,-0.6601758599281311,0.0031148195266723
-0.0676775947213172,1.1432673931121826,-0.2917330265045166,-0.4275234639644623,-0.2173227816820144,-0.1826574355363845,0.0,0.0,-0.8806487917900085,0.2265877723693847
-0.070752814412117,1.1335557699203491,-0.2988186776638031,-0.4329336583614349,-0.2261250615119934,-0.1760453283786773,0.0,0.0,-0.7757679224014282,-0.6731994152069092
-0.0739527717232704,1.123748540878296,-0.3131758272647857,-0.4369325935840606,-0.2330429255962371,-0.1383575499057769,0.0,0.0,-0.5077153444290161,-0.3136593103408813
-0.0772192031145095,1.1138193607330322,-0.3201683461666107,-0.442339152097702,-0.2396180182695388,-0.1315018236637115,0.0,0.0,-0.5817345380783081,0.8267221450805664
-0.0804862007498741,1.103745937347412,-0.3188888430595398,-0.4490050375461578,-0.2475571632385254,-0.1587828695774078,0.0,0.0,-0.7399510145187378,0.0879962444305419
-0.0838183388113975,1.0935503244400024,-0.3257747888565063,-0.4544121623039245,-0.255143404006958,-0.1517245471477508,0.0,0.0,-0.5782243013381958,0.2952311038970947
-0.0872152298688888,1.0832325220108032,-0.332601398229599,-0.4598186314105987,-0.2623723745346069,-0.1445793956518173,0.0,0.0,-0.5196143984794617,0.1274502277374267
-0.0906760245561599,1.0727925300598145,-0.3393648564815521,-0.4652243256568908,-0.2692401707172394,-0.1373559534549713,0.0,0.0,-0.3508228659629822,0.6873142719268799
-0.0941497832536697,1.062217116355896,-0.3397746682167053,-0.4714337289333343,-0.2770375907421112,-0.1559486240148544,0.0,0.0,-0.3048205375671386,-0.7089793086051941
-0.0977372154593467,1.051542043685913,-0.3528410792350769,-0.4755769670009613,-0.2830961048603058,-0.1211702600121498,0.0,0.0,0.1594440937042236,-0.0874025821685791
-0.101305678486824,1.041562795639038,-0.350984662771225,-0.4446724951267242,-0.2891306281089782,-0.1206900104880333,0.0,0.0,-0.4900251626968384,0.2089873552322387
-0.1049351692199707,0.0,-0.357456773519516,-0.4500758051872253,-0.294791966676712,-0.1132270321249961,0.0,0.0,-0.6915812492370605,0.021870732307434
-0.1086248382925987,1.0212361812591553,-0.363846093416214,-0.4554785788059234,-0.3000779747962951,-0.1057198792695999,0.0,0.0,-0.8071531057357788,0.6350059509277344
-0.1123183220624923,1.0108615159988403,-0.3631531894207001,-0.462384283542633,-0.3064929544925689,-0.1282997131347656,0.0,0.0,-0.7269948124885559,-0.2525075674057007
-0.11607027053833,1.0003643035888672,-0.3693656325340271,-0.4677872657775879,-0.3125289380550384,-0.1207197904586792,0.0,0.0,0.278481125831604,0.1258312463760376
-0.1197661384940147,0.990096628665924,-0.364307701587677,-0.4574808478355407,-0.3180200457572937,-0.1098220348358154,0.0,0.0,0.6433264017105103,-0.1707434654235839
-0.1233219131827354,0.9803110957145692,-0.3509325385093689,-0.4359407126903534,-0.32284876704216,-0.096574455499649,0.0,0.0,-0.2769576907157898,0.876056432723999
-0.1268777847290039,0.9703847765922546,-0.3499361276626587,-0.4424424469470978,-0.3287392258644104,-0.1178092360496521,0.0,0.0,-0.463599145412445,0.5192515850067139
-0.130456730723381,0.9603244066238404,-0.3518404066562652,-0.4485170543193817,-0.3350682854652405,-0.1265814304351806,0.0,0.0,-0.4062662124633789,0.5642790794372559
-0.1340489387512207,0.9501185417175292,-0.3524662852287292,-0.4551733732223511,-0.3421285152435303,-0.1412048041820526,0.0,0.0,-0.6366018056869507,0.6808273792266846
-0.1376306563615799,0.9397566318511964,-0.3501645922660827,-0.4624571204185486,-0.3505303859710693,-0.1680378168821334,0.0,0.0,0.2820386886596679,0.8694113492965698
-0.1410492956638336,0.9300743937492372,-0.3325295746326446,-0.4326391816139221,-0.3603593409061432,-0.1965791881084442,0.0,0.0,-0.7923911809921265,0.4835366010665893
-0.1445175111293792,0.9202696681022644,-0.3378776907920837,-0.4380446970462799,-0.3698028028011322,-0.1888693124055862,0.0,0.0,-0.760496973991394,0.404070496559143
-0.1480340957641601,0.9103423357009888,-0.3431001603603363,-0.4434493482112884,-0.3788606822490692,-0.1811575144529342,0.0,0.0,-0.2326873540878296,0.5619115829467773
-0.1515468657016754,0.9002599120140076,-0.3417730033397674,-0.4506583511829376,-0.388979971408844,-0.2023855149745941,0.0,0.0,-0.8299756646156311,0.5623025894165039
-0.1550714522600174,0.8900319337844849,-0.3424475789070129,-0.4573552906513214,-0.3996935188770294,-0.2142710387706756,0.0,0.0,-0.6440487504005432,0.6873915195465088
-0.1585811674594879,0.8796510100364685,-0.3398356437683105,-0.464551031589508,-0.4116572737693786,-0.2392753660678863,0.0,0.0,-0.7435727715492249,0.5235307216644287
-0.1620867699384689,0.8691200017929077,-0.3386081457138061,-0.4715780615806579,-0.4245671331882477,-0.258197158575058,0.0,0.0,-0.7999013662338257,0.2938578128814697
-0.1656336784362793,0.8584671020507812,-0.3431597948074341,-0.4769868552684784,-0.4370924234390259,-0.2505055367946625,0.0,0.0,-0.7934234738349915,-0.0774592161178588
-0.1692204475402832,0.8476921916007996,-0.3475676476955414,-0.4823945164680481,-0.4492336511611938,-0.242823988199234,0.0,0.0,0.2700185775756836,0.3105759620666504
-0.1726866662502288,0.8371539115905762,-0.3360875248908996,-0.4717925786972046,-0.4608093202114105,-0.2315131723880767,0.0,0.0,0.8018786907196045,-0.3788865804672241
-0.1759476661682129,0.8275941014289856,-0.3155174851417541,-0.4284277856349945,-0.4725079834461212,-0.2339734137058258,0.0,0.0,0.1361933946609497,-0.4230974912643432
-0.1790067702531814,0.8183287978172302,-0.2960842251777649,-0.4151764810085296,-0.4834315180778503,-0.2184706032276153,0.0,0.0,0.7159590721130371,-0.5828389525413513
-0.1818210631608963,0.8098005652427673,-0.2731406688690185,-0.3819655776023865,-0.4926818013191223,-0.1850049197673797,0.0,0.0,0.913467526435852,0.0275592803955078
-0.1844405233860016,0.8017562031745911,-0.2540770173072815,-0.3603693544864654,-0.501509428024292,-0.176552265882492,0.0,0.0,0.898310661315918,-0.4697054624557495
-0.1868894547224044,0.7945844531059265,-0.2368194609880447,-0.3217271864414215,-0.5106149911880493,-0.182111918926239,0.0,0.0,0.9820425510406494,-0.4197255373001098
-0.1888439208269119,0.7886140942573547,-0.1878486573696136,-0.268212229013443,-0.5192223191261292,-0.1721461117267608,0.0,0.0,0.986502170562744,-0.3223886489868164
-0.1905663460493087,0.7829048037528992,-0.1654270589351654,-0.2563709914684295,-0.5269947648048401,-0.1554489433765411,0.0,0.0,0.99773907661438,-0.77192223072052
-0.19181489944458,0.7784363031387329,-0.1198949217796325,-0.2005317658185959,-0.5326603651046753,-0.1133120059967041,0.0,0.0,0.8993875980377197,-0.910222351551056
-0.1929776221513748,0.7746884822845459,-0.113177016377449,-0.1677915155887603,-0.5362205505371094,-0.0712034702301025,0.0,0.0,0.8464546203613281,-0.6481577157974243
-0.1939150840044021,0.771917998790741,-0.0919464975595474,-0.1238509342074394,-0.5382875204086304,-0.0413391180336475,0.0,0.0,0.8847330808639526,-0.7579548954963684
-0.1945284903049469,0.7699549198150635,-0.0613451525568962,-0.0872508436441421,-0.538285493850708,4.086351691512391e-05,0.0,0.0,-0.2822117805480957,-0.92034912109375
-0.1952341049909591,0.7679432034492493,-0.0729613527655601,-0.0884524434804916,-0.5355170369148254,0.0553682819008827,0.0,0.0,0.1498206853866577,-0.948790729045868
-0.1957657784223556,0.7663364410400391,-0.057662196457386,-0.0696440562605857,-0.5303685665130615,0.1029698029160499,0.0,0.0,0.5059421062469482,-0.9107586741447448
-0.1962285935878753,0.7651415467262268,-0.0527758598327636,-0.0505986474454402,-0.5229595303535461,0.1481809616088867,0.0,0.0,0.1943614482879638,-0.9127305150032043
-0.1966058760881424,0.7641305923461914,-0.0462621413171291,-0.0416753999888896,-0.5132508277893066,0.1941736489534378,0.0,0.0,-0.1383582949638366,-0.7795019149780273
-0.1970560997724533,0.763037383556366,-0.0554699301719665,-0.0447071082890033,-0.5014486312866211,0.2360438108444214,0.0,0.0,0.1508868932723999,-0.5743271112442017
-0.1972970068454742,0.762590229511261,-0.0360168144106864,-0.0155747728422284,-0.4880677163600921,0.2676180303096771,0.0,0.0,-0.2607605457305908,-0.1244125366210937
-0.197549432516098,0.7620213031768799,-0.0375918671488761,-0.0209828298538923,-0.4743187725543976,0.274978756904602,0.0,0.0,0.0142319202423095,-0.274333119392395
-0.1976441442966461,0.7620473504066467,-0.0219569951295852,0.0053641786798834,-0.4605215191841125,0.275945246219635,0.0,0.0,-0.5975136160850525,-0.430718719959259
-0.1977479010820388,0.7619519233703613,-0.0232691001147031,-4.574532795231789e-05,-0.4463583827018738,0.2832634747028351,0.0,0.0,-0.5847039222717285,-0.3889380097389221
-0.1978592872619629,0.761735200881958,-0.0244555510580539,-0.0054569691419601,-0.4318304061889648,0.2905592620372772,0.0,0.0,0.0399590730667114,-0.2507364749908447
-0.1978834122419357,0.7619308829307556,-0.0158786438405513,0.0127601837739348,-0.4172338247299194,0.2919312119483948,0.0,0.0,-0.7353009581565857,-0.2426912784576416
-0.1979127824306488,0.7620055675506592,-0.0168255716562271,0.0073469136841595,-0.4022748172283172,0.2991802096366882,0.0,0.0,-0.3295692205429077,0.1905107498168945
-0.197946161031723,0.7619593739509583,-0.0176594853401184,0.001932255574502,-0.3869546055793762,0.3064043819904327,0.0,0.0,-0.6897310614585876,0.5380370616912842
-0.1979377716779709,0.7617651224136353,-0.0127130970358848,-0.0050199846737086,-0.3725453615188598,0.2881849408149719,0.0,0.0,-0.4540268182754516,0.084004521369934
-0.1979313790798187,0.7614499926567078,-0.0133330952376127,-0.0104345148429274,-0.3577774465084076,0.2953581809997558,0.0,0.0,-0.7941765785217285,0.6470434665679932
-0.1978722512722015,0.7609787583351135,-0.0070134056732058,-0.0177803803235292,-0.3441909551620483,0.2717293500900268,0.0,0.0,-0.6071040034294128,0.1349021196365356
-0.1978134214878082,0.7603866457939148,-0.0074389902874827,-0.0231941565871238,-0.3302485644817352,0.2788479328155517,0.0,0.0,-0.3835524320602417,0.811069130897522
-0.1976809501647949,0.759629487991333,0.0014789961278438,-0.0310166347771883,-0.3180001378059387,0.244968444108963,0.0,0.0,-0.6307230591773987,0.3764417171478271
-0.1975471526384353,0.758750855922699,0.0012274204054847,-0.0364286191761493,-0.3053987324237823,0.252028077840805,0.0,0.0,-0.788162350654602,0.656923770904541
-0.1973584145307541,0.7577313780784607,0.0076980581507086,-0.0430059097707271,-0.2938471436500549,0.2310319393873214,0.0,0.0,-0.6385709047317505,0.7875323295593262
-0.1970946341753006,0.7565606236457825,0.0166927743703126,-0.0501148551702499,-0.2838747799396515,0.1994474530220031,0.0,0.0,-0.5803528428077698,0.5965490341186523
-0.196776196360588,0.7552388310432434,0.0231871418654918,-0.0570838190615177,-0.2749742269515991,0.1780113279819488,0.0,0.0,-0.4317177534103393,0.4450094699859619
-0.1964538544416427,0.753795325756073,0.0232178475707769,-0.0624916329979896,-0.2657274305820465,0.1849350780248642,0.0,0.0,-0.914276659488678,0.74639892578125
-0.1960605680942535,0.7522119879722595,0.0316200107336044,-0.0689980685710907,-0.2578520774841308,0.1575071215629577,0.0,0.0,-0.7560839653015137,0.8268370628356934
-0.1956018507480621,0.7504820823669434,0.0393874682486057,-0.0757598429918289,-0.2512425780296325,0.1321897357702255,0.0,0.0,-0.7945221662521362,0.846451997756958
-0.1950853317975998,0.7486175894737244,0.0461591407656669,-0.0819382518529892,-0.2456436455249786,0.1119785755872726,0.0,0.0,-0.8764187693595886,0.8079594373703003
-0.1944916695356369,0.7466078400611877,0.0553569197654724,-0.0886567160487175,-0.2415712773799896,0.0814471542835235,0.0,0.0,-0.6855597496032715,0.7187443971633911
-0.1938411742448806,0.7444620728492737,0.0620107874274253,-0.0948734730482101,-0.2384813129901886,0.0617990083992481,0.0,0.0,-0.5804874897003174,0.8098490238189697
-0.1931300163269043,0.7421796917915344,0.0691276639699935,-0.1011187061667442,-0.2364637851715088,0.0403508767485618,0.0,0.0,-0.6549721360206604,0.5808253288269043
-0.192370131611824,0.739757239818573,0.0747794285416603,-0.1074693948030471,-0.2352415770292282,0.0244441498070955,0.0,0.0,-0.7596269249916077,0.395535945892334
-0.1916038542985916,0.7372122406959534,0.0750997215509414,-0.1128724589943885,-0.233692780137062,0.0309759583324193,0.0,0.0,-0.8515113592147827,0.2153455018997192
-0.190831184387207,0.7345444560050964,0.0754301697015762,-0.1182756945490837,-0.2318207174539566,0.0374413952231407,0.0,0.0,-0.7644839286804199,0.5045719146728516
-0.1900058686733245,0.7317408323287964,0.0815466567873954,-0.1244527250528335,-0.2308229357004165,0.0199560467153787,0.0,0.0,-0.9668809175491332,0.7154486179351807
-0.1891145706176757,0.7287871241569519,0.0894089490175247,-0.1313209384679794,-0.2311037331819534,-0.0056160832755267,0.0,0.0,-0.9760323166847228,-0.2448341250419616
-0.1882168799638748,0.7257106304168701,0.0897362828254699,-0.1367242634296417,-0.2310729026794433,0.0006166435196064,0.0,0.0,-0.8235134482383728,-0.032577097415924
-0.1873129904270172,0.7225115895271301,0.0900514274835586,-0.1421276926994323,-0.2307349592447281,0.0067588696256279,0.0,0.0,-0.8016313910484314,0.4345571994781494
-0.1864030808210373,0.7191898226737976,0.0903489515185356,-0.1475312262773513,-0.2300948053598404,0.0128030078485608,0.0,0.0,-0.9782044291496276,0.3418118953704834
-0.1854876577854156,0.7157455682754517,0.0906234309077262,-0.1529348939657211,-0.2291577607393264,0.0187409836798906,0.0,0.0,-0.989507257938385,-0.6651293039321899
-0.1846174299716949,0.712203323841095,0.0844589620828628,-0.157037928700447,-0.2265675067901611,0.051804669201374,0.0,0.0,-0.8967378735542297,0.5760045051574707
-0.1836928427219391,0.7085264921188354,0.0908838585019111,-0.1631658971309662,-0.2249660193920135,0.0320299044251441,0.0,0.0,-0.9544907212257384,0.206228494644165
-0.1827636659145355,0.7047273516654968,0.0910575538873672,-0.1685702204704284,-0.2230863273143768,0.0375941544771194,0.0,0.0,-0.998409867286682,-0.7810142040252686
-0.1819026917219162,0.7008317708969116,0.0821051150560379,-0.1725403219461441,-0.2190419286489486,0.0808879062533378,0.0,0.0,-0.983825385570526,0.8670284748077393
-0.1809860169887542,0.6967941522598267,0.0887676626443862,-0.1790267080068588,-0.2161097675561905,0.0586431622505188,0.0,0.0,-0.944322109222412,0.8179798126220703
-0.180005744099617,0.6926134824752808,0.0964405164122581,-0.1855725795030594,-0.2145108133554458,0.0319791883230209,0.0,0.0,-0.9972378015518188,-0.3082180023193359
-0.1790233552455902,0.6883106231689453,0.0964097082614898,-0.1909777075052261,-0.2126661539077758,0.0368929281830787,0.0,0.0,-0.9843371510505676,-0.3814011216163635
-0.1780396401882171,0.6838853359222412,0.0963159650564193,-0.1963831037282943,-0.2105854898691177,0.0416131094098091,0.0,0.0,-0.9993619918823242,0.2154469490051269
-0.1770552694797516,0.679337739944458,0.0961548164486885,-0.20178884267807,-0.2082791626453399,0.0461264699697494,0.0,0.0,-0.9999077916145324,-0.5470912456512451
-0.1761107444763183,0.6746861338615417,0.0908988639712333,-0.2062485218048095,-0.2046999633312225,0.0715844109654426,0.0,0.0,-0.9999136328697203,0.200655460357666
