x_pos,y_pos,x_vel,y_vel,angle,ang_vel,leg_1,leg_2,main_booster,lat_booster
-0.0014892577892169,1.4033238887786863,-0.1508859097957611,-0.3376147150993347,0.0017562144203111,0.034642644226551,0.0,0.0,-0.5109229683876038,0.7852246761322021
-0.0028766631148755,1.3954463005065918,-0.1387734115123748,-0.3501111268997192,0.001790344598703,0.0006832723738625,0.0,0.0,-0.3015834093093872,0.1324225664138794
-0.0042285919189453,1.3872677087783811,-0.1352404356002807,-0.3634983897209167,0.0018344444688409,0.0008821553783491,0.0,0.0,-0.2576453685760498,0.6764575242996216
-0.0055021285079419,1.3787862062454224,-0.1263197660446167,-0.3769573867321014,0.000815492705442,-0.0203810650855302,0.0,0.0,-0.5367200970649719,-0.1125031113624572
-0.006739520933479,1.3700039386749268,-0.122723564505577,-0.3903213143348694,-0.0001899629278341,-0.0201110765337944,0.0,0.0,0.1541160345077514,0.5689116716384888
-0.0077897072769701,1.3614892959594729,-0.1030777841806411,-0.3784308135509491,-0.0021047284826636,-0.0382989346981048,0.0,0.0,0.0116232633590698,-0.0617937445640563
-0.0088162422180175,1.353204369544983,-0.1006703153252601,-0.3682246804237366,-0.0040692584589123,-0.0392942056059837,0.0,0.0,-0.6188502311706543,0.1076380014419555
-0.0098059652373194,1.3446186780929563,-0.0970001965761184,-0.3815909624099731,-0.0060164569877088,-0.0389476418495178,0.0,0.0,-0.4171993136405945,-0.0675378441810607
-0.0107585908845067,1.335732340812683,-0.0933103114366531,-0.3949538469314575,-0.0079450234770774,-0.0385745614767074,0.0,0.0,-0.7950482964515686,0.4167561531066894
-0.0116739273071289,1.326545476913452,-0.0896024405956268,-0.4083175659179687,-0.0098536349833011,-0.0381755977869033,0.0,0.0,-0.4079601764678955,0.5990211963653564
-0.0124977109953761,1.3170576095581057,-0.0791106894612312,-0.4217077493667602,-0.0130976978689432,-0.0648869425058364,0.0,0.0,-0.5563358068466187,-0.4994267225265503
-0.0132839204743504,1.3072692155838013,-0.0753673166036605,-0.4350727498531341,-0.0163186602294445,-0.0644251853227615,0.0,0.0,-0.8485354781150818,-0.3336197137832641
-0.0140323638916015,1.29718017578125,-0.0716106817126274,-0.4484377801418304,-0.0195163264870643,-0.063958927989006,0.0,0.0,-0.5566452741622925,-0.701066255569458
-0.0147919654846191,1.28678560256958,-0.0739911198616027,-0.4620132148265838,-0.0214586909860372,-0.0388508401811122,0.0,0.0,-0.4007515907287597,-0.1834359169006347
-0.0155136110261082,1.276090383529663,-0.0702148228883743,-0.4753777086734772,-0.0233761519193649,-0.0383528247475624,0.0,0.0,-0.7685868740081787,-0.6881750822067261
-0.0162415504455566,1.2650878429412842,-0.0720131918787956,-0.4890147149562835,-0.0241504702717065,-0.0154879372566938,0.0,0.0,-0.9454823136329652,-0.6803688406944275
-0.0169726368039846,1.2537939548492432,-0.0734039098024368,-0.5019427537918091,-0.0238558817654848,0.0058922623284161,0.0,0.0,-0.5674774050712585,-0.7586081624031067
-0.0177112575620412,1.2421945333480835,-0.0753534138202667,-0.515503466129303,-0.0223842654377222,0.0294351391494274,0.0,0.0,-0.7462015151977539,0.2406666278839111
-0.0184115413576364,1.2302944660186768,-0.0715513452887535,-0.5288678407669067,-0.0208846423774957,0.0299952421337366,0.0,0.0,-0.9084020256996156,-0.2733701467514038
-0.019073486328125,1.2180938720703125,-0.0677423626184463,-0.5422322750091553,-0.0193557869642972,0.0305800475180149,0.0,0.0,-0.8057798743247986,-0.6071318984031677
-0.0197346694767475,1.205597996711731,-0.0686654597520828,-0.5553387999534607,-0.0168463010340929,0.0501942113041877,0.0,0.0,-0.9150679111480712,0.4294638633728027
-0.0203575138002634,1.1928017139434814,-0.0648478716611862,-0.5687035322189331,-0.014307152479887,0.050787515938282,0.0,0.0,-0.9257624745368958,0.2754454612731933
-0.0209417343139648,1.179704666137695,-0.0610252097249031,-0.5820685029029846,-0.0117371892556548,0.0514040403068065,0.0,0.0,-0.3688981533050537,0.226186990737915
-0.0214874260127544,1.1663068532943726,-0.0571981146931648,-0.5954335331916809,-0.0091361431404948,0.0520254485309124,0.0,0.0,-0.6787996888160706,0.3852424621582031
-0.0219944007694721,1.1526086330413818,-0.0533673651516437,-0.6087986826896667,-0.0065035736188292,0.0526564046740531,0.0,0.0,-0.8373847603797913,0.6173428297042847
-0.0224258415400981,1.138591170310974,-0.0448943898081779,-0.6229919791221619,-0.0047692111693322,0.0346870608627796,0.0,0.0,-0.7712820172309875,-0.2203918099403381
-0.0228183753788471,1.1242730617523191,-0.0410499982535839,-0.6363546252250671,-0.003001868026331,0.0353471934795379,0.0,0.0,-0.8870022892951965,-0.3430495262145996
-0.0231721885502338,1.1096543073654177,-0.0372031889855861,-0.6497172117233276,-0.001200875500217,0.0360198877751827,0.0,0.0,-0.8273990154266357,-0.4344638586044311
-0.0234870910644531,1.0947351455688477,-0.0333543978631496,-0.6630798578262329,0.0006343315471895,0.0367044396698474,0.0,0.0,-0.7577592134475708,-0.5105112791061401
-0.0238049514591693,1.0795131921768188,-0.0347497276961803,-0.676530122756958,0.0035548987798392,0.0584110841155052,0.0,0.0,-0.799558699131012,0.1485960483551025
-0.0240839961916208,1.063990831375122,-0.0308982226997613,-0.6898933053016663,0.0065107634291052,0.0591172352433204,0.0,0.0,-0.6961476802825928,0.4948649406433105
-0.0243242271244525,1.0481679439544678,-0.0270459540188312,-0.7032564282417297,0.0095024155452847,0.0598331689834594,0.0,0.0,-0.6700833439826965,0.0508906841278076
-0.0245254524052143,1.0320444107055664,-0.0231933183968067,-0.716619610786438,0.0125303361564874,0.0605583786964416,0.0,0.0,-0.3553799390792846,0.4792525768280029
-0.0246877670288085,1.015620470046997,-0.0193407051265239,-0.7299829125404358,0.0155949341133236,0.0612921342253685,0.0,0.0,-0.5702307224273682,0.3910508155822754
-0.0248112678527832,0.9988960027694702,-0.0154885025694966,-0.743346095085144,0.0186966434121131,0.0620340332388877,0.0,0.0,-0.6812354922294617,0.6398906707763672
-0.0248437877744436,0.9818772077560424,-0.005098273511976,-0.7564145922660828,0.0205244664102792,0.0365563631057739,0.0,0.0,-0.2390307188034057,0.4651470184326172
-0.0248373989015817,0.9645577073097228,-0.0012480893637984,-0.7697773575782776,0.0223901160061359,0.0373130068182945,0.0,0.0,-0.4955577254295349,0.5784050226211548
-0.0247434619814157,0.9469438195228576,0.0086989030241966,-0.7828511595726013,0.0230704806745052,0.0136073576286435,0.0,0.0,0.3679666519165039,0.809989333152771
-0.0245996471494436,0.93008553981781,0.0153353689238429,-0.7492467164993286,0.0221321284770965,-0.0187670923769474,0.0,0.0,-0.3565132617950439,-0.5512712001800537
-0.0244585983455181,0.9129258394241332,0.0139629198238253,-0.7626550793647766,0.0222773645073175,0.0029045003466308,0.0,0.0,-0.4485832452774048,0.3690321445465088
-0.0242786407470703,0.8954655528068542,0.0178040862083435,-0.7760175466537476,0.0224616210907697,0.0036852608900517,0.0,0.0,0.3956818580627441,0.2960283756256103
-0.0239656455814838,0.8783712387084961,0.0305853746831417,-0.7597559690475464,0.0231674779206514,0.0141171859577298,0.0,0.0,-0.1193748712539672,0.5483789443969727
-0.0235633850097656,0.8609721064567566,0.0407506041228771,-0.77329021692276,0.0226467922329902,-0.0104137938469648,0.0,0.0,-0.3305612802505493,0.5243570804595947
-0.0230741500854492,0.8432728052139282,0.0506453439593315,-0.7866088151931763,0.0209511425346136,-0.0339129790663719,0.0,0.0,-0.0873527526855468,0.2071752548217773
-0.0225461013615131,0.825272798538208,0.0544699020683765,-0.7999715209007263,0.0192954465746879,-0.0331136584281921,0.0,0.0,0.0538630485534668,-0.045687973499298
-0.0219544414430856,0.8072929978370667,0.0606710016727447,-0.7990909814834595,0.0178154725581407,-0.0295993294566869,0.0,0.0,-0.1066973805427551,0.1695427894592285
-0.0213240627199411,0.7890123724937439,0.0644838064908981,-0.8124536275863647,0.0163758546113967,-0.0287923999130725,0.0,0.0,-0.1505976319313049,-0.3141707181930542
-0.0206553451716899,0.7704311609268188,0.0682897418737411,-0.82581627368927,0.0149767454713583,-0.0279819183051586,0.0,0.0,0.1042028665542602,0.3448930978775024
-0.0200448036193847,0.7523373365402222,0.0628501325845718,-0.8041502237319946,0.0132081471383571,-0.035372108221054,0.0,0.0,0.2010000944137573,-0.2317376136779785
-0.0194161422550678,0.7344972491264343,0.0646867305040359,-0.7928782105445862,0.0114092025905847,-0.0359788872301578,0.0,0.0,-0.2912428975105285,-0.6339449286460876
-0.0187874790281057,0.7163556814193726,0.0636726915836334,-0.8062849640846252,0.0106115750968456,-0.0159523282200098,0.0,0.0,-0.5233621001243591,0.3983858823776245
-0.0181206706911325,0.6979135274887085,0.0674431324005127,-0.8196474313735962,0.0098550841212272,-0.0151297152042388,0.0,0.0,-0.5760691165924072,-0.0588124990463256
-0.0174159053713083,0.6791706681251526,0.0712023600935936,-0.8330098390579224,0.0091398721560835,-0.0143043994903564,0.0,0.0,-0.3747236728668213,0.4367191791534424
-0.0166732780635356,0.6601272821426392,0.0749492794275283,-0.8463723063468933,0.0084660481661558,-0.0134764891117811,0.0,0.0,0.4964849948883056,-0.6304495930671692
-0.0157991405576467,0.6414443850517273,0.0864645689725875,-0.8303528428077698,0.0094015737995505,0.0187104269862175,0.0,0.0,0.355156660079956,-0.2112948894500732
-0.0149694439023733,0.6230395436286926,0.0823509916663169,-0.8179967999458313,0.0100161749869585,0.0122919678688049,0.0,0.0,0.0316187143325805,0.260358452796936
-0.0140484813600778,0.60508131980896,0.0911517515778541,-0.798146665096283,0.0109440879896283,0.0185581594705581,0.0,0.0,-0.1554926037788391,-0.2224760055541992
-0.0130903245881199,0.5868225693702698,0.0948362499475479,-0.8115091919898987,0.0119138769805431,0.0193956289440393,0.0,0.0,0.1476149559020996,-0.6337172985076904
-0.0120939258486032,0.56912761926651,0.0972522795200347,-0.7864615321159363,0.0142692243680357,0.0471070632338523,0.0,0.0,-0.3157272934913635,0.0885428190231323
-0.0110607147216796,0.5511321425437927,0.100895918905735,-0.7998244762420654,0.0166666787117719,0.0479490682482719,0.0,0.0,0.5473402738571167,-0.5831281542778015
-0.0099907871335744,0.5333514213562012,0.1032171100378036,-0.7903021574020386,0.0203894805163145,0.0744559615850448,0.0,0.0,0.4769079685211181,-0.2257472276687622
-0.0089869499206542,0.516207754611969,0.0969932153820991,-0.7619883418083191,0.0237399283796548,0.0670089200139045,0.0,0.0,0.1399099826812744,-0.2901903390884399
-0.0078702922910451,0.4993017911911011,0.1078341752290725,-0.7514411211013794,0.0275270286947488,0.0757418274879455,0.0,0.0,0.1974422931671142,-0.4363642930984497
-0.0067129135131835,0.4827622175216675,0.1117762327194213,-0.7351691126823425,0.0314356833696365,0.0781730562448501,0.0,0.0,-0.0783793330192565,-0.3039554357528686
-0.0055201528593897,0.4659222364425659,0.1152786761522293,-0.7485328912734985,0.0353870391845703,0.0790269896388053,0.0,0.0,0.2743158340454101,-0.4902233481407165
-0.0044037820771336,0.4494601488113403,0.1080379262566566,-0.7317392826080322,0.038939494639635,0.071049228310585,0.0,0.0,0.430819034576416,0.2488422393798828
-0.0032629966735839,0.4338095486164093,0.1103515401482582,-0.6956833600997925,0.0426208898425102,0.0736279711127281,0.0,0.0,-0.1463779807090759,-0.5718048810958862
-0.0021267891861498,0.4178492724895477,0.1088535189628601,-0.7094897031784058,0.0473289713263511,0.0941616147756576,0.0,0.0,0.7135055065155029,-0.0446553826332092
-0.0009706497075967,0.4029172956943512,0.1106710582971572,-0.6638097167015076,0.0522099807858467,0.097620353102684,0.0,0.0,-0.479229986667633,0.235318899154663
0.0002186775236623,0.3876849412918091,0.1139534711837768,-0.6771742701530457,0.0571344345808029,0.0984890088438987,0.0,0.0,0.1656515598297119,-0.0467232465744018
0.0013487816322594,0.3728621900081634,0.1082876548171043,-0.6589766144752502,0.0618027709424495,0.0933668836951255,0.0,0.0,0.5406415462493896,0.1315510272979736
0.0025037764571607,0.3586106300354004,0.110598400235176,-0.6336120367050171,0.0666475892066955,0.096896581351757,0.0,0.0,0.152227520942688,0.4561700820922851
0.0035613060463219,0.3449313640594482,0.1012308597564697,-0.6081778407096863,0.0711207836866378,0.0894641131162643,0.0,0.0,-0.2984484434127807,-0.0639142990112304
0.0046494482085108,0.3309516906738281,0.1042556017637252,-0.62154221534729,0.0756381824612617,0.0903481841087341,0.0,0.0,0.3094987869262695,0.304072618484497
0.0057174684479832,0.3171323239803314,0.1023204550147056,-0.6144284605979919,0.0800763741135597,0.0887639373540878,0.0,0.0,0.4380885362625122,0.0424742698669433
0.0068510053679347,0.3034427464008331,0.1085430234670639,-0.6086889505386353,0.0848330333828926,0.095133252441883,0.0,0.0,0.6766022443771362,0.6979955434799194
0.0080039976164698,0.2899633347988128,0.111932598054409,-0.5992823243141174,0.0881707072257995,0.0667535290122032,0.0,0.0,0.6613674163818359,0.3511993885040283
0.0091055873781442,0.2773740291595459,0.1067836284637451,-0.5597243905067444,0.0915146172046661,0.0668782442808151,0.0,0.0,0.4255640506744385,-0.2379062175750732
0.010237693786621,0.2655452787876129,0.1094735711812973,-0.5259565711021423,0.0952234491705894,0.0741764456033706,0.0,0.0,0.5365605354309082,-0.4774779677391052
0.0112186428159475,0.2545362710952759,0.094797782599926,-0.489503264427185,0.0984951555728912,0.0654340535402298,0.0,0.0,0.6558904647827148,-0.7664960622787476
0.0119889257475733,0.2436845600605011,0.0724145472049713,-0.4826086163520813,0.1030721589922905,0.0915399044752121,0.0,0.0,0.593144416809082,0.7183070182800293
0.012801838107407,0.2336915880441665,0.0779918879270553,-0.4443645775318146,0.1063446104526519,0.0654492080211639,0.0,0.0,0.8592877388000488,-0.71173495054245
0.0133882518857717,0.2243354618549347,0.0541686005890369,-0.416150152683258,0.1107944995164871,0.0889975428581237,0.0,0.0,0.8333723545074463,0.4212181568145752
0.0138508798554539,0.2157903760671615,0.0420145168900489,-0.3801043629646301,0.1150097995996475,0.0843060910701751,0.0,0.0,0.7263286113739014,0.3563696146011352
0.0142354015260934,0.208031490445137,0.0342200919985771,-0.3451699614524841,0.1192143931984901,0.084091916680336,0.0,0.0,0.5773470401763916,0.7511265277862549
0.0147206308320164,0.2008266597986221,0.0455852411687374,-0.3204537034034729,0.1221350580453872,0.0584131069481372,0.0,0.0,0.889132022857666,0.266032338142395
0.0152000430971384,0.1939089894294738,0.044830072671175,-0.3077079355716705,0.1252286881208419,0.0618726499378681,0.0,0.0,0.702531099319458,0.7414610385894775
0.0158033370971679,0.1873335689306259,0.0584421083331108,-0.2923995852470398,0.1271061599254608,0.0375495478510856,0.0,0.0,0.7202529907226562,-0.6800423860549927
0.0164544098079204,0.1813636124134063,0.0614303238689899,-0.2656483352184295,0.1307665258646011,0.0732070133090019,0.0,0.0,0.7418901920318604,-0.6900683641433716
0.017165470868349,0.1757271140813827,0.0656421110033989,-0.2510011494159698,0.1362165510654449,0.1090003624558448,0.0,0.0,0.3976168632507324,0.831279993057251
0.0178573615849018,0.170753076672554,0.0653423592448234,-0.2214245945215225,0.1400439292192459,0.0765477791428566,0.0,0.0,0.2061423063278198,-0.770393431186676
0.018442440778017,0.1662997603416443,0.0530507490038871,-0.1984490603208542,0.1454815119504928,0.1087516322731971,0.0,0.0,-0.1404829025268554,-0.1163305044174194
0.0190314296633005,0.1615462452173233,0.0534051544964313,-0.2118144333362579,0.150966927409172,0.1097083687782287,0.0,0.0,-0.2408172488212585,0.4492740631103515
0.019622515887022,0.156492605805397,0.053567886352539,-0.22517991065979,0.156499907374382,0.1106599792838096,0.0,0.0,0.4925671815872192,0.2546868324279785
0.020095158368349,0.1518092453479766,0.0419005379080772,-0.2087199538946151,0.1618605107069015,0.107211947441101,0.0,0.0,0.0652220249176025,0.1653007268905639
0.0205302238464355,0.1476625502109527,0.0378512181341648,-0.1849254816770553,0.167520210146904,0.113193854689598,0.0,0.0,-0.2993577718734741,0.1958886384963989
0.0209616664797067,0.1432156711816787,0.0374428406357765,-0.1982911080121994,0.1732259392738342,0.114114724099636,0.0,0.0,0.1667608022689819,0.2800509929656982
0.0212041847407817,0.1392760425806045,0.0189164523035287,-0.1757263988256454,0.1785703748464584,0.106889009475708,0.0,0.0,-0.7517839074134827,0.225266695022583
0.0214392654597759,0.135036215186119,0.0181403141468763,-0.1890917718410492,0.1839590966701507,0.1077743917703628,0.0,0.0,-0.5070500373840332,0.5230050086975098
0.021701717749238,0.1305102258920669,0.0217939428985118,-0.2017144858837127,0.1884324848651886,0.089467816054821,0.0,0.0,0.2688794136047363,-0.32178395986557
0.0217831619083881,0.1265134364366531,0.003948715981096,-0.1781743615865707,0.1926537752151489,0.084425576031208,0.0,0.0,-0.6281392574310303,-0.7743023037910461
0.0217899326235055,0.1221956610679626,-0.0051697436720132,-0.1926735937595367,0.1985359638929367,0.1176436096429824,0.0,0.0,-0.8439144492149353,0.4723354578018188
0.0217824932187795,0.1175778210163116,-0.0066204951144754,-0.2060394287109375,0.2044567614793777,0.1184161305427551,0.0,0.0,-0.7560992240905762,0.5021231174468994
0.0217885971069335,0.1126677393913269,-0.0045455261133611,-0.218948096036911,0.2096579670906067,0.1040239930152893,0.0,0.0,-0.5092655420303345,0.0813182592391967
0.0217775348573923,0.1074574589729309,-0.0062947906553745,-0.232313260436058,0.2148938924074173,0.1047185435891151,0.0,0.0,-0.2521415948867798,0.937720537185669
0.0218287464231252,0.1019649356603622,0.0019601907115429,-0.2445752918720245,0.2180891036987304,0.063904620707035,0.0,0.0,0.1614782810211181,0.3487615585327148
0.0218435283750295,0.0969905480742454,-0.0021722796373069,-0.2216273248195648,0.2217862010002136,0.0739419162273407,0.0,0.0,-0.1191281080245971,0.743600606918335
0.0218913070857524,0.0917403548955917,0.0025266730226576,-0.2336809486150741,0.2240653485059738,0.0455833226442337,0.0,0.0,0.3347862958908081,0.0996261835098266
0.0218757633119821,0.0872378200292587,-0.0043566096574068,-0.2005422860383987,0.2269027531147003,0.05674809217453,0.0,0.0,-0.5470609068870544,0.6939969062805176
0.0218968391418457,0.0824556201696395,0.0008420961094088,-0.2127381861209869,0.2281866520643234,0.0256776567548513,0.0,0.0,-0.2719942331314087,0.6235501766204834
0.0219398494809865,0.0773953273892402,0.0042390944436192,-0.2249076664447784,0.2282432168722152,0.0011314405128359,0.0,0.0,0.7109208106994629,0.8760511875152588
0.0219068527221679,0.073280818760395,-0.0017310917610302,-0.1826249659061432,0.2266571074724197,-0.0317221358418464,0.0,0.0,0.210356593132019,0.8792539834976196
0.0219068527221679,0.0693989843130111,0.0032635822426527,-0.1720315366983413,0.2233521789312362,-0.0660984814167022,0.0,0.0,0.146537184715271,0.8145706653594971
0.0217514988034963,0.0658345073461532,-0.010599410161376,-0.1576815247535705,0.2183564454317093,-0.0999143049120903,0.0,0.0,-0.0252991914749145,0.9386413097381592
0.0216252319514751,0.061986431479454,-0.0062162927351891,-0.1700936406850814,0.2118832617998123,-0.1294636279344558,0.0,0.0,0.0405328273773193,0.9352169036865234
0.0214518550783395,0.0583766810595989,-0.0090664736926555,-0.1592681854963302,0.2035381197929382,-0.1669031232595443,0.0,0.0,0.2191476821899414,0.9808224439620972
0.0212673190981149,0.0550742708146572,-0.0082075130194425,-0.1453981846570968,0.193228080868721,-0.2062011510133743,0.0,0.0,-0.0113239884376525,0.9788192510604858
0.021146010607481,0.051491342484951,0.0005050459876656,-0.1576446592807769,0.1805313527584076,-0.2539347410202026,0.0,0.0,0.2365456819534301,0.9500608444213868
0.0210587494075298,0.0484125949442386,0.0058261975646018,-0.1351265609264373,0.1659516990184784,-0.2915931344032287,0.0,0.0,-0.565020740032196,0.4561693668365478
0.0209399219602346,0.0450360141694545,0.0027084159664809,,0.1513655632734298,-0.2917228043079376,0.0,0.0,-0.1181288957595825,0.4391267299652099
0.0207891464233398,0.0413614623248577,-0.0004579640808515,-0.1618862152099609,0.1367703378200531,-0.291904866695404,0.0,0.0,-0.1823842525482177,0.4291015863418579
0.0206056591123342,0.0373891443014144,-0.0036691785790026,-0.1752661019563675,0.1221634671092033,-0.2921372056007385,0.0,0.0,-0.1818018555641174,0.3390480279922485
