x_pos,y_pos,x_vel,y_vel,angle,ang_vel,leg_1,leg_2,main_booster,lat_booster
-0.0015749931335449,1.403116226196289,-0.159310296177864,-0.3468452990055084,0.0016166710993275,0.0318794623017311,0.0,0.0,-0.2233693599700927,0.8148941993713379
-0.0031272887717932,1.3948230743408203,-0.1548555642366409,-0.3685795366764068,0.0012509485241025,-0.0073142452165484,0.0,0.0,-0.4406577348709106,0.5765888690948486
-0.0046653747558593,1.386017084121704,-0.1518374532461166,-0.3913782238960266,-0.0007004583021625,-0.0390317626297473,0.0,0.0,-0.1436128616333007,0.1407903432846069
-0.0062391282990574,1.3767026662826538,-0.1552053689956665,-0.4139767587184906,-0.0028473078273236,-0.042941115796566,0.0,0.0,0.4894757270812988,0.7108360528945923
-0.0076570510864257,1.3677632808685305,-0.1382572501897812,-0.3973169922828674,-0.0063427854329347,-0.0699159204959869,0.0,0.0,0.4698399305343628,0.7635934352874756
-0.0089000705629587,1.3590373992919922,-0.1192895323038101,-0.3878458142280578,-0.0113096116110682,-0.0993456691503524,0.0,0.0,0.4295971393585205,-0.3355697393417358
-0.0101752281188964,1.3505531549453735,-0.1221896260976791,-0.3771199882030487,-0.0165725275874137,-0.105268083512783,0.0,0.0,-0.2164912223815918,0.0508918762207031
-0.0114624025300145,1.3415610790252686,-0.1231849566102027,-0.3997201919555664,-0.0220412574708461,-0.1093847528100013,0.0,0.0,0.0129384994506835,-0.4020149707794189
-0.0127514842897653,1.3328309059143066,-0.1231322437524795,-0.3881082534790039,-0.027753772214055,-0.1142606139183044,0.0,0.0,-0.501745343208313,0.1157301664352417
-0.0140401842072606,1.3235926628112793,-0.1228787451982498,-0.4107121527194977,-0.0336775071918964,-0.1184855327010154,0.0,0.0,-0.0463160872459411,-0.6197790503501892
-0.015363979153335,1.3138490915298462,-0.1272392570972442,-0.433169811964035,-0.0387624129652977,-0.1017073616385459,0.0,0.0,-0.3402695655822754,0.1320123672485351
-0.0166747085750103,1.3035976886749268,-0.1257211118936538,-0.4557675421237945,-0.0440649129450321,-0.1060597151517868,0.0,0.0,-0.0335238575935363,0.3652346134185791
-0.0179661754518747,1.2928383350372314,-0.1235676407814025,-0.4783656299114227,-0.0495871640741825,-0.1104553937911987,0.0,0.0,-0.7009802460670471,0.3960908651351928
-0.0192320831120014,1.2815711498260498,-0.1207827180624008,-0.5009642839431763,-0.0553322732448577,-0.1149125322699546,0.0,0.0,-0.6714079976081848,0.700434684753418
-0.0203977581113576,1.2697982788085938,-0.1088046580553054,-0.5235573053359985,-0.0630172863602638,-0.1537142843008041,0.0,0.0,-0.6618006229400635,-0.5995280742645264
-0.0215641967952251,1.257514238357544,-0.109647586941719,-0.5462673902511597,-0.0699571073055267,-0.1388088762760162,0.0,0.0,0.6928887367248535,-0.90936017036438
-0.0225392337888479,1.2460356950759888,-0.0923451259732246,-0.5104081034660339,-0.0750690549612045,-0.1022481694817543,0.0,0.0,-0.2889683842658996,-0.9340577721595764
-0.0235208515077829,1.2340474128723145,-0.0942079573869705,-0.533016562461853,-0.0789999216794967,-0.0786241441965103,0.0,0.0,-0.4697542190551758,-0.8270190358161926
-0.0245012287050485,1.2215657234191897,-0.0952200666069984,-0.554901123046875,-0.0817855522036552,-0.0557176358997821,0.0,0.0,-0.6642482876777649,-0.9224109053611756
-0.0255027767270803,1.2085853815078735,-0.0991974025964737,-0.5769541263580322,-0.082730084657669,-0.0188928358256816,0.0,0.0,-0.368726909160614,-0.6551300287246704
-0.0264781955629587,1.1951066255569458,-0.0973798334598541,-0.5990570187568665,-0.0828878134489059,-0.0031548433471471,0.0,0.0,-0.3827310800552368,-0.3803218603134155
-0.0273818969726562,1.1811199188232422,-0.0899652019143104,-0.6216538548469543,-0.0832893699407577,-0.0080321291461586,0.0,0.0,-0.1611617803573608,-0.2036954164505005
-0.0282089225947856,1.1666251420974731,-0.0820481553673744,-0.6442511081695557,-0.0839365050196647,-0.0129436012357473,0.0,0.0,-0.0635213255882263,-0.8874566555023193
-0.0290168765932321,1.1516202688217163,-0.0814637765288353,-0.6668502688407898,-0.0832717567682266,0.0132962139323353,0.0,0.0,-0.5226687788963318,-0.7907659411430359
-0.029815673828125,1.1361188888549805,-0.0822686105966568,-0.6888124942779541,-0.0809096619486808,0.0472465679049491,0.0,0.0,-0.3565106391906738,-0.2325854301452636
-0.0305253025144338,1.1200882196426392,-0.0731034651398658,-0.7123603820800781,-0.0787982866168022,0.0422276966273784,0.0,0.0,-0.6385819911956787,0.0058392286300659
-0.0311405174434185,1.1035494804382324,-0.0634049102663993,-0.7349556684494019,-0.0769379287958145,0.0372074916958808,0.0,0.0,-0.4855924844741821,-0.5776930451393127
-0.031712532043457,1.086515188217163,-0.0602477081120014,-0.7569271922111511,-0.0739269331097602,0.0602200850844383,0.0,0.0,-0.4667605757713318,-0.2656241655349731
-0.0321825966238975,1.0689730644226074,-0.0497947894036769,-0.779522716999054,-0.0711670741438865,0.0551973469555377,0.0,0.0,-0.0073348879814147,-0.5650225281715393
-0.0325934402644634,1.0509254932403564,-0.0447993502020835,-0.8019372224807739,-0.0674942657351493,0.0734558627009391,0.0,0.0,-0.4859505891799927,-0.0136923193931579
-0.0328957550227642,1.0323700904846191,-0.0336800478398799,-0.8245329260826111,-0.0640716701745987,0.0684515461325645,0.0,0.0,0.1813008785247802,0.2053322792053222
-0.0331215858459472,1.0137810707092283,-0.0255427900701761,-0.8260554075241089,-0.0611557811498642,0.0583177432417869,0.0,0.0,-0.026427149772644,-0.3514852523803711
-0.033233068883419,0.9946839809417723,-0.0138399880379438,-0.8486506342887878,-0.0584881640970706,0.0533525720238685,0.0,0.0,0.1532130241394043,0.0112112760543823
-0.0332570075988769,0.9754597544670104,-0.0046359822154045,-0.8543254137039185,-0.0562732890248298,0.044297456741333,0.0,0.0,0.5089821815490723,0.0301146507263183
-0.033114243298769,0.9565841555595398,0.0122114634141325,-0.8388420939445496,-0.0542350187897682,0.0407651700079441,0.0,0.0,-0.2494470477104187,0.0082181692123413
-0.0328495986759662,0.9372004866600036,0.0246482379734516,-0.8614367842674255,-0.0524402633309364,0.035895112901926,0.0,0.0,-0.1217353343963623,0.4373939037322998
-0.0324608795344829,0.917308509349823,0.037295639514923,-0.8840312957763672,-0.0508869625627994,0.0310660451650619,0.0,0.0,0.7490204572677612,-0.4220756292343139
-0.0318649299442768,0.8981124758720398,0.0580757148563861,-0.8531031012535095,-0.0493864715099334,0.0300101749598979,0.0,0.0,-0.2073915004730224,-0.0859649777412414
-0.031141186133027,0.8784084320068359,0.0710989162325859,-0.8756975531578064,-0.0481226965785026,0.0252754036337137,0.0,0.0,-0.6334731578826904,-0.3961983919143677
-0.0302879326045513,0.8581960201263428,0.0842891484498977,-0.8982918858528137,-0.0470930114388465,0.0205936860293149,0.0,0.0,0.1780838966369629,-0.1025360822677612
-999.0,0.8383128046989441,0.0930001512169838,-0.8836853504180908,-0.0466467775404453,0.0089245047420263,0.0,0.0,-0.1792303323745727,-0.2848069667816162
-0.0282862670719623,0.8179214000701904,0.1064870581030845,-0.9062795042991638,-0.0464287884533405,0.0043597174808382,0.0,0.0,-0.3354001641273498,-0.6095830798149109
-0.0271259304136037,0.7970177531242371,0.1150137931108474,-0.9290158748626708,-0.0454198308289051,0.0201789233833551,0.0,0.0,-0.6138979196548462,0.1080361604690551
-0.0258304588496685,0.7756060361862183,0.1287530213594436,-0.9516101479530334,-0.0446326397359371,0.0157438535243272,0.0,0.0,0.2133891582489013,-0.803400993347168
-0.0244869235903024,0.7540072798728943,0.1321916431188583,-0.9598846435546876,-0.0424971021711826,0.0427107512950897,0.0,0.0,-0.0440843701362609,-0.7659642696380615
-0.0230622291564941,0.7318960428237915,0.1391039788722992,-0.9826269149780272,-0.0391698963940143,0.0665440112352371,0.0,0.0,0.851966381072998,-0.9440469741821288
-0.0214783661067485,0.710022509098053,0.1531966626644134,-0.9720311760902404,-0.0340503975749015,0.1023898869752883,0.0,0.0,0.7378702163696289,-0.968102216720581
-0.0199342723935842,0.6889771223068237,0.1476810127496719,-0.9352149367332458,-0.0273987855762243,0.1330322325229644,0.0,0.0,0.7484568357467651,-0.4846670627593994
-0.0183674804866313,0.6686801314353943,0.1508048772811889,-0.901982605457306,-0.0216000732034444,0.1159744411706924,0.0,0.0,0.4953821897506714,-0.6166936159133911
-0.0167196281254291,0.6485666036605835,0.1579231917858123,-0.8938560485839844,-0.0148199945688247,0.1356014162302017,0.0,0.0,0.376638650894165,-0.889244019985199
-0.0148571971803903,0.6286574602127075,0.1776498705148697,-0.8847920298576355,-0.0063353409059345,0.1696933060884475,0.0,0.0,0.3219332695007324,-0.8548320531845093
-0.0129689220339059,0.6091320514678955,0.178753525018692,-0.8677837252616882,0.0036073527298867,0.1988536417484283,0.0,0.0,0.3002051115036011,-0.5929049253463745
-0.0108914375305175,0.5896214246749878,0.1964838057756424,-0.8671993017196655,0.0147257465869188,0.2223682105541229,0.0,0.0,0.8869638442993164,-0.5492593050003052
-0.0087235448881983,0.5709750056266785,0.2045885771512985,-0.8288958072662354,0.0267640929669141,0.2407668828964233,0.0,0.0,0.4918626546859741,-0.2525321245193481
-0.0062891007401049,0.5524876713752747,0.2308036386966705,-0.821931004524231,0.0392459332942962,0.2496370077133178,0.0,0.0,0.4239497184753418,-0.3329249620437622
-0.0038084983825683,0.5340977907180786,0.2359832972288131,-0.8176882266998291,0.0511721484363079,0.2385243922472,0.0,0.0,0.7402474880218506,-0.1951746940612793
-0.0011272430419921,0.516466498374939,0.2557736337184906,-0.784077525138855,0.0633860453963279,0.2442781627178192,0.0,0.0,0.493104338645935,-0.7727471590042114
0.0017377852927893,0.4992520213127136,0.2725537419319153,-0.7657375335693359,0.0771956816315651,0.2761926054954529,0.0,0.0,0.0068576335906982,-0.5537221431732178
0.0047165872529149,0.482288658618927,0.2829064130783081,-0.7547661066055298,0.0920183062553405,0.2964523434638977,0.0,0.0,0.7672685384750366,-0.1621423959732055
0.0076827048324048,0.4660638570785522,0.2822071015834808,-0.7220524549484253,0.1063062325119972,0.2857590019702911,0.0,0.0,0.3466895818710327,-0.4186133146286011
0.0108043672516942,0.4497900009155273,0.2977408766746521,-0.7243701815605164,0.1206336393952369,0.2865479588508606,0.0,0.0,0.9008277654647828,-0.5693082213401794
0.0138083454221487,0.4341847896575928,0.2853499948978424,-0.6948497891426086,0.1356022804975509,0.2993727326393127,0.0,0.0,0.9194698333740234,0.8275916576385498
0.017098044976592,0.4190096259117126,0.315439909696579,-0.6757371425628662,0.1490975469350814,0.2699053585529327,0.0,0.0,0.6592168807983398,-0.7637078762054443
0.0204090122133493,0.4042350053787231,0.3161563575267792,-0.658208966255188,0.1640281975269317,0.2986129224300384,0.0,0.0,0.7933127880096436,0.2461507320404052
0.0238043777644634,0.3896007537841797,0.3247141540050506,-0.6521127820014954,0.1788608431816101,0.296653151512146,0.0,0.0,0.9708042144775392,-0.3267176151275635
0.0270758625119924,0.3754616975784302,0.313200831413269,-0.6301397681236267,0.1928770989179611,0.2803254425525665,0.0,0.0,0.748611569404602,-0.3648320436477661
0.0303433425724506,0.3621565997600555,0.312857061624527,-0.5932043790817261,0.2068690955638885,0.2798392474651336,0.0,0.0,0.736309289932251,-0.0630199909210205
0.0337795242667198,0.3488233089447021,0.3294932842254638,-0.5946326851844788,0.2211344540119171,0.2853070497512817,0.0,0.0,0.755861759185791,0.494752287864685
0.0371921546757221,0.3363211154937744,0.3271775841712951,-0.5578270554542542,0.2354107052087783,0.2855247557163238,0.0,0.0,0.4818772077560425,0.0287836790084838
0.0405713096261024,0.3239025771617889,0.3243692815303802,-0.5541611313819885,0.2491780668497085,0.275347501039505,0.0,0.0,0.4314022064208984,0.350928783416748
0.0438762679696083,0.311801016330719,0.3174766004085541,-0.5401114821434021,0.2624624967575073,0.2656888663768768,0.0,0.0,0.6996116638183594,0.1747753620147705
0.0471934303641319,0.3001328408718109,0.3187048137187958,-0.5209737420082092,0.2757817506790161,0.2663850784301758,0.0,0.0,0.7961064577102661,0.6995881795883179
0.0503137595951557,0.2892509996891022,0.3009052872657776,-0.4857791066169739,0.2872223556041717,0.2288118600845337,0.0,0.0,0.3381485939025879,0.4715756177902221
0.053506564348936,0.2785602807998657,0.3080211579799652,-0.4774045646190643,0.2988329827785492,0.2322124987840652,0.0,0.0,0.0502830743789672,0.0093330144882202
0.0567535385489463,0.2677094340324402,0.3136725425720215,-0.4845667779445648,0.3102421462535858,0.2281829118728637,0.0,0.0,0.2401111125946045,-0.2296386361122131
0.0601224899291992,0.2567234635353088,0.3257757723331451,-0.4906875193119049,0.3217878639698028,0.2309141159057617,0.0,0.0,0.9091933965682985,0.129854679107666
0.0634805709123611,0.2457711100578308,0.32498300075531,-0.4892151057720184,0.333067774772644,0.2255982905626297,0.0,0.0,0.6747275590896606,0.2397911548614502
0.0667154341936111,0.2354473173618316,0.3128392696380615,-0.461334615945816,0.3442141413688659,0.2229271233081817,0.0,0.0,0.495134949684143,0.4172859191894531
0.0699171051383018,0.2256953865289688,0.3093236684799194,-0.4360515773296356,0.3556035757064819,0.2277885973453521,0.0,0.0,0.4872133731842041,0.2261950969696045
0.0729155540466308,0.2164180874824524,0.2895694971084595,-0.4149057269096374,0.3664360046386719,0.216649055480957,0.0,0.0,0.6996710300445557,-0.1450127363204956
0.0758150070905685,0.2070390731096267,0.2803874611854553,-0.4193268418312073,0.3765650987625122,0.2025827467441558,0.0,0.0,0.5180668830871582,0.5445156097412109
0.0786705985665321,0.1982156783342361,0.2770712971687317,-0.3944115340709686,0.3855772614479065,0.1802431493997573,0.0,0.0,0.4844611883163452,-0.2164348363876342
0.081394575536251,0.1895517855882644,0.2644200623035431,-0.387241393327713,0.3940843939781189,0.1701425164937973,0.0,0.0,0.4077887535095215,0.6601593494415283
0.0840435028076171,0.1811825186014175,0.2583859264850616,-0.3737827241420746,0.4010497033596039,0.1393065601587295,0.0,0.0,0.0746095180511474,0.2470812797546386
0.0866546630859375,0.1729288250207901,0.2547396421432495,-0.368653655052185,0.4078980982303619,0.1369679868221283,0.0,0.0,0.4035823345184326,0.606121301651001
0.0893343910574913,0.1649238914251327,0.2627096772193908,-0.3573034703731537,0.4135719835758209,0.1134774684906005,0.0,0.0,-0.1151125431060791,0.4893932342529297
0.0921607017517089,0.1564106345176696,0.277445524930954,-0.3798965513706207,0.4191671907901764,0.1119038835167884,0.0,0.0,0.4341645240783691,0.4184467792510986
0.0950645431876182,0.1479170471429824,0.2849360108375549,-0.3791223168373108,0.4250570833683014,0.1177976951003074,0.0,0.0,0.5899643898010254,0.5032092332839966
0.0980612784624099,0.1397838741540908,0.2949135899543762,-0.3629221022129059,0.4302238225936889,0.1033355444669723,0.0,0.0,0.196415901184082,0.1751539707183838
0.1011761650443077,0.1315947622060775,0.3063775897026062,-0.3655338883399963,0.4357810914516449,0.1111455783247947,0.0,0.0,0.4017380475997925,-0.3666751384735107
0.1041626930236816,0.1237609982490539,0.2936450839042663,-0.3497331440448761,0.4412401616573334,0.109181210398674,0.0,0.0,0.2125693559646606,0.3633568286895752
0.1070765480399131,0.1161885112524032,0.2863679528236389,-0.3381485641002655,0.4467286467552185,0.1097696870565414,0.0,0.0,0.2841837406158447,0.2360874414443969
0.109997846186161,0.1088717281818389,0.2867784202098846,-0.3269087374210357,0.4525894820690155,0.1172165051102638,0.0,0.0,0.2117364406585693,0.6789693832397461
0.1130824089050293,0.1014523133635521,0.3043757677078247,-0.3310800492763519,0.4570712447166443,0.0896352678537368,0.0,0.0,0.17549729347229,0.1658560037612915
0.116116426885128,0.0939873307943344,0.299556702375412,-0.3330447077751159,0.4613046646118164,0.0846685916185379,0.0,0.0,0.3016650676727295,-0.4928028583526611
0.1190497428178787,0.0869713127613067,0.2892916798591614,-0.31316938996315,0.4657709300518036,0.0893254578113555,0.0,0.0,0.115890622138977,0.335608959197998
0.121937945485115,0.0799513682723045,0.2849109172821045,-0.3133130967617035,0.4700884222984314,0.0863504856824874,0.0,0.0,0.8112974166870117,0.4420070648193359
0.1244500130414962,0.0734964683651924,0.2479560822248459,-0.2879946529865265,0.4736985862255096,0.0722032561898231,0.0,0.0,0.6623070240020752,0.642202615737915
0.1269096434116363,0.067572146654129,0.2438114881515503,-0.2640402615070343,0.4760900437831878,0.0478292107582092,0.0,0.0,0.8294203281402588,0.3378723859786987
0.1290746629238128,0.0622059442102909,0.214666411280632,-0.2391303330659866,0.4781297743320465,0.0407943502068519,0.0,0.0,0.4864791631698608,0.6059572696685791
0.1310361921787262,0.0572088100016117,0.195693239569664,-0.2222526669502258,0.4786427319049835,0.0102591756731271,0.0,0.0,0.4423445463180542,0.6408438682556152
0.1329580247402191,0.052298005670309,0.1930432468652725,-0.2179608792066574,0.4776888489723205,-0.0190778337419033,0.0,0.0,0.2754899263381958,0.7097311019897461
0.1347611397504806,0.0474662408232688,0.1826977282762527,-0.2139213383197784,0.4750353991985321,-0.0530691035091877,0.0,1.0,0.9988651275634766,0.988762378692627
0.1361736357212066,0.0436027161777019,0.1549685895442962,-0.167622908949852,0.4580386877059936,-0.342669129371643,0.0,1.0,0.9976193904876708,0.9638714790344238
0.1373351067304611,0.0412400811910629,0.1435370445251464,-0.0963365733623504,0.4280062317848205,-0.6007757186889648,0.0,1.0,0.992955446243286,-0.4601972103118896
0.1383427679538726,0.0395223945379257,0.1359088271856308,-0.0661300122737884,0.3901442587375641,-0.7572651505470276,0.0,1.0,0.9630708694458008,-0.8647435307502747
0.139095589518547,0.0387282483279705,0.1106441989541053,-0.0260409172624349,0.3526525795459747,-0.7498237490653992,0.0,1.0,0.8046486377716064,-0.6402608156204224
0.1395167410373687,0.0385713204741478,0.0750538483262062,0.000721915741451,0.3182013928890228,-0.6890226006507874,0.0,1.0,0.6506664752960205,0.1310292482376098
0.1398031264543533,0.0392038933932781,0.0613019652664661,0.0349279083311557,0.2844109237194061,-0.6758102178573608,0.0,0.0,-0.9999988079071044,-0.7224428057670593
0.1401726752519607,0.0393211208283901,0.0687758475542068,0.0110748913139104,0.2518154382705688,-0.6519097685813904,0.0,0.0,-0.9999468922615052,-0.5139513611793518
0.1406313925981521,0.0389325954020023,0.0770149156451225,-0.0122395409271121,0.2201788425445556,-0.6327320337295532,0.0,0.0,-0.9999708533287048,-0.5838375687599182
0.1411772668361663,0.0380395278334617,0.0850019380450248,-0.0354495905339717,0.1895057708024978,-0.6134616136550903,0.0,0.0,-0.9989317059516908,-0.6226006150245667
0.1418085992336273,0.036634549498558,0.092737890779972,-0.0589273832738399,0.1598258465528488,-0.5935989022254944,0.0,0.0,-0.9971675276756288,-0.5632691383361816
0.1425121277570724,0.0347203128039836,0.0988312363624572,-0.0822644978761673,0.1314089149236679,-0.5683389902114868,0.0,0.0,-0.9522483944892884,-0.1143057942390441
0.1433388739824295,0.0323082543909549,0.1113519072532653,-0.1049239933490753,0.1028972044587135,-0.5702344179153442,0.0,0.0,-0.5602155923843384,-0.9023411870002748
0.144213005900383,0.0293858628720045,0.1143967360258102,-0.1282433569431305,0.0761535838246345,-0.5348728895187378,0.0,0.0,0.1323921680450439,-0.8626682162284851
0.1451305449008941,0.0265038106590509,0.1171464100480079,-0.126991793513298,0.0510389618575573,-0.5022925138473511,0.0,0.0,0.854318380355835,-0.8183058500289917
0.1462393701076507,0.0237255431711673,0.1344233751296997,-0.1228390634059906,0.0277794152498245,-0.4651913046836853,0.0,0.0,0.44856858253479,-0.9013212323188782
0.1474699079990387,0.0213496778160333,0.1447924822568893,-0.1053347811102867,0.0063167307525873,-0.4292537569999695,0.0,0.0,-0.0580443739891052,-0.8962721228599548
0.1487419158220291,0.018478998914361,0.1473138034343719,-0.12762051820755,-0.0135382851585745,-0.3971003592014313,0.0,0.0,-0.0733055472373962,-0.8836372494697571
0.1500571221113205,0.0150962686166167,0.1501437276601791,-0.1506134867668151,-0.0319231711328029,-0.3676977455615997,0.0,0.0,0.4256025552749634,-0.7612239122390747
