x_pos,y_pos,x_vel,y_vel,angle,ang_vel,leg_1,leg_2,main_booster,lat_booster
-0.0014474869240075,1.4030213356018066,-0.1458216905593872,-0.3510583043098449,0.0009628552943468,0.018933618441224,0.0,0.0,-0.0692856907844543,0.5276154279708862
-0.0027734756004065,1.3945399522781372,-0.131631314754486,-0.3769490122795105,8.776850336289499e-06,-0.0190828926861286,0.0,0.0,-0.491301417350769,0.3501815795898437
-0.0040228841826319,1.3854548931121826,-0.1232008337974548,-0.4037802815437317,-0.0017038992373272,-0.034256774932146,0.0,0.0,-0.0479514002799987,0.1517857313156128
-0.0051957131363451,1.3757667541503906,-0.1147709116339683,-0.4305925667285919,-0.0041766776703298,-0.049460656940937,0.0,0.0,0.2036846876144409,-0.0855780839920044
-0.0061957361176609,1.366187572479248,-0.0972012430429458,-0.4257526397705078,-0.0069606690667569,-0.0556849427521228,0.0,0.0,-0.486206591129303,-0.7063941955566406
-0.0071623800322413,1.3560045957565308,-0.0941662639379501,-0.4525873959064483,-0.0094269951805472,-0.0493310280144214,0.0,0.0,-0.558879017829895,-0.6356751322746277
-0.0081045152619481,1.3452194929122925,-0.0922623723745346,-0.4793523252010345,-0.0113514587283134,-0.0384929254651069,0.0,0.0,0.3104349374771118,0.1754963397979736
-0.0088459011167287,1.3345990180969238,-0.071994349360466,-0.4720379710197449,-0.01347566395998,-0.0424882657825946,0.0,0.0,-0.6416406631469727,-0.4518611431121826
-0.0095110889524221,1.3233754634857178,-0.0636015906929969,-0.4988529980182647,-0.0163648277521133,-0.0577886402606964,0.0,0.0,-0.251899242401123,-0.8260939121246338
-0.010165405459702,1.3115558624267578,-0.0633866116404533,-0.525341272354126,-0.0183799099177122,-0.0403054244816303,0.0,0.0,-0.5144938826560974,-0.8514233231544495
-0.0108013153076171,1.2991353273391724,-0.062233991920948,-0.5520352721214294,-0.0197151321917772,-0.0267071332782506,0.0,0.0,-0.4649972319602966,-0.8736156225204468
-0.0114222522825002,1.2861120700836182,-0.0615143850445747,-0.5788244605064392,-0.0202880334109067,-0.0114591950550675,0.0,0.0,-0.2005160450935363,-0.7805521488189697
-0.0120158195495605,1.272491216659546,-0.0592355318367481,-0.6053745150566101,-0.0204137824475765,-0.0025149951688945,0.0,0.0,-0.377638578414917,-0.7803549766540527
-0.0125887868925929,1.2582616806030271,-0.057777751237154,-0.6324140429496765,-0.019935842603445,0.0095596779137849,0.0,0.0,-0.5622855424880981,-0.90269935131073
-0.0131410602480173,1.2434403896331787,-0.0563298948109149,-0.6587159633636475,-0.0188515968620777,0.0216869451105594,0.0,0.0,-0.0130260586738586,-0.9045290350914
-0.0136772152036428,1.2280068397521973,-0.0554177351295948,-0.6859066486358643,-0.0170653332024812,0.0357285216450691,0.0,0.0,-0.7432288527488708,-0.6151012778282166
-0.0141761777922511,1.2119786739349363,-0.0518868565559387,-0.7123441100120544,-0.0151020968332886,0.0392682030797004,0.0,0.0,0.2886618375778198,-0.8404802680015564
-0.0145362857729196,1.1957772970199585,-0.0390360318124294,-0.7200326919555664,-0.0121083129197359,0.0598811209201812,0.0,0.0,-0.1673476696014404,-0.448261022567749
-0.0148224830627441,1.1789729595184326,-0.0308824814856052,-0.7468459010124207,-0.0098784286528825,0.0446017310023307,0.0,0.0,-0.1651290655136108,-0.5640891194343567
-0.0150857921689748,1.1615660190582275,-0.0291010178625583,-0.7736237645149231,-0.00713970977813,0.0547793097794055,0.0,0.0,0.3134679794311523,-0.3439571261405945
-0.015170288272202,1.14445161819458,-0.0109284771606326,-0.7606291174888611,-0.0046887113712728,0.0490243956446647,0.0,0.0,-0.554469883441925,0.093735933303833
-0.0151820182800292,1.1267340183258057,-0.0028900722973048,-0.7874450087547302,-0.0029966116417199,0.0338450074195861,0.0,0.0,-0.539821982383728,-0.4201651215553283
-0.0151215549558401,1.1084133386611938,0.0051052807830274,-0.8142518401145935,-0.0020610957872122,0.0187118612229824,0.0,0.0,-0.4242318868637085,-0.7408740520477295
-0.0150409694761037,1.0894813537597656,0.0065533332526683,-0.8414177298545837,-0.0005783888627775,0.0296568963676691,0.0,0.0,0.1338317394256591,-0.695536732673645
-0.0150543209165334,1.0706110000610352,-0.0033496133983135,-0.8386884331703186,0.0014086556620895,0.0397443808615207,0.0,0.0,0.3772213459014892,0.1713168621063232
-0.0151192666962742,1.051995873451233,-0.007173653692007,-0.8273359537124634,0.0020841073710471,0.013509152457118,0.0,0.0,0.6746046543121338,-0.0998170971870422
-0.0151115413755178,1.0338821411132812,0.0008232434047386,-0.8050528168678284,0.0020312380511313,-0.0010574525222182,0.0,0.0,0.4902396202087402,-0.5804641842842102
-0.0152094839140772,1.0162874460220337,-0.0098631102591753,-0.7819879055023193,0.0020951414480805,0.0012782954145222,0.0,0.0,-0.1013712286949157,-0.0649620294570922
-0.0152385709807276,0.998089611530304,-0.0022216129582375,-0.8087939620018005,0.0014202778693288,-0.013497251085937,0.0,0.0,0.2303508520126342,-0.4863688945770263
-0.0152155878022313,0.9798333048820496,0.0038025777321308,-0.8113946914672852,-6.149183900561184e-05,-0.0296352561563253,0.0,0.0,0.1765336990356445,-0.8000308275222778
-0.015173053368926,0.9618870615959167,0.0048657720908522,-0.797605574131012,-0.0006702644750475,-0.0121753634884953,0.0,0.0,-0.3184517025947571,-0.1754738092422485
-0.0150639535859227,0.9433377981185912,0.0122634684666991,-0.824411928653717,-0.0020042338874191,-0.0266794506460428,0.0,0.0,0.4465653896331787,-0.6554455757141113
-0.0150188449770212,0.9252448081970216,0.0054217437282204,-0.8041337728500366,-0.002910521114245,-0.0181255042552948,0.0,0.0,0.0204513072967529,0.2014890909194946
-0.0149477003142237,0.9068830609321594,0.0089418729767203,-0.8160815834999084,-0.0047133145853877,-0.03605592623353,0.0,0.0,-0.2747997641563415,-0.7104480862617493
-0.0148673057556152,0.8879202008247375,0.0091819819062948,-0.8428009152412415,-0.0058499937877058,-0.0227333642542362,0.0,0.0,0.538367509841919,0.2742965221405029
-0.0147030828520655,0.8694103956222534,0.0182025786489248,-0.8226639032363892,-0.007610335946083,-0.0352068766951561,0.0,0.0,-0.6268609762191772,-0.4744807481765747
-0.0144771579653024,0.8502976298332214,0.0250778291374444,-0.8494707942008972,-0.0100659374147653,-0.0491117238998413,0.0,0.0,0.0442754030227661,-0.8159939646720886
-0.014222240075469,0.8313104510307312,0.0270226746797561,-0.8438892364501953,-0.011577901430428,-0.0302391946315765,0.0,0.0,0.1178627014160156,-0.3168259859085083
-0.0139280315488576,0.8125757575035095,0.0317668691277504,-0.8326714038848877,-0.0138932215049862,-0.0463063977658748,0.0,0.0,-0.3782337307929992,-0.7742671966552734
-0.0136341098695993,0.7932402491569519,0.0309229232370853,-0.8593671917915344,-0.0154130840674042,-0.0303971264511346,0.0,0.0,0.2994048595428467,-0.2632728219032287
-0.0133581161499023,0.7742223143577576,0.0302008893340826,-0.8452711701393127,-0.0179845988750457,-0.0514303967356681,0.0,0.0,-0.3850183486938476,-0.8622860908508301
-0.0130812646821141,0.7546009421348572,0.0295747481286525,-0.8720839619636536,-0.0198468845337629,-0.0372457392513752,0.0,0.0,0.3685469627380371,-0.1756365895271301
-0.0126650808379054,0.7347638010978699,0.0437814965844154,-0.8816775679588318,-0.0219809785485267,-0.0426816903054714,0.0,0.0,0.0367567539215087,-0.1223316192626953
-0.0121271135285496,0.7148191332817078,0.0563008561730384,-0.8864625692367554,-0.0244605187326669,-0.0495905205607414,0.0,0.0,0.1477928161621093,-0.912968099117279
-0.0116393091157078,0.6945716738700867,0.0500949844717979,-0.8999145030975342,-0.0257560145109891,-0.0259097162634134,0.0,0.0,0.6247413158416748,-0.3865208625793457
-0.011049079708755,0.6742122173309326,0.0607380755245685,-0.9048959016799928,-0.0274535007774829,-0.0339497439563274,0.0,0.0,0.5585424900054932,-0.9133320450782776
-0.0104078296571969,0.6538771986961365,0.0645224526524543,-0.903782844543457,-0.0278515256941318,-0.0079603139311075,0.0,0.0,0.3059861660003662,-0.7520573735237122
-0.0098625179380178,0.6339423060417175,0.0541513636708259,-0.8859876394271851,-0.0274705942720174,0.0076186908408999,0.0,0.0,0.7773160934448242,-0.7949323058128357
-0.009469985961914,0.6146919131278992,0.0381605699658393,-0.8555553555488586,-0.0263920798897743,0.0215702280402183,0.0,0.0,0.6451025009155273,-0.2587960958480835
-0.0090439794585108,0.5955988168716431,0.0421684235334396,-0.8485747575759888,-0.0259690284729003,0.008461077697575,0.0,0.0,0.8005658388137817,-0.7524257302284241
-0.0084518436342477,0.5768315196037292,0.0574485771358013,-0.8340743780136108,-0.0242259167134761,0.0348621159791946,0.0,0.0,-0.2929697036743164,-0.741460382938385
-0.0078869815915822,0.5574685335159302,0.0536213442683219,-0.8605318665504456,-0.0213943421840667,0.0566314756870269,0.0,0.0,0.793513298034668,-0.5688320398330688
-0.0071950913406908,0.5382207036018372,0.0653326287865638,-0.8554089069366455,-0.0175994280725717,0.0758984386920929,0.0,0.0,0.9695384502410888,-0.5369226336479187
-0.0064924238249659,0.5198023319244385,0.0658309683203697,-0.8185527920722961,-0.0132187735289335,0.0876131877303123,0.0,0.0,0.463273286819458,-0.5035454630851746
-0.0056518553756177,0.5014249086380005,0.0787268355488777,-0.8167367577552795,-0.007950909435749,0.1053572073578834,0.0,0.0,0.743798017501831,-0.6592413187026978
-0.0049406052567064,0.4831898212432861,0.0651862919330596,-0.8104298710823059,-0.0020892729517072,0.1172325760126113,0.0,0.0,0.7255644798278809,0.1173772811889648
-0.0041037560440599,0.465600311756134,0.077729620039463,-0.7817579507827759,0.0037869501393288,0.1175248473882675,0.0,0.0,0.7378528118133545,-0.203811764717102
-0.0031011581886559,0.4484731554985046,0.0940500944852829,-0.7612366080284119,0.0099145332351326,0.1225515976548194,0.0,0.0,0.5093507766723633,-0.3060288429260254
-0.0020169257186353,0.4318724274635315,0.1023039445281028,-0.737859845161438,0.0159577615559101,0.1208642944693565,0.0,0.0,0.288914680480957,-0.2062543630599975
-0.0009834289085119,0.4155870676040649,0.0978948026895523,-0.7238649725914001,0.0213465709239244,0.1077762246131897,0.0,0.0,0.4619941711425781,-0.5330906510353088
6.599425978492945e-05,0.3991858065128326,0.0986448302865028,-0.7290447950363159,0.0275568682700395,0.1242059841752052,0.0,0.0,0.836637020111084,-0.1464475989341735
0.0009961128234863,0.3833463191986084,0.0875819325447082,-0.7040843367576599,0.0329146534204483,0.1071556806564331,0.0,0.0,0.7148089408874512,0.1264624595642089
0.0020478249061852,0.3677151203155517,0.0994706749916076,-0.6948571801185608,0.038550566881895,0.1127180904150009,0.0,0.0,0.493430495262146,-0.3763825893402099
0.0031084059737622,0.3523127436637878,0.1005452275276184,-0.6847025156021118,0.0439924597740173,0.1088375672698021,0.0,0.0,0.5847859382629395,-0.2406046390533447
0.0041659353300929,0.3368841707706451,0.1004889458417892,-0.6858798265457153,0.0491991490125656,0.1041338071227073,0.0,0.0,0.940197229385376,0.1648018360137939
0.0050482749938964,0.3218816220760345,0.0838992744684219,-0.6669260263442993,0.0534864030778408,0.0857450366020202,0.0,0.0,0.7976274490356445,0.1341092586517334
0.0059061050415039,0.3076727092266083,0.0815537646412849,-0.6316640973091125,0.0576578862965106,0.0834298580884933,0.0,0.0,0.7944924831390381,-0.2134560346603393
0.0068340301513671,0.2933441400527954,0.0883634388446807,-0.6370031833648682,0.0620411932468414,0.0876663476228714,0.0,0.0,0.786347508430481,0.1635867357254028
0.0077313422225415,0.2797971069812774,0.0853321701288223,-0.6022778749465942,0.066382460296154,0.0868254676461219,0.0,0.0,0.7587647438049316,0.2021628618240356
0.0084901805967092,0.2663912773132324,0.0721295922994613,-0.5959871411323547,0.0701064094901084,0.0744789838790893,0.0,0.0,0.9273965358734132,0.4983378648757934
0.0090799331665039,0.2535530924797058,0.0558424405753612,-0.5707374811172485,0.073204182088375,0.0619555488228797,0.0,0.0,0.8573683500289917,0.4587414264678955
0.0096439365297555,0.2411622107028961,0.0532132387161254,-0.5508636832237244,0.0763544663786888,0.0630054995417594,0.0,0.0,0.8186886310577393,0.4620711803436279
0.0099844932556152,0.2295424491167068,0.0316210500895977,-0.5165599584579468,0.0787643566727638,0.0481979884207248,0.0,0.0,0.7957034111022949,0.5915889739990234
0.0103945732116699,0.2182737439870834,0.0395987853407859,-0.5009072422981262,0.0801599398255348,0.0279115680605173,0.0,0.0,0.9204391241073608,0.0839734077453613
0.0107142450287938,0.2070768475532531,0.0307795256376266,-0.4977031648159027,0.0813350677490234,0.023502679541707,0.0,0.0,0.7510908842086792,0.4649883508682251
0.0110609056428074,0.1958006918430328,0.0331669561564922,-0.5012441277503967,0.082826629281044,0.0298312455415725,0.0,0.0,0.8881486654281616,0.3374586105346679
0.0113210678100585,0.1844967901706695,0.0246695596724748,-0.5024678111076355,0.0841559171676635,0.026585828512907,0.0,0.0,0.9262869358062744,0.0062648057937622
0.0114735607057809,0.173970952630043,0.0139233265072107,-0.467890202999115,0.0854662433266639,0.0262066759169101,0.0,0.0,0.9521931409835817,0.578502893447876
0.0116674425080418,0.1643071919679641,0.0189002249389886,-0.4295299351215362,0.0859535336494445,0.009745804592967,0.0,0.0,0.982784628868103,-0.5952884554862976
0.0115636829286813,0.1554876714944839,-0.0117336045950651,-0.3920550048351288,0.087290421128273,0.0267376992851495,0.0,0.0,0.9266195297241212,0.4625928401947021
0.0112510677427053,0.1466226428747177,-0.0319999083876609,-0.3940454721450805,0.0880165174603462,0.0145220514386892,0.0,0.0,0.9027879238128662,0.877810001373291
0.0109517099335789,0.1385386735200882,-0.0291023887693882,-0.3592406213283539,0.0871951654553413,-0.0164271406829357,0.0,0.0,0.469720721244812,-0.7027027010917664
0.0104257585480809,0.1305963397026062,-0.0531237795948982,-0.353020966053009,0.0877176076173782,0.0104487892240285,0.0,0.0,-0.428782045841217,0.8776496648788452
0.0099335666745901,0.122063048183918,-0.0482832826673984,-0.3792022466659546,0.0867922529578208,-0.0185070596635341,0.0,0.0,0.2355784177780151,0.9583964347839355
0.0094308853149414,0.1137218102812767,-0.0475657805800437,-0.3705703914165497,0.0841126888990402,-0.053591102361679,0.0,0.0,0.3718408346176147,0.9380056858062744
0.009013270959258,0.1055198311805725,-0.0374173559248447,-0.3642945289611816,0.0798057988286018,-0.0861378163099289,0.0,0.0,0.542405366897583,0.9307359457015992
0.0086367605254054,0.0971957519650459,-0.0316557809710502,-0.3696504831314087,0.0738702267408371,-0.118711456656456,0.0,0.0,0.767105221748352,0.4236456155776977
0.0082942005246877,0.0889243930578231,-0.0289343297481536,-0.3673628568649292,0.0686022788286209,-0.1053591519594192,0.0,0.0,0.8435909748077393,0.7706766128540039
0.0081132892519235,0.0810286104679107,-0.0118286162614822,-0.3506499528884887,0.0624078325927257,-0.1238886266946792,0.0,0.0,0.7133824825286865,0.0642910003662109
0.0080161094665527,0.0731561481952667,-0.0043673808686435,-0.3496732115745544,0.0571195445954799,-0.1057658046483993,0.0,0.0,0.7624831199645996,-0.5403122901916504
0.0077880858443677,0.0658809244632721,-0.0187732633203268,-0.3231939971446991,0.0531386472284793,-0.0796179696917533,0.0,0.0,0.7890796661376953,0.6518628597259521
0.0075673102401196,0.0592453591525554,-0.0170896388590335,-0.2947445213794708,0.0482113473117351,-0.0985462218523025,0.0,0.0,0.6548647880554199,-0.5329065322875977
0.0073682786896824,0.0530167669057846,-0.0166347660124301,-0.2767249047756195,0.044977243989706,-0.0646819323301315,0.0,0.0,0.8014209270477295,-0.2938268184661865
0.0072251320816576,0.0467260926961898,-0.0118427742272615,-0.2795140147209167,0.0425386242568492,-0.0487724170088768,0.0,0.0,0.6441843509674072,0.293485164642334
0.0069698332808911,0.0405886992812156,-0.0231242403388023,-0.2727078199386596,0.0401556007564067,-0.0476606264710426,0.0,0.0,0.9371768236160278,0.4402059316635132
0.0067339898087084,0.0353705510497093,-0.0219413116574287,-0.2318741530179977,0.0385393053293228,-0.0323264449834823,0.0,0.0,0.3432189226150512,0.3456637859344482
0.0064220428466796,0.0302419513463974,-0.0297951139509677,-0.2279029935598373,0.037152275443077,-0.0277404971420764,0.0,0.0,0.8472000360488892,0.9090495109558104
0.0059549333527684,0.0258473493158817,-0.0435291491448879,-0.1952379792928695,0.0340116098523139,-0.0628133863210678,0.0,0.0,0.4648337364196777,0.8413320779800415
0.005579852964729,0.0217897035181522,-0.0330953486263752,-0.180248886346817,0.0296458695083856,-0.0873145386576652,0.0,0.0,0.4360499382019043,0.3768050670623779
0.0050983428955078,0.0181049201637506,-0.0438614711165428,-0.1636881083250045,0.0254064835608005,-0.0847877711057663,0.0,0.0,0.29959237575531,0.7065819501876831
0.0045440671965479,0.0147051671519875,-0.0499503947794437,-0.1510189324617386,0.0200018882751464,-0.1080921292304992,0.0,0.0,0.363109827041626,0.4425737857818603
0.0039199828170239,0.0113182161003351,-0.0571908727288246,-0.1504692733287811,0.0148573303595185,-0.1028909459710121,0.0,0.0,0.5489010810852051,0.6832687854766846
0.0031805993057787,0.0081735225394368,-0.0674691721796989,-0.1397126764059066,0.0084720524027943,-0.1277056783437729,0.0,0.0,0.2785379886627197,0.5584244728088379
0.0023131370544433,0.0050320122390985,-0.079256422817707,-0.1395975649356842,0.0010812766849994,-0.1478155106306076,0.0,0.0,0.6967493295669556,0.4735469818115234
0.0015123367775231,0.0023952221963554,-0.0734844356775283,-0.1171995401382446,-0.0054353359155356,-0.1303320825099945,0.0,0.0,0.1113231182098388,0.6286895275115967
0.0007674217340536,-0.0004781031748279,-0.067066952586174,-0.1277463883161544,-0.0127635849639773,-0.1465649902820587,0.0,0.0,0.0354820489883422,0.6992580890655518
0.0002450942993164,-0.0025332116056233,-0.0630811750888824,-0.0912920162081718,-0.0020072828046977,0.2151869088411331,1.0,0.0,0.7447509765625,0.6409366130828857
-0.0001239776611328,-0.0027565502095967,-0.0466541871428489,-0.0099748400971293,0.0075965700671076,0.1920450776815414,1.0,1.0,-0.3194929361343384,0.9904359579086304
-0.0003906250058207,-0.0026239061262458,-0.025657394900918,0.0058740824460983,0.0065788091160357,-0.0203798525035381,1.0,1.0,-0.9475485682487488,0.9037423133850098
-0.0005635261768475,-0.0020576382521539,-0.0128093007951974,0.0251738764345645,0.002162410179153,-0.0883076041936874,1.0,1.0,-0.8781335949897766,-0.177217960357666
-0.0007581710815429,-0.001238384284079,-0.0132119599729776,0.0363919846713542,-0.0040179570205509,-0.123620294034481,1.0,1.0,-0.6433923244476318,-0.3381866812705993
-0.0009032249217852,-0.0009543919586576,-0.0122584290802478,0.01260875351727,-0.0062246108427643,-0.0441054515540599,1.0,1.0,-0.4833985567092895,-0.2036259174346923
-0.0009987831581383,-0.0009558224701322,-0.0095408009365201,-6.992019189056009e-05,-0.0062241377308964,3.182253931299783e-05,1.0,1.0,-0.8548871874809265,0.1659013032913208
-0.0010408401722088,-0.0009867214830592,-0.004132546018809,-0.0013814992271363,-0.0062873684801161,-0.0012494171969592,1.0,1.0,-0.7138769030570984,-0.1039402484893798
-0.0010323524475097,-0.0009413385414518,0.0003909599618054,0.0020190232899039,-0.005818729288876,0.0093971164897084,1.0,1.0,-0.515836238861084,-0.125538945198059
-0.0010149956215173,-0.0007986092823557,0.0005406693671829,0.0063436035998165,-0.0046277176588773,0.0238354988396167,1.0,1.0,-0.7135416865348816,0.135279893875122
-0.0010123252868652,-0.0007963919779285,0.0002771825529634,9.631073044147342e-05,-0.004630206618458,-3.79864577553235e-05,1.0,1.0,-0.4198740720748901,-0.2255681157112121
-0.0010109901195392,-0.0007972502498887,0.0001393318088958,-4.28191815444734e-05,-0.00463254051283,-3.660097718238831e-05,1.0,1.0,-0.5554572343826294,-0.0099884867668151
-0.0010110854636877,-0.0007971787708811,2.716205074193568e-07,-1.2617891798072378e-06,-0.004632911644876,6.018160547682784e-08,1.0,1.0,-0.7791165113449097,-0.0385516285896301
-0.0010115623008459,-0.0007971787708811,-4.526710108621046e-05,2.543096400131617e-07,-0.0046325260773301,1.3315579053596592e-05,1.0,1.0,-0.610470712184906,-0.0747267603874206
-0.001011848449707,-0.0007971787708811,-2.963920996990055e-05,-5.4045701247673605e-09,-0.00463233795017,8.747199899517e-06,1.0,1.0,-0.8348251581192017,0.118346095085144
