x_pos,y_pos,x_vel,y_vel,angle,ang_vel,leg_1,leg_2,main_booster,lat_booster
-0.0015292167663574,1.4030179977416992,-0.154439240694046,-0.3512021005153656,0.0013531192671507,0.0266611482948064,0.0,0.0,-0.5815026164054871,0.7690205574035645
-0.0029985427390784,1.394529104232788,-0.1461666524410247,-0.3772851526737213,0.0006021296139806,-0.0150207821279764,0.0,0.0,0.2229987382888794,0.7219774723052979
-0.0043049813248217,1.3858767747879028,-0.1281848400831222,-0.3845487534999847,-0.001830457476899,-0.0486564375460147,0.0,0.0,-0.0796480774879455,0.0533167123794555
-0.0056162835098803,1.3766179084777832,-0.1282631903886795,-0.4115081131458282,-0.0046716039068996,-0.0568280108273029,0.0,0.0,0.0924242734909057,0.5429840087890625
-0.0067932130768895,1.3674004077911377,-0.1135038584470748,-0.409683346748352,-0.008812291547656,-0.0828216224908828,0.0,0.0,0.004717469215393,-0.2794479131698608
-0.0078882221132516,1.3580710887908936,-0.105311095714569,-0.4146702587604522,-0.012952453456819,-0.0828108415007591,0.0,0.0,-0.3854191303253174,-0.0770090222358703
-0.0089874267578125,1.348135471343994,-0.105338379740715,-0.4416246116161346,-0.017486298456788,-0.0906853899359703,0.0,0.0,0.2627079486846924,0.3649044036865234
-0.0099678039550781,1.3383326530456543,-0.0936152786016464,-0.4357432723045349,-0.021863155066967,-0.0875449851155281,0.0,0.0,-0.0155205130577087,-0.2050105333328247
-0.0109520908445119,1.3279235363006592,-0.093614712357521,-0.4627032279968261,-0.0266214329749345,-0.0951740220189094,0.0,0.0,-0.413611888885498,-0.6254540681838989
-0.0119892116636037,1.316914439201355,-0.0997798591852188,-0.4893712997436523,-0.030512360855937,-0.077825516462326,0.0,0.0,-0.0775326490402221,-0.6814384460449219
-0.0130757335573434,1.3053017854690552,-0.1055267080664634,-0.5161862969398499,-0.0336130484938621,-0.0620192177593708,0.0,0.0,0.1342071294784546,0.7284163236618042
-0.0140408519655466,1.2936195135116575,-0.0916154533624649,-0.5193274021148682,-0.038456879556179,-0.0968854948878288,0.0,0.0,-0.5086890459060669,-0.9276039600372314
-0.0150661468505859,1.2813392877578735,-0.0987437590956687,-0.5458916425704956,-0.0422074012458324,-0.0750172436237335,0.0,0.0,0.6329987049102783,-0.7238107323646545
-0.0160621646791696,1.2689712047576904,-0.097068928182125,-0.5497666597366333,-0.0447076708078384,-0.0500096008181571,0.0,0.0,-0.4092373847961426,-0.7191920280456543
-0.0171040538698434,1.256007194519043,-0.1024367362260818,-0.576231062412262,-0.0464458204805851,-0.0347663573920726,0.0,0.0,0.1553661823272705,-0.2063699960708618
-0.0180624015629291,1.2427432537078855,-0.0941135957837104,-0.5895646810531616,-0.0481451861560344,-0.0339904054999351,0.0,0.0,-0.4078755974769592,-0.656033992767334
-0.0190629009157419,1.2288835048675537,-0.0990258306264877,-0.6160213351249695,-0.0491491481661796,-0.0200813077390193,0.0,0.0,0.2087570428848266,-0.6011970639228821
-0.0199844352900981,1.2148181200027466,-0.0922484546899795,-0.6251230239868164,-0.0490529313683509,0.0019242716953158,0.0,0.0,-0.7740079760551453,-0.6985916495323181
-0.0209540370851755,1.2001564502716064,-0.0979525595903396,-0.6515967845916748,-0.0480789206922054,0.0194821003824472,0.0,0.0,0.5294945240020752,-0.7649665474891663
-0.0220436099916696,1.1856837272644043,-0.1110515743494033,-0.6431707739830017,-0.0460045263171196,0.0414915904402732,0.0,0.0,0.5863111019134521,-0.7478876709938049
-0.023025894537568,1.1716866493225098,-0.1018164157867431,-0.6219885349273682,-0.0424466133117675,0.0711648240685463,0.0,0.0,-0.1609667539596557,0.7163949012756348
-0.0239521972835063,1.1570755243301392,-0.0945184752345085,-0.6493328809738159,-0.0405880361795425,0.0371748618781566,0.0,0.0,-0.725002110004425,-0.3205764293670654
-0.0248802192509174,1.1418581008911133,-0.094438262283802,-0.6762816309928894,-0.0389591977000236,0.0325794368982315,0.0,0.0,-0.1259989142417907,0.3992300033569336
-0.0258093830198049,1.1260347366333008,-0.094358280301094,-0.7032339572906494,-0.0375457257032394,0.0282722003757953,0.0,0.0,-0.2857535481452942,-0.3909896612167358
-0.0267399791628122,1.109604835510254,-0.0942780524492263,-0.7301869988441467,-0.0363309197127819,0.0242983065545558,0.0,0.0,0.361201524734497,-0.2176911234855651
-0.0277709010988473,1.0934233665466309,-0.1035805568099021,-0.7191680073738098,-0.0358532704412937,0.0095532359555363,0.0,0.0,0.4988607168197632,-0.4611667990684509
-0.0287755969911813,1.0776233673095703,-0.100806176662445,-0.702217698097229,-0.0355237126350402,0.0065911347046494,0.0,0.0,0.1202689409255981,-0.6250808238983154
-0.0299097057431936,1.0620702505111694,-0.1147144585847854,-0.691217303276062,-0.0342362560331821,0.0257491506636142,0.0,0.0,-0.728352427482605,0.2739365100860595
-0.0310443881899118,1.0459108352661133,-0.1146424412727356,-0.7181678414344788,-0.0330766998231411,0.023191075772047,0.0,0.0,-0.4312477707862854,-0.5122630596160889
-0.0322215072810649,1.0291454792022705,-0.1198407635092735,-0.7450878620147705,-0.0309721529483795,0.0420909449458122,0.0,0.0,-0.0504123568534851,-0.2447672486305236
-0.0333989150822162,1.0117735862731934,-0.1197799071669578,-0.772038459777832,-0.0289578903466463,0.0402851998805999,0.0,0.0,-0.1229342818260192,-0.2569133043289184
-0.034576416015625,0.9937955141067504,-0.119725726544857,-0.7989890575408936,-0.0270147677510976,0.0388622805476188,0.0,0.0,0.9893829822540284,-0.4964587688446045
-0.035827349871397,0.976662576198578,-0.1265415698289871,-0.7614420056343079,-0.0255834087729454,0.0286272820085287,0.0,0.0,0.5318948030471802,0.2817118167877197
-0.0371288284659385,0.9594268798828124,-0.1312783062458038,-0.7660085558891296,-0.0244580265134573,0.0225075110793113,0.0,0.0,0.7263216972351074,-0.4900943040847778
-0.0383969321846962,0.9425670504570008,-0.128024160861969,-0.7493057250976562,-0.0232673566788434,0.0238135382533073,0.0,0.0,0.0905369520187377,-0.2407768964767456
-0.0396411903202533,0.9258490800857544,-0.125697061419487,-0.7429997324943542,-0.0220153201371431,0.0250406600534915,0.0,0.0,-0.4690444469451904,-0.2365786433219909
-0.0408851616084575,0.9085248708724976,-0.1256869733333587,-0.7699497938156128,-0.0207385383546352,0.0255359802395105,0.0,0.0,0.3303810358047485,-0.7140217423439026
-0.0421380996704101,0.8915196657180786,-0.1281260102987289,-0.7557493448257446,-0.0179458763450384,0.0558531656861305,0.0,0.0,-0.3107627630233764,-0.19172203540802
-0.0433905608952045,0.8739082217216492,-0.12813800573349,-0.7826998829841614,-0.0150914276018738,0.0570890121161937,0.0,0.0,-0.4962270855903625,0.4619616270065307
-0.0446424484252929,0.8556904792785645,-0.1281619071960449,-0.8096504211425781,-0.012157229706645,0.0586838796734809,0.0,0.0,0.3626374006271362,0.7788019180297852
-0.0459232330322265,0.8378368616104126,-0.1294416338205337,-0.7934834361076355,-0.0108070569112896,0.0270038191229105,0.0,0.0,0.6985701322555542,0.5017290115356445
-0.0470227226614952,0.8201801776885986,-0.1108117550611496,-0.7847356796264648,-0.0099579179659485,0.0169828459620475,0.0,0.0,0.1257725954055786,0.0163761377334594
-0.0480531677603721,0.8022367358207703,-0.1043511480093002,-0.7974816560745239,-0.0086718099191784,0.0257221050560474,0.0,0.0,-0.182803213596344,0.150943636894226
-0.0490829460322856,0.7836866974830627,-0.1044277176260948,-0.8244317173957825,-0.0072390879504382,0.0286542885005474,0.0,0.0,0.8884038925170898,0.2306187152862548
-0.0501559264957904,0.7650359869003296,-0.1087017506361007,-0.8289205431938171,-0.0058593656867742,0.0275946222245693,0.0,0.0,0.960663676261902,0.957606077194214
-0.0510898604989051,0.7463626265525818,-0.0931470096111297,-0.8299283981323242,-0.006100577302277,-0.0048242500051856,0.0,0.0,0.8008148670196533,0.6814281940460205
-0.051894187927246,0.7278086543083191,-0.0791810005903244,-0.8246269822120667,-0.0073359748348593,-0.0247079394757747,0.0,0.0,0.7139768600463867,-0.2302071452140808
-0.0528079979121685,0.7099469900131226,-0.0897931233048439,-0.7938583493232727,-0.0089066615328192,-0.0314136296510696,0.0,0.0,0.8219987154006958,0.1969275474548339
-0.0538597106933593,0.6927847266197205,-0.1031130775809288,-0.7627828121185303,-0.0109373154118657,-0.0406130328774452,0.0,0.0,0.4956288337707519,0.6248916387557983
-0.054877184331417,0.6757044196128845,-0.098616175353527,-0.7591485381126404,-0.0140266939997673,-0.0617875754833221,0.0,0.0,0.2900011539459228,0.1813739538192749
-0.0557758323848247,0.6586843132972717,-0.0874987095594406,-0.7564765214920044,-0.0163574572652578,-0.046615295112133,0.0,0.0,0.0820045471191406,-0.0476431846618652
-0.0567036643624305,0.6417822241783142,-0.0905019268393516,-0.7512270212173462,-0.0186112467199563,-0.045075885951519,0.0,0.0,0.5616378784179688,0.3522469997406006
-0.0575199127197265,0.6249012351036072,-0.0800879150629043,-0.7502893209457397,-0.0201253425329923,-0.0302817784249782,0.0,0.0,0.2957119941711426,-0.2560210227966308
-0.0583205223083496,0.6083518862724304,-0.0788215696811676,-0.7355440855026245,-0.0213564168661832,-0.0246216189116239,0.0,0.0,0.4347074031829834,0.4006906747817993
-0.0589824691414833,0.591826856136322,-0.0658360570669174,-0.7344487309455872,-0.0217083543539047,-0.0070386379957199,0.0,0.0,0.583667516708374,0.205919861793518
-0.0597259514033794,0.5753758549690247,-0.0738494992256164,-0.7311676740646362,-0.0221947766840457,-0.0097287921234965,0.0,0.0,0.469922661781311,0.4444730281829834
-0.0603697784245014,0.5593788623809814,-0.0645868629217147,-0.7109740376472473,-0.0219970420002937,0.0039548329077661,0.0,0.0,0.663101315498352,0.7942910194396973
-0.0607823356986045,0.5437896251678467,-0.0404575653374195,-0.6928661465644836,-0.0227933339774608,-0.0159255601465702,0.0,0.0,0.4598491191864013,0.6495175361633301
-0.0610545165836811,0.5286873579025269,-0.0255659222602844,-0.6712360978126526,-0.0244237836450338,-0.0326091200113296,0.0,0.0,0.2889516353607178,0.8395481109619141
-0.0613131523132324,0.5139054656028748,-0.0227718092501163,-0.6570284366607666,-0.0274684783071279,-0.0608942210674285,0.0,0.0,-0.7352152466773987,0.9209954738616944
-0.061492919921875,0.49850594997406,-0.01321960426867,-0.6845152974128723,-0.0321767888963222,-0.0941660851240158,0.0,0.0,0.4219695329666137,-0.7969272136688232
-0.0618134513497352,0.4834171235561371,-0.0290831234306097,-0.6706816554069519,-0.0351042635738849,-0.0585497021675109,0.0,0.0,0.3012077808380127,-0.4164710640907287
-0.0620228759944438,0.4683273732662201,-0.0187716055661439,-0.6707103252410889,-0.0372458435595035,-0.0428315252065658,0.0,0.0,0.7358690500259399,-0.2211493849754333
-0.0621841438114643,0.4535949528217315,-0.0144149241968989,-0.6548138856887817,-0.0389319583773613,-0.033722385764122,0.0,0.0,0.5868499279022217,0.3809816837310791
-0.062323473393917,0.4388327300548553,-0.0126177873462438,-0.6561335921287537,-0.0402377732098102,-0.0261161085218191,0.0,0.0,0.9293291568756104,0.6070289611816406
-0.0625421553850174,0.4245052337646484,-0.0192553363740444,-0.6368513107299805,-0.0428217537701129,-0.0516800172626972,0.0,0.0,0.8580689430236816,-0.1082527041435241
-0.0626964569091796,0.411012053489685,-0.0132827460765838,-0.5997600555419922,-0.044940173625946,-0.0423682555556297,0.0,0.0,0.7926023006439209,0.2412182092666626
-0.0627485290169715,0.3973817825317383,-0.0038410681299865,-0.6058307886123657,-0.0462890192866325,-0.0269771870225667,0.0,0.0,0.8269343376159668,0.4732041358947754
-0.0627282112836837,0.3845573365688324,0.0028955698944628,-0.5700015425682068,-0.0471386238932609,-0.0169922020286321,0.0,0.0,-0.2697551250457763,0.4745041131973266
-0.0627090483903884,0.3711263239383697,0.0024002040736377,-0.5969502925872803,-0.0476242043077945,-0.009711293503642,0.0,0.0,0.7368706464767456,0.7019994258880615
-0.0627067536115646,0.3581617474555969,0.0020011370070278,-0.5762614011764526,-0.0493727549910545,-0.0349712222814559,0.0,0.0,0.9235186576843262,-0.1373247504234314
-0.0626342743635177,0.3456734418869018,0.0084652621299028,-0.555076003074646,-0.0505861304700374,-0.0242671500891447,0.0,0.0,0.714329719543457,0.1735092401504516
-0.0626526847481727,0.3339014947414398,-0.0003627476107794,-0.5232483148574829,-0.0520459301769733,-0.0291959103196859,0.0,0.0,0.2865941524505615,0.4039399623870849
-0.0625922232866287,0.3221921026706695,0.0068739973939955,-0.5204464197158813,-0.052867017686367,-0.0164217744022607,0.0,0.0,0.4668595790863037,0.4850412607192993
-0.0625452026724815,0.3103986084461212,0.0052970722317695,-0.5241779685020447,-0.053450658917427,-0.011672830209136,0.0,0.0,0.639758825302124,-0.1512326598167419
-0.0624155029654502,0.2984763085842132,0.0128696803003549,-0.5298775434494019,-0.0533444322645664,0.0021242345683276,0.0,0.0,0.5819075107574463,0.2090802192687988
-0.0623005852103233,0.2864365577697754,0.0111360270529985,-0.535087525844574,-0.0529989972710609,0.0069089652970433,0.0,0.0,0.9321584701538086,0.3868852853775024
-0.0621484741568565,0.2751804292201996,0.0145225152373313,-0.5002476572990417,-0.0523183159530162,0.0136135518550872,0.0,0.0,0.34649658203125,0.1829042434692382
-0.0618986114859581,0.2643084526062011,0.0236006323248147,-0.4831497073173523,-0.0509543046355247,0.0272804237902164,0.0,0.0,0.6322693824768066,-0.1696119904518127
-0.0617207512259483,0.2540480494499206,0.0165420230478048,-0.455975741147995,-0.0497206039726734,0.0246741101145744,0.0,0.0,-0.3196644783020019,-0.2233681678771972
-0.0615452751517295,0.2431810200214386,0.0159117989242076,-0.4829244017601013,-0.048103604465723,0.0323398560285568,0.0,0.0,0.5738303661346436,0.1264839172363281
-0.0612977035343647,0.2328329235315323,0.0225543864071369,-0.4598465859889984,-0.0459249466657638,0.0435732081532478,0.0,0.0,0.3738834857940674,0.1564722061157226
-0.0611148849129676,0.2226012498140335,0.0160819180309772,-0.4546779990196228,-0.0437517389655113,0.0434640496969223,0.0,0.0,0.3170311450958252,0.7882683277130127
-0.0608980171382427,0.2125750929117202,0.020747160539031,-0.4455780386924743,-0.0428211502730846,0.0186117608100175,0.0,0.0,0.4323328733444214,0.4108322858810425
-0.0606682784855365,0.2028516083955764,0.0216929279267787,-0.4321197867393493,-0.0415538288652896,0.0253466013818979,0.0,0.0,0.2738656997680664,-0.0899794697761535
-0.0603555664420127,0.193189650774002,0.0292898826301097,-0.4293656945228576,-0.0395908541977405,0.0392593666911125,0.0,0.0,0.375892162322998,-0.0020827651023864
-0.0600146278738975,0.1833472996950149,0.0316218025982379,-0.4373747110366821,-0.0371521674096584,0.0487735792994499,0.0,0.0,0.1141200065612793,0.4231195449829101
-0.0596039779484272,0.1733020395040512,0.0379066355526447,-0.446382611989975,-0.034040093421936,0.0622415766119957,0.0,0.0,0.2429748773574829,0.4783320426940918
-0.059071160852909,0.1632887423038482,0.0492262095212936,-0.4449467360973358,-0.0300324857234954,0.080152079463005,0.0,0.0,0.5282899141311646,-0.619242250919342
-0.0584392547607421,0.1532074362039566,0.0571829490363597,-0.4479488134384155,-0.0240995567291975,0.1186584010720253,0.0,0.0,0.577277421951294,0.0472086668014526
-0.0577985756099224,0.143595889210701,0.0577011033892631,-0.4270916879177093,-0.017809722572565,0.1257965564727783,0.0,0.0,0.557985782623291,0.1007333993911743
-0.0571190826594829,0.1344504952430725,0.0610579177737236,-0.4063968658447265,-0.0110039748251438,0.1361144632101059,0.0,0.0,0.5042297840118408,-0.1670724153518676
-0.0563226714730262,0.1256085038185119,0.0718325898051261,-0.3929421603679657,-0.0032939612865448,0.1542002707719802,0.0,0.0,0.3595031499862671,0.1494767665863037
-0.0554455742239952,0.1165634468197822,0.0791274011135101,-0.4020067453384399,0.0051783467642962,0.16944620013237,0.0,0.0,0.6820294857025146,0.0636199712753295
-0.0546277984976768,0.1076903417706489,0.0730556920170784,-0.3944175541400909,0.01378009095788,0.1720345914363861,0.0,0.0,0.9175422191619872,0.670034646987915
-0.0536684989929199,0.0997249707579612,0.0879152491688728,-0.3541097939014435,0.0216913148760795,0.1582249850034713,0.0,0.0,0.5223987102508545,-0.3604085445404053
-0.0527453422546386,0.091940052807331,0.0840256512165069,-0.3461407423019409,0.0298765990883111,0.1637057363986969,0.0,0.0,0.3538379669189453,0.929269552230835
-0.0518886558711528,0.0845335125923156,0.0789608284831047,-0.3293288350105285,0.0364942140877246,0.1323524862527847,0.0,0.0,0.0590155124664306,0.9071674346923828
-0.0509139075875282,0.0772038549184799,0.0922325700521469,-0.3258987963199615,0.0416731163859367,0.1035782247781753,0.0,0.0,0.3942404985427856,0.6124413013458252
-0.0499700531363487,0.0702216029167175,0.0901162400841713,-0.3104473650455475,0.0458991974592208,0.0845213085412979,0.0,0.0,0.3618673086166382,-0.8844330906867981
-0.0492055900394916,0.0635547041893005,0.0700969770550727,-0.2965169847011566,0.0521745532751083,0.1255069077014923,0.0,0.0,0.6465253829956055,0.8092942237854004
-0.0484336838126182,0.0570255629718303,0.0721587091684341,-0.2903653085231781,0.0571534298360347,0.0995775833725929,0.0,0.0,0.6043002605438232,0.952860951423645
-0.0477508530020713,0.0507616363465786,0.0649665519595146,-0.2785282731056213,0.0604377835988998,0.0656867772340774,0.0,0.0,0.6361641883850098,0.8487317562103271
-0.0472008697688579,0.0446574315428733,0.0532894134521484,-0.2713669836521148,0.0621216259896755,0.0336769632995128,0.0,0.0,0.8547711372375488,0.920196294784546
-0.0465003028512001,0.0391795001924037,0.0696182772517204,-0.2434838414192199,0.0625528171658515,0.008623749949038,0.0,0.0,0.4212745428085327,0.609813928604126
-0.0457169525325298,0.0335752591490745,0.0786637291312217,-0.2490645945072174,0.062240719795227,-0.0062419464811682,0.0,0.0,0.7431418895721436,0.0716669559478759
-0.0448338501155376,0.0285842753946781,0.0875532031059265,-0.2218522429466247,0.0629818439483642,0.0148226451128721,0.0,0.0,0.1668890714645385,0.131513237953186
-0.0440045371651649,0.0238061528652906,0.0819112956523895,-0.2124011814594268,0.0639896392822265,0.0201556980609893,0.0,0.0,0.5531005859375,0.5930192470550537
-0.0430381782352924,0.0196498017758131,0.0961287021636962,-0.1847496181726455,0.0644933655858039,0.0100743491202592,0.0,0.0,-0.0265703797340393,-0.5975869297981262
-0.0421159751713275,0.0148834083229303,0.0903201848268508,-0.211921751499176,0.0663689076900482,0.0375112071633338,0.0,0.0,0.7502657175064087,-0.3889989852905273
-0.0412616729736328,0.0108048059046268,0.0832342058420181,-0.1813682168722152,0.0685376077890396,0.0433741100132465,0.0,0.0,0.4634581804275512,0.3384268283843994
-0.0404045097529888,0.0071698045358061,0.0829550921916961,-0.1616871803998947,0.0712786465883255,0.0548206083476543,0.0,0.0,0.3341532945632934,0.6691774129867554
-0.0395419113337993,0.0042262054048478,0.1033809930086135,-0.1301081329584121,0.0543137677013874,-0.3393298387527466,0.0,1.0,0.6546834707260132,-0.0508150458335876
-0.0389321334660053,0.0021488524507731,0.0938652157783508,-0.0914747267961502,0.0217734351754188,-0.6508796811103821,0.0,1.0,0.5384960174560547,-0.56966233253479
-0.0384894385933876,0.0001625871664145,0.0753265395760536,-0.0881119146943092,-0.008891262114048,-0.6132941842079163,0.0,1.0,0.4317135810852051,-0.3688741326332092
-0.037973403930664,-0.0009815001394599,0.0635104849934578,-0.0509599111974239,-0.0206467267125844,-0.2351042032241821,1.0,0.0,0.0753916501998901,-0.244826078414917
-0.0373125076293945,-0.0015375757357105,0.0586197562515735,-0.0246311128139495,-0.0132762780413031,0.1474120169878006,1.0,0.0,-0.1956616640090942,-0.2654787302017212
-0.0367658622562885,-0.0015453362138941,0.0482701435685157,-0.0003027367929462,-0.00695930281654,0.1263386309146881,1.0,1.0,-0.5248498320579529,-0.2832348346710205
-0.0363438613712787,-0.0010396146681159,0.0379071831703186,0.0224931463599205,-0.0027345346752554,0.0844897404313087,1.0,1.0,-0.4881151914596557,-0.4931539297103882
-0.0359779372811317,-0.0002612376119941,0.03063490614295,0.0345957241952419,0.0031511599663645,0.117709495127201,1.0,1.0,-0.6306867003440857,0.4611015319824219
-0.035661794245243,-1.822948433982674e-05,0.0296976007521152,0.0107959965243935,0.0050415196456015,0.0378071963787078,1.0,1.0,-0.6550976037979126,-0.2081913948059082
