x_pos,y_pos,x_vel,y_vel,angle,ang_vel,leg_1,leg_2,main_booster,lat_booster
-0.0015746116405352,1.403034806251526,-0.1597155183553695,-0.3504544496536255,0.0020188982598483,0.0398436486721038,0.0,0.0,-0.4441189765930176,0.6049115657806396
-0.0031511306297034,1.394580364227295,-0.1585463583469391,-0.3757529258728027,0.0029034214094281,0.0176927521824836,0.0,0.0,0.0604685544967651,0.942319393157959
-0.0046073915436863,1.3859187364578247,-0.1448660939931869,-0.3849591314792633,0.0021416442468762,-0.0152365565299987,0.0,0.0,-0.3343938589096069,0.4435312747955322
-0.0061208726838231,1.3766674995422363,-0.1507983356714248,-0.4111695885658264,0.0016008659731596,-0.0108164427801966,0.0,0.0,0.4484925270080566,0.8883328437805176
-0.0074962615035474,1.367687463760376,-0.1356012523174286,-0.3991104364395141,-0.0003088392259087,-0.038197848945856,0.0,0.0,0.1392033100128173,0.6976230144500732
-0.0087698940187692,1.3586783409118652,-0.1244043484330177,-0.4004035890102386,-0.0032343608327209,-0.0585161633789539,0.0,0.0,0.0098843574523925,0.3520016670227051
-0.0101181026548147,1.3496094942092896,-0.1320290267467498,-0.4030733704566955,-0.0059974449686706,-0.0552662834525108,0.0,0.0,0.0470541715621948,0.1226698160171508
-0.0114325527101755,1.3405650854110718,-0.1293403953313827,-0.4019810855388641,-0.0080789560452103,-0.0416342392563819,0.0,0.0,0.4332401752471924,0.6552746295928955
-0.0127656934782862,1.3320266008377075,-0.1301122009754181,-0.3795050084590912,-0.0112499920651316,-0.0634267106652259,0.0,0.0,0.1896520853042602,0.9079997539520264
-0.0140880588442087,1.3236877918243408,-0.1274458467960357,-0.3706629872322082,-0.0159846562892198,-0.0947019755840301,0.0,0.0,-0.3217942714691162,-0.6117164492607117
-0.0155187603086233,1.3147608041763306,-0.1395750939846038,-0.3967958986759186,-0.0194430593401193,-0.0691742748022079,0.0,0.0,-0.1631615757942199,0.1795825958251953
-0.0170176513493061,1.3052443265914917,-0.1466371268033981,-0.4229972064495086,-0.0226639583706855,-0.0644237101078033,0.0,0.0,0.0254849195480346,0.9179031848907472
-0.0184069629758596,1.2957885265350342,-0.1340720802545547,-0.420338898897171,-0.0274751540273427,-0.0962325185537338,0.0,0.0,-0.0896999835968017,0.7784817218780518
-0.0197981838136911,1.2857331037521362,-0.1327586770057678,-0.4470291137695312,-0.0337653420865535,-0.1258152574300766,0.0,0.0,-0.0786095857620239,0.7922520637512207
-0.0211830139160156,1.2750933170318604,-0.1304084360599517,-0.473086804151535,-0.0417501032352447,-0.1597097814083099,0.0,0.0,0.1078865528106689,0.6565408706665039
-0.0224967002868652,1.264147162437439,-0.122340440750122,-0.4867688715457916,-0.0506845228374004,-0.1787046492099762,0.0,0.0,-0.2586725354194641,0.2338199615478515
-0.0238826759159564,1.2526122331619265,-0.1298272013664245,-0.5129810571670532,-0.059372067451477,-0.1737666875123977,0.0,0.0,0.128122329711914,-0.4577645063400268
-0.0252295490354299,1.2408628463745115,-0.1266150176525116,-0.522529661655426,-0.06735560297966,-0.1596855074167251,0.0,0.0,0.0620195865631103,-0.7800775170326233
-0.0266040805727243,1.2293027639389038,-0.1312637031078338,-0.5140678882598877,-0.0734955817461013,-0.1228106468915939,0.0,0.0,0.2459990978240966,0.4745461940765381
-0.028082275763154,1.2177987098693848,-0.1415933668613433,-0.5116151571273804,-0.0796702429652214,-0.1235041841864585,0.0,0.0,0.6993327140808105,0.2739763259887695
-0.0294428821653127,1.206845760345459,-0.1307083368301391,-0.4870930314064026,-0.0849807485938072,-0.1062198728322982,0.0,0.0,0.0665632486343383,0.4673404693603515
-0.0308470726013183,1.1957290172576904,-0.1353524178266525,-0.4943719506263733,-0.0900044366717338,-0.100482702255249,0.0,0.0,-0.019799530506134,0.9299347400665284
-0.0322380065917968,1.1840094327926636,-0.1320212334394455,-0.5213052034378052,-0.0970262587070465,-0.140448659658432,0.0,0.0,-0.2555080652236938,0.0753645896911621
-0.0337049476802349,1.1717005968093872,-0.1398836225271225,-0.5475111603736877,-0.1037926524877548,-0.1353401243686676,0.0,0.0,0.5631898641586304,-0.8355571031570435
-0.0353999137878418,1.1597468852996826,-0.1643912643194198,-0.5316458344459534,-0.1088674515485763,-0.1015049815177917,0.0,0.0,0.2899059057235718,0.9102277755737304
-0.0371719375252723,1.1480162143707275,-0.1704418361186981,-0.5218691825866699,-0.1155877113342285,-0.1344049721956253,0.0,0.0,0.5173413753509521,0.7944796085357666
-0.0388774871826171,1.136683702468872,-0.1624607741832733,-0.5043079257011414,-0.1236298307776451,-0.1608423888683319,0.0,0.0,-0.0209166407585144,0.8404440879821777
-0.0406078323721885,1.1247615814208984,-0.1638984531164169,-0.5306650996208191,-0.1327264010906219,-0.1819316297769546,0.0,0.0,0.0795305967330932,0.5679066181182861
-0.0423978790640831,1.1130175590515137,-0.1688472777605056,-0.5228920578956604,-0.1428482681512832,-0.2024373561143875,0.0,0.0,0.022737979888916,0.5939991474151611
-0.0441906936466693,1.1011241674423218,-0.1681892573833465,-0.5297037959098816,-0.153921827673912,-0.2214714735746383,0.0,0.0,0.2902354001998901,0.4907200336456299
-0.0459453575313091,1.0896189212799072,-0.1647128611803054,-0.5124979615211487,-0.1646721512079239,-0.2150061130523681,0.0,0.0,0.6668469905853271,0.7667819261550903
-0.0477311126887798,1.078181266784668,-0.1663964539766311,-0.5097324848175049,-0.1768698245286941,-0.2439536303281784,0.0,0.0,-0.1548012495040893,0.6434793472290039
-0.0495506301522254,1.0661499500274658,-0.1689483523368835,-0.5363255739212036,-0.1899214535951614,-0.2610324919223785,0.0,0.0,-0.3689186573028564,-0.6707157492637634
-0.0515061393380165,1.053540825843811,-0.1843110769987106,-0.5618767142295837,-0.2012330591678619,-0.226231962442398,0.0,0.0,0.7407565116882324,0.072582721710205
-0.0533904060721397,1.0413095951080322,-0.177548348903656,-0.5451343655586243,-0.2122104614973068,-0.2195476591587066,0.0,0.0,0.7873570919036865,0.0866658687591552
-0.0551608093082904,1.0296831130981443,-0.1665221154689788,-0.5182793736457825,-0.2228422164916992,-0.2126352488994598,0.0,0.0,0.072167158126831,-0.4898145198822021
-0.056960105895996,1.0179059505462646,-0.1696085631847381,-0.5250359177589417,-0.2332984507083892,-0.2091247737407684,0.0,0.0,-0.2524267435073852,-0.3509204387664795
-0.0588368400931358,1.0055394172668457,-0.1776307225227356,-0.5512421131134033,-0.2435007691383361,-0.204046368598938,0.0,0.0,0.3709124326705932,-0.4758279919624328
-0.0606539733707904,0.9936136603355408,-0.1717984974384308,-0.5317111611366272,-0.2536007165908813,-0.2019991129636764,0.0,0.0,0.6305924654006958,-0.6639961004257202
-0.0624189376831054,0.9819788932800292,-0.1682303100824356,-0.5185564160346985,-0.2620387077331543,-0.1687594652175903,0.0,0.0,0.682621955871582,-0.2899826765060425
-0.0641606301069259,0.9709457755088806,-0.1656620353460312,-0.4919078648090362,-0.2707273960113525,-0.1737737357616424,0.0,0.0,-0.7086131572723389,0.0814529657363891
-0.0659789070487022,0.9593230485916138,-0.1736026555299759,-0.5181105136871338,-0.2791643142700195,-0.168738842010498,0.0,0.0,-0.7783076167106628,-0.4474883675575256
-0.0678737610578537,0.9471107721328736,-0.1815148442983627,-0.5443126559257507,-0.2873501777648926,-0.1637174785137176,0.0,0.0,0.9859609603881836,-0.7961380481719971
-0.0696007758378982,0.9351927638053894,-0.1668401211500167,-0.5308600664138794,-0.2933850884437561,-0.1206984966993331,0.0,0.0,0.1593393087387085,0.5059568881988525
-0.071336843073368,0.9229720234870912,-0.1669376790523529,-0.5445060729980469,-0.3002674281597137,-0.1376466602087021,0.0,0.0,0.4399870634078979,-0.4011750221252441
-0.0730239897966384,0.9105607867240906,-0.1624830365180969,-0.5529110431671143,-0.3067158460617065,-0.1289686262607574,0.0,0.0,-0.366118311882019,-0.7617565393447876
-0.0748385414481163,0.8975798487663269,-0.1768148988485336,-0.5779179930686951,-0.3115266859531402,-0.0962170585989952,0.0,0.0,-0.4498874545097351,-0.8321659564971924
-0.0767999663949012,0.8840528130531311,-0.1936903446912765,-0.601732611656189,-0.3140688836574554,-0.0508441217243671,0.0,0.0,-0.7899870276451111,-0.8018322587013245
-0.0789073929190635,0.869977593421936,-0.210460215806961,-0.6256273984909058,-0.3143629133701324,-0.0058807292953133,0.0,0.0,0.315474271774292,-0.6760745644569397
-0.0810321792960167,0.8559209704399109,-0.2137317210435867,-0.6244654059410095,-0.3130654692649841,0.0259497668594121,0.0,0.0,-0.2191265821456909,-0.4800779819488525
-0.0832302123308181,0.8412739634513855,-0.221291035413742,-0.6506614089012146,-0.3115243017673492,0.0308230780065059,0.0,0.0,-0.0424347519874572,-0.5186838507652283
-0.0855427756905555,0.8260601758956909,-0.2340941429138183,-0.6755573153495789,-0.3085789382457733,0.058907251805067,0.0,0.0,-0.8508105874061584,-0.2870907783508301
-0.0879272446036338,0.8102561831474304,-0.2415294200181961,-0.7017540335655212,-0.3053923845291137,0.0637309104204177,0.0,0.0,0.0130705833435058,-0.2388688325881958
-0.0902341827750206,0.7945606112480164,-0.2340103089809417,-0.6968886852264404,-0.3019570112228393,0.068707637488842,0.0,0.0,0.193533182144165,0.121974229812622
-0.0924041718244552,0.778731107711792,-0.2210336923599243,-0.7027005553245544,-0.2977854311466217,0.0834317207336425,0.0,0.0,0.1168504953384399,0.1318849325180053
-0.094612218439579,0.7627966403961182,-0.2247917652130127,-0.7073933482170105,-0.29367595911026,0.0821891278028488,0.0,0.0,0.8426333665847778,-0.175117015838623
-0.0965316742658615,0.7475025057792664,-0.1966302245855331,-0.6787984371185303,-0.2888465523719787,0.0965879335999488,0.0,0.0,-0.4420448541641235,0.154468297958374
-0.0985193252563476,0.7316185235977173,-0.2036844789981842,-0.7049968838691711,-0.2837840914726257,0.1012497097253799,0.0,0.0,0.7009758949279785,-0.1466594338417053
-0.1002630218863487,0.7163324952125549,-0.1798739284276962,-0.6783136129379272,-0.2781347632408142,0.112986609339714,0.0,0.0,-0.1121749877929687,-0.2479398846626281
-0.1020731925964355,0.7004566788673401,-0.1867460459470749,-0.7045130133628845,-0.2722564935684204,0.1175646036863327,0.0,0.0,0.3520035743713379,0.021691083908081
-0.1038269028067588,0.6844120621681213,-0.1815245747566223,-0.7119702100753784,-0.2659578919410705,0.1259714663028717,0.0,0.0,0.6540635824203491,0.5353329181671143
-0.1055229157209396,0.6688220500946045,-0.174644261598587,-0.6919813752174377,-0.2608006298542022,0.1031444221735,0.0,0.0,0.1432207822799682,-0.5928409099578857
-0.1071435958147049,0.6531407833099365,-0.1686583161354065,-0.69579017162323,-0.2540745735168457,0.1345213800668716,0.0,0.0,0.402152419090271,0.2649754285812378
-0.1086764335632324,0.6376175880432129,-0.1601906269788742,-0.6887444257736206,-0.2470376044511795,0.1407398283481598,0.0,0.0,0.505958080291748,0.475178599357605
-0.1101741790771484,0.6220334768295288,-0.1569344103336334,-0.6914376616477966,-0.2397523522377014,0.1457051485776901,0.0,0.0,0.2337088584899902,0.5600314140319824
-0.1116827949881553,0.6065236330032349,-0.1569322049617767,-0.6883503198623657,-0.2335804402828216,0.1234383210539817,0.0,0.0,0.6292803287506104,0.1011809110641479
-0.113034151494503,0.5916483402252197,-0.1415251791477203,-0.6601267457008362,-0.2271022647619247,0.1295634359121322,0.0,0.0,0.6900262832641602,0.3251320123672485
-0.1142937690019607,0.5765922665596008,-0.1329552382230758,-0.6680984497070312,-0.2200311720371246,0.141422301530838,0.0,0.0,0.6639362573623657,0.4861130714416504
-0.1153954491019249,0.5621963739395142,-0.1174858808517456,-0.6387423276901245,-0.2126337438821792,0.1479488462209701,0.0,0.0,0.5388833284378052,-0.0376586318016052
-0.1165446266531944,0.5478853583335876,-0.1220402494072914,-0.6350382566452026,-0.2054457515478134,0.1437599211931228,0.0,0.0,0.3556143045425415,0.2112601995468139
-0.1177077293395996,0.5338238477706909,-0.1232864707708358,-0.6240042448043823,-0.1984149068593979,0.1406168043613433,0.0,0.0,0.1101216077804565,0.5899262428283691
-0.1187721267342567,0.5197681784629822,-0.1124641448259353,-0.6238958835601807,-0.1923470050096511,0.121358036994934,0.0,0.0,-0.1896988749504089,0.7316099405288696
-0.1198414787650108,0.5051180720329285,-0.1120094656944274,-0.6504688262939453,-0.1872471123933792,0.1019978672266006,0.0,0.0,0.6200459003448486,0.6398277282714844
-0.1207281127572059,0.4906767606735229,-0.0928157866001129,-0.6413171887397766,-0.183079108595848,0.0833602994680404,0.0,0.0,0.5354104042053223,0.2829571962356567
-0.1216271370649337,0.4761903882026672,-0.0940796732902526,-0.6433301568031311,-0.1788864135742187,0.0838539898395538,0.0,0.0,0.8860771656036377,0.916979193687439
-0.1223517432808876,0.461610198020935,-0.0751199126243591,-0.6476907730102539,-0.1762237846851349,0.0532525703310966,0.0,0.0,0.9035625457763672,-0.1525427103042602
-0.1230883598327636,0.4470272660255432,-0.076301097869873,-0.6478172540664673,-0.173572763800621,0.0530205368995666,0.0,0.0,0.9355132579803468,-0.1133188009262085
-0.123717114329338,0.4332299828529358,-0.0656265020370483,-0.6128918528556824,-0.1708172261714935,0.0551106445491313,0.0,0.0,0.9537191390991212,-0.1970348358154297
-0.1241299659013748,0.4202448725700378,-0.0446227826178073,-0.5767389535903931,-0.1674813032150268,0.06671854108572,0.0,0.0,0.6155085563659668,0.4322148561477661
-0.124557688832283,0.4078794717788696,-0.0457276999950408,-0.5492426753044128,-0.1645178794860839,0.0592685565352439,0.0,0.0,0.3404750823974609,0.6316959857940674
-0.1250451058149337,0.3953316509723663,-0.0503533780574798,-0.5575007200241089,-0.1629098802804947,0.0321596786379814,0.0,0.0,0.6999400854110718,-0.1482419967651367
-0.1253961622714996,0.3833880424499511,-0.0370263457298278,-0.5306227803230286,-0.1609908491373062,0.0383809059858322,0.0,0.0,0.6479216814041138,-0.8467345833778381
-0.1258669793605804,0.3717475235462188,-0.0506259016692638,-0.5169733166694641,-0.1574483066797256,0.0708506479859352,0.0,0.0,0.5705764293670654,0.437214732170105
-0.126321405172348,0.3604843318462372,-0.0488472841680049,-0.5002304315567017,-0.1540448665618896,0.0680688470602035,0.0,0.0,0.2872422933578491,0.870964765548706
-0.126665785908699,0.3494300544261932,-0.0361857339739799,-0.4911218881607055,-0.1522972732782364,0.0349523052573204,0.0,0.0,0.5324515104293823,0.1580229997634887
-0.1268780678510666,0.3385677337646484,-0.0234455727040767,-0.4825425148010254,-0.150091677904129,0.0441121533513069,0.0,0.0,0.494625449180603,0.4188656806945801
-0.1270510703325271,0.3275703191757202,-0.019686035811901,-0.4885354340076446,-0.147712305188179,0.0475878193974494,0.0,0.0,0.6286177635192871,-0.377754271030426
-0.1271018087863922,0.3165520429611206,-0.007939413189888,-0.4894198179244995,-0.1448448002338409,0.057350069284439,0.0,0.0,0.6179735660552979,-0.3697366118431091
-0.1269539892673492,0.3057430982589721,0.0111806569620966,-0.4800514876842499,-0.1412552446126938,0.0717908516526222,0.0,0.0,0.3863568305969238,-0.1539528369903564
-0.1266670227050781,0.294811487197876,0.0245088748633861,-0.4854574203491211,-0.1370786875486374,0.0835311636328697,0.0,0.0,0.5063923597335815,-0.0446667671203613
-0.1263131201267242,0.284309446811676,0.0311837997287511,-0.4663781523704529,-0.1328898072242736,0.0837777182459831,0.0,0.0,0.2759077548980713,-0.2594380378723144
-0.1258779466152191,0.274084210395813,0.039174310863018,-0.4540729820728302,-0.1285638213157653,0.086519680917263,0.0,0.0,0.2043399810791015,-0.2115901708602905
-0.1253087967634201,0.263975590467453,0.052127432078123,-0.4488660395145416,-0.1238009706139564,0.0952569395303726,0.0,0.0,0.2070609331130981,0.0772188901901245
-0.12465400993824,0.2536191046237945,0.0603416189551353,-0.4598701298236847,-0.1186898797750473,0.1022218093276023,0.0,0.0,0.2871334552764892,-0.0466639995574951
-0.1240082755684852,0.2432716488838195,0.0596253760159015,-0.459503710269928,-0.1137701943516731,0.0983936041593551,0.0,0.0,0.7411842346191406,0.2081584930419922
-0.1231844872236251,0.2336749136447906,0.0770140513777732,-0.4261244833469391,-0.1084493324160575,0.1064173951745033,0.0,0.0,-0.4566695690155029,0.4325549602508545
-0.1223732978105545,0.2234890311956405,0.0757830888032913,-0.452329158782959,-0.103148877620697,0.1060090512037277,0.0,0.0,0.1336526870727539,0.2304153442382812
-0.121601864695549,0.2135416120290756,0.0722281262278556,-0.441778302192688,-0.098272755742073,0.0975226014852523,0.0,0.0,0.5367436408996582,0.0444430112838745
-0.1206957846879959,0.203962042927742,0.0853413790464401,-0.4254226088523865,-0.0930601730942726,0.1042516380548477,0.0,0.0,-0.2310285568237304,-0.095334768295288
-0.1197982802987098,0.1937933266162872,0.084544338285923,-0.4516273736953735,-0.0878940001130104,0.1033234819769859,0.0,0.0,0.6952369213104248,0.1146283149719238
-0.1189249008893966,0.1841946691274643,0.0825698524713516,-0.4263345599174499,-0.0831750705838203,0.0943783670663833,0.0,0.0,0.3780074119567871,0.0480254888534545
-0.1180436164140701,0.174630269408226,0.0835201069712638,-0.4248354136943817,-0.0786145329475402,0.0912107601761818,0.0,0.0,0.5413182973861694,-0.2712114453315735
-0.1172315627336502,0.1653284430503845,0.0771804600954055,-0.4132080376148224,-0.0746274143457412,0.079742394387722,0.0,0.0,0.5121821165084839,-0.1762312054634094
-0.1165246963500976,0.1561698019504547,0.0673790425062179,-0.4068895280361175,-0.0713545829057693,0.065456323325634,0.0,0.0,0.522492527961731,-0.7907744646072388
-0.1157270446419715,0.1474124938249588,0.0747790858149528,-0.3889845311641693,-0.0664155930280685,0.0987797155976295,0.0,0.0,0.5173959732055664,-0.229853868484497
-0.1148521453142166,0.138567641377449,0.0823250561952591,-0.3928844034671783,-0.0613066963851451,0.1021778732538223,0.0,0.0,0.3850979804992676,0.0476164817810058
-0.1138172149658203,0.1300800591707229,0.0978554189205169,-0.3770022690296173,-0.0557322613894939,0.1114884465932846,0.0,0.0,0.620640754699707,0.2754266262054443
-0.1127619743347168,0.1221454441547393,0.100099965929985,-0.3524582684040069,-0.0503645949065685,0.1073532328009605,0.0,0.0,0.4766819477081299,-0.2989989519119262
-0.1115395575761795,0.1147562861442565,0.1163168177008628,-0.3282187879085541,-0.044515635818243,0.1169793754816055,0.0,0.0,-0.3637968301773071,-0.0122646689414978
-0.1103152260184288,0.1067781075835228,0.1166309341788292,-0.3544241786003113,-0.0387805327773094,0.1147020831704139,0.0,0.0,0.3873034715652466,0.6369767189025879
-0.1090175658464431,0.0992422401905059,0.1253693252801895,-0.3348207175731659,-0.0344435274600982,0.0867398679256439,0.0,0.0,-0.1850496530532837,0.0375440120697021
-0.1077165603637695,0.091117151081562,0.1258360296487808,-0.361024796962738,-0.0302301179617643,0.0842683836817741,0.0,0.0,0.8866264820098877,-0.8485053777694702
-0.1063619628548622,0.0831821039319038,0.1294170320034027,-0.3525586724281311,-0.0242577586323022,0.1194470897316932,0.0,0.0,0.9317234754562378,-0.1885648965835571
-0.1051280945539474,0.0757472366094589,0.1181402802467346,-0.3303616344928741,-0.019079141318798,0.1035724282264709,0.0,0.0,0.7121400833129883,0.5546154975891113
-0.1039773970842361,0.0685245096683502,0.1114628463983535,-0.3209674060344696,-0.015519892796874,0.0711850300431251,0.0,0.0,0.9686112403869628,0.5444456338882446
-0.1027947440743446,0.0617191419005394,0.1159719675779342,-0.3024381101131439,-0.0132630504667758,0.0451371893286705,0.0,0.0,0.8339633941650391,0.6382898092269897
-0.1015168204903602,0.0552096702158451,0.1268567740917205,-0.2893022298812866,-0.0123399756848812,0.018461424857378,0.0,0.0,0.6391458511352539,-0.3435343503952026
-0.1000986099243164,0.048643335700035,0.1404238641262054,-0.2918233573436737,-0.0109636429697275,0.0275269486010074,0.0,0.0,0.8336350917816162,-0.2056217789649963
-0.0985572785139083,0.0426240302622318,0.1523753404617309,-0.2675113379955292,-0.0092359231784939,0.0345544889569282,0.0,0.0,0.852063775062561,-0.3238782882690429
-0.0969728454947471,0.0373711921274662,0.1567219942808151,-0.2334496527910232,-0.007529831957072,0.0341215506196022,0.0,0.0,0.2533284425735473,-0.39766526222229
