x_pos,y_pos,x_vel,y_vel,angle,ang_vel,leg_1,leg_2,main_booster,lat_booster
-0.001491928123869,1.4029124975204468,-0.1511985957622528,-0.3558941781520843,0.0017946382286027,0.0354034602642059,0.0,0.0,0.0169739723205566,0.7506530284881592
-0.002856635954231,1.3946385383605957,-0.1368032842874527,-0.3677298128604889,0.0021290646400302,0.0066896812058985,0.0,0.0,-0.2024486660957336,-0.0196875929832458
-0.0041893003508448,1.3856520652770996,-0.1336476802825927,-0.3994002342224121,0.0025060714688152,0.00754085322842,0.0,0.0,0.0950222015380859,0.7879621982574463
-0.0055199624039232,1.376447677612305,-0.131849005818367,-0.4090847969055176,0.0012952035758644,-0.0242195185273885,0.0,0.0,0.1097341775894165,0.6897177696228027
-0.0066667557694017,1.367190718650818,-0.1122391670942306,-0.4114210903644562,-0.0011138309491798,-0.0481853298842906,0.0,0.0,0.0906476974487304,0.290460467338562
-0.0076905251480638,1.3577593564987185,-0.1004097685217857,-0.4191722571849823,-0.0030476110987365,-0.038679115474224,0.0,0.0,-0.5329182147979736,0.1980433464050293
-0.0086821559816598,1.347616195678711,-0.0972451567649841,-0.4508175253868103,-0.0049400837160646,-0.0378530137240886,0.0,0.0,-0.3302717804908752,0.3670337200164795
-0.0096416473388671,1.3367609977722168,-0.0940806046128273,-0.4824597239494324,-0.006790854036808,-0.037018783390522,0.0,0.0,-0.3011354207992553,-0.4394173622131347
-0.0105691906064748,1.3251941204071045,-0.0909167453646659,-0.5141028165817261,-0.0086003774777054,-0.0361940152943134,0.0,0.0,0.0747345685958862,-0.867704451084137
-0.0115294456481933,1.3136301040649414,-0.0959780514240264,-0.5139560103416443,-0.0086501203477382,-0.0009948830120265,0.0,0.0,0.4882314205169678,-0.1764241456985473
-0.0123754497617483,1.3021560907363892,-0.0849639177322387,-0.5099495053291321,-0.0082920482382178,0.0071621634997427,0.0,0.0,0.0172986984252929,0.2841928005218506
-0.0131432535126805,1.2904574871063232,-0.0773932337760925,-0.5199356079101562,-0.0076877982355654,0.0120863076299428,0.0,0.0,-0.5669236183166504,-0.5475531220436096
-0.0139129636809229,1.278050184249878,-0.0784862786531448,-0.5514332056045532,-0.0061928355135023,0.0299021005630493,0.0,0.0,-0.5932193398475647,-0.5264343023300171
-0.0146876331418752,1.264926195144653,-0.0799540132284164,-0.5832751393318176,-0.0037347362376749,0.0491668954491615,0.0,0.0,-0.1944971084594726,-0.0393264889717102
-0.0154304504394531,1.2510905265808103,-0.0768130719661712,-0.6149190664291382,-0.0012381490087136,0.0499363467097282,0.0,0.0,-0.393775463104248,0.022979736328125
-0.0161414146423339,1.236542820930481,-0.0736750960350036,-0.6465631127357483,0.0012970078969374,0.0507078766822814,0.0,0.0,0.0185232162475585,-0.5876514315605164
-0.0167723651975393,1.222081184387207,-0.067004844546318,-0.6427423357963562,0.0051685953512787,0.0774388238787651,0.0,0.0,-0.7042101621627808,0.3921362161636352
-0.017371654510498,1.2069077491760254,-0.0638783574104309,-0.674393892288208,0.0090769249945878,0.0781737118959426,0.0,0.0,0.031646728515625,0.2405190467834472
-0.0178832057863473,1.1917753219604492,-0.0554312765598297,-0.6725853085517883,0.0133065301924943,0.0845998600125312,0.0,0.0,-0.8347731828689575,-0.1111555099487304
-0.0183631889522075,1.1759309768676758,-0.0523147098720073,-0.7042368054389954,0.0175725948065519,0.085328884422779,0.0,0.0,-0.8220193386077881,0.5373814105987549
-0.0187603943049907,1.1593800783157349,-0.0427528284490108,-0.7356294989585876,0.0205812565982341,0.0601785071194171,0.0,0.0,-0.4061737656593323,0.3752063512802124
-0.0191259384155273,1.1421173810958862,-0.0396436601877212,-0.7672744989395142,0.0236265491694211,0.0609112307429313,0.0,0.0,0.0038777589797973,0.3557896614074707
-0.019389247521758,1.1246418952941897,-0.0298075769096612,-0.7767516374588013,0.0270740576088428,0.0689561963081359,0.0,0.0,-0.2632982730865478,0.6255130767822266
-0.0195658691227436,1.1064497232437134,-0.0197766087949275,-0.808584451675415,0.0291692540049552,0.0419075563549995,0.0,0.0,0.4096021652221679,0.1591649055480957
-0.0198482517153024,1.0883636474609375,-0.0298326816409826,-0.8038594126701355,0.0307383798062801,0.0313854180276393,0.0,0.0,-0.0837473273277282,0.3619904518127441
-0.0200990680605173,1.069543957710266,-0.0267057809978723,-0.836460292339325,0.0323423258960247,0.0320790708065032,0.0,0.0,0.5153433084487915,0.6413021087646484
-0.0202858932316303,1.0510181188583374,-0.0190512780100107,-0.8233821392059326,0.0327129215002059,0.0074116000905632,0.0,0.0,0.5419790744781494,0.2228996753692627
-0.0205885879695415,1.0329289436340332,-0.0301210042089223,-0.8039539456367493,0.0325536839663982,-0.0031846214551478,0.0,0.0,-0.0755519866943359,-0.2917996644973755
-0.0208605770021677,1.0141280889511108,-0.0270665343850851,-0.8355958461761475,0.0324286110699176,-0.0025010148528963,0.0,0.0,0.5688430070877075,-0.2804483771324157
-0.0211366657167673,0.99530827999115,-0.0274246297776699,-0.8364284634590149,0.0322451665997505,-0.0036689527332782,0.0,0.0,0.8375978469848633,0.4229437112808227
-0.0213916786015033,0.9771894216537476,-0.0254475623369216,-0.805281937122345,0.0321915261447429,-0.001072647399269,0.0,0.0,0.7575433254241943,-0.369321346282959
-0.0217139236629009,0.9590535163879396,-0.0318187065422534,-0.8060294389724731,0.0317882969975471,-0.0080645196139812,0.0,0.0,0.4956021308898926,-0.0382420420646667
-0.0221036914736032,0.9412901401519777,-0.0382484272122383,-0.7894685864448547,0.031072175130248,-0.0143224988132715,0.0,0.0,0.7749649286270142,0.1124398708343505
-0.0225438121706247,0.9233925938606262,-0.0429990515112876,-0.7954256534576416,0.0300717130303382,-0.0200091712176799,0.0,0.0,0.0957444906234741,-0.4579444527626037
-0.0229557994753122,0.9054073691368104,-0.040264643728733,-0.7993266582489014,0.0291531961411237,-0.0183704532682895,0.0,0.0,0.8914653062820435,0.0250446796417236
-0.0233425144106149,0.8880093097686768,-0.0378687120974063,-0.773227334022522,0.0283625032752752,-0.0158138833940029,0.0,0.0,-0.0022501349449157,-0.5352035164833069
-0.0237439163029193,0.8698947429656982,-0.0404978021979332,-0.8050957918167114,0.0287140198051929,0.007029965519905,0.0,0.0,0.8916635513305664,0.1624859571456909
-0.0240976326167583,0.8523769974708557,-0.0359621867537498,-0.7785781621932983,0.0292975753545761,0.0116712069138884,0.0,0.0,0.2631425857543945,0.6737362146377563
-0.0244217868894338,0.8351215720176697,-0.0316245183348655,-0.7668923735618591,0.0285184755921363,-0.0155821265652775,0.0,0.0,-0.4626921415328979,-0.2390052080154419
-0.0247174259275198,0.8171542286872864,-0.0288033038377761,-0.7985342741012573,0.0277685523033142,-0.0149982450529932,0.0,0.0,0.4022817611694336,-0.1414705514907837
-0.0250938422977924,0.7994619607925415,-0.0364846400916576,-0.7862949371337891,0.0266278088092803,-0.0228148102760314,0.0,0.0,0.6093549728393555,-0.156801164150238
-0.0253358837217092,0.781827449798584,-0.0236375443637371,-0.7837493419647217,0.0260708462446928,-0.0111394338309764,0.0,0.0,0.286460280418396,0.2129737138748169
-0.0254813190549612,0.7638500928878784,-0.0143588092178106,-0.798991322517395,0.0258906204253435,-0.0036044686567038,0.0,0.0,0.4586204290390014,0.4163341522216797
-0.0255242343991994,0.7458639740943909,-0.0045526549220085,-0.7993857264518738,0.0261417366564273,0.0050224047154188,0.0,0.0,-0.2978956699371338,0.5160425901412964
-0.0255027767270803,0.7271613478660583,0.0028456030413508,-0.8312161564826965,0.0254612267017364,-0.0136104701086878,0.0,0.0,0.6241312026977539,0.5939904451370239
-0.0253678318113088,0.7082371115684509,0.015226905234158,-0.8410541415214539,0.0237424224615097,-0.0343760251998901,0.0,0.0,0.4329292774200439,0.4874178171157837
-999.0,0.6891838312149048,0.0218480210751295,-0.8467839360237122,0.0222909972071647,-0.0290286503732204,0.0,0.0,0.565253496170044,0.3500121831893921
-0.025059700012207,0.6705998778343201,0.0123776961117982,-0.8259276151657104,0.0203683581203222,-0.0384529009461402,0.0,0.0,0.4269050359725952,-0.0631758570671081
-0.02505998685956,0.6523213982582092,0.0024399172980338,-0.8123475313186646,0.0179357156157493,-0.0486524775624275,0.0,0.0,-0.0598806738853454,0.6541948318481445
-0.0249872207641601,0.6333306431770325,0.0110002774745225,-0.8439986705780029,0.014266587793827,-0.0733826979994773,0.0,0.0,0.8095672130584717,-0.403546929359436
-0.0247438438236713,0.6145694851875305,0.0272948052734136,-0.8338057994842529,0.0113414097577333,-0.0585037767887115,0.0,0.0,0.8272937536239624,-0.3112657070159912
-0.0245520584285259,0.5963174700737,0.0224286764860153,-0.8111776113510132,0.0081372559070587,-0.0640829876065254,0.0,0.0,0.5216667652130127,-0.4516159296035766
-0.0242424011230468,0.5779691338539124,0.0337257795035839,-0.8154715299606323,0.0054128793999552,-0.0544878356158733,0.0,0.0,0.7480556964874268,0.036867618560791
-0.0239144321531057,0.5601748824119568,0.0355273112654686,-0.7908468246459961,0.0027164046186953,-0.0539294779300689,0.0,0.0,0.5617791414260864,-0.461977481842041
-0.0234285350888967,0.5423607230186462,0.0506568551063537,-0.7917380928993225,0.0006820482667535,-0.0406871400773525,0.0,0.0,0.3608157634735107,-0.7990635633468628
-0.0230775829404592,0.5244130492210388,0.0356529876589775,-0.7976718544960022,0.0001333644322585,-0.0109737757593393,0.0,0.0,0.6863517761230469,-0.0847684144973754
-0.0226146690547466,0.5069738030433655,0.0463888868689537,-0.7750797271728516,3.539810859365389e-05,-0.0019592777825891,0.0,0.0,0.707378625869751,-0.2928810119628906
-0.0219944007694721,0.489868015050888,0.0614549405872821,-0.7602549195289612,0.0006020972505211,0.0113337021321058,0.0,0.0,0.7414212226867676,-0.8774250149726868
-0.0213432312011718,0.4733611941337585,0.0626224279403686,-0.7336397767066956,0.0030642671044915,0.0492432527244091,0.0,0.0,-0.3492985963821411,-0.1224105954170227
-0.0206800457090139,0.4561425447463989,0.0638270750641822,-0.7652820348739624,0.0055274874903261,0.0492644496262073,0.0,0.0,0.8873980045318604,-0.1779349446296692
-0.0199501030147075,0.4388470351696014,0.0702313184738159,-0.7687013149261475,0.0082603339105844,0.0546569339931011,0.0,0.0,0.9349144697189332,-0.6415898203849792
-0.0193943977355957,0.4220730662345886,0.0518450029194355,-0.745534360408783,0.0119351828470826,0.0734969526529312,0.0,0.0,0.789726972579956,-0.1577320098876953
-0.0187040325254201,0.4054299890995025,0.0646943598985672,-0.7397288084030151,0.0162241589277982,0.0857795253396034,0.0,0.0,0.8494659662246704,-0.0355740785598754
-0.0179923065006732,0.3891051411628723,0.0667070373892784,-0.7256070971488953,0.0206284616142511,0.088086113333702,0.0,0.0,0.876686692237854,-0.1390846967697143
-0.017276668921113,0.3727515935897827,0.0670679211616516,-0.7268896698951721,0.025065328925848,0.0887375175952911,0.0,0.0,0.9428204298019408,0.5815329551696777
-0.0166846271604299,0.3567247986793518,0.0563354678452014,-0.7123540639877319,0.0278995707631111,0.0566849894821643,0.0,0.0,0.9694199562072754,0.0616788864135742
-0.0160941127687692,0.3415168225765228,0.0560631677508354,-0.6759669780731201,0.0308401193469762,0.0588110014796257,0.0,0.0,0.9602752923965454,0.4063664674758911
-0.015417480841279,0.3261218667030334,0.0642443820834159,-0.6842969059944153,0.0342175029218196,0.0675479024648666,0.0,0.0,0.9309273958206176,0.2417024374008178
-0.0147453304380178,0.3115124106407165,0.0636551231145858,-0.6493940949440002,0.0377257131040096,0.0701642483472824,0.0,0.0,0.8517272472381592,0.197221040725708
-0.0142024038359522,0.2969804108142853,0.0512625277042388,-0.6459453105926514,0.0407292246818542,0.0600700974464416,0.0,0.0,0.9607566595077516,0.2045267820358276
-0.0138061521574854,0.2829343676567077,0.0371114499866962,-0.6243401169776917,0.0432103425264358,0.0496224537491798,0.0,0.0,0.9767835140228271,0.5241687297821045
-0.0133685115724802,0.2692985236644745,0.0422098003327846,-0.6060831546783447,0.0447458513081073,0.0307100750505924,0.0,0.0,0.9798812866210938,0.1958289146423339
-0.0131385801360011,0.256456971168518,0.0221823453903198,-0.5707600116729736,0.0455464124679565,0.0160110909491777,0.0,0.0,0.9871790409088136,0.7846996784210205
-0.0127921104431152,0.2439550012350082,0.0352225862443447,-0.5556231737136841,0.0449820086359977,-0.0112882787361741,0.0,0.0,0.7335245609283447,0.5546154975891113
-0.0124689098447561,0.2313521951436996,0.0341291837394237,-0.5600729584693909,0.0431898236274719,-0.0358435623347759,0.0,0.0,0.8393633365631104,-0.2578598260879516
-0.012098217383027,0.2185846716165542,0.0385561622679233,-0.5674027800559998,0.0417237319052219,-0.0293218586593866,0.0,0.0,0.9849767684936525,-0.1324135065078735
-0.0117961885407567,0.2057140618562698,0.0318921245634555,-0.5719814300537109,0.0400569401681423,-0.033335842192173,0.0,0.0,0.9715522527694702,0.0554851293563842
-0.0115570072084665,0.1935495734214782,0.0256832279264926,-0.5405961871147156,0.0383179783821105,-0.0347792506217956,0.0,0.0,0.913036584854126,0.0940757989883422
-0.0112773897126317,0.182094469666481,0.0293090585619211,-0.509085476398468,0.036980964243412,-0.0267405156046152,0.0,0.0,0.8330078125,-0.3148078918457031
-0.0111729623749852,0.1712797284126281,0.0124053917825222,-0.4806068837642669,0.0350405201315879,-0.0388088896870613,0.0,0.0,0.7499563694000244,0.6361902952194214
-0.0111964223906397,0.1602673679590225,0.0012969870585948,-0.4893548786640167,0.0314451418817043,-0.0719073861837387,0.0,0.0,0.7317429780960083,-0.0804680585861206
-0.0112228393554687,0.1497875750064849,0.0008284944924525,-0.4657012224197387,0.0280165448784828,-0.0685721263289451,0.0,0.0,0.8769108057022095,0.0101832151412963
-0.0114027978852391,0.1395715028047561,-0.0139536652714014,-0.4539787173271179,0.0240260418504476,-0.0798098519444465,0.0,0.0,0.7487413883209229,-0.0166513323783874
-0.0116788865998387,0.1297174245119094,-0.0232736114412546,-0.4378939867019653,0.0197371952235698,-0.0857768058776855,0.0,0.0,0.6807830333709717,0.4980982542037964
-0.0120030399411916,0.1202181875705719,-0.0279836002737283,-0.4221354126930237,0.0153616666793823,-0.0875105783343315,0.0,0.0,0.7533996105194092,-0.2557403445243835
-0.012266730889678,0.1109355315566062,-0.0223325155675411,-0.4125290811061859,0.0113833826035261,-0.0795657858252525,0.0,0.0,0.9074692726135254,-0.6742177605628967
-0.0125818252563476,0.1015267670154571,-0.0288888923823833,-0.4181511104106903,0.008788620121777,-0.0518949031829834,0.0,0.0,0.9141311645507812,0.6020969152450562
-0.012762451544404,0.0921035632491111,-0.0145053435117006,-0.4187904596328735,0.0052777761593461,-0.070216991007328,0.0,0.0,0.9472863674163818,-0.3911803364753723
-0.0127976415678858,0.0829795449972152,-0.0007422285852953,-0.4055047929286957,0.0025371285155415,-0.0548130981624126,0.0,0.0,0.975928544998169,-0.6307870149612427
-0.0127306934446096,0.0738468766212463,0.0077517456375062,-0.4058979153633117,0.0014994033845141,-0.0207544490694999,0.0,0.0,0.9857553243637084,-0.5108359456062317
-0.0127381328493356,0.0653602927923202,-0.000666779698804,-0.3771823346614837,0.0014228556538,-0.0015308804577216,0.0,0.0,0.9798309803009032,0.3987244367599487
-0.0127356527373194,0.057525310665369,0.0001783648040145,-0.3482203781604767,0.0014849500730633,0.0012421107385307,0.0,0.0,0.9759528636932372,0.3109471797943115
-0.0126118659973144,0.0501754134893417,0.0116543378680944,-0.3266605138778686,0.0022029806859791,0.0143604669719934,0.0,0.0,0.9309974908828736,-0.5499573349952698
-0.0124340057373046,0.0426803939044475,0.0156171871349215,-0.3331139683723449,0.0043434402905404,0.0428093187510967,0.0,0.0,0.95678973197937,0.4411753416061401
-0.0123480800539255,0.0353778451681137,0.0067447326146066,-0.3245641589164734,0.0061624683439731,0.036380723118782,0.0,0.0,0.9982928037643432,0.1177383661270141
-0.0121936798095703,0.0289296731352806,0.0131485359743237,-0.2865971028804779,0.0084213325753808,0.0451773181557655,0.0,0.0,0.9725840091705322,-0.1755487322807312
-0.0121006965637207,0.0227884873747825,0.0071808858774602,-0.2729541063308716,0.0105175478383898,0.0419242605566978,0.0,0.0,0.976010799407959,0.2302905321121215
-0.0121945384889841,0.0173601247370243,-0.0107741001993417,-0.2412689179182052,0.0118912132456898,0.027473509311676,0.0,0.0,0.9338586330413818,0.9646990299224854
-0.0121371271088719,0.0124533269554376,0.0061287279240787,-0.2180781066417694,0.0115060098469257,-0.00770412851125,0.0,0.0,0.7920221090316772,-0.0340633392333984
-0.0121756549924612,0.0080542182549834,-0.0031610496807843,-0.1955127865076065,0.0108178341761231,-0.0137633215636014,0.0,0.0,0.5867197513580322,0.5189821720123291
-0.0122947692871093,0.0040247892029583,-0.0099101364612579,-0.1790712624788284,0.0088372342288494,-0.0396120473742485,0.0,0.0,0.7583293914794922,0.5939693450927734
-0.0124290464445948,7.679223926970735e-05,-0.0101077761501073,-0.1754521578550338,0.0055673229508101,-0.0653984025120735,0.0,0.0,0.9176987409591676,0.1607766151428222
-0.0128338811919093,-0.002845206297934,-0.0174091663211584,-0.1299388259649276,-0.0172223541885614,-0.4557937979698181,1.0,1.0,0.9357924461364746,0.187530517578125
-0.0133733749389648,-0.0047664903104305,-0.0384808033704757,-0.0859285742044448,-0.03128432482481,-0.2796973884105682,1.0,1.0,0.8867965936660767,0.3575096130371094
-0.0136360172182321,-0.005244746338576,-0.0226079262793064,-0.0213340502232313,-0.0348842144012451,-0.0719853192567825,1.0,1.0,-0.341991662979126,0.0586705207824707
-0.013771628960967,-0.0053636217489838,-0.0126477973535656,-0.0053096073679625,-0.0357695445418357,-0.0176801905035972,1.0,1.0,-0.5272088646888733,-0.3419516086578369
-0.0138222696259617,-0.0051612043753266,-0.0065601281821727,0.0090354019775986,-0.0342667698860168,0.0300940461456775,1.0,1.0,-0.4749751687049866,0.0170671939849853
-0.0138497352600097,-0.0047125960700213,-0.0061490447260439,0.0200083460658788,-0.0308906529098749,0.0675404667854309,1.0,1.0,-0.1105061769485473,0.3031556606292724
-0.0138612743467092,-0.0040876413695514,-0.0058513260446488,0.0278623420745134,-0.0262359268963336,0.093108557164669,1.0,1.0,-0.4191341400146484,0.4089055061340332
-0.0138651849702,-0.0033837938681244,-0.0057016210630536,0.0313639119267463,-0.0209959093481302,0.1048109531402587,1.0,1.0,-0.4609377980232239,0.6849603652954102
-0.0138026233762502,-0.002715065376833,0.0011934669455513,0.0297845471650362,-0.0159915350377559,0.1000963672995567,1.0,1.0,-0.3960287570953369,0.6614973545074463
-0.013673591427505,-0.0021421099081635,0.0085153831169009,0.0255048032850027,-0.011667619459331,0.0864856168627739,1.0,1.0,-0.4780877828598022,0.5478731393814087
-0.0134915355592966,-0.0016876006266102,0.0146989300847053,0.0202243886888027,-0.0081961750984191,0.0694351345300674,1.0,1.0,-0.4175883531570434,0.1874903440475464
-0.0133163454011082,-0.0013145947596058,0.0145911248400807,0.0165910925716161,-0.0053128069266676,0.0576730966567993,1.0,1.0,-0.4833562970161438,-0.0656085610389709
-0.0131562231108546,-0.0009988093515858,0.0135426875203847,0.0140369748696684,-0.0028575165197253,0.0491148605942726,1.0,1.0,-0.2267801761627197,0.198369026184082
-0.0130584714934229,-0.0009961628820747,0.0097659016028046,0.0001161945911007,-0.0028562857769429,2.7401187253417447e-05,1.0,1.0,-0.640110969543457,-0.1393263339996338
-0.0130276679992675,-0.0009973788401111,0.0030907746404409,-5.425551717053168e-05,-0.0028592280577868,-5.488868191605434e-05,1.0,1.0,-0.7916080355644226,0.137902021408081
-0.013039207085967,-0.0009973072446882,-0.0011688908562064,-1.3247282595330034e-06,-0.0028421282768249,0.0003351051709614,1.0,1.0,-0.3933275938034057,0.0160931348800659
-0.0130565641447901,-0.0009973072446882,-0.0017693552654236,7.195386046987551e-07,-0.002816169289872,0.000506812823005,1.0,1.0,-0.8971880674362183,0.1548542976379394
-0.0130641935393214,-0.0009973431006073,-0.0007715198444202,1.7037636723671312e-07,-0.0028048811946064,0.0002209754456998,1.0,1.0,-0.7889689207077026,0.0092172622680664
-0.0130634307861328,-0.0009973431006073,7.362577161984518e-05,-1.5369641559459524e-08,-0.0028060211334377,-2.107754335156642e-05,1.0,1.0,-0.8643856644630432,-0.0365633964538574
