x_pos,y_pos,x_vel,y_vel,angle,ang_vel,leg_1,leg_2,main_booster,lat_booster
-0.0015325546264648,1.403161644935608,-0.1552063524723053,-0.3448235392570495,0.0017501994734629,0.0345232784748077,0.0,0.0,-0.4359474182128906,0.6302378177642822
-0.0030205727089196,1.3949604034423828,-0.1491232216358184,-0.3644977807998657,0.0020706576760858,0.0064106495119631,0.0,0.0,0.0105065107345581,0.9195399284362792
-0.0043482780456542,1.38666033744812,-0.1312055438756942,-0.368892103433609,0.0005268849781714,-0.0308783892542123,0.0,0.0,-0.0107023119926452,0.5530452728271484
-0.0056501389481127,1.3778953552246094,-0.1276937425136566,-0.3895504772663116,-0.0019340186845511,-0.0492228865623474,0.0,0.0,0.5125892162322998,0.2688794136047363
-0.0068417550064623,1.3695629835128784,-0.1171936243772506,-0.3703354001045227,-0.0038720029406249,-0.0387635491788387,0.0,0.0,-0.0576065778732299,-0.3419784903526306
-0.0080421445891261,1.360767483711243,-0.1180301904678344,-0.3909163773059845,-0.0058560338802635,-0.0396841168403625,0.0,0.0,0.2063770294189453,0.7944647073745728
-0.0092048645019531,1.3521413803100586,-0.112610638141632,-0.3833983242511749,-0.0094803543761372,-0.0724933370947837,0.0,0.0,-0.1214584112167358,0.1913729906082153
-0.0103757856413722,1.343052625656128,-0.1133801490068435,-0.4039779007434845,-0.013153662905097,-0.0734729021787643,0.0,0.0,0.016839861869812,0.4612907171249389
-0.0115551948547363,1.3342736959457395,-0.1141368001699447,-0.3902104794979095,-0.0169141683727502,-0.075216993689537,0.0,0.0,-0.565965473651886,0.0006172657012939
-0.0127418516203761,1.3250319957733154,-0.1148144453763961,-0.4107911884784698,-0.0207273829728364,-0.0762711241841316,0.0,0.0,-0.4154157638549804,-0.2933746576309204
-0.0139351841062307,1.315327525138855,-0.115434743463993,-0.4313632845878601,-0.0245943311601877,-0.0773457437753677,0.0,0.0,-0.0794500708580017,0.72170090675354
-0.0150712011381983,1.305156707763672,-0.1080225706100463,-0.4521346092224121,-0.0301140286028385,-0.110403835773468,0.0,0.0,-0.0196635127067565,-0.0467021465301513
-0.0162125583738088,1.2945234775543213,-0.1085020527243614,-0.4727105498313904,-0.0356871634721756,-0.1114730089902877,0.0,0.0,-0.1728938221931457,0.0394048690795898
-0.0173584930598735,1.2834278345108032,-0.1089035123586654,-0.4932866990566253,-0.0413145311176776,-0.1125576123595237,0.0,0.0,-0.7259814739227295,-0.0959185361862182
-0.0185080524533987,1.2718697786331177,-0.1092198863625526,-0.5138628482818604,-0.0469951182603836,-0.1136224716901779,0.0,0.0,-0.8255494832992554,-0.7208503484725952
-0.0197072029113769,1.2598440647125244,-0.1153035759925842,-0.5346325635910034,-0.0515585839748382,-0.0912773758172988,0.0,0.0,0.5808161497116089,-0.6814346313476562
-0.0207754131406545,1.2485824823379517,-0.1038422212004661,-0.5006129741668701,-0.0545089840888977,-0.0590134374797344,0.0,0.0,-0.7648677825927734,-0.032711923122406
-0.0218443870544433,1.2368581295013428,-0.1038747206330299,-0.5211975574493408,-0.0575093664228916,-0.0600128285586833,0.0,0.0,-0.0255606770515441,-0.8766819834709167
-0.0229707714170217,1.2246843576431274,-0.1110387220978736,-0.5411214232444763,-0.0590932741761207,-0.0316808447241783,0.0,0.0,0.3026504516601562,-0.7173550724983215
-0.0241970065981149,1.2127268314361572,-0.1223103553056716,-0.531456708908081,-0.0594029203057289,-0.0061930483207106,0.0,0.0,-0.4274886846542358,0.7875058650970459
-0.0253450386226177,1.2003055810928345,-0.1125364080071449,-0.5521548390388489,-0.061650276184082,-0.0449512898921966,0.0,0.0,-0.1698545217514038,-0.700268030166626
-0.0265434272587299,1.1874223947525024,-0.1189105063676834,-0.572622537612915,-0.0625697299838066,-0.0183909181505441,0.0,0.0,-0.3807843923568725,-0.283523678779602
-0.0277365688234567,1.1740763187408447,-0.1183457598090171,-0.5931963324546814,-0.0635242164134979,-0.019091211259365,0.0,0.0,0.1725028753280639,-0.5952427387237549
-0.028901195153594,1.160591721534729,-0.1167610064148902,-0.5993033647537231,-0.0632324144244194,0.0058368337340652,0.0,0.0,-0.2429077625274658,-0.1151487231254577
-0.0300577171146869,1.146644115447998,-0.1159246414899826,-0.6198802590370178,-0.0629663690924644,0.005321207921952,0.0,0.0,-0.0292192101478576,0.1656749248504638
-0.0312055591493845,1.1322124004364014,-0.115033246576786,-0.6414045691490173,-0.0627199858427047,0.0049278126098215,0.0,0.0,-0.0699039697647094,-0.3929431438446045
-0.0323423370718956,1.1173175573349,-0.1139044910669326,-0.661976158618927,-0.0624879226088523,0.004641362465918,0.0,0.0,-0.0848720073699951,-0.294627845287323
-0.0334663391113281,1.1019601821899414,-0.1126251965761184,-0.6825476884841919,-0.0622641071677207,0.004476218484342,0.0,0.0,-0.0033041834831237,0.0981295108795166
-0.0345759391784668,1.086139678955078,-0.1111923679709434,-0.7031192183494568,-0.0620420910418033,0.0044405586086213,0.0,0.0,-0.323794960975647,-0.2794667482376098
-0.035669706761837,1.0698565244674685,-0.1096033453941345,-0.7236906886100769,-0.061814934015274,0.0045429146848618,0.0,0.0,0.2722357511520386,0.4380331039428711
-0.0366911888122558,1.0540851354599,-0.1024556308984756,-0.7009380459785461,-0.061508722603321,0.0061242012307047,0.0,0.0,0.2422728538513183,-0.6312831044197083
-0.0377880111336708,1.038351058959961,-0.1111658439040184,-0.6992281079292297,-0.0600349232554435,0.029475700110197,0.0,0.0,-0.404200792312622,0.15021812915802
-0.038863755762577,1.0221542119979858,-0.1090959087014198,-0.7197996377944946,-0.0585329122841358,0.0300402585417032,0.0,0.0,-0.1150431632995605,-0.5755345225334167
-0.0399673469364643,1.0054937601089478,-0.1131918281316757,-0.7403566241264343,-0.0557285547256469,0.0560870990157127,0.0,0.0,-0.2974231243133545,0.0689760446548461
-0.0410465225577354,0.988370418548584,-0.1107945814728736,-0.7609286904335022,-0.0528786368668079,0.0569983310997486,0.0,0.0,0.3403170108795166,-0.2653735876083374
-0.0420522689819335,0.9717023968696594,-0.1035835370421409,-0.7407011389732361,-0.0499057434499263,0.0594576373696327,0.0,0.0,-0.0493133664131164,0.4026703834533691
-0.0430301651358604,0.9545714259147644,-0.1008569449186325,-0.761273205280304,-0.0468685440719127,0.0607439205050468,0.0,0.0,0.1287137269973755,0.0858319997787475
-0.0439279563724994,0.9377552270889282,-0.0930516868829727,-0.7472913861274719,-0.0436368733644485,0.0646335110068321,0.0,0.0,0.6873111724853516,-0.4557853937149048
-0.0447969436645507,0.9217683672904968,-0.0900668650865554,-0.7104373574256897,-0.0405067391693592,0.0626028478145599,0.0,0.0,-0.551327645778656,-0.0556126236915588
-0.0456327423453331,0.905318796634674,-0.0868488550186157,-0.7310093641281128,-0.0372816994786262,0.0645006150007247,0.0,0.0,-0.0274807810783386,-0.0443173646926879
-0.0464337356388568,0.8884062767028809,-0.0834691151976585,-0.7515814900398254,-0.0339510180056095,0.0666137039661407,0.0,0.0,-0.6280267834663391,0.2360501289367675
-0.0471981056034565,0.8710311651229858,-0.0799292773008346,-0.7721536159515381,-0.0305036678910255,0.0689471885561943,0.0,0.0,0.5812653303146362,0.4019283056259155
-0.0478220954537391,0.8536391258239746,-0.0664557367563247,-0.7729045748710632,-0.0264982432126998,0.080108605325222,0.0,0.0,0.3639247417449951,0.7026721239089966
-0.0482478141784668,0.8364313840866089,-0.0455119423568248,-0.7647390365600586,-0.0236024130135774,0.0579163804650306,0.0,0.0,0.1205683946609497,0.7733070850372314
-0.0485979095101356,0.8190502524375916,-0.0365153886377811,-0.772477388381958,-0.0221180506050586,0.0296872910112142,0.0,0.0,0.3589715957641601,0.1822569370269775
-0.048861026763916,0.8016170263290405,-0.028147866949439,-0.7747825384140015,-0.0202959962189197,0.0364406965672969,0.0,0.0,0.6421341896057129,0.5939739942550659
-0.0489578247070312,0.7843803763389587,-0.0106719257310032,-0.7660583853721619,-0.0193198639899492,0.0195226836949586,0.0,0.0,-0.6923311948776245,-0.3960083127021789
-0.0490083694458007,0.7666807770729065,-0.0062228552997112,-0.7866297960281372,-0.0181568339467048,0.0232604574412107,0.0,0.0,0.1020481586456298,0.1714997291564941
-0.0490897186100482,0.749309241771698,-0.0091111185029149,-0.7720563411712646,-0.0172042027115821,0.0190527830272912,0.0,0.0,-0.4254422187805176,0.0849475860595703
-0.0491218566894531,0.731474757194519,-0.0043853875249624,-0.7926276326179504,-0.0160403084009885,0.0232778750360012,0.0,0.0,0.6327259540557861,0.4121737480163574
-0.048952292650938,0.7140204906463623,0.0148895774036645,-0.7757256031036377,-0.0139971561729907,0.0408628545701503,0.0,0.0,-0.2033473253250122,0.8750097751617432
-0.0486677177250385,0.6961079239845276,0.0277381148189306,-0.7961111068725586,-0.0132917426526546,0.0141085339710116,0.0,0.0,-0.2087279558181762,0.2786101102828979
-0.0483296401798725,0.6777324080467224,0.0328473336994648,-0.8166824579238892,-0.01233830768615,0.0190683528780937,0.0,0.0,-0.1113906502723693,0.8363469839096069
-0.0478698723018169,0.6589004397392273,0.046429768204689,-0.836979329586029,-0.0127964429557323,-0.0091624511405825,0.0,0.0,-0.1552093029022216,0.2643910646438598
-0.0473540313541889,0.639605700969696,0.0517712645232677,-0.8575506210327148,-0.0129822632297873,-0.00371625716798,0.0,0.0,0.1638243198394775,0.412226915359497
-0.0468438155949115,0.6203470230102539,0.0512382462620735,-0.8559395670890808,-0.0131951244547963,-0.0042571150697767,0.0,0.0,0.4793515205383301,0.3231344223022461
-0.0461813919246196,0.6016942262649536,0.0657590255141258,-0.8290094137191772,-0.0127223310992121,0.0094557348638772,0.0,0.0,0.3556950092315674,0.1108567714691162
-0.0453391075134277,0.5834064483642578,0.0829092413187027,-0.8127800822257996,-0.0114176627248525,0.0260934047400951,0.0,0.0,-0.1117025017738342,-0.2145256400108337
-0.0444360747933387,0.5646557807922363,0.0886530801653862,-0.8333514332771301,-0.0097933318465948,0.0324865579605102,0.0,0.0,0.6398988962173462,-0.0495250821113586
-0.0435394272208213,0.5466132760047913,0.0880449116230011,-0.801880419254303,-0.008187604136765,0.0321143120527267,0.0,0.0,0.191332459449768,-0.1250799894332885
-0.0425410270690918,0.5285078883171082,0.0976944342255592,-0.804669976234436,-0.0060687977820634,0.0423762239515781,0.0,0.0,0.637610673904419,-0.6547977328300476
-0.0416347496211528,0.5109875798225403,0.0870492383837699,-0.7786716222763062,-0.0025374756660312,0.0706264227628707,0.0,0.0,0.5488839149475098,0.1445106267929077
-0.0405471809208393,0.4937314689159393,0.1042663305997848,-0.7669394016265869,0.0018936455016955,0.0886224433779716,0.0,0.0,0.4185001850128174,-0.2097817659378051
-0.0393753051757812,0.4768021404743194,0.1122157722711563,-0.7524257302284241,0.0067931041121482,0.097989372909069,0.0,0.0,0.5023361444473267,0.095144510269165
-0.0381333343684673,0.4599572420120239,0.1188228726387023,-0.7486963868141174,0.0121105648577213,0.1063490509986877,0.0,0.0,0.7617466449737549,0.1113573312759399
-0.0369646064937114,0.443592756986618,0.1117066890001297,-0.7273597717285156,0.0172125082463026,0.1020385473966598,0.0,0.0,0.4801546335220337,-0.3323904871940613
-0.0357229225337505,0.4279163479804992,0.1184926778078079,-0.6968059539794922,0.022808326408267,0.1119163185358047,0.0,0.0,0.2808563709259033,0.2232747077941894
-0.0343556404113769,0.4121197760105133,0.1303481757640838,-0.7021777033805847,0.0291129928082227,0.1260934472084045,0.0,0.0,0.5370615720748901,0.0915839672088623
-0.0329185500741004,0.3970531225204468,0.1367736160755157,-0.6697814464569092,0.0359576605260372,0.1368934512138366,0.0,0.0,-0.4544269442558288,-0.140978991985321
-0.0314135551452636,0.3815244436264038,0.1431366205215454,-0.6903582215309143,0.0432350151240825,0.1455471217632293,0.0,0.0,0.5447452068328857,0.0818063020706176
-0.029953384771943,0.3664771020412445,0.138606920838356,-0.6690037846565247,0.0505565255880355,0.1464303880929947,0.0,0.0,0.3781274557113647,0.5278725624084473
-0.0283815376460552,0.351751834154129,0.1503181159496307,-0.6547048687934875,0.057342205196619,0.1357134878635406,0.0,0.0,0.6987395286560059,0.0056942701339721
-0.0269231796264648,0.3378536403179168,0.1391347050666809,-0.6179695129394531,0.0639730244874954,0.1326164603233337,0.0,0.0,-0.3676590919494629,0.609997034072876
-0.0253420826047658,0.3234986662864685,0.1523079127073288,-0.6382575631141663,0.0697070360183715,0.1146802678704261,0.0,0.0,0.5315074920654297,0.0191856622695922
-0.0237489696592092,0.3092210292816162,0.153191864490509,-0.63486248254776,0.0757697075605392,0.1212532296776771,0.0,0.0,0.7254811525344849,0.4448539018630981
-0.022042179480195,0.294997364282608,0.1637342721223831,-0.6325302124023438,0.082641378045082,0.1374335139989853,0.0,0.0,0.9097404479980468,0.5504803657531738
-0.0202945712953805,0.2808935344219208,0.1685544103384018,-0.6271911263465881,0.0887941047549247,0.1230545192956924,0.0,0.0,0.9154679775238036,-0.0993156433105468
-0.0185701362788677,0.2677007019519806,0.1657831370830536,-0.5867575407028198,0.0953961387276649,0.1320406347513198,0.0,0.0,0.722449541091919,-0.2256713509559631
-0.0167759899049997,0.2553282082080841,0.1718626767396927,-0.55038982629776,0.1028848364949226,0.149773970246315,0.0,0.0,0.3905990123748779,0.0944232940673828
-0.0150793073698878,0.2435061782598495,0.1620552390813827,-0.5259659886360168,0.1104433983564376,0.1511713117361068,0.0,0.0,0.031106948852539,0.6406288146972656
-0.0133789060637354,0.2315175682306289,0.1632936894893646,-0.5333402156829834,0.1171403527259826,0.1339391767978668,0.0,0.0,0.2889844179153442,0.4470032453536987
-0.0116533283144235,0.2199919372797012,0.1651542782783508,-0.5128524303436279,0.1245013251900672,0.1472193896770477,0.0,0.0,0.3649892807006836,0.5820910930633545
-0.0099664684385061,0.2087040543556213,0.1621176600456237,-0.5022450089454651,0.1310322284698486,0.1306176483631134,0.0,0.0,0.2369413375854492,0.6414334774017334
-0.0082766534760594,0.1977130025625229,0.1632570326328277,-0.4890014231204986,0.1367363631725311,0.1140830740332603,0.0,0.0,0.7605135440826416,-0.4622234106063843
-0.006637287326157,0.18736532330513,0.157735988497734,-0.4604795575141907,0.1429155766963958,0.1235845834016799,0.0,0.0,0.8448371887207031,-0.0165712237358093
-0.0049314498901367,0.1775417923927307,0.1634070724248886,-0.4373099505901336,0.1500840038061142,0.1433683335781097,0.0,0.0,0.7705700397491455,-0.223249614238739
-0.0031936645973473,0.167806938290596,0.1659427881240844,-0.4334698915481567,0.1579132229089737,0.1565844267606735,0.0,0.0,0.2085621356964111,-0.5652070641517639
-0.0014115333324298,0.1580507159233093,0.168559193611145,-0.4346633851528168,0.1675633043050766,0.1930015683174133,0.0,0.0,-0.4393994808197021,0.1099909543991088
0.000429630279541,0.1478341370820999,0.1739360392093658,-0.4552503526210785,0.1777651309967041,0.2040365040302276,0.0,0.0,0.3269236087799072,0.3091182708740234
0.002382755279541,0.1376549154520034,0.1840768158435821,-0.4537961184978485,0.1890405118465423,0.2255078554153442,0.0,0.0,-0.0379803776741027,0.0395116806030273
0.0043919561430811,0.1270159780979156,0.1891653835773468,-0.4743870198726654,0.20087531208992,0.2366957664489746,0.0,0.0,0.8813580274581909,0.3906244039535522
0.0063179968856275,0.1171978116035461,0.1801531016826629,-0.438103973865509,0.2134359776973724,0.2512132823467254,0.0,0.0,0.9014134407043456,-0.4354859590530395
0.0082744602113962,0.1080916747450828,0.182004764676094,-0.4067491590976715,0.2272258847951889,0.2757985889911651,0.0,0.0,0.6416449546813965,-0.0011278986930847
0.0103064533323049,0.0990348905324935,0.1885845065116882,-0.4048438966274261,0.2420488148927688,0.2964589893817901,0.0,0.0,0.6959949731826782,0.1620006561279297
0.0122097972780466,0.0902619212865829,0.1754535585641861,-0.3924316465854645,0.2571946680545807,0.3029175698757171,0.0,0.0,0.8564249277114868,0.5425057411193848
0.0140514373779296,0.0824984610080719,0.1695853173732757,-0.3476697504520416,0.2720983624458313,0.2980743646621704,0.0,0.0,0.4472744464874267,0.3202868700027466
0.0157842636108398,0.0749892815947532,0.1582861244678497,-0.3366060853004455,0.2874855697154999,0.3077442049980163,0.0,0.0,0.3236401081085205,0.4288818836212158
-999.0,0.0678968057036399,0.1348542124032974,-0.318261057138443,0.302992045879364,0.3101294636726379,0.0,0.0,0.4881783723831177,0.6857242584228516
0.0187677387148141,0.0613127313554286,0.1341216713190078,-0.2956841886043548,0.3178428411483764,0.2970163226127624,0.0,0.0,0.2297595739364624,0.3336483240127563
0.0200775153934955,0.0550481639802455,0.116329625248909,-0.2817136943340301,0.3330942392349243,0.3050277829170227,0.0,0.0,0.2216323614120483,0.5119205713272095
0.0212154388427734,0.049101386219263,0.0997948199510574,-0.2675963640213012,0.347742348909378,0.2929626107215881,0.0,0.0,0.1127288341522216,0.395137071609497
0.0222556106746196,0.0431616865098476,0.0896057337522506,-0.267543226480484,0.3629015684127807,0.3031848073005676,0.0,0.0,-0.0053030252456665,0.4813776016235351
0.0233250614255666,0.0367647968232631,0.0920671075582504,-0.288150429725647,0.3786509335041046,0.314987450838089,0.0,1.0,0.9992108345031738,0.998936891555786
0.024061108008027,0.0318657271564006,0.0757964849472045,-0.2176651507616043,0.3745687901973724,-0.0841873809695243,0.0,1.0,0.9929101467132568,0.9972817897796632
0.0245609283447265,0.0286947824060916,0.0730206668376922,-0.1351149529218673,0.3501819670200348,-0.4878252148628235,0.0,1.0,0.9885131120681764,0.4660062789916992
0.0248995777219533,0.0264118295162916,0.0707734227180481,-0.0929900631308555,0.3115393817424774,-0.7729877233505249,0.0,1.0,0.9236626625061036,-0.2872880697250366
0.0250853542238473,0.0252775773406028,0.0607790425419807,-0.0419777855277061,0.2679777145385742,-0.8713434934616089,0.0,1.0,0.6115052700042725,-0.771729588508606
0.0250155441462993,0.0247388463467359,0.0326734259724617,-0.0172061547636985,0.2275443524122238,-0.8087083697319031,0.0,1.0,0.2793300151824951,-0.4414945840835571
0.0249035842716693,0.0247608758509159,0.0282148774713277,0.0065635368227958,0.1877429038286209,-0.7960615754127502,0.0,0.0,-0.999502420425415,0.2653902769088745
0.0248169898986816,0.0243425220251083,0.0304565243422985,-0.0141207901760935,0.1485366225242614,-0.7841577529907227,0.0,0.0,-0.9987227320671082,-0.4207944869995117
0.0247532837092876,0.0234829280525445,0.032389149069786,-0.0348034501075744,0.1099270954728126,-0.7722228765487671,0.0,0.0,-0.9973986744880676,-0.5366756916046143
0.0246719364076852,0.0221790168434381,0.0292070265859365,-0.0556263253092765,0.0728769898414611,-0.7410329580307007,0.0,0.0,-0.79583340883255,-0.8474221229553223
0.0245506279170513,0.020419918000698,0.023241888731718,-0.0768400207161903,0.0378881879150867,-0.6998047828674316,0.0,0.0,0.0111646652221679,-0.845928966999054
0.0242812149226665,0.0187628846615552,0.0057863937690854,-0.0731327086687088,0.0055767120793461,-0.64622962474823,0.0,0.0,-0.0301256775856018,-0.9456098079681396
0.0239325519651174,0.0166525933891534,-0.0050503155216574,-0.0939448103308677,-0.023856796324253,-0.5886706113815308,0.0,0.0,0.578866720199585,-0.9844760298728944
0.0235036853700876,0.0149007178843021,-0.0156461093574762,-0.0785160362720489,-0.050761342048645,-0.5380910038948059,0.0,0.0,0.5398945808410645,-0.882317841053009
0.0230623241513967,0.0134407375007867,-0.0193520598113536,-0.0659080371260643,-0.0752786993980407,-0.4903472065925598,0.0,0.0,0.2750822305679321,-0.8495672345161438
0.0226905830204486,0.0119265411049127,-0.0148305622860789,-0.0685708597302436,-0.0974123403429985,-0.4426724910736084,0.0,0.0,0.1920928955078125,-0.9579975605010986
0.0223713871091604,0.0106942988932132,-0.0121552646160125,-0.0561716891825199,-0.1170248314738273,-0.3922500014305115,1.0,0.0,0.3395614624023437,-0.2682271003723144
0.0221890453249216,0.0103135677054524,-0.0063020498491823,-0.0181990545243024,-0.1279041618108749,-0.2162753343582153,1.0,0.0,-0.0027681589126586,-0.1613432168960571
0.0220849998295307,0.0099125243723392,-0.0113065727055072,-0.0177642479538917,-0.1269419491291046,0.0193188060075044,1.0,0.0,-0.2082414031028747,-0.2324103116989135
