x_pos,y_pos,x_vel,y_vel,angle,ang_vel,leg_1,leg_2,main_booster,lat_booster
-0.0015756606590002,1.4031109809875488,-0.1592563390731811,-0.3470756709575653,0.0015107152285054,0.0297817438840866,0.0,0.0,-0.7183893554520211,-0.9325274715404926
-0.0032688141800463,1.394806742668152,-0.1722238957881927,-0.3690834939479828,0.004388774279505,0.05756726115942,0.0,0.0,0.3870746921143631,0.8692111342183008
-0.0048161507584154,1.3864920139312744,-0.1557973325252533,-0.3695394694805145,0.0054429937154054,0.0210861973464489,0.0,0.0,-0.1668040269315429,0.6573380754038911
-0.0063680647872388,1.377661943435669,-0.1549529433250427,-0.3924486935138702,0.005210121627897,-0.0046578212641179,0.0,0.0,-0.8173173283617814,0.9587813790278032
-0.0078722955659031,1.3683221340179443,-0.1476376950740814,-0.4150983989238739,0.0024494661483913,-0.0552183873951435,0.0,0.0,0.3596559741511871,0.9709939940517208
-0.0092125888913869,1.3591387271881104,-0.1291972398757934,-0.408152312040329,-0.0023353248834609,-0.0957045406103134,0.0,0.0,-0.130547456186902,0.755893642067842
-0.0105352401733398,1.3494417667388916,-0.1257765591144561,-0.4309955239295959,-0.008746868930757,-0.1282427310943603,0.0,0.0,0.2326970329871642,-0.7576859177280555
-0.0118243219330906,1.3399572372436523,-0.1239357367157936,-0.4215717911720276,-0.0136640090495347,-0.0983520597219467,0.0,0.0,-0.5554431181600374,0.8803212519730588
-0.0130806919187307,1.329967737197876,-0.1187829598784446,-0.4440572559833526,-0.0204364210367202,-0.1354607045650482,0.0,0.0,0.0577759218000581,0.734593801181842
-0.0143032073974609,1.3201658725738523,-0.1138061732053756,-0.4357794225215912,-0.0287877358496189,-0.1670418083667755,0.0,0.0,0.584977167532218,0.6861694065533861
-0.0153956413269042,1.310700535774231,-0.0995298027992248,-0.4208891987800598,-0.0384037606418132,-0.1923380941152572,0.0,0.0,-0.1237522465440212,-0.9329216118726914
-0.0165818221867084,1.3007246255874634,-0.1104691848158836,-0.4436031877994537,-0.0464682281017303,-0.1613039672374725,0.0,0.0,-0.8010891561608322,-0.9952476122639468
-0.0178561210632324,1.2902454137802124,-0.1207800880074501,-0.4659657776355743,-0.0530446879565715,-0.1315411180257797,0.0,0.0,-0.6227955892003214,0.9113954406889436
-0.0190754886716604,1.27923846244812,-0.1132136136293411,-0.4895273745059967,-0.0616769194602966,-0.1726604700088501,0.0,0.0,0.7381958451779023,-0.6035714178166061
-0.0201519969850778,1.2690131664276123,-0.100552499294281,-0.4547628462314605,-0.0687054097652435,-0.1405827403068542,0.0,0.0,-0.916967075781458,-0.6440621012016352
-0.0212910659611225,1.2582714557647705,-0.1078781485557556,-0.4776998162269592,-0.0746850073337555,-0.1196030005812645,0.0,0.0,0.7621803682989086,-0.8339648446698792
-0.0222845077514648,1.248380184173584,-0.0953272208571434,-0.4398137032985687,-0.0786666199564933,-0.0796397179365158,0.0,0.0,0.0628585021328775,-0.7535430889162216
-0.0232303626835346,1.2383238077163696,-0.0922034978866577,-0.447074294090271,-0.0810296759009361,-0.0472649782896041,0.0,0.0,0.1928425072881141,-0.8873096148007213
-0.0241328235715627,1.2286274433135986,-0.0897558629512786,-0.430977463722229,-0.0815139189362526,-0.0096860872581601,0.0,0.0,-0.2577591971730015,-0.7356990938797363
-0.025114631280303,1.2184250354766846,-0.0994457751512527,-0.453374981880188,-0.080251045525074,0.0252596102654933,0.0,0.0,-0.3531539882445367,-0.8790570928836385
-0.0261624343693256,1.2077219486236572,-0.1075589880347251,-0.475544810295105,-0.0774999186396598,0.0550273470580577,0.0,0.0,-0.1525864331864712,-0.6256767251655122
-0.027269173413515,1.196507453918457,-0.1148006096482276,-0.4982127845287323,-0.073402039706707,0.0819646567106247,0.0,0.0,0.7147415402501929,0.8319573363248962
-0.0281291957944631,1.18559992313385,-0.0888695865869522,-0.4846352338790893,-0.070544995367527,0.057145856320858,0.0,0.0,-0.2890515789994181,0.6391946602872677
-0.028940200805664,1.1741657257080078,-0.0827223062515258,-0.5081145167350769,-0.0689450427889823,0.0320020280778408,0.0,0.0,0.4569633769503041,-0.8083278402299231
-0.029921531677246,1.163090467453003,-0.1013508886098861,-0.4920855760574341,-0.0657543241977691,0.0638199970126152,0.0,0.0,0.4256072631408985,0.9346381529101376
-0.0309373848140239,1.1524014472961426,-0.1030013114213943,-0.4750131368637085,-0.0643564239144325,0.0279580242931842,0.0,0.0,-0.0657656909590156,-0.6997573335993397
-0.0320108421146869,1.141208291053772,-0.1103753447532653,-0.497345894575119,-0.061358492821455,0.0599584355950355,0.0,0.0,-0.2504952692825577,-0.8411577264442271
-0.0331663116812706,1.1295177936553955,-0.1208777874708175,-0.5193659663200378,-0.0560907498002052,0.1053547412157058,0.0,0.0,-0.9690263847496664,0.8242554330221147
-0.034270953387022,1.1173166036605835,-0.1147399693727493,-0.5421280264854431,-0.0518616698682308,0.0845817774534225,0.0,0.0,0.4045548105177592,-0.8660333855122619
-0.0354420654475688,1.1052262783050537,-0.1233794316649437,-0.5371333956718445,-0.0456733852624893,0.1237659603357315,0.0,0.0,-0.209696087130043,0.9625784177931582
-0.0365326888859272,1.0926284790039062,-0.1136029213666915,-0.5597769618034363,-0.0411857552826404,0.089752659201622,0.0,0.0,-0.9925422510936466,-0.9022624802631556
-0.0377012267708778,1.079517126083374,-0.1237431019544601,-0.5825573205947876,-0.0343871228396892,0.135972648859024,0.0,0.0,0.848146390179567,0.8681921588358603
-0.0388682372868061,1.067246675491333,-0.1219443455338478,-0.5452439785003662,-0.0292081031948328,0.1035805344581604,0.0,0.0,-0.137143602173593,0.8363650145815162
-0.0399719253182411,1.054452657699585,-0.1144091635942459,-0.5685510635375977,-0.025209067389369,0.0799804702401161,0.0,0.0,0.1483338548220436,-0.9504593951396172
-0.0411211960017681,1.0418034791946411,-0.1212184801697731,-0.562096357345581,-0.0189993735402822,0.1241937279701232,0.0,0.0,-0.8814143628534834,-0.9705667060613664
-0.0423391349613666,1.0286507606506348,-0.1303094327449798,-0.5844809412956238,-0.0105883404612541,0.1682207286357879,0.0,0.0,-0.8601405349296105,0.8914336097941928
-0.0434831604361534,1.0149794816970823,-0.1215554922819137,-0.6075725555419922,-0.0035344406496733,0.1410778313875198,0.0,0.0,-0.6927532397857679,-0.6368208202831613
-0.0446676239371299,1.000800848007202,-0.1271454989910125,-0.6301682591438293,0.0050532412715256,0.1717536151409149,0.0,0.0,0.3270633155887319,-0.7346249630452637
-0.0459418296813964,0.987132489681244,-0.1379060745239257,-0.6075515151023865,0.0154066830873489,0.2070687115192413,0.0,0.0,-0.4600109154362912,0.7270588416324266
-0.0471482276916503,0.9729543924331664,-0.1299581527709961,-0.6302655339241028,0.0246100649237632,0.1840676367282867,0.0,0.0,-0.4334022039533429,0.8328216779535421
-0.0482926368713378,0.9582727551460266,-0.1227578073740005,-0.6526734232902527,0.0328212790191173,0.1642245948314666,0.0,0.0,-0.9957130551338196,0.8999958038330078
-0.0493432059884071,0.943080723285675,-0.1115690320730209,-0.6753584742546082,0.0392538271844387,0.1286510378122329,0.0,0.0,-0.9727250933647156,0.990458607673645
-0.0502943024039268,0.9273701310157776,-0.0997015237808227,-0.6983741521835327,0.0437844060361385,0.0906117707490921,0.0,0.0,-0.9378924369812012,0.7061450481414795
-0.0511722564697265,0.9111491441726683,-0.0911138355731964,-0.721026599407196,0.0470695346593856,0.0657027214765548,0.0,0.0,-0.324639081954956,0.703223466873169
-0.0519898422062397,0.8944105505943298,-0.0841699987649917,-0.7440184354782104,0.0494479611515998,0.0475683435797691,0.0,0.0,-0.6431072354316711,0.94773530960083
-0.0527185425162315,0.8771550059318542,-0.073625311255455,-0.7669392824172974,0.0502004101872444,0.015048848465085,0.0,0.0,0.1706964969635009,0.0594803094863891
-0.0534119606018066,0.8598638772964478,-0.0707254186272621,-0.7685424089431763,0.0515598468482494,0.0271885581314563,0.0,0.0,-0.4829639196395874,0.812334418296814
-0.0540459640324115,0.8420721888542175,-0.0638604685664177,-0.7907552123069763,0.0520145185291767,0.0090933833271265,0.0,0.0,0.7090835571289062,0.8027322292327881
-0.0548028945922851,0.824988842010498,-0.0746732801198959,-0.7592233419418335,0.0510035417973995,-0.0202195085585117,0.0,0.0,0.3853311538696289,0.6966695785522461
-0.055539321154356,0.8080318570137024,-0.0716015994548797,-0.7535725235939026,0.0489934533834457,-0.0402016788721084,0.0,0.0,-0.0919639468193054,0.0449169874191284
-0.0562692657113075,0.7905617356300354,-0.0713913291692733,-0.7763980627059937,0.0474073849618434,-0.031721107661724,0.0,0.0,0.2776175737380981,0.7040219306945801
-0.0570146553218364,0.7734370827674866,-0.0718745738267898,-0.7610120177268982,0.0447752177715301,-0.0526434890925884,0.0,0.0,0.2971905469894409,-0.3117176294326782
-0.0576847083866596,0.7563281655311584,-0.0651729851961135,-0.7603461146354675,0.042970985174179,-0.0360847488045692,0.0,0.0,0.3142738342285156,0.3369001150131225
-0.058374784886837,0.7396571040153503,-0.0676345601677894,-0.7408993244171143,0.0416124388575553,-0.0271709468215703,0.0,0.0,0.1566436290740966,0.5874261856079102
-0.0589129440486431,0.7229921221733093,-0.0518986396491527,-0.7406086325645447,0.0397157147526741,-0.0379347018897533,0.0,0.0,-0.431868314743042,-0.2777861356735229
-0.0594480521976947,0.7058139443397522,-0.0520357377827167,-0.7634339928627014,0.0382583774626255,-0.0291465185582637,0.0,0.0,0.5612214803695679,0.5757577419281006
-0.0598684325814247,0.6892649531364441,-0.0400847978889942,-0.7354670763015747,0.036328874528408,-0.0385900102555751,0.0,0.0,0.1505458354949951,0.1704397201538086
-0.0602084174752235,0.6729118824005127,-0.0329520031809806,-0.7267789244651794,0.0352879725396633,-0.0208180882036685,0.0,0.0,0.1890923976898193,0.7296922206878662
-0.0604505538940429,0.656947672367096,-0.0222112126648426,-0.7094770073890686,0.033309269696474,-0.0395740307867527,0.0,0.0,-0.5273228287696838,0.5544886589050293
-0.0606551170349121,0.6404767632484436,-0.0179335288703441,-0.7319802641868591,0.0308143813163042,-0.0498977936804294,0.0,0.0,0.3113827705383301,0.5803432464599609
-0.0607799515128135,0.6239326000213623,-0.0093340585008263,-0.735234797000885,0.0277051199227571,-0.0621854551136493,0.0,0.0,0.1748546361923217,-0.278656005859375
-0.0609927177429199,0.6076201796531677,-0.0182480812072753,-0.7249454259872437,0.0247170310467481,-0.0597616508603096,0.0,0.0,0.1396565437316894,0.4388229846954345
-0.0611330047249794,0.5913326144218445,-0.0118677830323576,-0.7238606810569763,0.0225753728300333,-0.042832963168621,0.0,0.0,0.635003924369812,0.9397876262664796
-0.0611916556954383,0.5754461288452148,-0.0022992228623479,-0.7060148119926453,0.0190526936203241,-0.0704534649848938,0.0,0.0,0.0386301279067993,0.3310585021972656
-0.0612566955387592,0.5594244599342346,-0.0034145773388445,-0.712037205696106,0.0160071887075901,-0.0609099864959716,0.0,0.0,0.2559986114501953,0.9759047031402588
-0.0613693222403526,0.543563187122345,-0.0066381953656673,-0.7049008011817932,0.0114396577700972,-0.0913505032658577,0.0,0.0,0.3798673152923584,0.4729478359222412
-0.0614812858402729,0.528261125087738,-0.0071112969890236,-0.6800652146339417,0.0074109379202127,-0.0805746242403984,0.0,0.0,-0.1222068071365356,0.4079080820083618
-0.0616035461425781,0.512445867061615,-0.0086138239130377,-0.7028903961181641,0.0038384902290999,-0.0714487582445144,0.0,0.0,0.6855983734130859,0.618058443069458
-0.0616622939705848,0.4974312782287597,-0.0015469589270651,-0.667309582233429,-0.0004341472231317,-0.0854527875781059,0.0,0.0,-0.1796221137046814,-0.3977723121643066
-0.0617341995239257,0.4819033443927765,-0.0033292931038886,-0.690134584903717,-0.0042500989511609,-0.0763190388679504,0.0,0.0,0.0510541200637817,0.1938223838806152
-0.0618774406611919,0.4665086269378662,-0.0106385601684451,-0.6842256188392639,-0.007879632525146,-0.0725908428430557,0.0,0.0,0.8986841440200806,-0.5223367810249329
-0.0620348937809467,0.4516742825508117,-0.01369468588382,-0.6593178510665894,-0.0099036321043968,-0.0404798574745655,0.0,0.0,0.8748319149017334,0.9264780282974244
-0.0622888579964637,0.437775582075119,-0.0216545257717371,-0.6177480816841125,-0.0135958855971694,-0.0738451182842254,0.0,0.0,-0.4951521158218384,0.7324972152709961
-0.0624968521296978,0.4233622550964355,-0.0158599745482206,-0.6406461596488953,-0.0184672456234693,-0.0974272340536117,0.0,0.0,0.5156631469726562,0.3336838483810425
-0.0627495795488357,0.4089745283126831,-0.0206586699932813,-0.6395196914672852,-0.0230271331965923,-0.0911977738142013,0.0,0.0,0.8631154298782349,0.4763026237487793
-0.0629392638802528,0.394620418548584,-0.015170264057815,-0.6380242109298706,-0.0267787016928195,-0.0750316828489303,0.0,0.0,0.8946857452392578,0.4382004737854004
-0.0631782561540603,0.3803378939628601,-0.0203935094177722,-0.6348448395729065,-0.0302455350756645,-0.0693363472819328,0.0,0.0,0.8717143535614014,0.7291419506072998
-0.0633676499128341,0.3668936491012573,-0.0143900960683822,-0.597620964050293,-0.0347346551716327,-0.0897824391722679,0.0,0.0,0.2871648073196411,-0.6674234867095947
-0.063544750213623,0.3538943231105804,-0.0150809865444898,-0.5778082609176636,-0.0373339615762233,-0.0519861206412315,0.0,0.0,0.4271506071090698,-0.0901903510093689
-0.0638204589486122,0.3414451479911804,-0.0249378196895122,-0.5533651113510132,-0.0399340949952602,-0.0520025305449962,0.0,0.0,-0.4229733943939209,0.4085041284561157
-0.0641257315874099,0.3284822702407837,-0.0283468402922153,-0.5761877298355103,-0.042088646441698,-0.0430909916758537,0.0,0.0,0.5948872566223145,-0.1887946128845214
-0.064390942454338,0.3161467611789703,-0.0249801017343997,-0.5482854843139648,-0.0436197221279144,-0.0306214727461338,0.0,0.0,0.7613608837127686,-0.0792563557624816
-0.0647699385881424,0.3042241632938385,-0.0362891629338264,-0.5299434065818787,-0.0452096424996852,-0.0317984260618686,0.0,0.0,-0.8995415568351746,0.1091746091842651
-0.0651828795671463,0.2917877435684204,-0.0401317439973354,-0.5527654886245728,-0.046361431479454,-0.0230355933308601,0.0,0.0,0.6492102146148682,-0.1249090433120727
-0.0656108856201171,0.2798842191696167,-0.0420143902301788,-0.5290668606758118,-0.0471332259476184,-0.0154359210282564,0.0,0.0,0.4971671104431152,0.6259546279907227
-0.0659153014421463,0.26824751496315,-0.029018273577094,-0.517234206199646,-0.0485333129763603,-0.0280019100755453,0.0,0.0,0.6607425212860107,0.7510991096496582
-0.0661559104919433,0.2565988600254059,-0.0216172374784946,-0.5177968144416809,-0.0509493127465248,-0.0483202710747718,0.0,0.0,0.8268330097198486,-0.5686257481575012
-0.0663491263985633,0.2450943291187286,-0.0187574699521064,-0.5113309025764465,-0.0515095964074134,-0.0112054925411939,0.0,0.0,0.7153618335723877,-0.0171272754669189
-0.0664002448320388,0.2339523583650589,-0.005680579226464,-0.4951781630516052,-0.0509423539042472,0.0113448565825819,0.0,0.0,0.743304967880249,0.512803316116333
-0.0662756934762001,0.2229010909795761,0.0120469704270362,-0.4911556541919708,-0.0505353808403015,0.0081391278654336,0.0,0.0,0.7359473705291748,-0.2058656215667724
-0.0661606788635253,0.2125189453363418,0.0107032759115099,-0.4614005088806152,-0.0497437976300716,0.0158317945897579,0.0,0.0,0.1188753843307495,0.1838243007659912
-0.0660439506173133,0.2023911327123642,0.0103687606751918,-0.4500834047794342,-0.0484478585422039,0.025918785482645,0.0,0.0,0.3646054267883301,0.2519916296005249
-0.0658435821533203,0.1925675272941589,0.0178319383412599,-0.4365334510803222,-0.046273723244667,0.0434829667210578,0.0,0.0,0.0180490016937255,0.3985211849212646
-0.0656188949942588,0.182527408003807,0.0195696018636226,-0.4461427628993988,-0.0434150248765945,0.0571739748120307,0.0,0.0,0.291790246963501,0.079430341720581
-0.0654663071036338,0.172572910785675,0.0121697876602411,-0.4423326551914215,-0.0403548441827297,0.0612032525241375,0.0,0.0,0.5093426704406738,0.7225176095962524
-0.0651884078979492,0.1632861644029617,0.025596922263503,-0.4126856029033661,-0.0381895713508129,0.0433054603636264,0.0,0.0,-0.1447817683219909,-0.1605333685874939
-0.0649608597159385,0.1534858047962188,0.0201808679848909,-0.4355083107948303,-0.0356447547674179,0.0508960783481597,0.0,0.0,0.5962457656860352,0.8466894626617432
-0.0648240074515342,0.1443353295326233,0.0126459253951907,-0.4066666662693023,-0.0346182696521282,0.0205299276858568,0.0,0.0,-0.1348589062690735,0.0014131069183349
-0.0647394210100174,0.134671077132225,0.0070493831299245,-0.4294892251491546,-0.0332252830266952,0.0278594605624675,0.0,0.0,0.8460723161697388,0.6786924600601196
-0.0646908730268478,0.1257554143667221,0.0046067065559327,-0.3962447345256805,-0.0329789482057094,0.0049268482252955,0.0,0.0,0.1582378149032592,0.205371618270874
-0.0647369399666786,0.1171159818768501,-0.0049432199448347,-0.3839684128761291,-0.0326485522091388,0.0066081867553293,0.0,0.0,0.4357794523239136,0.6470942497253418
-0.0647962540388107,0.1086080893874168,-0.0052665849216282,-0.3781406581401825,-0.0333074852824211,-0.0131785320118069,0.0,0.0,0.4886096715927124,0.87821364402771
-0.0649420768022537,0.1004023179411888,-0.0123427081853151,-0.3647527992725372,-0.0355238057672977,-0.044326514005661,0.0,0.0,0.7493159770965576,0.9145495891571044
-0.0652295127511024,0.0925178378820419,-0.0247057564556598,-0.3505216240882873,-0.039512775838375,-0.0797793641686439,0.0,0.0,0.7022795677185059,0.5446295738220215
-0.0653848648071289,0.0852235183119773,-0.0110388826578855,-0.3243206143379211,-0.0439492911100387,-0.0887303948402404,0.0,0.0,0.1921852827072143,0.0765596628189086
-0.0655417442321777,0.0778116807341575,-0.0117225460708141,-0.3295350968837738,-0.0478682033717632,-0.0783782824873924,0.0,0.0,0.6937090158462524,0.3931655883789062
-0.0655707344412803,0.0710474327206611,6.38273631921038e-05,-0.3007292747497558,-0.0507949888706207,-0.0585357621312141,0.0,0.0,0.4756655693054199,0.544583797454834
-0.0656018257141113,0.0648109763860702,0.0006943329935893,-0.2773119807243347,-0.0545625202357769,-0.0753505602478981,0.0,0.0,-0.0129622220993042,0.1067879199981689
-0.0656919479370117,0.0580608956515789,-0.0054975422099232,-0.3001354038715362,-0.0580434501171112,-0.0696184262633323,0.0,0.0,0.6832579374313354,0.2395429611206054
-0.0657297149300575,0.051674734801054,-0.000894823228009,-0.2839427590370178,-0.0608872659504413,-0.0568765290081501,0.0,0.0,0.6761736869812012,0.6446437835693359
-0.0657334327697753,0.0460177771747112,0.0035466111730784,-0.2515862584114074,-0.0647630542516708,-0.0775158181786537,0.0,0.0,0.4132758378982544,0.6295230388641357
-0.0656467452645301,0.0408509112894535,0.0134723903611302,-0.229854553937912,-0.0695180520415306,-0.0950998216867446,0.0,0.0,0.1575582027435302,0.6615052223205566
-0.0654826164245605,0.035635981708765,0.0222124401479959,-0.2320550829172134,-0.0752565637230873,-0.11477030813694,0.0,0.0,0.6782002449035645,0.365013837814331
-0.0654554367065429,0.0308612212538719,0.0088470475748181,-0.2125339657068252,-0.0813298299908638,-0.1214651465415954,0.0,0.0,0.3722548484802246,0.5331329107284546
-0.0655272454023361,0.0262199975550174,5.697304732166231e-05,-0.2066866606473922,-0.0885019674897193,-0.143442615866661,0.0,0.0,0.1758865118026733,-0.6938551664352417
-0.06569604575634,0.0216741897165775,-0.0112355798482894,-0.2023804485797882,-0.0940923988819122,-0.111808493733406,0.0,0.0,0.6134674549102783,0.6497204303741455
-0.065797708928585,0.0173807963728904,-0.0035011775325983,-0.1912537515163421,-0.1007057949900627,-0.1322679668664932,0.0,0.0,0.3642511367797851,0.1263916492462158
-0.0658226013183593,0.0130009269341826,0.003469459246844,-0.1950726956129074,-0.1066190153360366,-0.1182645559310913,0.0,0.0,0.7722001075744629,0.2574503421783447
-0.0657256096601486,0.0091849658638238,0.0149694653227925,-0.1699844151735305,-0.1118570119142532,-0.1047598347067833,1.0,0.0,0.6078038215637207,0.1214132308959961
-0.0654869079589843,0.0064456081017851,0.0201557520776987,-0.1218992993235588,-0.1068980917334556,0.1008695513010025,1.0,0.0,0.4927937984466553,-0.6770095825195312
