x_pos,y_pos,x_vel,y_vel,angle,ang_vel,leg_1,leg_2,main_booster,lat_booster
-0.0015538216102868,1.4031991958618164,-0.1570018976926803,-0.3431532084941864,0.0014466805150732,0.0285136047750711,0.0,0.0,0.0867968264988352,0.6851817446837667
-0.0030450820922851,1.3955280780792236,-0.1488591730594635,-0.340937465429306,0.0011888466542586,-0.0051563782617449,0.0,0.0,0.8241863007483752,0.7972975018462076
-0.0043411254882812,1.388094782829285,-0.1277344822883606,-0.3303680121898651,-0.0006614887970499,-0.0370102487504482,0.0,0.0,-0.2459888047672505,-0.5988881975169826
-0.0057209013029932,1.3802341222763062,-0.1371383368968963,-0.3493618369102478,-0.0014835107140243,-0.0164422132074832,0.0,0.0,-0.7986219514390436,0.9171390623469716
-0.0070392610505223,1.3719511032104492,-0.1283722221851349,-0.3681452870368957,-0.0049131871201097,-0.0686000213027,0.0,0.0,0.3321321833353126,-0.7228723410014878
-0.0083139417693018,1.3638980388641355,-0.125228464603424,-0.3579179942607879,-0.007125336676836,-0.0442468523979187,0.0,0.0,0.5842706363349666,-0.7963761703161356
-0.0096954349428415,1.356251239776611,-0.1370285898447036,-0.3398619890213012,-0.0082384208217263,-0.0222638193517923,0.0,0.0,-0.0202807546146763,0.810376438523286
-0.0110204694792628,1.3481805324554443,-0.1289072930812835,-0.3587195575237274,-0.0117980251088738,-0.071198746562004,0.0,0.0,-0.4486263690288292,-0.8702250446596912
-0.0124374385923147,1.3396954536437988,-0.139408990740776,-0.3771311044692993,-0.0140545163303613,-0.0451338253915309,0.0,0.0,0.9664043346013615,0.7436047425406314
-0.0138055803254246,1.3320856094360352,-0.1325707733631134,-0.3382647335529327,-0.0182560645043849,-0.0840390473604202,0.0,0.0,-0.2866328565136813,0.87486679887139
-0.0151149751618504,1.3240492343902588,-0.1241993904113769,-0.3572728037834167,-0.0249171797186136,-0.1332344710826873,0.0,0.0,-0.7651434591829285,-0.6588085232226464
-0.0164889339357614,1.3155884742736816,-0.1313435733318328,-0.3761398196220398,-0.0309145003557205,-0.1199573725461959,0.0,0.0,-0.8019765872245466,0.7483318917499453
-0.0178092010319232,1.306704044342041,-0.1236251965165138,-0.3950621485710144,-0.039216473698616,-0.166054755449295,0.0,0.0,0.8071143569963017,-0.948335287653288
-0.0191218368709087,1.2979681491851809,-0.1244094148278236,-0.3884579837322235,-0.0460053384304046,-0.1357896029949188,0.0,0.0,-0.9406218041879292,0.5226757183699042
-0.0203994754701852,1.2888097763061523,-0.1190878972411155,-0.4073269963264465,-0.0545929186046123,-0.1717670261859893,0.0,0.0,0.2098319055719795,-0.90148613948039
-0.0216586105525493,1.279541015625,-0.1185561046004295,-0.4122278392314911,-0.0618661046028137,-0.1454773098230362,0.0,0.0,0.0686242690570102,-0.5562436209468162
-0.0228420253843069,1.27067768573761,-0.1117411404848098,-0.394211083650589,-0.0684031918644905,-0.1307536959648132,0.0,0.0,-0.2649342337384226,-0.8528593384610035
-0.0240901950746774,1.2613879442214966,-0.1189826875925064,-0.4131540358066559,-0.0741907507181167,-0.1157617717981338,0.0,0.0,0.6523746040361971,0.8339111541516329
-0.0251176841557025,1.2528636455535889,-0.0948710441589355,-0.3792663812637329,-0.0819973349571228,-0.1561456769704818,0.0,0.0,-0.6478782863065771,-0.5381729163657855
-0.0262044910341501,1.2439208030700684,-0.1014832109212875,-0.3978697061538696,-0.089146189391613,-0.1429899930953979,0.0,0.0,0.9533243559094388,-0.5102388770240117
-0.0271039959043264,1.2358698844909668,-0.0836966335773468,-0.3582005500793457,-0.0953537076711654,-0.1241614818572998,0.0,0.0,0.7577629158225714,-0.752088903991118
-0.0280143730342388,1.2280999422073364,-0.085754744708538,-0.3456807434558868,-0.100606232881546,-0.1050598621368408,0.0,0.0,-0.1932987050369004,-0.8878507580858522
-0.0289887432008981,1.2199127674102783,-0.0929744690656662,-0.3641838431358337,-0.1050470098853111,-0.0888234451413154,0.0,0.0,-0.3597314916077101,0.5202253056517636
-0.0299263950437307,1.2112884521484375,-0.0875457227230072,-0.3837504982948303,-0.1112286373972892,-0.1236438304185867,0.0,0.0,0.7732597624309063,-0.7039903661977998
-0.0310148242861032,1.2033088207244873,-0.1030691638588905,-0.355095773935318,-0.1169657558202743,-0.1147525906562805,0.0,0.0,-0.1090134553587189,-0.5035408855402845
-0.0321608558297157,1.194894790649414,-0.1094987988471984,-0.3743589520454407,-0.1220449730753898,-0.1015842705965042,0.0,0.0,-0.1144363414619686,-0.7819082786590228
-0.0333742126822471,1.1860729455947876,-0.1171831265091896,-0.3924268186092376,-0.1261669546365738,-0.0824399664998054,0.0,0.0,-0.7352162058004421,-0.848569320944067
-0.0346737876534462,1.1768511533737185,-0.127288207411766,-0.4100869297981262,-0.1288229674100875,-0.0531202144920825,0.0,0.0,0.2569504621898477,0.669785130367021
-0.0359600074589252,1.1680985689163208,-0.1238342151045799,-0.3894250690937042,-0.1335875391960144,-0.0952917858958244,0.0,0.0,0.9682978780135572,-0.5345203544074311
-0.0372421257197856,1.1597973108291626,-0.1238172799348831,-0.3693436086177826,-0.1379713118076324,-0.0876755788922309,0.0,0.0,0.8544606674975843,0.559135456111892
-0.0383316054940223,1.1524766683578491,-0.1028807535767555,-0.3259322345256805,-0.1440179198980331,-0.1209322959184646,0.0,0.0,-0.7651436924934387,-0.343694806098938
-0.0394251830875873,1.1447325944900513,-0.1026847213506698,-0.3448438048362732,-0.1506785452365875,-0.1332122683525085,0.0,0.0,-0.614868700504303,-0.6141601800918579
-0.0405765548348426,1.1365830898284912,-0.109248399734497,-0.362808883190155,-0.1565559357404709,-0.1175480112433433,0.0,0.0,-0.4675867557525635,-0.0656692385673523
-0.0417312607169151,1.1280100345611572,-0.1089771538972854,-0.3817209899425506,-0.1630527973175048,-0.1299372166395187,0.0,0.0,-0.9114530086517334,-0.2909387350082397
-0.04288911819458,1.119013786315918,-0.10867490619421,-0.4006341397762298,-0.1701714992523193,-0.1423743814229965,0.0,0.0,-0.7805389761924744,-0.4390653371810913
-0.0440498366951942,1.1095943450927734,-0.1083460226655006,-0.4195483028888702,-0.1779142469167709,-0.1548548936843872,0.0,0.0,-0.5980517864227295,-0.5380303859710693
-0.0452571883797645,1.0997607707977295,-0.1135153025388717,-0.437926322221756,-0.1851589828729629,-0.1448946744203567,0.0,0.0,-0.4402114152908325,-0.4845203161239624
-0.0464669242501258,1.0895044803619385,-0.1131457462906837,-0.4568414390087127,-0.1930314898490905,-0.1574499905109405,0.0,0.0,-0.9684575200080872,-0.085823118686676
-0.0476791374385356,1.0788252353668213,-0.1127624958753585,-0.4757577776908874,-0.2015333175659179,-0.1700367629528045,0.0,0.0,-0.9288538098335266,-0.3565428256988525
-0.0488934516906738,1.067723274230957,-0.1123699098825454,-0.4946754276752472,-0.2106658816337585,-0.1826512515544891,0.0,0.0,-0.6993601322174072,-0.6742518544197083
-0.0501702316105365,1.0562241077423096,-0.1196033209562301,-0.5122483372688293,-0.2188294827938079,-0.1632716655731201,0.0,0.0,-0.7982187867164612,-0.6708089709281921
-0.0514904968440532,1.0443146228790283,-0.1243967860937118,-0.5304657816886902,-0.2265534996986389,-0.1544803977012634,0.0,0.0,-0.942139744758606,-0.8149081468582153
-0.0528669357299804,1.031991720199585,-0.1307493895292282,-0.5487576127052307,-0.2335413843393325,-0.139757826924324,0.0,0.0,-0.9185177087783812,-0.7036576271057129
-0.0542909614741802,1.0192608833312988,-0.1360605061054229,-0.566836953163147,-0.2399799674749374,-0.1287717968225479,0.0,0.0,-0.1754267215728759,-0.9696415066719056
-0.0557985305786132,1.0061250925064087,-0.1458501666784286,-0.5846215486526489,-0.2449743002653122,-0.099886231124401,0.0,0.0,-0.5254763960838318,-0.98192298412323
-0.0573798194527626,0.9925827383995056,-0.1543880999088287,-0.6025128960609436,-0.2487810254096985,-0.0761346220970153,0.0,0.0,-0.6264747977256775,-0.8900226354598999
-0.059025764465332,0.9786359667778016,-0.1618236750364303,-0.6203340291976929,-0.2516117095947265,-0.0566139444708824,0.0,0.0,0.3824639320373535,-0.9277697801589966
-0.0606745705008506,0.9653566479682922,-0.1632391810417175,-0.5904697775840759,-0.2532795369625091,-0.033356849104166,0.0,0.0,-0.033297836780548,-0.5347210168838501
-0.0623756423592567,0.9516780972480774,-0.169141337275505,-0.6080986857414246,-0.2542599141597748,-0.0196077618747949,0.0,0.0,0.7974972724914551,-0.6432933211326599
-0.0640144348144531,0.9384065270423888,-0.1635136753320694,-0.5899099111557007,-0.2546376883983612,-0.0075554982759058,0.0,0.0,0.6417579650878906,-0.4012933373451233
-0.065376378595829,0.9254818558692932,-0.1358405649662017,-0.5744954347610474,-0.2549912333488464,-0.0070708482526242,0.0,0.0,-0.7545815706253052,-0.7124020457267761
-0.0668012648820877,0.9121617674827576,-0.1430731117725372,-0.5919018387794495,-0.2543970346450805,0.011884206905961,0.0,0.0,-0.8779298067092896,-0.4545130729675293
-0.0682309120893478,0.8984186053276062,-0.1429246068000793,-0.6108164191246033,-0.254436731338501,-0.000793662504293,0.0,0.0,-0.8075050115585327,-0.9102657437324524
-0.0697333365678787,0.8842872977256775,-0.1513858884572982,-0.6278603672981262,-0.2532714307308197,0.0233058556914329,0.0,0.0,-0.9316498041152954,-0.4585455060005188
-0.0712413787841796,0.869732677936554,-0.1513318121433258,-0.6467750072479248,-0.2527381181716919,0.0106661394238471,0.0,0.0,-0.7739059925079346,-0.8828331828117371
-0.0728344917297363,0.8547815680503845,-0.1612332761287689,-0.6641647815704346,-0.2507713437080383,0.0393354967236518,0.0,0.0,-0.600816011428833,-0.7465915083885193
-0.0744811072945594,0.839432418346405,-0.1672364175319671,-0.6817483901977539,-0.248154804110527,0.0523308627307415,0.0,0.0,-0.781199038028717,-0.4110788106918335
-0.0761350616812706,0.8236600756645203,-0.1673486083745956,-0.7006630301475525,-0.2461660951375961,0.0397742912173271,0.0,0.0,0.0384724140167236,-0.3886975646018982
-0.0776252746582031,0.8082002401351929,-0.1505676358938217,-0.686843752861023,-0.2445861846208572,0.031598187983036,0.0,0.0,-0.93652081489563,-0.611064612865448
-0.079175665974617,0.7923421263694763,-0.1573537290096283,-0.7044239044189453,-0.242235854268074,0.0470062531530857,0.0,0.0,-0.481381893157959,-0.760814368724823
-0.0807897597551345,0.776074230670929,-0.1644764840602874,-0.7225173711776733,-0.2391077280044555,0.0625623539090156,0.0,0.0,-0.6996817588806152,-0.6146494746208191
-0.0824679359793663,0.7594062089920044,-0.1717202067375183,-0.7401692867279053,-0.2351496368646621,0.0791617110371589,0.0,0.0,0.152193546295166,-0.158066987991333
-0.0839888602495193,0.7428111433982849,-0.1557783186435699,-0.7369758486747742,-0.2314100712537765,0.0747912004590034,0.0,0.0,-0.7259239554405212,-0.3919203877449035
-0.0855210274457931,0.7257928848266602,-0.1562991589307785,-0.7558900117874146,-0.2282846271991729,0.0625088363885879,0.0,0.0,0.1296402215957641,-0.3282239437103271
-0.0869978889822959,0.7087497711181641,-0.1501961648464203,-0.7570826411247253,-0.2257454395294189,0.0507836416363716,0.0,0.0,0.0687720775604248,0.0413131713867187
-0.0884800925850868,0.6918691992759705,-0.1497515439987182,-0.75001460313797,-0.2241842895746231,0.0312227066606283,0.0,0.0,-0.2579777240753174,-0.3858092427253723
-0.0899757370352745,0.6745650172233582,-0.1505067050457,-0.7689273357391357,-0.2232271134853363,0.0191435366868972,0.0,0.0,0.6843084096908569,-0.7538143396377563
-0.091389462351799,0.6572540998458862,-0.1434023231267929,-0.7690702676773071,-0.2211784273386001,0.0409738011658191,0.0,0.0,0.9111220836639404,-0.8924582600593567
-0.0926352515816688,0.6409868597984314,-0.1278574764728546,-0.7225029468536377,-0.2178561836481094,0.0664447396993637,0.0,0.0,-0.2475740909576416,-0.3310449123382568
-0.0938967689871788,0.6242959499359131,-0.1288618892431259,-0.7414157390594482,-0.2151249349117279,0.054624892771244,0.0,0.0,0.7802426815032959,-0.6709209680557251
-0.0951752662658691,0.6083048582077026,-0.1310508847236633,-0.7102511525154114,-0.2118791043758392,0.0649164170026779,0.0,0.0,0.2899339199066162,-0.2747674584388733
-0.0963454246520996,0.5925951600074768,-0.1197685226798057,-0.6978148221969604,-0.2091026455163955,0.0555289611220359,0.0,0.0,0.035237431526184,0.0436509847640991
-0.0975029915571212,0.5772635340690613,-0.1175707802176475,-0.6811513304710388,-0.2072741538286209,0.0365698337554931,0.0,0.0,-0.5594119429588318,-0.7018495798110962
-0.0987273231148719,0.5615231990814209,-0.1249100938439369,-0.699222981929779,-0.2047748416662216,0.0499866530299186,0.0,0.0,0.3683216571807861,-0.4178561568260193
-0.0999330505728721,0.5458434820175171,-0.1223664060235023,-0.6966308951377869,-0.2029659897089004,0.0361769050359725,0.0,0.0,0.0759059190750122,-0.0845345854759216
-0.1010734587907791,0.5300375819206238,-0.115489974617958,-0.7022860646247864,-0.2015061974525451,0.0291959289461374,0.0,0.0,0.69834303855896,-0.631547212600708
-0.1022497192025184,0.5143400430679321,-0.1197039037942886,-0.6973863840103149,-0.1994113028049469,0.0418983325362205,0.0,0.0,0.8804088830947876,-0.7001790404319763
-0.1033328026533126,0.4995717406272888,-0.1112361401319503,-0.655977189540863,-0.1964669227600097,0.0588873326778411,0.0,0.0,0.1714770793914795,-0.497349739074707
-0.1042704582214355,0.4852139949798584,-0.0964258015155792,-0.6377711892127991,-0.1937879174947738,0.0535801462829113,0.0,0.0,0.7676682472229004,-0.2053948044776916
-0.105181410908699,0.4717542231082916,-0.0926869362592697,-0.5980044603347778,-0.1921821534633636,0.0321151874959468,0.0,0.0,-0.7301143407821655,-0.3569778203964233
-0.1061169654130935,0.4578704833984375,-0.0946475565433502,-0.6169139742851257,-0.1910834163427353,0.0219743326306343,0.0,0.0,0.8222875595092773,-0.1008723974227905
-0.1068686470389366,0.4448341429233551,-0.075966753065586,-0.5792911052703857,-0.1902742236852646,0.0161837209016084,0.0,0.0,0.4808757305145263,-0.703650176525116
-0.1077016815543174,0.4321776330471039,-0.0848564803600311,-0.5623123645782471,-0.1887179762125015,0.0311250127851963,0.0,0.0,0.396012544631958,-0.2633765935897827
-0.1084996238350868,0.4199539721012115,-0.0806587487459182,-0.5431644916534424,-0.1878453195095062,0.0174527205526828,0.0,0.0,-0.1694744229316711,0.1202737092971801
-0.1093250289559364,0.4073061048984527,-0.0829520523548126,-0.5620728135108948,-0.1874275952577591,0.0083543714135885,0.0,0.0,0.8331561088562012,0.0478190183639526
-0.1099630370736122,0.3951584100723266,-0.0642339438199997,-0.5398437976837158,-0.1870017349720001,0.0085172113031148,0.0,0.0,0.4226217269897461,-0.4595026969909668
-0.1105549782514572,0.3830153048038482,-0.0592929720878601,-0.5396853089332581,-0.1869042813777923,0.0019490697886794,0.0,0.0,0.3640295267105102,-0.7624669075012207
-0.1110900864005088,0.3709251284599304,-0.0548325851559639,-0.5371717214584351,-0.1855669617652893,0.026746341958642,0.0,0.0,0.6703112125396729,-0.8031789064407349
-0.1114493384957313,0.3592337667942047,-0.0387737266719341,-0.5192633271217346,-0.1827101409435272,0.0571365654468536,0.0,0.0,0.3393864631652832,0.0823256969451904
-0.1116697341203689,0.347558856010437,-0.0250456519424915,-0.51851487159729,-0.1796965301036834,0.0602723732590675,0.0,0.0,0.7463078498840332,-0.6762290596961975
-0.1118374839425087,0.3366526365280151,-0.0207690559327602,-0.4842443764209747,-0.1756832748651504,0.0802651196718216,0.0,0.0,0.2809237241744995,-0.4743397235870361
-0.1119100600481033,0.3261843025684356,-0.0110503965988755,-0.4648140966892242,-0.1718809753656387,0.0760463029146194,0.0,0.0,-0.4292380809783935,-0.3007239103317261
-0.112014390528202,0.3152916133403778,-0.0139300776645541,-0.4837207496166229,-0.1683765798807144,0.0700875073671341,0.0,0.0,0.2723678350448608,-0.2054339051246643
-0.1120321303606033,0.304326593875885,-0.0053609437309205,-0.4869308769702911,-0.164785623550415,0.0718191489577293,0.0,0.0,0.1748653650283813,-0.1521145105361938
-0.1120597869157791,0.293482095003128,-0.0059370878152549,-0.4816321730613708,-0.1616137474775314,0.0634374544024467,0.0,0.0,0.1488485336303711,-0.4182304143905639
-0.1119656562805175,0.2830868661403656,0.006192441098392,-0.4616633057594299,-0.1583881676197052,0.0645112171769142,0.0,0.0,0.5882395505905151,-0.7688121199607849
-0.1119027137756347,0.2730973064899444,0.0017610706854611,-0.4435029327869415,-0.1538577824831009,0.0906078293919563,0.0,0.0,-0.0692925453186035,-0.3251920938491821
-0.1118730530142784,0.2626831233501434,-0.0014113944489508,-0.4624078869819641,-0.1494872421026229,0.0874108225107193,0.0,0.0,0.1821835041046142,-0.4312610030174255
-0.1117408722639083,0.2525708973407745,0.0086742229759693,-0.4489834606647491,-0.1449575871229171,0.0905929803848266,0.0,0.0,0.0146516561508178,-0.2334203124046325
-0.1116083115339279,0.2427248358726501,0.0089599890634417,-0.4371896386146545,-0.1406772881746292,0.0856060534715652,0.0,0.0,-0.0585528016090393,0.2545922994613647
-0.1115095168352127,0.2324539721012115,0.0056445077061653,-0.4560930430889129,-0.1364618092775344,0.0843095928430557,0.0,0.0,0.1031395196914672,0.1499991416931152
-0.1114158630371093,0.2222554981708526,0.0052432725206017,-0.4528920352458954,-0.1323549896478653,0.0821368396282196,0.0,0.0,0.5088711977005005,-0.7462031245231628
-0.1114589720964431,0.2124844640493393,-0.0097309658303856,-0.4337936043739319,-0.1269596070051193,0.1079075932502746,0.0,0.0,0.1367475986480713,0.3116340637207031
-0.1115930527448654,0.2028444558382034,-0.0183878950774669,-0.4280328452587127,-0.1220079138875007,0.0990340858697891,0.0,0.0,-0.4673401713371277,0.3836987018585205
-0.1117609962821006,0.1927793174982071,-0.0218522492796182,-0.4469353258609772,-0.1169872358441352,0.1004135832190513,0.0,0.0,0.2478376626968383,0.939173936843872
-0.111803725361824,0.1826735287904739,-0.0075628915801644,-0.4488913118839264,-0.1137183904647827,0.0653767436742782,0.0,0.0,0.543343186378479,0.8970839977264404
-0.1115767508745193,0.1731732934713363,0.0208745691925287,-0.4220923483371734,-0.1119052618741989,0.0362625122070312,0.0,0.0,0.2458583116531372,-0.544827401638031
-0.1113793402910232,0.1641348153352737,0.0166886206716299,-0.4014829695224762,-0.1088732630014419,0.060640025883913,0.0,0.0,0.0893219709396362,0.2627596855163574
-0.1110607162117958,0.155495747923851,0.0281656496226787,-0.3836944699287414,-0.1052053123712539,0.0733591765165329,0.0,0.0,0.1326797008514404,-0.0125539898872375
-0.1106818169355392,0.1470158249139785,0.0337212942540645,-0.3765987455844879,-0.1010632961988449,0.0828401148319244,0.0,0.0,0.2144773006439209,-0.1092124581336975
-0.1102807968854904,0.139006957411766,0.0356876030564308,-0.3556569516658783,-0.0966833308339119,0.0875993594527244,0.0,0.0,-0.1579470634460449,-0.4200329780578613
-0.1099126785993576,0.1305726617574691,0.0320909023284912,-0.3745573461055755,-0.0920115485787391,0.0934355705976486,0.0,0.0,0.5658265352249146,-0.1185633540153503
-0.1094615012407302,0.1223516538739204,0.039731565862894,-0.3650576472282409,-0.0866665318608284,0.1069003194570541,0.0,0.0,0.5756449699401855,0.6523767709732056
-0.109066866338253,0.114597350358963,0.0353082679212093,-0.3444010615348816,-0.0825497135519981,0.0823361575603485,0.0,0.0,0.7922048568725586,0.8289408683776855
-0.1087458580732345,0.1072609052062034,0.0295316334813833,-0.3259239494800567,-0.0800045430660247,0.0509036183357238,0.0,0.0,0.3475736379623413,-0.569026529788971
-0.1084838882088661,0.1001938208937645,0.0221120826900005,-0.3138809502124786,-0.0759699866175651,0.0806913077831268,0.0,0.0,0.535491943359375,0.8328995704650879
-0.1081233993172645,0.0934305787086486,0.0331846103072166,-0.3004449009895324,-0.0731348246335983,0.0567032918334007,0.0,0.0,-0.357713520526886,0.1945065259933471
-0.1077940911054611,0.0862418264150619,0.0296194460242986,-0.319344013929367,-0.0698584243655204,0.0655280575156211,0.0,0.0,0.9127752780914308,0.9657963514328004
-0.1072389632463455,0.0797951519489288,0.05346704646945,-0.2864240109920501,-0.067831851541996,0.0405312664806842,0.0,0.0,0.1618039608001709,-0.0990848541259765
-0.1066581755876541,0.0737699121236801,0.0554674938321113,-0.2676698863506317,-0.0652435421943664,0.051766037940979,0.0,0.0,-0.0551268458366394,0.7098038196563721
