x_pos,y_pos,x_vel,y_vel,angle,ang_vel,leg_1,leg_2,main_booster,lat_booster
-0.0015828132163733,1.4031329154968262,-0.1595193892717361,-0.3460942804813385,0.0011136009125038,0.0219182278960943,0.0,0.0,0.1262518611718179,0.6950058724774458
-0.0031305314041674,1.39534592628479,-0.1538244187831878,-0.3460891842842102,0.0001807997323339,-0.0186572186648845,0.0,0.0,0.0806821871514984,0.7366406134365412
-0.0045788763090968,1.3874579668045044,-0.1418217718601226,-0.3505787849426269,-0.0028044008649885,-0.0597096681594848,0.0,0.0,-0.5962941854811432,0.6354575147372657
-0.0060454369522631,1.3790764808654783,-0.1419205963611602,-0.3725298345088959,-0.0074904561042785,-0.093729481101036,0.0,0.0,0.3944013682339169,-0.90867335777448
-0.0075129508040845,1.3710315227508545,-0.1432816684246063,-0.3575729131698608,-0.0109319183975458,-0.0688352435827255,0.0,0.0,0.276712384785668,0.7934973805148073
-0.008850765414536,1.3631207942962646,-0.12816122174263,-0.3516409993171692,-0.0164850410073995,-0.1110727936029434,0.0,0.0,-0.9172585591202892,-0.7022252184571384
-0.0103027345612645,1.3547205924987793,-0.1403390765190124,-0.3734104335308075,-0.0212836172431707,-0.0959804430603981,0.0,0.0,-0.5217012835907324,0.930662479478926
-0.0117196086794137,1.3458293676376345,-0.1338063180446624,-0.395296573638916,-0.0290695540606975,-0.1557334065437317,0.0,0.0,0.9808796379735611,-0.5930231736781673
-0.013224696740508,1.3379610776901243,-0.1430933177471161,-0.3498566746711731,-0.0364099442958831,-0.1468214988708496,0.0,0.0,-0.4047643672957679,-0.654767690901666
-0.014836311340332,1.3296091556549072,-0.1543633043766021,-0.3713798820972442,-0.0431359559297561,-0.1345325410366058,0.0,0.0,0.6050127336902686,0.9713383952502458
-0.0163060184568166,1.3216218948364258,-0.1376750767230987,-0.355272501707077,-0.0523490868508815,-0.1842794120311737,0.0,0.0,0.3967757711492217,-0.7143065654161942
-0.0177958495914936,1.3138113021850586,-0.140535682439804,-0.3474462628364563,-0.0607089810073375,-0.167213037610054,0.0,0.0,0.0722945445692755,0.8457511701014577
-0.0191450119018554,1.306180119514465,-0.1241423636674881,-0.3396360278129577,-0.0713898092508316,-0.2136359512805938,0.0,0.0,-0.5513980950483055,-0.5628878178754619
-0.0205851551145315,1.2980585098266602,-0.1335602700710296,-0.3614936172962188,-0.0817588195204734,-0.2073992937803268,0.0,0.0,0.4204307465462866,-0.7566806337121864
-0.0219422336667776,1.2905056476593018,-0.1263087391853332,-0.3362240195274353,-0.0910786688327789,-0.1864136755466461,0.0,0.0,-0.674752115690306,-0.5244175816142254
-0.0233828537166118,1.282461404800415,-0.1348496824502945,-0.3581039607524872,-0.1002218723297119,-0.1828808039426803,0.0,0.0,0.8980778020941365,0.7801495234962905
-0.0245397575199604,1.2753688097000122,-0.1046592593193054,-0.3160033822059631,-0.1111969649791717,-0.2195219993591308,0.0,0.0,0.0880578624191747,-0.6724571336059806
-0.0256636627018451,1.2681400775909424,-0.1021636128425598,-0.3220643103122711,-0.121380366384983,-0.2036863565444946,0.0,0.0,-0.2877000354204715,0.7969181486026509
-0.0267600063234567,1.2604172229766846,-0.096891663968563,-0.3443301320075989,-0.1340722441673278,-0.2538604438304901,0.0,0.0,-0.7945630953796108,0.8481766506074964
-0.0278425216674804,1.2521945238113403,-0.0934146493673324,-0.3668622374534607,-0.1488923132419586,-0.2964283525943756,0.0,0.0,-0.4977947014568373,0.8723176557299914
-0.028883934020996,1.2434725761413574,-0.0865607038140297,-0.3894915580749511,-0.1664806008338928,-0.3517980575561523,0.0,0.0,0.1226807366567503,-0.9083828142590926
-0.0299776084721088,1.2347196340560913,-0.092997170984745,-0.3909391760826111,-0.1829079240560531,-0.3285759091377258,0.0,0.0,0.5040332143113071,0.8596662342676091
-0.0308219902217388,1.2261558771133425,-0.0659465044736862,-0.3830046355724334,-0.2015353888273239,-0.3725830912590027,0.0,0.0,-0.8843104701715376,0.7879137719128628
-0.0316355712711811,1.2170777320861816,-0.0605341717600822,-0.4064445495605469,-0.2225835472345352,-0.4210003316402435,0.0,0.0,-0.8488417068835452,-0.9652361667875784
-0.0325740799307823,1.207548975944519,-0.0748589485883712,-0.4264830946922302,-0.2418708205223083,-0.3857800364494324,0.0,0.0,-0.6979875776683471,0.5496607251609358
-0.0335152633488178,1.1975059509277344,-0.0737355798482894,-0.4498396515846252,-0.2626393735408783,-0.4153703153133392,0.0,0.0,0.9827852997221592,0.6815205189504063
-0.0342019088566303,1.188224196434021,-0.0464460924267768,-0.4166737198829651,-0.2854090631008148,-0.4553941190242767,0.0,0.0,0.5704452607789829,0.6663205330721713
-0.0347722992300987,1.1796313524246216,-0.0328002907335758,-0.3868450820446014,-0.3104386329650879,-0.5005911588668823,0.0,0.0,0.5606473959949343,0.5131911047627178
-0.0352289192378521,1.1716495752334597,-0.0196834094822406,-0.3605465888977051,-0.3374797105789184,-0.5408214330673218,0.0,0.0,0.981730250719412,0.5053874071408182
-0.0355001464486122,1.1640080213546753,0.0002676935691852,-0.3462935090065002,-0.3662576079368591,-0.5755578279495239,0.0,0.0,0.6959888742689766,-0.5974116508876633
-0.0354999527335166,1.15712571144104,0.0264774374663829,-0.3129061758518219,-0.3943609595298767,-0.5620678663253784,0.0,0.0,-0.8440499305725098,-0.97637140750885
-0.0355952270328998,1.149808645248413,0.01507886685431,-0.3322564661502838,-0.4207985401153564,-0.5287513732910156,0.0,0.0,-0.0596295595169067,-0.97877836227417
-0.035778809338808,1.142073154449463,0.0043819984421133,-0.3507865965366363,-0.445509135723114,-0.4942118227481842,0.0,0.0,-0.4018330574035644,-0.9941962361335754
-0.036051083356142,1.133903741836548,-0.0062922984361648,-0.3699191212654114,-0.4685255289077759,-0.4603278040885925,0.0,0.0,-0.5504315495491028,-0.9834728240966796
-0.0363948829472065,1.125304937362671,-0.0149742439389228,-0.388877272605896,-0.4901095926761627,-0.4316810667514801,0.0,0.0,-0.5339064598083496,-0.9819526076316832
-0.0368044860661029,1.1162822246551514,-0.0230537988245487,-0.4075155854225158,-0.510242223739624,-0.4026524126529693,0.0,0.0,-0.5052461624145508,-0.9970024824142456
-0.0372861847281456,1.1068310737609863,-0.0319030657410621,-0.4262393712997436,-0.5287344455718994,-0.3698444664478302,0.0,0.0,-0.6358847618103027,-0.9987124800682068
-0.0378248207271099,1.0969572067260742,-0.0390362441539764,-0.4447041749954223,-0.54576575756073,-0.3406262993812561,0.0,0.0,-0.0676959753036499,-0.989471197128296
-0.0384235382080078,1.086672067642212,-0.0466810576617717,-0.4625430405139923,-0.5610549449920654,-0.3057836294174194,0.0,0.0,-0.0055498480796813,-0.9969741702079772
-0.0390751846134662,1.075961351394653,-0.0534107200801372,-0.4810234308242798,-0.5748148560523987,-0.2751992344856262,0.0,0.0,-0.7208945751190186,-0.9960899949073792
-0.0397883430123329,1.0648458003997805,-0.0613884702324867,-0.4983584284782409,-0.5865316987037659,-0.2343364953994751,0.0,0.0,-0.3317409157752991,-0.9973422288894652
-0.0405390746891498,1.0532928705215454,-0.0662555173039436,-0.5174043774604797,-0.5970124006271362,-0.20961394906044,0.0,0.0,-0.4457956552505493,-0.9909825921058656
-0.041330050677061,1.0412983894348145,-0.0714528635144233,-0.5365792512893677,-0.6061633229255676,-0.1830181032419204,0.0,0.0,0.274505615234375,-0.9994227886199952
-0.0418598167598247,1.02930748462677,-0.0468179658055305,-0.5357979536056519,-0.6135801672935486,-0.1483355015516281,0.0,0.0,-0.6095277667045593,-0.9990166425704956
-0.0424394607543945,1.016890525817871,-0.0534006282687187,-0.5540204644203186,-0.6191039681434631,-0.1104763895273208,0.0,0.0,-0.7036469578742981,-0.986790657043457
-0.0430559143424034,1.004038691520691,-0.0583983249962329,-0.5727382302284241,-0.6230374574661255,-0.078669436275959,0.0,0.0,-0.3299999237060547,-0.9925529956817628
-0.0437033660709857,0.9907543659210204,-0.0628230646252632,-0.5913411378860474,-0.625384509563446,-0.0469409227371215,0.0,0.0,-0.4835708141326904,-0.954784631729126
-0.0443884842097759,0.9770663976669312,-0.0683665722608566,-0.6084278225898743,-0.6255642771720886,-0.0035951002500951,0.0,0.0,-0.6647256016731262,-0.987240195274353
-0.045114230364561,0.9629781246185304,-0.0743557810783386,-0.6252883076667786,-0.62339186668396,0.0434478819370269,0.0,0.0,-0.4737409353256225,-0.8279927372932434
-0.0458610542118549,0.9484567046165466,-0.0778037756681442,-0.6439092755317688,-0.6196082234382629,0.075672760605812,0.0,0.0,-0.6937297582626343,-0.9848033785820008
-0.0466197021305561,0.9334961771965028,-0.0801562070846557,-0.6628817319869995,-0.6144084334373474,0.103995993733406,0.0,0.0,-0.5781761407852173,-0.9778043031692504
-0.0474059097468853,0.9181230068206788,-0.0847280248999595,-0.680399477481842,-0.6070528030395508,0.1471134573221206,0.0,0.0,-0.719600260257721,-0.9855214953422546
-0.0482062324881553,0.9023094177246094,-0.0874972343444824,-0.699400007724762,-0.5981009006500244,0.1790386587381363,0.0,0.0,-0.7663132548332214,-0.9641193747520448
-0.0490233413875103,0.8860762715339661,-0.0908891186118125,-0.7173427939414978,-0.5871664881706238,0.2186888009309768,0.0,0.0,-0.7052340507507324,-0.9425892233848572
-0.0498445518314838,0.8693966269493103,-0.0926147997379303,-0.7367210388183594,-0.5747747421264648,0.2478344887495041,0.0,0.0,-0.8034798502922058,-0.8733009099960327
-0.0506886467337608,0.8522886037826538,-0.096814140677452,-0.755071759223938,-0.560244083404541,0.2906132340431213,0.0,0.0,-0.7513405680656433,-0.3384699821472168
-0.0514864921569824,0.83469158411026,-0.0923246964812278,-0.7769281268119812,-0.5456997752189636,0.2908865809440613,0.0,0.0,-0.8423428535461426,-0.5992469191551208
-0.0522668845951557,0.8166353702545166,-0.0915845781564712,-0.7971006631851196,-0.5301162004470825,0.3116711676120758,0.0,0.0,-0.772188663482666,-0.2862794399261474
-0.0529985427856445,0.7980898022651672,-0.0869166329503059,-0.8189564943313599,-0.51444411277771,0.3134416937828064,0.0,0.0,-0.7459899187088013,-0.2285660505294799
-0.0536803230643272,0.7790549993515015,-0.0821700468659401,-0.8408113121986389,-0.4986468851566314,0.315944492816925,0.0,0.0,-0.8381901383399963,0.1624945402145385
-0.0543113723397254,0.7595306634902954,-0.0773517787456512,-0.8626651763916016,-0.4826887547969818,0.3191626667976379,0.0,0.0,-0.8364695310592651,-0.0077361464500427
-0.0548906326293945,0.7395166754722595,-0.0724682435393333,-0.8845183849334717,-0.4665349423885345,0.3230760395526886,0.0,0.0,-0.6323348879814148,-0.1506310701370239
-0.0554171577095985,0.719012975692749,-0.0675253123044967,-0.9063712358474731,-0.4501519203186035,0.3276610970497131,0.0,0.0,-0.0124318003654479,-0.1677003502845764
-0.055890180170536,0.6980196833610535,-0.0625283792614936,-0.9282239675521852,-0.4335073232650757,0.3328916132450104,0.0,0.0,0.4427499771118164,0.5513358116149902
-0.0561170578002929,0.6769773960113525,-0.0372612960636615,-0.9308011531829834,-0.4177068769931793,0.3160088062286377,0.0,0.0,0.6852207183837891,-0.397823691368103
-0.0561598762869834,0.6563482880592346,-0.0187117047607898,-0.9126619696617126,-0.4021685719490051,0.3107660412788391,0.0,0.0,0.7461168766021729,-0.4659335613250732
-0.0557722076773643,0.6364641785621643,0.0238180551677942,-0.8795880675315857,-0.3861755728721618,0.31986004114151,0.0,0.0,0.2961068153381347,-0.5069648623466492
-0.0552154555916786,0.6163862347602844,0.0391338691115379,-0.8879677057266235,-0.3686130344867706,0.3512506186962127,0.0,0.0,0.6828000545501709,0.4141931533813476
-0.0542628280818462,0.59702068567276,0.0781175717711448,-0.8563780188560486,-0.3505225777626037,0.3618098497390747,0.0,0.0,0.2201317548751831,0.384915828704834
-0.0531978607177734,0.5776942372322083,0.0891337096691131,-0.8548290729522705,-0.3323298990726471,0.3638534247875213,0.0,0.0,0.2032308578491211,-0.3936381340026855
-0.0519771575927734,0.5586106181144714,0.1044587343931198,-0.8442220091819763,-0.3140013515949249,0.3665707111358642,0.0,0.0,0.5780441761016846,-0.0748480558395385
-0.0504866614937782,0.5398724675178528,0.1307707875967025,-0.8289640545845032,-0.2950716614723205,0.3785938322544098,0.0,0.0,0.6013569831848145,-0.7411552667617798
-0.0488846786320209,0.5219139456748962,0.1401078999042511,-0.7942171692848206,-0.2743981778621673,0.4134697020053863,0.0,0.0,0.4051499366760254,-0.4867721199989319
-0.047029972076416,0.5041516423225403,0.164479374885559,-0.7856407165527344,-0.2529347836971283,0.4292680621147156,0.0,0.0,0.3810238838195801,-0.7895044088363647
-0.0451257713139057,0.4864068031311035,0.1672864407300949,-0.7848442792892456,-0.2294051200151443,0.470593512058258,0.0,0.0,0.7959156036376953,-0.9045950174331664
-0.0430720336735248,0.468680202960968,0.1796397715806961,-0.7840557098388672,-0.2033925950527191,0.5202502608299255,0.0,0.0,0.8543789386749268,-0.4522930383682251
-0.0409155860543251,0.4510400593280792,0.1894012689590454,-0.7806137800216675,-0.1769998669624328,0.5278546214103699,0.0,0.0,0.8957741260528564,-0.4095044136047363
-0.0385476127266883,0.4342629611492157,0.2099204808473587,-0.7426681518554688,-0.1500949114561081,0.5380992293357849,0.0,0.0,0.4657548666000366,0.6527584791183472
-0.0358817093074321,0.4180533289909363,0.2401695251464843,-0.7179765701293945,-0.1237695589661598,0.5265073776245117,0.0,0.0,0.8515435457229614,-0.5405750870704651
-0.0332164764404296,0.4027624428272247,0.2387299090623855,-0.6775217056274414,-0.0961645394563674,0.5521003007888794,0.0,0.0,0.902918815612793,0.3107199668884277
-0.0306018833070993,0.3875805139541626,0.2336869537830352,-0.6731973886489868,-0.068660981953144,0.5500714182853699,0.0,0.0,0.7990598678588867,0.5574166774749756
-0.0277763362973928,0.3732002973556518,0.2551309764385223,-0.638089120388031,-0.0415407158434391,0.5424057245254517,0.0,0.0,0.8174021244049072,0.2445100545883178
-0.0249747280031442,0.3592937886714935,0.2526016235351562,-0.6175278425216675,-0.0143312597647309,0.5441892743110657,0.0,0.0,0.8909691572189331,0.8118281364440918
-0.0221054069697856,0.3460721969604492,0.2605308294296264,-0.5875775814056396,0.0117326909676194,0.5212795734405518,0.0,0.0,0.9072768688201904,0.7968872785568237
-0.019136618822813,0.3335837125778198,0.2714960277080536,-0.5554325580596924,0.0367982499301433,0.5013114213943481,0.0,0.0,0.7058818340301514,0.6838428974151611
-0.0159770958125591,0.3215212821960449,0.2911131978034973,-0.5369011163711548,0.0613480880856514,0.4909966588020324,0.0,0.0,0.7062296867370605,0.5326317548751831
-0.0127099035307765,0.3095060586929321,0.3022719621658325,-0.5351866483688354,0.0855413302779197,0.4838652014732361,0.0,0.0,0.9853084087371826,0.6637569665908813
-0.0092514995485544,0.2977481782436371,0.3218263983726501,-0.5241208076477051,0.1093616709113121,0.4764068126678467,0.0,0.0,0.872127890586853,0.0206366777420043
-0.0056370734237134,0.2864997684955597,0.3360605835914612,-0.5019784569740295,0.1345941424369812,0.504649817943573,0.0,0.0,0.9759645462036132,0.8132998943328857
-0.0017810821300372,0.2755137979984283,0.3608973622322082,-0.4906821548938751,0.1592447906732559,0.4930130541324615,0.0,0.0,0.939173936843872,0.3339629173278808
0.0019891739357262,0.2653503119945526,0.3518001437187195,-0.4546080231666565,0.1845142841339111,0.5053900480270386,0.0,0.0,0.9884352684020996,0.5857279300689697
0.0057362555526196,0.2560793161392212,0.3500144183635711,-0.4153054654598236,0.2093707919120788,0.4971303045749664,0.0,0.0,0.8815537691116333,0.2908190488815307
0.009524536319077,0.2474860697984695,0.352966159582138,-0.3857957720756531,0.2355399280786514,0.523382842540741,0.0,0.0,0.8973703384399414,0.644212007522583
0.013456916436553,0.2390137314796447,0.3678434193134308,-0.3808170855045318,0.2613927125930786,0.517055869102478,0.0,0.0,0.9254522323608398,0.4736777544021606
0.0172367095947265,0.2308972924947738,0.3523915410041809,-0.3655117750167846,0.2876250445842743,0.5246473550796509,0.0,0.0,0.8974738121032715,0.9071124792099
0.0209645275026559,0.2238120436668396,0.3483474850654602,-0.3199195265769958,0.3128603398799896,0.5047057867050171,0.0,0.0,0.89750075340271,0.4652276039123535
0.0245253555476665,0.2171668857336044,0.3313260674476623,-0.3008913397789001,0.3386399447917938,0.5155921578407288,0.0,0.0,0.6797912120819092,0.6240760087966919
0.0277930255979299,0.2111473679542541,0.3031252920627594,-0.2732870280742645,0.3634850680828094,0.4969025552272796,0.0,0.0,0.5653574466705322,0.887035608291626
0.0310357101261615,0.2056645005941391,0.3018148243427276,-0.2495570480823516,0.3872923254966736,0.4761450290679931,0.0,0.0,0.3268201351165771,0.6408993005752563
0.0341115966439247,0.2005431205034256,0.2860427498817444,-0.2336494922637939,0.4103647172451019,0.4614477157592773,0.0,0.0,-0.3087058067321777,0.4723429679870605
0.0372467041015625,0.1949405223131179,0.2915580868721008,-0.2555554807186126,0.43411386013031,0.474982887506485,0.0,0.0,0.2811019420623779,0.8833315372467041
0.0403222069144248,0.1894093155860901,0.2868849635124206,-0.2523830533027649,0.4566934108734131,0.4515912532806396,0.0,0.0,0.2499785423278808,0.8190779685974121
0.0432229042053222,0.1839856058359146,0.270647794008255,-0.2475731819868087,0.4781629741191864,0.4293915331363678,0.0,0.0,0.1731735467910766,0.1205142736434936
0.0459166541695594,0.1785017400979995,0.2499933540821075,-0.2505867183208465,0.4998203217983246,0.4331468939781189,0.0,0.0,-0.3168017864227295,0.0464650392532348
0.0486691482365131,0.1725363582372665,0.2554886937141418,-0.2724911272525787,0.5221608281135559,0.4468098282814026,0.0,0.0,-0.2263490557670593,0.8920154571533203
0.0515491478145122,0.1661401093006134,0.2697112262248993,-0.2914484441280365,0.5431146025657654,0.4190754890441894,0.0,0.0,0.7328445911407471,0.9704067707061768
0.0542821884155273,0.1604865193367004,0.2562502026557922,-0.2582706212997436,0.562881588935852,0.3953393101692199,0.0,0.0,0.5514519214630127,0.9604742527008056
0.0567246451973915,0.1553219407796859,0.2285936176776886,-0.2362407147884369,0.581247091293335,0.3673105537891388,0.0,0.0,0.3435732126235962,0.8717796802520752
0.059007454663515,0.1507187038660049,0.2137381136417389,-0.2110652178525924,0.5985047221183777,0.3451531529426574,0.0,0.0,-0.4334571957588196,0.9417448043823242
0.0614169128239154,0.1457018256187439,0.2278996407985687,-0.2289915084838867,0.6141637563705444,0.313181072473526,0.0,0.0,0.1969213485717773,0.9356374740600586
0.0635947212576866,0.1409913599491119,0.205992579460144,-0.2149708569049835,0.6284724473953247,0.2861743569374084,0.0,0.0,0.1415753364562988,0.9626071453094482
0.0656081214547157,0.1365734487771988,0.1908410936594009,-0.2015082091093063,0.6413509845733643,0.2575702965259552,0.0,0.0,0.1625550985336303,0.9537549018859864
0.0676018744707107,0.1321811228990554,0.1900737583637237,-0.1998828053474426,0.652836799621582,0.2297163754701614,0.0,0.0,-0.4505648016929626,0.937002420425415
0.0696992874145507,0.1273582279682159,0.2012832909822464,-0.2187020629644394,0.6633813977241516,0.2108916938304901,0.0,0.0,0.4298298358917236,0.9849514961242676
0.0715415924787521,0.122527964413166,0.1770423650741577,-0.2184560298919677,0.6724129319190979,0.1806307733058929,0.0,0.0,0.414811372756958,0.9630961418151855
0.0731834396719932,0.1178285926580429,0.1581809967756271,-0.2120713591575622,0.6800159811973572,0.1520606279373169,0.0,0.0,0.4778347015380859,0.9770573377609252
0.0746635422110557,0.1132955178618431,0.1431654840707779,-0.2040982991456985,0.6861830353736877,0.123340830206871,0.0,0.0,0.4822535514831543,0.9327709674835204
0.0761594772338867,0.1088398322463035,0.1457414776086807,-0.2001418471336364,0.6911022663116455,0.0983843430876731,0.0,0.0,0.2170865535736084,0.9470592737197876
0.0775110274553299,0.104634128510952,0.1324190348386764,-0.1884372681379318,0.6946147680282593,0.0702497139573097,0.0,0.0,0.2152714729309082,0.9625937938690186
0.0786098465323448,0.1007256805896759,0.1082835420966148,-0.174598678946495,0.6966779232025146,0.0412634909152984,0.0,0.0,0.2104753255844116,0.9844088554382324
0.0797243118286132,0.0967123806476593,0.1109880581498146,-0.1786264479160308,0.6972675323486328,0.0117925964295864,0.0,0.0,0.3557549715042114,0.9819056987762452
