x_pos,y_pos,x_vel,y_vel,angle,ang_vel,leg_1,leg_2,main_booster,lat_booster
-0.0015137672889977,1.4034048318862915,-0.1540339291095733,-0.3340075612068176,0.0023807394318282,0.0470084026455879,0.0,0.0,0.2097150890613099,-0.5629632462921746
-0.003023910569027,1.3961973190307615,-0.1552074551582336,-0.3203446269035339,0.0065290029160678,0.0829735845327377,0.0,0.0,0.0580564443653079,0.922063726801454
-0.0043578147888183,1.3891531229019165,-0.136380910873413,-0.3130967915058136,0.0094973854720592,0.0593726821243763,0.0,0.0,0.7213823926821861,-0.8133827230268191
-0.0058961869217455,1.382664680480957,-0.1588479876518249,-0.2884097993373871,0.0144464699551463,0.0989909246563911,0.0,0.0,0.5210796199487124,-0.8006625441468542
-0.0073761940002441,1.376861810684204,-0.1555050462484359,-0.2579928040504455,0.0218682121485471,0.1484487354755401,0.0,0.0,0.080682232176181,-0.5202860980093098
-0.0088109970092773,1.3713746070861816,-0.1528975367546081,-0.2440478950738906,0.0311827100813388,0.1863075196743011,0.0,0.0,0.882310337809141,-0.5053729299268046
-0.0103414533659815,1.3666526079177856,-0.1640715599060058,-0.2101308852434158,0.0420898608863353,0.2181630432605743,0.0,0.0,0.2468472367629248,0.5637866982382167
-0.0117357252165675,1.3624569177627563,-0.1502702534198761,-0.1868138611316681,0.0528266802430152,0.2147562056779861,0.0,0.0,0.5466104672624721,-0.5252599593302867
-0.0132389068603515,1.3592188358306885,-0.1628823429346084,-0.1444032043218612,0.0652647837996482,0.2487852126359939,0.0,0.0,0.2362851624495747,0.8772049189252555
-0.0147264478728175,1.3565893173217771,-0.1602520644664764,-0.117405742406845,0.0766619443893432,0.2279638797044754,0.0,0.0,0.4853320003147037,0.9595294814688848
-0.0161110870540142,1.3545613288879397,-0.1488361358642578,-0.090693399310112,0.0869592502713203,0.205964520573616,0.0,0.0,-0.7687266383728468,0.5848504511397167
-0.0174663551151752,1.3523213863372805,-0.1453079730272293,-0.1001467779278755,0.0966745018959045,0.1943228095769882,0.0,0.0,0.2709582538394228,0.6040376833309032
-0.0187409408390522,1.3506934642791748,-0.1369546055793762,-0.0729901865124702,0.1061239093542099,0.1890051066875457,0.0,0.0,0.6323001120005898,-0.5545472317748663
-0.0200496669858694,1.3493714332580566,-0.1424095034599304,-0.0596199594438076,0.1176005005836486,0.2295523136854171,0.0,0.0,0.133567362118584,-0.6506611413310139
-0.0213974006474018,1.3486924171447754,-0.1484803259372711,-0.03131590411067,0.1312531530857086,0.2730776667594909,0.0,0.0,0.7601924730160496,0.8410310391387945
-0.0226236339658498,1.348296880722046,-0.1356124877929687,-0.0187760721892118,0.1442143023014068,0.259246826171875,0.0,0.0,-0.4555894910078275,0.6360009943955311
-0.0238230712711811,1.3477058410644531,-0.1320847421884536,-0.0274905953556299,0.1563538461923599,0.2428125143051147,0.0,0.0,0.9574386448133884,0.7326389038806806
-0.0248889923095703,1.3476063013076782,-0.118435762822628,-0.0057084914296865,0.1682238429784774,0.2374209910631179,0.0,0.0,0.936277760627023,0.6641470604524842
-0.025977898389101,1.3487319946289062,-0.1204533129930496,0.0486781075596809,0.1798286437988281,0.2321168929338455,0.0,0.0,0.9948154312571916,0.9864857460294756
-0.0272571556270122,1.350641131401062,-0.1380541771650314,0.083593875169754,0.1900196820497512,0.2038389891386032,0.0,0.0,0.410207880029287,0.7689239922794598
-0.0285192485898733,1.3533363342285156,-0.1357238888740539,0.1185419484972953,0.1996034234762191,0.1916916817426681,0.0,0.0,0.8048871203951349,0.645692794514845
-0.029854679480195,1.3565412759780884,-0.1425490230321884,0.1412087082862854,0.2086864560842514,0.1816774308681488,0.0,0.0,-0.0582840562627091,-0.9406911502003648
-0.0312898643314838,1.359510898590088,-0.1547136157751083,0.1303580552339553,0.2200158685445785,0.2266087979078292,0.0,0.0,0.589384788849264,0.5939248543179736
-0.0327171310782432,1.3627371788024902,-0.1536482274532318,0.1417152732610702,0.2310913652181625,0.2215298861265182,0.0,0.0,0.0621177402189565,0.5680891231740588
-0.0343403816223144,1.366333246231079,-0.1726827919483184,0.1581726372241974,0.2416341006755828,0.2108738124370575,0.0,0.0,0.0356219018405397,0.7774474551824349
-0.0361560806632041,1.3703235387802124,-0.191100925207138,0.1757504045963287,0.2513310611248016,0.1939388662576675,0.0,0.0,-0.9359356133613844,0.8808063089458444
-0.0379518494009971,1.3741294145584106,-0.188095286488533,0.1676677018404007,0.2600036859512329,0.1734523177146911,0.0,0.0,-0.336643416176114,0.601212151566358
-0.0397608764469623,1.3777397871017456,-0.1892033070325851,0.1589590609073639,0.2684916853904724,0.1697605848312378,0.0,0.0,-0.1638035158973416,-0.9079819141033918
-0.04170398786664,1.3811068534851074,-0.2055182158946991,0.1475609093904495,0.2799853086471557,0.2298725396394729,0.0,0.0,0.3824553219096367,-0.7296747564022033
-0.0438830368220806,1.3848133087158203,-0.2312345802783966,0.1621088981628418,0.2937081456184387,0.2744566798210144,0.0,0.0,0.4891164034300017,0.5646488589679908
-0.0462745651602745,1.3894344568252563,-0.2521106004714966,0.2027118653059005,0.307096004486084,0.2677574157714844,0.0,0.0,-0.9791082143783568,0.6894652843475342
-0.0486712455749511,1.3938589096069336,-0.252145379781723,0.1939537972211837,0.32004314661026,0.2589427828788757,0.0,0.0,-0.9415258169174194,0.7558962106704712
-0.0510723106563091,1.3980998992919922,-0.2519999146461487,0.1858232766389846,0.3324301838874817,0.2477401793003082,0.0,0.0,-0.8038367033004761,0.6535086631774902
-0.0534808151423931,1.4021438360214231,-0.2522937953472137,0.1770477443933487,0.3444083631038666,0.2395634353160858,0.0,0.0,-0.9768736362457277,0.7490684986114502
-0.0558853149414062,1.4060053825378418,-0.2510912418365478,0.1690448373556137,0.3555885255336761,0.2236033678054809,0.0,0.0,-0.9694786667823792,0.7815704345703125
-0.0582850463688373,1.4096909761428833,-0.2497275620698928,0.1613579839468002,0.3658894300460815,0.2060182094573974,0.0,0.0,-0.9357187747955322,0.0866016149520874
-0.0607380867004394,1.413162350654602,-0.2557701468467712,0.1515705436468124,0.3769708573818207,0.2216287106275558,0.0,0.0,-0.9543086886405944,0.882866382598877
-0.0631782561540603,1.416466474533081,-0.2533394694328308,0.1443517953157425,0.3868909776210785,0.1984021961688995,0.0,0.0,-0.9509339928627014,0.6660380363464355
-0.0656291022896766,1.419590711593628,-0.2539060711860657,0.1364250481128692,0.3962979614734649,0.1881394833326339,0.0,0.0,-0.919969379901886,0.60186767578125
-0.0680890083312988,1.422529697418213,-0.2542900741100311,0.1282804459333419,0.4051823318004608,0.1776877045631408,0.0,0.0,-0.9916203618049622,0.6783641576766968
-0.0705651268362999,1.4252851009368896,-0.2555110156536102,0.1201845109462738,0.4136844873428345,0.1700439155101776,0.0,0.0,-0.842811107635498,0.6422781944274902
-0.0730402022600174,1.4278614521026611,-0.2546233534812927,0.1123994514346122,0.4213644564151764,0.1535991430282592,0.0,0.0,-0.9565877318382264,0.4527257680892944
-0.0755703896284103,1.4302233457565308,-0.2608419060707092,0.1026124730706214,0.4298247694969177,0.169206827878952,0.0,0.0,-0.9651471972465516,0.6066781282424927
-0.0781055465340614,1.4324042797088623,-0.2606596350669861,0.0947255939245224,0.4375969171524048,0.1554430276155471,0.0,0.0,-0.9886612296104432,0.8811454772949219
-0.0806350708007812,0.0,-0.2592248916625976,0.086824245750904,0.4444516003131866,0.1370934545993805,0.0,0.0,-0.9494189023971558,0.6938223838806152
-0.0831654518842697,1.436217188835144,-0.2585959434509277,0.0788807719945907,0.4505376815795898,0.1217216402292251,0.0,0.0,-0.911209523677826,0.8229739665985107
-0.0856864899396896,1.4378597736358645,-0.2566456198692322,0.0715294033288955,0.4555158615112304,0.0995634794235229,0.0,0.0,-0.9410163164138794,0.8722548484802246
-0.0882167816162109,1.4393326044082642,-0.2568904459476471,0.0641864240169525,0.4597752690315246,0.0851883217692375,0.0,0.0,-0.9802945852279664,0.7551724910736084
-0.0907639488577842,1.4406273365020752,-0.2581595778465271,0.0563982874155044,0.4635701477527618,0.0758973658084869,0.0,0.0,-0.986218273639679,0.9367685317993164
-0.0933033972978591,1.441752314567566,-0.2563721835613251,0.0491838715970516,0.4662525355815887,0.05364790558815,0.0,0.0,-0.971984326839447,0.877269983291626
-0.0958232879638671,1.442719340324402,-0.2530595064163208,0.0426259711384773,0.4674347937107086,0.0236450247466564,0.0,0.0,-0.9953056573867798,0.8988075256347656
-0.0983448028564453,0.0,-0.2523747980594635,0.0355072617530822,0.467678964138031,0.0048834206536412,0.0,0.0,-0.9094209671020508,0.8501570224761963
-0.1008513420820236,1.4441545009613037,-0.2496782541275024,0.028536083176732,0.4665979146957397,-0.0216208435595035,0.0,0.0,-0.9837031364440918,0.6468410491943359
-0.1033711433410644,1.444614052772522,-0.2504492402076721,0.0209276098757982,0.4649172723293304,-0.0336128287017345,0.0,0.0,-0.8985766172409058,0.9092997312545776
-0.1058671921491622,1.4449151754379272,-0.2466405183076858,0.0143776079639792,0.4616360366344452,-0.0656248331069946,0.0,0.0,-0.9547036290168762,0.8369455337524414
-0.1083698272705078,1.4450352191925049,-0.2466416805982589,0.0065228990279138,0.4576548337936401,-0.0796239078044891,0.0,0.0,-0.9852638244628906,0.90614914894104
-0.1108582466840744,0.0,-0.243925929069519,0.0001387020602123,0.4522373974323272,-0.1083485856652259,0.0,0.0,-0.9908657073974608,0.8529434204101562
-0.1133312210440635,1.4448113441467283,-0.2410384863615036,-0.0064717847853899,0.4453895390033722,-0.1369563788175583,0.0,0.0,-0.9741861820220948,0.8905981779098511
-0.115793228149414,1.444464921951294,-0.2387091666460037,-0.0130314296111464,0.4372028708457947,-0.1637333184480667,0.0,0.0,-0.9229504466056824,0.7631185054779053
-0.1182671561837196,0.0,-0.2392849028110504,-0.020679922774434,0.4283787608146667,-0.176481544971466,0.0,0.0,-0.9847703576087952,0.7804243564605713
-0.1207361221313476,1.4432425498962402,-0.2378356456756591,-0.028410954400897,0.418561041355133,-0.1963541060686111,0.0,0.0,-0.9763315320014954,0.572030782699585
-0.1232292205095291,1.4423532485961914,-0.2399804890155792,-0.0367946699261665,0.4085048139095306,-0.2011246234178543,0.0,0.0,-0.9970884919166564,0.8448214530944824
-0.1257059127092361,1.4412952661514282,-0.2370329797267913,-0.0439902395009994,0.3970942795276642,-0.2282106578350067,0.0,0.0,-0.984184741973877,0.2715353965759277
-0.128240019083023,1.4400231838226318,-0.243428036570549,-0.0537802539765834,0.3864323794841766,-0.2132380008697509,0.0,0.0,-0.9932857751846312,0.5598597526550293
-0.1307892799377441,1.4385581016540527,-0.244498997926712,-0.0623227320611476,0.3753504455089569,-0.2216392010450363,0.0,0.0,-0.7651523947715759,0.9083707332611084
-0.1333434134721756,1.436910629272461,-0.2442327439785003,-0.0703364834189415,0.3635225296020508,-0.2365587502717971,0.0,0.0,-0.9723559617996216,0.2484475374221801
-0.1359548568725586,0.0,-0.2506244778633117,-0.0801250785589218,0.3524308502674103,-0.2218333780765533,0.0,0.0,-0.9936264753341676,0.3651504516601562
-0.1386237144470214,1.432971715927124,-0.2570146024227142,-0.0899116098880767,0.342070460319519,-0.2072080075740814,0.0,0.0,-0.9964308738708496,0.7525691986083984
-0.1412937194108963,1.4307194948196411,-0.2562342584133148,-0.0975836962461471,0.3308155536651611,-0.2250985652208328,0.0,0.0,-0.995369553565979,0.1810274124145507
-0.1440209448337555,1.4282522201538086,-0.2626170814037323,-0.1073690354824066,0.3202804028987884,-0.210702896118164,0.0,0.0,-0.9959603548049928,0.8806772232055664
-0.1467505395412445,1.425601363182068,-0.2620330452919006,-0.1154404804110527,0.3089312314987182,-0.2269835472106933,0.0,0.0,-0.9966470003128052,0.721907377243042
-0.1494809091091156,1.4227639436721802,-0.2612503170967102,-0.1236387342214584,0.2967408001422882,-0.2438092678785324,0.0,0.0,-0.9843598008155824,0.4087221622467041
-0.1522686928510666,1.419711709022522,-0.267615407705307,-0.1334234625101089,0.2852484881877899,-0.2298469990491867,0.0,0.0,-0.9996902942657472,0.5993831157684326
-0.1550627648830413,1.4164667129516602,-0.2675621211528778,-0.141952559351921,0.2730801999568939,-0.2433656454086303,0.0,0.0,-0.9608654379844666,0.8102760314941406
-0.1578550338745117,1.41302490234375,-0.2664807438850403,-0.1506402045488357,0.26004758477211,-0.2606528401374817,0.0,0.0,-0.9796417355537416,0.1369012594223022
-0.160704419016838,1.4093680381774902,-0.2728197276592254,-0.1604240536689758,0.2476847320795059,-0.2472568452358245,0.0,0.0,-0.9743570685386658,0.4837802648544311
-0.1636110246181488,1.4054956436157229,-0.2791486084461212,-0.170205682516098,0.2359804511070251,-0.2340855598449707,0.0,0.0,-0.921401858329773,0.859700083732605
-0.166511058807373,1.4014387130737305,-0.2773984372615814,-0.1783366501331329,0.2232058495283126,-0.2554921209812164,0.0,0.0,-0.9661074876785278,0.7689231634140015
-0.1694023162126541,1.397196888923645,-0.2753759920597076,-0.1865075379610061,0.209303542971611,-0.2780460715293884,0.0,0.0,-0.9908560514450072,0.8953520059585571
-0.1722957640886306,1.3927665948867798,-0.274709403514862,-0.1948960870504379,0.1945480853319168,-0.295109212398529,0.0,0.0,-0.9866292476654052,0.7624150514602661
-0.1751989424228668,1.388127326965332,-0.2750464379787445,-0.2042562812566757,0.1791991293430328,-0.306979089975357,0.0,0.0,-0.989674150943756,0.5582137107849121
-0.1781135499477386,1.3832905292510986,-0.2755373120307922,-0.2131192237138748,0.1632390767335891,-0.3192010521888733,0.0,0.0,-0.9048885703086852,0.7810046672821045
-0.181034654378891,1.378251552581787,-0.2754038870334625,-0.2222075164318084,0.1465466022491455,-0.333849161863327,0.0,0.0,-0.7571476697921753,0.8535797595977783
-0.1839525252580642,1.3730149269104004,-0.2740267217159271,-0.2310850471258163,0.1288495659828186,-0.3539410233497619,0.0,0.0,-0.5264024138450623,0.8706048727035522
-0.1868608444929123,1.3675816059112549,-0.2718474864959717,-0.2399505972862243,0.1099742203950882,-0.3775070309638977,0.0,0.0,-0.7801758050918579,0.5923386812210083
-0.1897726953029632,1.3619433641433716,-0.2713155448436737,-0.2492430955171585,0.0902518555521965,-0.394447386264801,0.0,0.0,-0.964182674884796,-0.5386664271354675
-0.1927818357944488,1.3560800552368164,-0.2825335562229156,-0.2595786452293396,0.0720444619655609,-0.3641477227210998,0.0,0.0,-0.8836700320243835,0.3803374767303467
-0.1958477050065994,1.3500021696090698,-0.2886355221271515,-0.2693648636341095,0.0542936995625495,-0.3550154864788055,0.0,0.0,-0.9636587500572203,0.584176778793335
-0.1989126205444336,1.3437139987945557,-0.2874955236911773,-0.2788947224617004,0.0355260819196701,-0.375352531671524,0.0,0.0,-0.9197161197662354,-0.206107497215271
-0.2020338028669357,1.3372108936309814,-0.2935262620449066,-0.2886811196804046,0.0171600170433521,-0.3673214316368103,0.0,0.0,-0.8746518492698669,-0.5127366185188293
-0.205252319574356,1.3304953575134275,-0.304658979177475,-0.2983585894107818,0.0001947787241078,-0.3393047451972961,0.0,0.0,-0.8866106867790222,0.1488187313079834
-0.2085267603397369,1.323564052581787,-0.3106047511100769,-0.3081384599208832,-0.0164297744631767,-0.3324912190437317,0.0,0.0,-0.9526047706604004,0.4458827972412109
-0.2118570804595947,1.3164167404174805,-0.3165017366409302,-0.3179169297218323,-0.0327460095286369,-0.3263246715068817,0.0,0.0,-0.9793411493301392,0.8412480354309082
-0.2151654213666916,1.3090410232543943,-0.3126173317432403,-0.3283001184463501,-0.0507421009242534,-0.359921932220459,0.0,0.0,-0.9082261323928832,0.4854339361190796
-0.2185289859771728,1.30145001411438,-0.3184033036231994,-0.3380819261074066,-0.0684978142380714,-0.3551142811775207,0.0,0.0,-0.8696630597114563,0.8189370632171631
-0.2218732833862304,1.2936460971832275,-0.31482794880867,-0.3478518724441528,-0.0879059508442878,-0.3881628215312958,0.0,0.0,-0.9656614065170288,0.5724486112594604
-0.2252287864685058,1.2856218814849854,-0.3150400519371032,-0.3579665124416351,-0.1082418113946914,-0.4067175984382629,0.0,0.0,-0.9444077014923096,-0.4965499639511108
-0.2286382615566253,1.2773833274841309,-0.3206202387809753,-0.3677555322647095,-0.1284454762935638,-0.4040735363960266,0.0,0.0,-0.9768497347831726,-0.8154025077819824
-0.2321556508541107,1.2689447402954102,-0.3329541087150574,-0.376771479845047,-0.1471591144800186,-0.3742727637290954,0.0,0.0,-0.7115680575370789,0.2132045030593872
-0.2357260286808014,1.2602912187576294,-0.3383636474609375,-0.3865555822849273,-0.1658151000738144,-0.3731199502944946,0.0,0.0,-0.4442414045333862,-0.2379913926124572
-0.2393487393856048,1.251422643661499,-0.3436769247055053,-0.396339863538742,-0.1844507604837417,-0.3727133572101593,0.0,0.0,-0.481914222240448,0.2018380165100097
-0.2430231124162674,1.2423391342163086,-0.3488857746124267,-0.4061245322227478,-0.2031031996011734,-0.3730490207672119,0.0,0.0,-0.6938621401786804,-0.1597597002983093
-0.2467481642961502,1.2330409288406372,-0.3539814352989197,-0.4159097671508789,-0.2218091785907745,-0.3741194605827331,0.0,0.0,-0.8254052400588989,-0.5855057835578918
-0.2505796551704407,1.2235456705093384,-0.3660647273063659,-0.424686998128891,-0.2391320019960403,-0.3464567959308624,0.0,0.0,-0.515674352645874,-0.0566850900650024
-0.2544600367546081,1.2138348817825315,-0.3709040284156799,-0.4344696998596191,-0.256580114364624,-0.3489621877670288,0.0,0.0,0.2347398996353149,0.1627211570739746
-0.2582739293575287,1.2042919397354126,-0.3643744587898254,-0.4272110760211944,-0.2739761173725128,-0.3479198813438415,0.0,0.0,-0.7190788984298706,-0.1806084513664245
-0.2621342241764068,1.1945340633392334,-0.3689165115356445,-0.4369956851005554,-0.2915656566619873,-0.3517906069755554,0.0,0.0,-0.3450531959533691,-0.4103157520294189
-0.2660396099090576,1.1845613718032837,-0.3732931017875671,-0.4467817842960357,-0.3093812763690948,-0.3563125431537628,0.0,0.0,0.5142847299575806,-0.5153018832206726
-0.2696536481380462,1.1754531860351562,-0.3453705906867981,-0.4083192646503448,-0.3260423541069031,-0.3332216143608093,0.0,0.0,0.0931912660598754,-0.8892948627471924
-0.2731969356536865,1.166679859161377,-0.3398434519767761,-0.3932605385780334,-0.3411714136600494,-0.3025810718536377,0.0,0.0,0.3039121627807617,0.2001579999923706
-0.2765701711177826,1.1586050987243652,-0.3225947022438049,-0.362439751625061,-0.3566435873508453,-0.3094432651996612,0.0,0.0,-0.5925211906433105,-0.9453202486038208
-0.2800424098968506,1.1503580808639526,-0.3339055180549621,-0.3699113428592682,-0.3707052171230316,-0.2812324166297912,0.0,0.0,0.074086308479309,-0.0491741299629211
-0.2833941578865051,1.1422840356826782,-0.3218092620372772,-0.3623785078525543,-0.3848951458930969,-0.28379887342453,0.0,0.0,0.5164785385131836,0.065426230430603
-0.2866708636283874,1.1348471641540527,-0.3135318458080292,-0.3344164490699768,-0.3999998867511749,-0.3020946979522705,0.0,0.0,0.2079765796661377,-0.500393807888031
-0.2899633944034576,1.1277973651885986,-0.3155674338340759,-0.3172580301761627,-0.414703905582428,-0.2940801978111267,0.0,0.0,-0.2611119151115417,-0.7651082277297974
-0.2933420538902282,1.1205698251724243,-0.3253846168518066,-0.3249474167823791,-0.4282063543796539,-0.2700488567352295,0.0,0.0,-0.2034801244735717,-0.1009666323661804
-0.2967474460601806,1.113127589225769,-0.3277010917663574,-0.3347331881523132,-0.4421713054180145,-0.2792990505695343,0.0,0.0,0.0065287351608276,-0.259085476398468
-0.3000109791755676,1.1057169437408447,-0.313501238822937,-0.3334841430187225,-0.4562506973743438,-0.2815878391265869,0.0,0.0,-0.246680736541748,0.2674398422241211
-0.3032954633235931,1.0980921983718872,-0.3152333498001098,-0.3432733118534088,-0.4708311259746551,-0.2916085720062256,0.0,0.0,0.859381914138794,-0.5063349008560181
-0.3061932921409607,1.0914779901504517,-0.2772350907325744,-0.2982903718948364,-0.4847752451896667,-0.2788825333118438,0.0,0.0,0.7676594257354736,-0.4665443897247314
-0.3088902831077575,1.0850452184677124,-0.2570492923259735,-0.2904106378555298,-0.4989394843578338,-0.2832847237586975,0.0,0.0,0.682697057723999,-0.4911954402923584
