x_pos,y_pos,x_vel,y_vel,angle,ang_vel,leg_1,leg_2,main_booster,lat_booster
-0.0015427588950842,1.4034955501556396,-0.156287595629692,-0.3299796283245086,0.0018030138453468,0.035568680614233,0.0,0.0,-0.3512829542160034,0.5234198570251465
-0.0030596733558923,1.3959627151489258,-0.1523450314998626,-0.3347875475883484,0.0024536354467272,0.0130141405388712,0.0,0.0,-0.492276132106781,0.7345627546310425
-0.0045240400359034,1.3882956504821775,-0.1453156322240829,-0.340762734413147,0.0013462296919897,-0.0221500210464,0.0,0.0,-0.262471079826355,0.4678858518600464
-0.0060057640075683,1.3804994821548462,-0.1470659673213958,-0.3464953303337097,0.0002544424205552,-0.0218378473073244,0.0,0.0,-0.0232096910476684,0.4701191186904907
-0.0075042722746729,1.3725744485855105,-0.14875528216362,-0.3522250354290008,-0.0008240214083343,-0.0215711519122123,0.0,0.0,-0.2759552597999573,0.5299243927001953
-0.0089677814394235,1.364519715309143,-0.1439628154039383,-0.3579918444156647,-0.0031772879883646,-0.0470698252320289,0.0,0.0,-0.0594469904899597,0.6600427627563477
-0.0103965755552053,1.356335997581482,-0.1392487734556198,-0.3637345433235168,-0.0067767640575766,-0.0719960704445838,0.0,0.0,-0.1987595558166504,0.1897451877593994
-0.0118402484804391,1.3480234146118164,-0.1407401859760284,-0.3694644570350647,-0.0103664603084325,-0.0718003362417221,0.0,0.0,-0.5183541774749756,0.2025935649871826
-0.0132981296628713,1.3395823240280151,-0.1421670317649841,-0.3751944303512573,-0.0139486948028206,-0.0716510489583015,0.0,0.0,-0.2417371273040771,0.4397200345993042
-0.0147695541381835,1.3310123682022097,-0.1435289531946182,-0.3809244036674499,-0.0175251048058271,-0.0715346783399581,0.0,0.0,0.248813509941101,0.4715728759765625
-0.0161808021366596,1.3229858875274658,-0.1378334015607834,-0.3567751348018646,-0.0207887385040521,-0.0652786642313003,0.0,0.0,-0.2244940400123596,-0.075185477733612
-0.0176044460386037,1.3148304224014282,-0.1390651762485504,-0.3625104129314422,-0.0240509696304798,-0.0652502626180648,0.0,0.0,0.1082358360290527,0.2641725540161133
-0.0189410205930471,1.3072469234466553,-0.1307802349328994,-0.337100088596344,-0.0269005969166755,-0.0569974072277545,0.0,0.0,-0.7531103491783142,0.4534969329833984
-0.0202886573970317,1.2995344400405884,-0.1318815499544143,-0.3428356945514679,-0.0297534689307212,-0.0570629611611366,0.0,0.0,-0.59641432762146,0.4002639055252075
-0.021646786481142,1.291693091392517,-0.1329168528318405,-0.3485637009143829,-0.0326115824282169,-0.0571671240031719,0.0,0.0,-0.7834482192993164,0.6429252624511719
-0.0229547508060932,1.2837125062942505,-0.1263852566480636,-0.3547926843166351,-0.0369863063097,-0.0875023752450943,0.0,0.0,-0.7746415734291077,0.2565400600433349
-0.0242718700319528,1.2756035327911377,-0.1272860765457153,-0.3605237603187561,-0.0413706079125404,-0.0876941680908203,0.0,0.0,0.0587022304534912,0.013568639755249
-0.0254963878542184,1.267719864845276,-0.1184415444731712,-0.3505019843578338,-0.0453401952981948,-0.079398825764656,0.0,0.0,-0.7556125521659851,0.8106300830841064
-0.0266542434692382,1.2597100734710691,-0.1098764985799789,-0.3561779856681824,-0.0511944442987442,-0.1170951500535011,0.0,0.0,-0.5267302393913269,0.0487269163131713
-0.0278194434940814,1.2515721321105957,-0.1105833426117897,-0.3619095683097839,-0.0570659004151821,-0.1174397096037864,0.0,0.0,-0.8664286136627197,-0.438836932182312
-0.0289912223815917,1.2433054447174072,-0.111229620873928,-0.3676420748233795,-0.0629587844014167,-0.1178680807352066,0.0,0.0,-0.934483766555786,0.3126313686370849
-0.0301691051572561,0.0,-0.1118158847093582,-0.3733749687671661,-0.0688755959272384,-0.118347093462944,0.0,0.0,-0.66975337266922,0.0644416809082031
-0.0313525199890136,1.2263869047164917,-0.1123431771993637,-0.3791081011295318,-0.074819304049015,-0.1188845410943031,0.0,0.0,-0.8985452055931091,0.8134618997573853
-0.0324697494506835,1.2177180051803589,-0.1038741022348404,-0.3856916129589081,-0.0826025456190109,-0.1556786298751831,0.0,0.0,-0.9544035792350768,-0.5126022696495056
-0.0336411483585834,1.2089287042617798,-0.1105423420667648,-0.3910189270973205,-0.0891553983092308,-0.1310687214136123,0.0,0.0,-0.8997238874435425,0.3627049922943115
-0.034817885607481,1.1999895572662354,-0.1110283359885215,-0.397703468799591,-0.0957452356815338,-0.1317967623472213,0.0,0.0,-0.2819166183471679,0.5801142454147339
-0.035952091217041,1.1909193992614746,-0.1055595651268959,-0.4036440551280975,-0.1035373955965042,-0.1558433324098587,0.0,0.0,-0.7335935235023499,-0.0134175419807434
-0.0370893478393554,1.1817212104797363,-0.1058345064520835,-0.4093769192695617,-0.1113724634051323,-0.1567014455795288,0.0,0.0,-0.8386586904525757,-0.5260137915611267
-0.0382792465388774,1.172407627105713,-0.1123451367020607,-0.4144471287727356,-0.117975004017353,-0.1320506781339645,0.0,0.0,-0.8149973750114441,0.3368602991104126
-0.039471436291933,1.1629658937454224,-0.1125257015228271,-0.42017862200737,-0.1246265918016433,-0.1330315470695495,0.0,0.0,-0.6579368710517883,0.6078174114227295
-0.0406155586242675,1.1533936262130735,-0.1064306050539016,-0.4261236488819122,-0.1325785517692566,-0.1590392142534256,0.0,0.0,-0.7956279516220093,-0.2014578580856323
-0.0417612083256244,1.143693447113037,-0.1065262407064437,-0.4318569302558899,-0.1405856013298034,-0.1601406633853912,0.0,0.0,-0.7690300941467285,-0.2727574110031128
-0.0429079048335552,1.1338653564453125,-0.1065829023718833,-0.4375903308391571,-0.1486506909132003,-0.161301702260971,0.0,0.0,-0.8901271224021912,0.3571065664291382
-0.0440552718937397,1.1239093542099,-0.1066030859947204,-0.443323940038681,-0.1567767709493637,-0.1625216901302337,0.0,0.0,-0.593913733959198,-0.529809296131134
-0.0452432632446289,1.1138360500335691,-0.1116344705224037,-0.4484763741493225,-0.1639344543218612,-0.1431540548801422,0.0,0.0,0.2733291387557983,-0.6087076663970947
-0.0463677421212196,1.1045094728469849,-0.1064905375242233,-0.4151758551597595,-0.1699093729257583,-0.1194980964064598,0.0,0.0,-0.93734210729599,0.128285527229309
-0.0474923141300678,1.0950549840927124,-0.1064163595438003,-0.420907199382782,-0.1759538203477859,-0.120889201760292,0.0,0.0,-0.291949987411499,-0.0570473074913024
-0.0486164093017578,1.0854722261428833,-0.1063163504004478,-0.4266386926174164,-0.1820705682039261,-0.1223348379135131,0.0,0.0,-0.960089147090912,-0.5975923538208008
-0.0497886650264263,1.075781226158142,-0.1123318821191787,-0.4313168525695801,-0.186981052160263,-0.0982098802924156,0.0,0.0,-0.9234787225723268,0.1528667211532592
-0.0509602539241313,1.0659619569778442,-0.1121884956955909,-0.4370474517345428,-0.1919690668582916,-0.0997607260942459,0.0,0.0,-0.6383152008056641,-0.6082426309585571
-0.0521857254207134,1.0560352802276611,-0.1189443618059158,-0.4416499137878418,-0.1955960690975189,-0.0725398510694503,0.0,0.0,-0.8159060478210449,-0.4949359893798828
-0.053410243242979,1.045980453491211,-0.1187693029642105,-0.4473797380924225,-0.1993055641651153,-0.0741898715496063,0.0,0.0,-0.9774712324142456,-0.0090691447257995
-0.0546337142586708,1.035796880722046,-0.118583045899868,-0.4531097412109375,-0.2030999064445495,-0.0758869051933288,0.0,0.0,-0.9096179604530334,-0.1180922389030456
-0.0558561310172081,1.0254850387573242,-0.1183886528015136,-0.4588398039340973,-0.2069813758134842,-0.077629268169403,0.0,0.0,-0.5191847085952759,-0.0455033779144287
-0.0570773109793663,1.0150446891784668,-0.1181891709566116,-0.4645699858665466,-0.2109521329402923,-0.0794150233268737,0.0,0.0,-0.8163565397262573,-0.3943794965744018
-0.0582974441349506,1.0044759511947632,-0.1179877296090126,-0.4703002870082855,-0.21501424908638,-0.0812423229217529,0.0,0.0,-0.9005712270736694,-0.4715590476989746
-0.059516429901123,0.9937788844108582,-0.1177874654531478,-0.4760307669639587,-0.2191696912050247,-0.0831092521548271,0.0,0.0,-0.4344174861907959,-0.5926157236099243
-0.0607875809073448,0.9829776883125304,-0.1243173629045486,-0.4804727733135223,-0.2219996601343155,-0.0565996691584587,0.0,0.0,-0.8497560024261475,-0.6166574358940125
-0.0621149055659771,0.9720728993415833,-0.1313401162624359,-0.484869509935379,-0.2234068661928177,-0.028144309297204,0.0,0.0,-0.6467878818511963,-0.5848207473754883
-0.0634882897138595,0.9610536694526672,-0.137050062417984,-0.4897839725017547,-0.2236946821212768,-0.005756217520684,0.0,0.0,-0.9662497639656068,-0.2953290343284607
-0.0648609176278114,0.9499061107635498,-0.1368855983018875,-0.4955132603645324,-0.2240827232599258,-0.0077610039152204,0.0,0.0,-0.8683179020881653,-0.4479562044143677
-0.0662331581115722,0.938629686832428,-0.1367381513118744,-0.5012425780296326,-0.2245724648237228,-0.0097948163747787,0.0,0.0,-0.9023470282554626,-0.5090836882591248
-0.0676376372575759,0.927233099937439,-0.1406873762607574,-0.5064804553985596,-0.2243280708789825,0.0048879222013056,0.0,0.0,-0.9510323405265808,0.0877431631088256
-0.0690420120954513,0.9157078862190248,-0.1405835449695587,-0.5122097730636597,-0.2241879403591156,0.0028027475345879,0.0,0.0,-0.9863128662109376,0.5591917037963867
-0.070393368601799,0.9040337800979614,-0.1337819099426269,-0.5190573930740356,-0.2255600839853286,-0.0274431649595499,0.0,0.0,-0.988903284072876,-0.4179990291595459
-0.0717452988028526,0.8922310471534729,-0.1337344348430633,-0.5247868895530701,-0.2270385921001434,-0.0295703150331974,0.0,0.0,-0.8317264318466187,-0.5728106498718262
-0.0731345191597938,0.880317747592926,-0.1383191645145416,-0.5295678377151489,-0.2276461124420166,-0.0121501609683036,0.0,0.0,-0.9966385364532472,-0.5922613143920898
-0.0745596885681152,0.8682906031608582,-0.1427220106124878,-0.5345109105110168,-0.227439671754837,0.0041288309730589,0.0,0.0,-0.9998528361320496,-0.7017320990562439
-0.0760326385498046,0.8561582565307617,-0.1486222445964813,-0.5390096306800842,-0.2260974645614624,0.0268445611000061,0.0,0.0,-0.9895495176315308,-0.3195088505744934
-0.0775076895952224,0.8438975214958191,-0.1487247794866562,-0.5447393655776978,-0.2248643487691879,0.0246619079262018,0.0,0.0,-0.9773086309432985,0.4594514369964599
-0.0789853110909462,0.8315082788467407,-0.1488724052906036,-0.5504689812660217,-0.2237407863140106,0.0224715638905763,0.0,0.0,-0.8942809104919434,-0.5002164244651794
-0.0805104225873947,0.8190081715583801,-0.1546810716390609,-0.5552286505699158,-0.2215495705604553,0.0438247248530387,0.0,0.0,-0.9602417945861816,-0.6496801376342773
-0.0820791274309158,0.8063916563987732,-0.1599556505680084,-0.5602782964706421,-0.2184295058250427,0.0624014064669609,0.0,0.0,-0.9838604927062988,-0.7045061588287354
-0.0837039947509765,0.7936649322509766,-0.1668049544095993,-0.5649918913841248,-0.2140557765960693,0.0874747112393379,0.0,0.0,-0.9898020029067992,-0.5357115268707275
-0.0853746384382247,0.7808195352554321,-0.1723499149084091,-0.5701514482498169,-0.2087308764457702,0.106498435139656,0.0,0.0,-0.9047935009002686,-0.0051798820495605
-0.0870506316423416,0.7678459286689758,-0.1727666556835174,-0.5758830904960632,-0.2035155147314071,0.1043073385953903,0.0,0.0,-0.9634197354316713,-0.6721473932266235
-0.0887813568115234,0.7547673583030701,-0.1794448792934417,-0.5804059505462646,-0.197100892663002,0.1282924264669418,0.0,0.0,-0.948301374912262,-0.6502479314804077
-0.090563103556633,0.7415664196014404,-0.1855584681034088,-0.5857489109039307,-0.1896722316741943,0.1485730409622192,0.0,0.0,-0.8317045569419861,0.5805656909942627
-0.0923039466142654,0.728230357170105,-0.1801673173904419,-0.591946542263031,-0.1835647821426391,0.1221489533782005,0.0,0.0,-0.9315560460090636,-0.1356931924819946
-0.0940525978803634,0.7147662043571472,-0.180845633149147,-0.5976787209510803,-0.1775645464658737,0.120004653930664,0.0,0.0,-0.9790435433387756,0.0948377847671508
-0.0958098396658897,0.7011739611625671,-0.1815949082374572,-0.6034106612205505,-0.171670600771904,0.1178788691759109,0.0,0.0,-0.8692867159843445,-0.094781756401062
-0.0975762382149696,0.6874534487724304,-0.1824171692132949,-0.6091424226760864,-0.165881872177124,0.1157743707299232,0.0,0.0,-0.9024405479431152,0.1336543560028076
-0.099352553486824,0.6736048460006714,-0.1833143085241317,-0.6148740649223328,-0.1601971685886383,0.1136939376592636,0.0,0.0,-0.8558154106140137,0.5287766456604004
-0.1010932922363281,0.6596165895462036,-0.1784711927175521,-0.6212320923805237,-0.1558028906583786,0.0878851264715194,0.0,0.0,-0.6386922597885132,0.2000935077667236
-0.102845475077629,0.6455000042915344,-0.1795228719711303,-0.626962423324585,-0.1515098214149475,0.0858614668250083,0.0,0.0,-0.8100094795227051,0.2996015548706054
-0.1046100631356239,0.6312548518180847,-0.1806541979312896,-0.6326926946640015,-0.1473163068294525,0.0838705450296402,0.0,0.0,-0.2710208296775818,0.3040475845336914
-0.1063876152038574,0.6168813109397888,-0.1818664222955703,-0.6384228467941284,-0.1432205438613891,0.0819151848554611,0.0,0.0,-0.8873215317726135,0.5631289482116699
-0.1081351265311241,0.6023749709129333,-0.1776541173458099,-0.6444537043571472,-0.1403282731771469,0.0578456446528434,0.0,0.0,-0.3543785214424133,0.1734243631362915
-0.1098974198102951,0.5877399444580078,-0.1790311485528946,-0.650182843208313,-0.1375297307968139,0.0559704825282096,0.0,0.0,-0.069331407546997,0.428804874420166
-0.1116751655936241,0.572976291179657,-0.1804918944835662,-0.6559120416641235,-0.1348227262496948,0.0541399642825126,0.0,0.0,-0.1257430911064148,0.8222365379333496
-0.1134194359183311,0.5580653548240662,-0.1757594645023346,-0.6625893712043762,-0.1334988623857498,0.0264770686626434,0.0,0.0,-0.0034642219543457,0.4629613161087036
-0.1151809692382812,0.5430256724357605,-0.1773891001939773,-0.6683179140090942,-0.1322616040706634,0.0247451849281787,0.0,0.0,0.5319199562072754,0.854233980178833
-0.1169275268912315,0.5286582112312317,-0.1739477962255478,-0.6386178731918335,-0.1329623162746429,-0.0140142366290092,0.0,0.0,-0.3403836488723755,0.1707857847213745
-0.1186927780508995,0.5141619443893433,-0.1757473051548004,-0.644346296787262,-0.1337440460920334,-0.0156346000730991,0.0,0.0,-0.3336237072944641,0.7893221378326416
-0.1204167380928993,0.4995287656784057,-0.1699815690517425,-0.6505802273750305,-0.1361475437879562,-0.0480700731277465,0.0,0.0,-0.2745331525802612,0.6852009296417236
-0.122099682688713,0.4847545623779297,-0.1642314493656158,-0.6570083498954773,-0.1401932686567306,-0.0809144228696823,0.0,0.0,-0.355229377746582,0.016162633895874
-0.1238038092851638,0.4698518514633178,-0.1662846952676773,-0.6627379655838013,-0.1443104147911071,-0.0823429152369499,0.0,0.0,0.0050467252731323,0.3900866508483886
-0.1254388839006424,0.4551719427108764,-0.1595751345157623,-0.6528235673904419,-0.148234412074089,-0.0784800872206687,0.0,0.0,0.4780614376068115,-0.2328032255172729
-0.1268911361694336,0.4410923719406128,-0.1418392807245254,-0.6261034607887268,-0.1516137421131134,-0.0675866678357124,0.0,0.0,0.3243272304534912,0.4391032457351684
-0.128208726644516,0.4273274838924408,-0.1288359761238098,-0.6120709776878357,-0.1545365154743194,-0.0584550313651561,0.0,0.0,0.4425263404846191,-0.0138766169548034
-0.1294546127319336,0.4144073128700256,-0.1215850114822387,-0.574542760848999,-0.1575384140014648,-0.0600382201373577,0.0,0.0,0.0031172037124633,0.6645210981369019
-0.1305796653032302,0.4020285308361053,-0.1081450805068016,-0.5506393313407898,-0.161900982260704,-0.0872513428330421,0.0,0.0,0.01692795753479,-0.5312944650650024
-0.1316214501857757,0.3901204466819763,-0.1009624451398849,-0.5296019315719604,-0.1651116460561752,-0.0642136856913566,0.0,0.0,0.1489847898483276,0.5736459493637085
-0.1325317323207855,0.3783833980560303,-0.0867565423250198,-0.5221278667449951,-0.1693857312202453,-0.0854817405343055,0.0,0.0,0.2212375402450561,-0.3748077154159546
-0.1334440261125564,0.3670841455459595,-0.0867498368024826,-0.5027056932449341,-0.1738777607679367,-0.089840292930603,0.0,0.0,-0.6872901320457458,-0.7690338492393494
-0.1344346106052398,0.3556788861751556,-0.0958737656474113,-0.5072757601737976,-0.1770727336406707,-0.0638993829488754,0.0,0.0,-0.3215147256851196,0.5190927982330322
-0.1354149878025055,0.3441344499588012,-0.0938332080841064,-0.5135943293571472,-0.1812964230775833,-0.0844738632440567,0.0,0.0,-0.6979364156723022,-0.0631783604621887
-0.1364247351884842,0.3324614763259887,-0.0967389419674873,-0.5193235874176025,-0.1855429708957672,-0.0849313884973526,0.0,0.0,0.4434309005737304,0.4145972728729248
-0.1372770369052887,0.3215376436710357,-0.0813391059637069,-0.485995888710022,-0.1894552111625671,-0.0782448649406433,0.0,0.0,-0.1847798228263855,-0.3722671270370483
-0.1381599456071853,0.3104852437973022,-0.084378533065319,-0.4917247891426086,-0.1933792680501938,-0.0784811154007911,0.0,0.0,-0.865639865398407,-0.6908378005027771
-0.139134019613266,0.2993267476558685,-0.0950769335031509,-0.4962374567985534,-0.1957282721996307,-0.0469804927706718,0.0,0.0,0.6599524021148682,0.1972651481628418
-0.1400670111179351,0.2887829542160034,-0.0908462479710578,-0.4689382910728454,-0.1981930434703827,-0.0492953285574913,0.0,0.0,-0.2015480995178222,0.598034143447876
-0.1409947425127029,0.2780997455120086,-0.0893674567341804,-0.4752686619758606,-0.2016201615333557,-0.0685423016548156,0.0,0.0,-0.3085243701934814,-0.2919008731842041
-0.141955092549324,0.2672877907752991,-0.0926496461033821,-0.4809968173503876,-0.2050351500511169,-0.0682998746633529,0.0,0.0,-0.1698700785636901,-0.3307420015335083
-0.1429486274719238,0.2563470900058746,-0.0959872156381607,-0.4867248833179474,-0.2084317207336425,-0.0679313763976097,0.0,0.0,0.0890423059463501,-0.113084077835083
-0.1438858956098556,0.2456219792366027,-0.0905734226107597,-0.4771210253238678,-0.2116164118051529,-0.0636937394738197,0.0,0.0,0.4501997232437134,-0.171801209449768
-0.1445921957492828,0.2357099652290344,-0.0680821388959884,-0.4408994913101196,-0.2141808122396469,-0.0512882284820079,0.0,0.0,-0.1342586874961853,-0.3640145063400268
-0.1453329026699066,0.2256690561771392,-0.0715726837515831,-0.4466267824172973,-0.2167073190212249,-0.0505300052464008,0.0,0.0,0.6725063323974609,0.4758439064025879
-0.1457814276218414,0.216719850897789,-0.0430615507066249,-0.3980074822902679,-0.2185211479663849,-0.0362761430442333,0.0,0.0,0.003477931022644,-0.4741173982620239
-0.1461436301469802,0.2081420719623565,-0.0346984378993511,-0.3814611434936523,-0.2200693786144256,-0.030964408069849,0.0,0.0,0.4208629131317138,-0.5937516093254089
-0.1464397460222244,0.2004865556955337,-0.0293064955621957,-0.3402924835681915,-0.2203738838434219,-0.0060900743119418,0.0,0.0,0.090541124343872,-0.3997816443443298
-0.1466191262006759,0.1934496462345123,-0.0178806409239768,-0.3127560615539551,-0.2204284816980362,-0.0010919009801,0.0,0.0,-0.480597972869873,-0.7040866613388062
-0.1468822509050369,0.1862961649894714,-0.0275447163730859,-0.3177515566349029,-0.2191862761974334,0.0248442701995372,0.0,0.0,-0.2489352226257324,-0.6994071006774902
-0.1472466439008712,0.1790363937616348,-0.0394235253334045,-0.3222143054008484,-0.2161708176136016,0.0603094212710857,0.0,0.0,-0.3925415277481079,-0.2741946578025818
-0.1476478576660156,0.1716477274894714,-0.0431958995759487,-0.3279409408569336,-0.2130704820156097,0.0620066113770008,0.0,0.0,-0.5603953003883362,-0.36731618642807
-0.1480862647294998,0.1641300320625305,-0.0470001250505447,-0.3336675763130188,-0.2098786830902099,0.0638363659381866,0.0,0.0,0.3149716854095459,-0.0611671209335327
-0.1484533250331878,0.1570997089147567,-0.0400602780282497,-0.3119834959506988,-0.2064932286739349,0.0677088126540184,0.0,0.0,0.1080836057662963,-0.2982709407806396
-0.1487227380275726,0.1502676606178283,-0.0308051463216543,-0.3031141459941864,-0.2025981396436691,0.0779019221663475,0.0,0.0,-0.5462704300880432,-0.0784977674484252
-0.1490299254655838,0.1433065682649612,-0.0346928536891937,-0.3088409304618835,-0.1985921859741211,0.080118827521801,0.0,0.0,0.0955647230148315,-0.243068516254425
-0.1492530852556228,0.1369982361793518,-0.0264968927949666,-0.2798173725605011,-0.1943923532962799,0.0839970037341117,0.0,0.0,-0.0968672633171081,-0.7228714823722839
