x_pos,y_pos,x_vel,y_vel,angle,ang_vel,leg_1,leg_2,main_booster,lat_booster
-0.0016546249389648,1.4034277200698853,-0.166995495557785,-0.3329940736293793,0.0013781406451016,0.0271565206348896,0.0,0.0,-0.2904775142669678,0.5618140697479248
-0.0033945082686841,1.3957592248916626,-0.1736314594745636,-0.340826004743576,0.0010286481119692,-0.0069898851215839,0.0,0.0,-0.1745458245277404,0.2469010353088379
-0.0052685737609863,1.3878934383392334,-0.1865622997283935,-0.3495926558971405,0.0001884887606138,-0.0168045628815889,0.0,0.0,0.0605897903442382,-0.1540148854255676
-0.007354736328125,1.3803118467330933,-0.2068860083818435,-0.3369577825069427,-0.0015144334174692,-0.0340618081390857,0.0,0.0,-0.3692600727081299,0.7016961574554443
-0.0095102312043309,1.3725355863571167,-0.2116209268569946,-0.3456164300441742,-0.0054023000411689,-0.0777647346258163,0.0,0.0,-0.4064548015594482,0.5896692276000977
-0.0117462156340479,1.3645617961883545,-0.2177019417285919,-0.3544228374958038,-0.0112263252958655,-0.1164913177490234,0.0,0.0,-0.7216755747795105,0.2543400526046753
-0.0141202928498387,1.3563917875289917,-0.2310058623552322,-0.3631690740585327,-0.0175583381205797,-0.1266520917415619,0.0,0.0,-0.943584442138672,0.8343605995178223
-0.0165514945983886,1.3480265140533447,-0.2341064512729644,-0.3719283640384674,-0.026463670656085,-0.1781230270862579,0.0,0.0,-0.8408589363098145,0.545208215713501
-0.0190799720585346,1.3394699096679688,-0.2422652244567871,-0.3805087208747864,-0.0369409285485744,-0.2095645666122436,0.0,0.0,-0.7259016036987305,0.7804074287414551
-0.0216874126344919,1.33072030544281,-0.248065561056137,-0.3892354071140289,-0.0494799800217151,-0.25080406665802,0.0,0.0,-0.6579904556274414,0.2700390815734863
-0.0244356151670217,1.321776270866394,-0.261629194021225,-0.397992879152298,-0.0625389814376831,-0.2612038850784302,0.0,0.0,-0.3271821141242981,-0.2675769925117492
-0.02732515335083,1.312638521194458,-0.275248110294342,-0.4067518413066864,-0.0761212557554245,-0.2716705501079559,0.0,0.0,-0.5031647682189941,0.1265485286712646
-0.0303565971553325,1.303307056427002,-0.2889175713062286,-0.4155128896236419,-0.090228796005249,-0.2821769118309021,0.0,0.0,-0.578685998916626,0.2716032266616821
-0.0335302352905273,1.293782353401184,-0.3026328384876251,-0.4242759644985199,-0.1048636958003044,-0.2927248477935791,0.0,0.0,-0.6086490154266357,-0.0685301423072815
-0.03684663772583,1.284064531326294,-0.3163900971412658,-0.4330414831638336,-0.120027832686901,-0.3033103048801422,0.0,0.0,-0.7436297535896301,-0.0827801823616027
-0.0403059013187885,1.2741541862487793,-0.3301857113838196,-0.4418096244335174,-0.1357228606939315,-0.3139292597770691,0.0,0.0,-0.2736791372299194,-0.8479657173156738
-0.0439588539302349,1.2640712261199951,-0.3503468036651611,-0.4495618939399719,-0.1506410837173462,-0.2983921468257904,0.0,0.0,-0.8439520001411438,-0.5910999178886414
-0.0477911010384559,1.2537983655929563,-0.3686851263046264,-0.4581063091754913,-0.1651952117681503,-0.2911085486412048,0.0,0.0,-0.6373319029808044,-0.0444453954696655
-0.051767349243164,1.2433327436447144,-0.3825824856758117,-0.4668774604797363,-0.180284708738327,-0.3018175065517425,0.0,0.0,-0.6253878474235535,-0.6799038648605347
-0.0559475906193256,1.2326905727386477,-0.4040268957614898,-0.4747523367404938,-0.1943665742874145,-0.28166264295578,0.0,0.0,-0.8110707998275757,-0.330933928489685
-0.0602723136544227,1.2218555212020874,-0.4179779589176178,-0.483524888753891,-0.2089864760637283,-0.2924246490001678,0.0,0.0,-0.767059862613678,-0.8618886470794678
-0.0648075118660926,1.2108436822891235,-0.4402165412902832,-0.491352766752243,-0.2224495261907577,-0.2692850232124328,0.0,0.0,-0.7655524611473083,-0.0814940333366394
-0.0694876685738563,1.1996389627456665,-0.4542111456394195,-0.5001261830329895,-0.2364522516727447,-0.2800794243812561,0.0,0.0,-0.5655012130737305,-0.2730417251586914
-0.074312686920166,1.188241720199585,-0.4682206511497497,-0.5089020133018494,-0.2509940266609192,-0.2908616662025451,0.0,0.0,-0.693157970905304,-0.7149678468704224
-0.0793498009443283,1.1766798496246338,-0.4907107353210449,-0.5161429047584534,-0.2642883360385895,-0.2659102380275726,0.0,0.0,-0.7530674338340759,-0.7834717035293579
-0.0846095085144043,1.16493821144104,-0.5143833756446838,-0.5239784717559814,-0.2761507630348205,-0.2372486293315887,0.0,0.0,-0.4228070974349975,-0.3624867796897888
-0.0900148376822471,1.1530039310455322,-0.5284696221351624,-0.532744288444519,-0.2885567545890808,-0.2481192648410797,0.0,0.0,-0.7272369265556335,-0.277131974697113
-0.0955660790205001,1.1408771276474,-0.5425661206245422,-0.5415117144584656,-0.3015073835849762,-0.2590126395225525,0.0,0.0,-0.6943001747131348,0.0873333215713501
-0.1012630462646484,1.128557801246643,-0.556671142578125,-0.550280749797821,-0.3150037229061126,-0.2699266672134399,0.0,0.0,-0.7718493342399597,0.121235966682434
-0.107105828821659,0.0,-0.5707830190658569,-0.559051513671875,-0.3290466964244842,-0.2808594703674316,0.0,0.0,-0.4401715397834778,-0.518643319606781
-0.11313047260046,1.1033679246902466,-0.5895000696182251,-0.5665022134780884,-0.3426038026809692,-0.2711426913738251,0.0,0.0,-0.4503158330917358,-0.5415863990783691
-0.1193470954895019,1.0905184745788574,-0.6094136238098145,-0.5740455389022827,-0.3554604351520538,-0.2571328282356262,0.0,0.0,-0.8813168406486511,-0.5741356015205383
-0.1257562637329101,1.0775086879730225,-0.6294909715652466,-0.5810865163803101,-0.3675197958946228,-0.2411878407001495,0.0,0.0,-0.8660942316055298,-0.3944292068481445
-0.1323112547397613,1.0643069744110107,-0.6436092257499695,-0.5898565649986267,-0.3801285624504089,-0.2521752715110779,0.0,0.0,-0.6852193474769592,0.3759467601776123
-0.1390120536088943,1.0509130954742432,-0.6577258110046387,-0.598628044128418,-0.3932870328426361,-0.2631695866584778,0.0,0.0,-0.4970284700393677,-0.2535284757614136
-0.1458582878112793,1.037327527999878,-0.6718389391899109,-0.6074011325836182,-0.4069955050945282,-0.2741692066192627,0.0,0.0,0.4142513275146484,-0.8205147981643677
-0.1527791917324066,1.0241365432739258,-0.6804099678993225,-0.5896760821342468,-0.4195902645587921,-0.2518953680992126,0.0,0.0,-0.2640504837036133,-0.248393177986145
-0.159845545887947,1.010753870010376,-0.694508969783783,-0.5984490513801575,-0.4327352344989776,-0.2628996074199676,0.0,0.0,-0.5197479724884033,-0.8145426511764526
-0.1671163588762283,0.9972302913665771,-0.7161787152290344,-0.6044464707374573,-0.4446120262145996,-0.2375360429286956,0.0,0.0,0.2012306451797485,0.056471824645996
-0.174323558807373,0.9841002225875854,-0.7094768285751343,-0.5871809720993042,-0.4569436907768249,-0.2466333359479904,0.0,0.0,0.3605785369873047,-0.1229602694511413
-0.1814716309309005,0.9716999530792236,-0.7027691006660461,-0.5551280379295349,-0.4702315926551819,-0.2657582759857178,0.0,0.0,0.084776759147644,-0.3939412832260132
-0.188536450266838,0.9595131278038024,-0.6943579316139221,-0.545809805393219,-0.4836936593055725,-0.2692413926124573,0.0,0.0,0.1986095905303955,-0.1993082761764526
-0.1955773383378982,0.947387993335724,-0.6918600797653198,-0.543241560459137,-0.4973781108856201,-0.2736889719963074,0.0,0.0,0.3713135719299316,-0.5002241134643555
-0.2025095522403717,0.9356135725975036,-0.6817157864570618,-0.5275298357009888,-0.5103498697280884,-0.2594349086284637,0.0,0.0,0.9235745668411256,-0.1952742338180542
-0.2094594538211822,0.0,-0.6828888654708862,-0.5148923397064209,-0.5240873098373413,-0.274747371673584,0.0,0.0,0.4592217206954956,0.0786762237548828
-0.2163699567317962,0.912811517715454,-0.6787331104278564,-0.507926881313324,-0.5381826162338257,-0.2819063067436218,0.0,0.0,0.7475142478942871,-0.0637242794036865
-0.2231257855892181,0.9018599390983582,-0.6631565093994141,-0.4917508363723755,-0.5525238513946533,-0.2868241965770721,0.0,0.0,0.7233177423477173,-0.0413274765014648
-0.2296674698591232,0.8919209241867065,-0.6409235000610352,-0.4472698271274566,-0.5679502487182617,-0.308527797460556,0.0,0.0,0.600536584854126,-0.3906556963920593
-0.2360486984252929,0.8828608989715576,-0.6240478754043579,-0.4087503552436828,-0.5845124125480652,-0.3312435150146484,0.0,0.0,0.6648218631744385,-0.2414171695709228
-0.242306187748909,0.8742701411247253,-0.6112930774688721,-0.388292908668518,-0.601712703704834,-0.3440057933330536,0.0,0.0,0.5469574928283691,-0.6895336508750916
-0.2483248263597488,0.8660712838172913,-0.5885788202285767,-0.3705615103244781,-0.6176964640617371,-0.3196752369403839,0.0,0.0,0.7415899038314819,-0.6041478514671326
-0.2541237771511078,0.8587327599525452,-0.5672725439071655,-0.3322191536426544,-0.6330563426017761,-0.307197242975235,0.0,0.0,0.9444634914398192,-0.349561333656311
-0.2596492171287536,0.8517229557037354,-0.5401162505149841,-0.3177182376384735,-0.6483538746833801,-0.3059490323066711,0.0,0.0,0.883842945098877,-0.5472661852836609
-0.2647932171821594,0.8456493020057678,-0.5026566386222839,-0.2759504020214081,-0.6629685759544373,-0.2922939360141754,0.0,0.0,0.8907152414321899,-0.6175028085708618
-0.2696272730827331,0.8399189710617065,-0.472809225320816,-0.2602681815624237,-0.6763085126876831,-0.2667987644672394,0.0,0.0,0.9684568643569946,-0.8887561559677124
-0.2744006216526031,0.8348333239555359,-0.4677821099758148,-0.2311925143003463,-0.688444972038269,-0.2427288293838501,0.0,0.0,0.987213969230652,-0.8488876223564148
-0.2786541879177093,0.8306179046630859,-0.4171413481235504,-0.1918963342905044,-0.6989867091178894,-0.2108343541622162,0.0,0.0,0.9818885326385498,-0.937639594078064
-0.2824380993843078,0.8270372152328491,-0.3716735243797302,-0.1629377454519271,-0.7076753973960876,-0.173774167895317,0.0,0.0,0.9909060001373292,-0.7016366720199585
-0.2856772541999817,0.8243595957756042,-0.318220317363739,-0.1222751885652542,-0.7150849103927612,-0.148190438747406,0.0,0.0,0.9716451168060304,-0.8060314655303955
-0.2885545790195465,0.8227154612541199,-0.282918781042099,-0.0758712813258171,-0.7213944792747498,-0.1261913925409317,0.0,0.0,0.932819962501526,-0.9309769868850708
-0.2912874817848205,0.821367084980011,-0.2697575986385345,-0.0620061308145523,-0.7260488867759705,-0.0930884629487991,0.0,0.0,0.90973162651062,-0.9356818199157716
-0.2937619090080261,0.8209389448165894,-0.2449910938739776,-0.02049414627254,-0.7292967438697815,-0.0649574995040893,0.0,0.0,0.8897503614425659,-0.8388166427612305
-0.2959073185920715,0.8208884596824646,-0.2133315056562423,-0.002961162244901,-0.7308952212333679,-0.0319694355130195,0.0,0.0,0.8030210733413696,-0.7944093942642212
-0.2977599203586578,0.8214265704154968,-0.185067281126976,0.023804860189557,-0.7311490774154663,-0.0050773997791111,0.0,0.0,0.7204289436340332,-0.5898734927177429
-0.2994910776615143,0.8222718834877014,-0.1735734045505523,0.0378422811627388,-0.7305428385734558,0.0121249379590153,0.0,0.0,0.319541335105896,-0.420098066329956
-0.3011070191860199,0.8235507607460022,-0.1613653004169464,0.0567052029073238,-0.7308477759361267,-0.0060989861376583,0.0,0.0,0.3712978363037109,-0.0423398613929748
-0.3023596704006195,0.8254125714302063,-0.1247649565339088,0.0824428126215934,-0.7315133213996887,-0.01331034488976,0.0,0.0,-0.2771378755569458,0.0266480445861816
-0.3037343621253967,0.8270813822746277,-0.1366367042064666,0.0736765936017036,-0.7326101660728455,-0.0219372734427452,0.0,0.0,-0.1477617025375366,0.1053875684738159
-0.3052285611629486,0.8285572528839111,-0.1482806056737899,0.0649110004305839,-0.7341258525848389,-0.0303132869303226,0.0,0.0,-0.1192108392715454,-0.2852029204368591
-0.3068397939205169,0.8298401236534119,-0.1596763581037521,0.0561460629105567,-0.7360468506813049,-0.038419984281063,0.0,0.0,0.3598723411560058,0.2084938287734985
-0.3082469403743744,0.8316255807876587,-0.1387223452329635,0.0781426280736923,-0.7387084364891052,-0.0532300248742103,0.0,0.0,-0.0912059545516967,-0.2856529355049133
-0.3097652494907379,0.8332177400588989,-0.1495551019906997,0.0693789571523666,-0.7417454123497009,-0.0607397630810737,0.0,0.0,-0.2108099460601806,-0.4187936782836914
-0.3113912642002105,0.834616482257843,-0.1600699573755264,0.0606160163879394,-0.7451414465904236,-0.0679201111197471,0.0,0.0,0.4212709665298462,-0.5038085579872131
-0.3127631545066833,0.8363396525382996,-0.1353639662265777,0.0754629448056221,-0.7475999593734741,-0.049170259386301,0.0,0.0,-0.0107627511024475,0.2949577569961548
-0.3142354488372803,0.8378693461418152,-0.1451623290777206,0.0667021423578262,-0.7503812313079834,-0.0556250885128974,0.0,0.0,-0.084960401058197,-0.1653088331222534
-0.3158038556575775,0.8392049670219421,-0.1545601636171341,0.0579423196613788,-0.7534653544425964,-0.0616828501224517,0.0,0.0,-0.1750146746635437,-0.2038979530334472
-0.3174639642238617,0.8403466939926147,-0.1635276079177856,0.0491835363209247,-0.7568314075469971,-0.0673208385705947,0.0,0.0,-0.1554815173149109,-0.1572015285491943
-0.319210946559906,0.8412941098213196,-0.1720339655876159,0.0404258519411087,-0.7604572176933289,-0.0725163593888282,0.0,0.0,-0.2466331720352172,-0.3854424953460693
-0.3210397660732269,0.8420472741127014,-0.1800478994846344,0.0316693484783172,-0.7643195986747742,-0.0772470533847808,0.0,0.0,0.0073609352111816,-0.652682900428772
-0.3226892948150635,0.8432826399803162,-0.1630219221115112,0.0536743551492691,-0.7669639587402344,-0.0528871715068817,0.0,0.0,-0.0550163388252258,-0.2052571773529052
-0.3244094252586365,0.8443232178688049,-0.1699555814266204,0.0449210219085216,-0.7697951793670654,-0.0566231608390808,0.0,0.0,0.2339099645614624,-0.6177945733070374
-0.3257908821105957,0.8458232283592224,-0.1370169073343277,0.0659385025501251,-0.7713443040847778,-0.0309827513992786,0.0,0.0,-0.4350999593734741,-0.2941770553588867
-0.3272305428981781,0.8471278548240662,-0.1427472084760666,0.057188544422388,-0.7730265855789185,-0.0336450561881065,0.0,0.0,-0.3401564955711365,-0.1657754182815551
-0.3287218511104584,0.8482366800308228,-0.1478327512741089,0.0484401918947696,-0.7748138904571533,-0.0357456132769584,0.0,0.0,0.2498260736465454,-0.2698901891708374
-0.3298942148685455,0.849726140499115,-0.1158548444509506,0.0652943328022956,-0.7767192721366882,-0.0381076149642467,0.0,0.0,-0.48324716091156,-0.5160141587257385
-0.3311282098293304,0.8510550856590271,-0.1227053627371788,0.0586065389215946,-0.7776798605918884,-0.0192121341824531,0.0,0.0,-0.0019114017486572,0.1753380298614502
-0.3323923051357269,0.85218745470047,-0.1257089078426361,0.0498634316027164,-0.7786577343940735,-0.0195576734840869,0.0,0.0,-0.2570230960845947,-0.3172997236251831
-0.333679050207138,0.8531230092048645,-0.1279795467853546,0.0411220826208591,-0.7796229720115662,-0.0193042121827602,0.0,0.0,-0.3791168928146362,-0.0333667993545532
-0.3349807858467102,0.8538614511489868,-0.1295039504766464,0.0323825031518936,-0.7805454730987549,-0.0184500589966774,0.0,0.0,-0.2979276776313782,0.0286231040954589
-0.3362895846366882,0.854402482509613,-0.1302730739116668,0.0236446969211101,-0.7813953161239624,-0.016996705904603,0.0,0.0,-0.1920660734176635,-0.4163799285888672
-0.3375977873802185,0.8547459244728088,-0.1302822828292846,0.0149086602032184,-0.7821427583694458,-0.0149487582966685,0.0,0.0,0.0917626619338989,-0.144601821899414
-0.3385296761989593,0.8554032444953918,-0.0928186178207397,0.0289645288139581,-0.782663881778717,-0.010422321036458,0.0,0.0,-0.4649629592895508,-0.4810162186622619
-0.339445412158966,0.8558623194694519,-0.0913124531507492,0.0202319640666246,-0.7830244302749634,-0.007211547344923,0.0,0.0,-0.3653873801231384,-0.1948393583297729
-0.3403372168540954,0.8561229109764099,-0.0890598744153976,0.0115010747686028,-0.7831963300704956,-0.0034382112789899,0.0,0.0,0.3619358539581299,-0.0461483001708984
-0.3409321904182434,0.8566769957542419,-0.0593807809054851,0.0245457403361797,-0.7833526134490967,-0.0031251285690814,0.0,0.0,-0.2081084251403808,-0.7902709245681763
-0.3415207266807556,0.8570938110351562,-0.0600303411483764,0.0192996524274349,-0.7817208170890808,0.0326356068253517,0.0,0.0,-0.5120142102241516,-0.1460492610931396
-0.3420633673667907,0.8573114275932312,-0.0556335039436817,0.0105732697993516,-0.7798212170600891,0.037991777062416,0.0,0.0,-0.2802432775497436,-0.5534059405326843
-0.3425872921943664,0.8573870658874512,-0.0550590641796588,0.005126881878823,-0.776118814945221,0.0740479826927185,0.0,0.0,-0.2086659669876098,-0.4811302423477173
-0.3430516719818115,0.8572635054588318,-0.0493464618921279,-0.0035974660422652,-0.7721012234687805,0.0803523883223533,0.0,0.0,-0.5541367530822754,-0.477249264717102
-0.343450129032135,0.8569402098655701,-0.0430172383785247,-0.0123207587748765,-0.7677464485168457,0.0870950520038604,0.0,0.0,-0.2537788152694702,-0.2245588302612304
-0.3437767028808594,0.8564170598983765,-0.0361013039946556,-0.0210431087762117,-0.7630338668823242,0.0942515134811401,0.0,0.0,-0.0317214727401733,-0.118047297000885
-0.3440256714820862,0.855694055557251,-0.0286296010017395,-0.0297646317631006,-0.7579439878463745,0.1017972230911254,0.0,0.0,-0.7790178656578064,-0.3255370855331421
-0.3441914916038513,0.8547709584236145,-0.020633615553379,-0.0384854599833488,-0.7524586319923401,0.1097076162695884,0.0,0.0,-0.7210972309112549,-0.769982635974884
-0.3443240523338318,0.8537226915359497,-0.0192213654518127,-0.0428946986794471,-0.7444136142730713,0.1609003096818924,0.0,0.0,-0.2871882319450378,-0.6093816161155701
-0.3443900942802429,0.0,-0.013790501281619,-0.0492390319705009,-0.734813928604126,0.1919935643672943,0.0,0.0,-0.3998903632164001,-0.7758039236068726
-0.3444012999534607,0.8511595129966736,-0.0098651004955172,-0.0550845079123973,-0.7232333421707153,0.2316116541624069,0.0,0.0,-0.8479371666908264,-0.1206363439559936
-0.3443103730678558,0.8496033549308777,-9.17341822059825e-05,-0.0638096258044242,-0.7111966609954834,0.2407339364290237,0.0,0.0,-0.8558923006057739,-0.8225794434547424
-0.3441601395606994,0.8479179739952087,0.0039086234755814,-0.0686043947935104,-0.6967900991439819,0.2881314754486084,0.0,0.0,-0.759816586971283,-0.7784168124198914
-0.3439310193061828,0.8460850119590759,0.0102424835786223,-0.0744949057698249,-0.6805781722068787,0.3242395520210266,0.0,0.0,-0.67972731590271,-0.5499598979949951
-0.3436170220375061,0.8440896272659302,0.0173264816403388,-0.081220619380474,-0.6628214120864868,0.3551347553730011,0.0,0.0,-0.8601707816123962,-0.4834649562835693
-0.3431861996650696,0.841896653175354,0.0284142605960369,-0.089957594871521,-0.644565999507904,0.3651086688041687,0.0,0.0,-0.8626065254211426,-0.2439757585525512
-0.3426355421543121,0.8395066857337952,0.0397711545228958,-0.0986962392926216,-0.625803530216217,0.3752492070198059,0.0,0.0,-0.8814865946769714,-0.5123828053474426
-0.3419913649559021,0.8369482159614563,0.0476960390806198,-0.1058041900396347,-0.6055682301521301,0.4047060906887054,0.0,0.0,-0.7928273677825928,-0.2874504923820495
-0.3412221074104309,0.834193766117096,0.0595243982970714,-0.114549346268177,-0.5848116874694824,0.4151313304901123,0.0,0.0,-0.8424203395843506,-0.6324753165245056
-0.3403757512569427,0.8312920928001404,0.0651342943310737,-0.1205489709973335,-0.5618817210197449,0.4585990905761719,0.0,0.0,-0.8764743208885193,0.3505735397338867
-0.3393996655941009,0.8281960487365723,0.0773563235998153,-0.1293042153120041,-0.5384191870689392,0.4692507684230804,0.0,0.0,-0.7624375224113464,0.6509547233581543
-0.3382472097873688,0.824863851070404,0.0955109745264053,-0.1404173970222473,-0.5158654451370239,0.4510752260684967,0.0,0.0,-0.8913798928260803,0.4237434864044189
-0.3369618058204651,0.8213373422622681,0.1080715209245681,-0.1491738259792328,-0.4927697479724884,0.4619141221046448,0.0,0.0,-0.7503307461738586,0.2234803438186645
-0.3355418145656585,0.8176171183586121,0.1207780241966247,-0.1579333394765854,-0.4691281914710998,0.4728311598300934,0.0,0.0,-0.8327637910842896,0.5167977809906006
-0.333946943283081,0.8136793971061707,0.1385412365198135,-0.1681124418973922,-0.446058452129364,0.4613948762416839,0.0,0.0,-0.850058376789093,0.5737673044204712
