x_pos,y_pos,x_vel,y_vel,angle,ang_vel,leg_1,leg_2,main_booster,lat_booster
-0.0015226363902911,1.4034879207611084,-0.1540473401546478,-0.3303173780441284,0.001598929753527,0.0315280556678772,0.0,0.0,-0.5463315844535828,0.3231881856918335
-0.003044509794563,1.395942449569702,-0.1536022722721099,-0.335356205701828,0.0029973606579005,0.0279723294079303,0.0,0.0,-0.2848964333534241,0.7873872518539429
-0.0044900896027684,1.3882546424865725,-0.1438980251550674,-0.3416818976402282,0.0023466441780328,-0.0130157861858606,0.0,0.0,-0.4346194863319397,0.4963599443435669
-0.0059350011870265,1.3804301023483276,-0.1437041610479354,-0.3477523028850555,0.0015620839549228,-0.0156926456838846,0.0,0.0,0.1741843223571777,0.5511903762817383
-0.0072360993362963,1.3731664419174194,-0.1282980442047119,-0.3228295743465423,-0.0002301878266735,-0.0358489044010639,0.0,0.0,-0.373426616191864,0.6775281429290771
-0.0084716798737645,1.36576509475708,-0.1199769377708435,-0.3289467096328735,-0.0037785207387059,-0.0709733814001083,0.0,0.0,-0.2400238513946533,0.2754778861999511
-0.009707641787827,1.3582277297973633,-0.1199056729674339,-0.3350114226341247,-0.0074250376783311,-0.0729370042681694,0.0,0.0,-0.2109601497650146,0.0302271842956542
-0.0109441755339503,1.3505538702011108,-0.1198867335915565,-0.3410787582397461,-0.0111592868342995,-0.0746915787458419,0.0,0.0,-0.3102529048919678,0.3190479278564453
-0.012181949801743,1.342743992805481,-0.119923397898674,-0.3471465706825256,-0.0149697493761777,-0.0762161910533905,0.0,0.0,-0.1822354197502136,-0.0452423095703125
-0.0134213445708155,1.3347976207733154,-0.1200199574232101,-0.3532144725322723,-0.0188455879688262,-0.0775235816836357,0.0,0.0,-0.6701963543891907,0.0519098043441772
-0.0146628376096487,1.3267149925231934,-0.1201802492141723,-0.3592825531959533,-0.0227762199938297,-0.0786197036504745,0.0,0.0,-0.2511186003684997,0.4215534925460815
-0.015907097607851,1.3184961080551147,-0.1204078942537307,-0.3653506636619568,-0.0267513897269964,-0.0795106962323188,0.0,0.0,-0.6084229350090027,0.5221965312957764
-0.0171046257019042,1.310141682624817,-0.1144234165549278,-0.3714126646518707,-0.0320200473070144,-0.1053829342126846,0.0,0.0,-0.1286481618881225,0.1300420761108398
-0.0183060653507709,1.301651120185852,-0.1147925034165382,-0.3774818181991577,-0.0373129919171333,-0.1058687418699264,0.0,0.0,-0.6254352927207947,0.6140321493148804
-0.0194521900266408,1.293027639389038,-0.1077303141355514,-0.383455753326416,-0.0441243648529052,-0.1362397074699401,0.0,0.0,-0.7724654674530029,-0.6384461522102356
-0.0206449516117572,1.284263253211975,-0.1134417802095413,-0.3897076249122619,-0.0499059036374092,-0.1156414002180099,0.0,0.0,-0.6203231811523438,-0.4561935067176819
-0.0218438152223825,1.2753629684448242,-0.1140521615743637,-0.3957776129245758,-0.0556863695383071,-0.1156195551156997,0.0,0.0,-0.8447752594947815,0.1003780364990234
-0.0230495445430278,1.2663265466690063,-0.1147481352090835,-0.401847630739212,-0.0614566393196582,-0.1154158562421798,0.0,0.0,-0.8360656499862671,-0.6223942041397095
-0.0243038181215524,1.2571635246276855,-0.1206724420189857,-0.4074454307556152,-0.0661703571677208,-0.0942828580737114,0.0,0.0,-0.8614824414253235,-0.4910367131233215
-999.0,1.2478643655776978,-0.1215517073869705,-0.4135147035121918,-0.0708596408367157,-0.0937941670417785,0.0,0.0,-0.9361716508865356,-0.0825431942939758
-0.0268388744443655,1.238428831100464,-0.122523620724678,-0.4195841550827026,-0.0755169317126274,-0.0931539386510849,0.0,0.0,-0.9555490612983704,-0.6927697062492371
-0.028175164014101,1.2288591861724854,-0.1303281337022781,-0.4254885911941528,-0.0787853151559829,-0.0653734654188156,0.0,0.0,-0.827552318572998,0.2294621467590332
-0.0295225139707326,1.2191531658172607,-0.131496250629425,-0.431556761264801,-0.0820100307464599,-0.0645000040531158,0.0,0.0,-0.8435729742050171,0.6439728736877441
-0.0308259017765522,0.0,-0.1256928443908691,-0.4383316338062286,-0.0866177827119827,-0.0921632498502731,0.0,0.0,-0.5671961307525635,0.6528394222259521
-0.0321027748286724,1.1993002891540527,-0.1221097484230995,-0.4446065127849579,-0.092162862420082,-0.1109113469719886,0.0,0.0,-0.8199917674064636,-0.7582520246505737
-0.0334691032767295,1.189160704612732,-0.1329879313707351,-0.450874775648117,-0.0957698374986648,-0.0721395015716552,0.0,0.0,0.5105981826782227,-0.5373015999794006
-0.0348252281546592,1.1798856258392334,-0.1331349164247512,-0.412397176027298,-0.0982313975691795,-0.0492311902344226,0.0,0.0,-0.8836031556129456,0.7199100255966187
-0.0361526496708393,1.170474648475647,-0.1291930377483368,-0.4184974730014801,-0.1017462760210037,-0.0702975839376449,0.0,0.0,-0.8073854446411133,0.8131296634674072
-0.0374464020133018,1.1609264612197876,-0.1246350556612014,-0.4246942400932312,-0.10645741969347,-0.0942230969667434,0.0,0.0,-0.9453426003456116,0.8053133487701416
-0.0386974327266216,1.1512292623519895,-0.1188637465238571,-0.4314412772655487,-0.1126455441117286,-0.1237628459930419,0.0,0.0,-0.2838642001152038,0.8249936103820801
-0.0398997291922569,1.1413941383361816,-0.1123849004507064,-0.4377309083938598,-0.1204501688480377,-0.1560923755168914,0.0,0.0,-0.7297869324684143,-0.1108527779579162
-0.0411221496760845,1.1314231157302856,-0.1144712716341018,-0.4438002705574035,-0.1281756460666656,-0.1545091569423675,0.0,0.0,-0.9067591428756714,0.6489698886871338
-0.0423211082816123,1.1213140487670898,-0.1110916510224342,-0.4500745832920074,-0.1369358450174331,-0.1752042323350906,0.0,0.0,-0.7756613492965698,-0.0211973190307617
-0.0435420982539653,1.1110694408416748,-0.1133801937103271,-0.4561450779438019,-0.1456138491630554,-0.1735607534646988,0.0,0.0,-0.0592955946922302,-0.8885936141014099
-0.0448533073067665,1.1007055044174194,-0.1242455840110778,-0.4613033831119537,-0.1524790972471237,-0.1373052150011062,0.0,0.0,-0.7890666723251343,-0.4464777708053589
-0.0461885444819927,1.0902056694030762,-0.1267318129539489,-0.4673713147640228,-0.1592609286308288,-0.1356363147497177,0.0,0.0,-0.2040336728096008,-0.5360888242721558
-0.0475926399230957,1.0795775651931765,-0.1348295509815216,-0.4729721248149872,-0.1648409962654113,-0.111601173877716,0.0,0.0,-0.8942996859550476,-0.2293413281440735
-0.0490225777029991,1.0688130855560305,-0.1375083029270172,-0.4790386259555816,-0.1703380048274994,-0.1099402904510498,0.0,0.0,-0.8486380577087402,0.1285083293914795
-0.0504795089364051,1.0579124689102173,-0.1402810364961624,-0.4851049780845642,-0.1757527738809585,-0.1082957759499549,0.0,0.0,-0.2156180143356323,0.0971888303756713
-0.0519641861319541,1.0468754768371582,-0.1431458592414856,-0.491171270608902,-0.1810865551233291,-0.10667584836483,0.0,0.0,0.2136030197143554,0.2155836820602417
-0.0534516349434852,1.0365673303604126,-0.1431517899036407,-0.4588335752487182,-0.1867038160562515,-0.1123451143503189,0.0,0.0,0.2002569437026977,-0.1278302669525146
-0.0548100471496582,1.026658535003662,-0.1307361871004104,-0.4410439729690552,-0.191828966140747,-0.1025032624602317,0.0,0.0,-0.7253134846687317,0.506818413734436
-0.0561539642512798,1.016594648361206,-0.1281966716051101,-0.4480975866317749,-0.1980647295713424,-0.1247150897979736,0.0,0.0,-0.1021362543106079,0.7148966789245605
-0.0574648864567279,1.0063740015029907,-0.123318001627922,-0.4553134739398956,-0.2059023976325988,-0.1567533165216446,0.0,0.0,-0.8868725299835205,-0.6378136277198792
-0.0588617324829101,0.9960263967514038,-0.1333329081535339,-0.4607898294925689,-0.2123077660799026,-0.1281074583530426,0.0,0.0,-0.8679549694061279,-0.1460582017898559
-0.0602914802730083,0.9855427145957948,-0.136703222990036,-0.4668570756912231,-0.2186478078365326,-0.1268009096384048,0.0,0.0,-0.8597489595413208,-0.2084360122680664
-0.0617550835013389,0.9749228954315186,-0.1401485651731491,-0.4729242920875549,-0.224926471710205,-0.1255729347467422,0.0,0.0,-0.6020656228065491,0.4696108102798462
-0.0632530227303505,0.9641668796539308,-0.1436660289764404,-0.4789915382862091,-0.2311480045318603,-0.1244305968284607,0.0,0.0,-0.5089351534843445,0.3355354070663452
-0.0647864341735839,0.9532748460769652,-0.1472525894641876,-0.4850587546825409,-0.2373170256614685,-0.1233808174729347,0.0,0.0,-0.784517765045166,-0.1707962155342102
-0.0663557052612304,0.9422467350959778,-0.1509051620960235,-0.491126000881195,-0.2434385418891906,-0.122430182993412,0.0,0.0,-0.6766674518585205,-0.3004980087280273
-0.0679616928100586,0.9310823082923888,-0.1546205431222915,-0.4971932768821716,-0.2495177984237671,-0.1215851455926895,0.0,0.0,-0.4275506734848022,0.1515655517578125
-0.0696048736572265,0.9197819828987122,-0.1583954989910125,-0.5032605528831482,-0.2555603981018066,-0.1208518743515014,0.0,0.0,-0.9069257974624634,-0.36911141872406
-0.071286104619503,0.9083454608917236,-0.1622266769409179,-0.5093279480934143,-0.2615722119808197,-0.1202363222837448,0.0,0.0,-0.6226876378059387,0.3516743183135986
-0.0730056762695312,0.8967728018760681,-0.1661106944084167,-0.5153954029083252,-0.2675594091415405,-0.1197442263364791,0.0,0.0,-0.8380568027496338,0.1184122562408447
-0.0747643485665321,0.8850641846656799,-0.1700440943241119,-0.5214629769325256,-0.2735284566879272,-0.1193809285759925,0.0,0.0,-0.9855304956436156,-0.6420700550079346
-0.0766197219491005,0.8732404112815857,-0.1811902225017547,-0.5263221859931946,-0.2779808342456817,-0.0890475958585739,0.0,0.0,-0.7494344711303711,-0.9441149830818176
-0.0785738006234169,0.8613144159317017,-0.1926640719175338,-0.5305694937705994,-0.2808046042919159,-0.0564753822982311,0.0,0.0,-0.7916008830070496,0.2776845693588257
-0.0805685073137283,0.8492521643638611,-0.1967233568429947,-0.5366352796554565,-0.2836309671401977,-0.056527305394411,0.0,0.0,-0.8758924007415771,-0.375059425830841
-0.0826042145490646,0.8370534777641296,-0.200817659497261,-0.5427011847496033,-0.2864672541618347,-0.0567258782684803,0.0,0.0,-0.6779030561447144,-0.4992015957832336
-0.0846814140677452,0.8247184753417969,-0.2049432098865509,-0.5487673282623291,-0.2893210351467132,-0.0570756904780864,0.0,0.0,-0.8383840322494507,-0.3041927814483642
-0.0868002921342849,0.8122471570968628,-0.2090962678194046,-0.5548336505889893,-0.2922000288963318,-0.0575797371566295,0.0,0.0,-0.801109254360199,-0.8065435290336609
-0.0890313163399696,0.7996756434440613,-0.2221438437700271,-0.5589268207550049,-0.2931959927082062,-0.0199193377047777,0.0,0.0,-0.8682056069374084,-0.0051301717758178
-0.0913047790527343,0.7869678735733032,-0.2263401299715042,-0.5649929046630859,-0.2942330241203308,-0.0207406301051378,0.0,0.0,-0.9939124584197998,-0.3806222677230835
-0.0936207771301269,0.7741237282752991,-0.2305523157119751,-0.5710592269897461,-0.2953192293643951,-0.0217240899801254,0.0,0.0,-0.9641953110694884,-0.4058078527450561
-0.09597959369421,0.7611435651779175,-0.234776422381401,-0.5771257877349854,-0.2964628338813782,-0.0228719599545002,0.0,0.0,-0.988337516784668,-0.3406729698181152
-0.0983814224600792,0.7480270266532898,-0.2390084266662597,-0.5831925868988037,-0.2976721227169037,-0.0241859294474124,0.0,0.0,-0.9992465376853944,-0.3154246807098388
-0.1008263602852821,0.7347743511199951,-0.2432442456483841,-0.5892595052719116,-0.2989554703235626,-0.025667130947113,0.0,0.0,-0.9910763502120972,-0.3632117509841919
-0.1033143028616905,0.721385657787323,-0.247479647397995,-0.5953267216682434,-0.3003213107585907,-0.0273167788982391,0.0,0.0,-0.878131628036499,-0.1553488969802856
-0.1058455482125282,0.7078608870506287,-0.2517105638980865,-0.6013941168785095,-0.3017780780792236,-0.0291352365165948,0.0,0.0,-0.9749183058738708,0.0682399272918701
-0.1084198951721191,0.6942000389099121,-0.2559325993061065,-0.6074618697166443,-0.3033342659473419,-0.0311230085790157,0.0,0.0,-0.9002591371536255,0.2375657558441162
-0.1110373511910438,0.6804031729698181,-0.2601414024829864,-0.6135298013687134,-0.3049982190132141,-0.0332798361778259,0.0,0.0,-0.8408863544464111,0.2712705135345459
-0.1136979088187217,0.666470468044281,-0.2643325328826904,-0.6195979714393616,-0.3067785203456878,-0.0356053188443183,0.0,0.0,0.8296009302139282,0.3797323703765869
-0.1162548065185546,0.653803825378418,-0.2532176077365875,-0.563490629196167,-0.3093433678150177,-0.0512967333197593,0.0,0.0,-0.5368760228157043,0.0249063968658447
-0.1188544258475303,0.6410013437271118,-0.2573598027229309,-0.5695595145225525,-0.3120412230491638,-0.0539568178355693,0.0,0.0,-0.5447914600372314,0.3431671857833862
-0.1214964836835861,0.628062903881073,-0.2614704668521881,-0.5756286978721619,-0.3148803412914276,-0.0567821376025676,0.0,0.0,-0.9826757907867432,0.2131015062332153
-0.1241806969046592,0.6149887442588806,-0.2655448019504547,-0.5816982984542847,-0.3178688883781433,-0.0597709715366363,0.0,0.0,-0.9965218901634216,0.0251210927963256
-0.1269066780805587,0.601779043674469,-0.2695778012275696,-0.5877681374549866,-0.3210149705410003,-0.0629212036728859,0.0,0.0,0.4040439128875732,-0.1333473920822143
-0.1294681578874588,0.5893964767456055,-0.2529361546039581,-0.5510530471801758,-0.3243594169616699,-0.0668888539075851,0.0,0.0,0.5338397026062012,0.7815017700195312
-0.1316909790039062,0.5778937339782715,-0.2175145894289016,-0.5123112797737122,-0.3293328285217285,-0.0994687005877494,0.0,0.0,-0.9644800424575806,-0.5853857398033142
-0.1340046823024749,0.566287636756897,-0.2277967929840088,-0.5166479349136353,-0.3330615758895874,-0.0745748504996299,0.0,0.0,-0.8210739493370056,-0.5323991179466248
-0.136407658457756,0.5545657277107239,-0.2378054410219192,-0.52154940366745,-0.3356624543666839,-0.0520173721015453,0.0,0.0,-0.4465397596359253,0.0440053939819335
-999.0,0.5427083969116211,-0.2415533065795898,-0.5276204347610474,-0.3384591341018677,-0.055933840572834,0.0,0.0,0.1771526336669922,-0.4070014953613281
-0.1412628144025802,0.5313316583633423,-0.2381021678447723,-0.5063828229904175,-0.3417927920818329,-0.0666725561022758,0.0,0.0,-0.0128814578056335,0.1964638233184814
-0.1437136679887771,0.5198195576667786,-0.2416972219944,-0.5124546885490417,-0.3453363180160522,-0.0708711892366409,0.0,0.0,0.6271820068359375,0.3160611391067505
-0.14597949385643,0.5091502070426941,-0.222947672009468,-0.4750708043575287,-0.349151074886322,-0.0762949362397193,0.0,0.0,-0.1106266975402832,-0.3409266471862793
-0.1482814848423004,0.4983455836772918,-0.2263658940792083,-0.4811434149742126,-0.353189080953598,-0.0807595998048782,0.0,0.0,0.1413404941558838,0.531219482421875
-0.1504822671413421,0.4877027869224548,-0.2150137424468994,-0.47426837682724,-0.3585197031497955,-0.1066127866506576,0.0,0.0,0.0898232460021972,-0.039806842803955
-0.1525668203830719,0.4772658348083496,-0.2034483700990677,-0.4651261568069458,-0.3638029396533966,-0.1056645289063453,0.0,0.0,0.3080575466156006,-0.2711988687515259
-0.1544149369001388,0.4672654867172241,-0.1800891906023025,-0.4456661939620971,-0.3687888383865356,-0.09971784055233,0.0,0.0,0.842473030090332,-0.5351440906524658
-0.1560226380825042,0.4576750695705414,-0.157310202717781,-0.4271398186683655,-0.3724617958068847,-0.0734594091773033,0.0,0.0,0.9497056007385254,-0.905689775943756
-0.1574102342128753,0.4492371082305908,-0.1368055045604705,-0.3755297660827636,-0.3745284676551819,-0.041333682835102,0.0,0.0,0.8605984449386597,-0.8005319833755493
-0.1585364341735839,0.441875696182251,-0.1120692119002342,-0.3273186683654785,-0.3751205205917358,-0.0118410531431436,0.0,0.0,0.990143060684204,-0.9509091973304749
-0.159311294555664,0.4354540109634399,-0.0788040086627006,-0.2850619256496429,-0.3737234473228454,0.0279412679374218,0.0,0.0,0.9850680828094482,-0.7526184916496277
-0.1599049568176269,0.4293982982635498,-0.0621693953871727,-0.26841601729393,-0.3707525432109833,0.0594180040061473,0.0,0.0,0.9615604877471924,-0.6160182356834412
-0.1604126989841461,0.4241136312484741,-0.0543484166264534,-0.2339507043361663,-0.3669653534889221,0.075744055211544,0.0,0.0,0.9487699270248412,-0.9135441780090332
-0.1605407744646072,0.4201086163520813,-0.0181130412966012,-0.1766533106565475,-0.3613637089729309,0.1120329871773719,0.0,0.0,0.3163824081420898,-0.5304450392723083
-0.160588651895523,0.4166377782821655,-0.0108361952006816,-0.1527501940727234,-0.3549950420856476,0.1273741871118545,0.0,0.0,-0.5969939827919006,-0.4659665822982788
-0.1606571227312088,0.4130322933197021,-0.012638347223401,-0.1588266342878341,-0.3489083051681518,0.1217350363731384,0.0,0.0,0.1521466970443725,-0.6208949089050293
-0.1605594605207443,0.4099714457988739,0.0029262946918606,-0.1343989968299865,-0.3417332768440246,0.1435004770755767,0.0,0.0,-0.9076325297355652,-0.1236597895622253
-0.1604787856340408,0.406775951385498,0.0014898877125233,-0.1404761970043182,-0.3348459601402282,0.1377457678318023,0.0,0.0,-0.5869703888893127,-0.4959043860435486
-0.1604130715131759,0.4034458696842193,0.0002466805744916,-0.1465530097484588,-0.3282488286495209,0.1319427192211151,0.0,0.0,-0.9030407071113586,-0.273000955581665
-0.1603606194257736,0.3999811112880707,-0.0007970107835717,-0.152629405260086,-0.3219439387321472,0.1260976493358612,0.0,0.0,-0.9409390091896056,-0.5035934448242188
-0.1603638678789138,0.3964046835899353,-0.0072906501591205,-0.1574242115020752,-0.314705491065979,0.1447689235210418,0.0,0.0,-0.632698118686676,-0.1011921763420105
-0.1603759825229644,0.3926935791969299,-0.0079180710017681,-0.1635010838508606,-0.3077625334262848,0.138859361410141,0.0,0.0,-0.928020179271698,-0.4097641706466675
-0.1603950560092926,0.3888478577136993,-0.0083287190645933,-0.1695775389671325,-0.3011161386966705,0.1329279094934463,0.0,0.0,-0.7091842293739319,-0.7893885374069214
-0.1604734361171722,0.3848856389522552,-0.0153799373656511,-0.1745537668466568,-0.2933315336704254,0.155691847205162,0.0,0.0,-0.8598181009292603,-0.3305116295814514
-0.1605542153120041,0.3807888627052307,-0.0153432711958885,-0.1806309074163437,-0.2858446538448334,0.1497375071048736,0.0,0.0,-0.8533982634544373,0.4706919193267822
-0.1606349945068359,0.3765575587749481,-0.0150762144476175,-0.1867074966430664,-0.2786554992198944,0.1437829732894897,0.0,0.0,-0.945282220840454,0.1253137588500976
-0.1607135832309723,0.3721914887428283,-0.0145752783864736,-0.1927835792303085,-0.2717637419700622,0.1378358602523803,0.0,0.0,-0.9859426617622375,0.6954202651977539
-0.1607280671596527,0.3676656484603882,-0.0063381502404809,-0.200249433517456,-0.2667562961578369,0.100148931145668,0.0,0.0,-0.9751524329185486,-0.3946096897125244
-0.1607356071472168,0.363004595041275,-0.0053607509471476,-0.20632304251194,-0.2620442509651184,0.0942409187555313,0.0,0.0,-0.9320350885391236,-0.7746725678443909
-0.1607855856418609,0.3582364916801452,-0.0107094133272767,-0.2109083086252212,-0.2562100291252136,0.1166845932602882,0.0,0.0,-0.9765382409095764,0.1835361719131469
-0.1608237326145172,0.3533332049846649,-0.0092501454055309,-0.2169823050498962,-0.2506675720214844,0.1108488664031028,0.0,0.0,-0.992885410785675,-0.185760498046875
-0.1608476638793945,0.3482948541641235,-0.0075488649308681,-0.2230558544397354,-0.2454144358634948,0.105062648653984,0.0,0.0,-0.6264117956161499,0.5593488216400146
-0.1608215272426605,0.3431072533130646,-0.0013885681983083,-0.229900524020195,-0.2413378208875656,0.081532135605812,0.0,0.0,-0.7532607913017273,-0.4335664510726928
-0.1607762277126312,0.3377841114997864,0.0007951079751364,-0.235972598195076,-0.2375441789627075,0.0758729428052902,0.0,0.0,-0.7946604490280151,0.4309748411178589
-0.1607094705104828,0.3323256373405456,0.0032175306696444,-0.2420443147420883,-0.2340295910835266,0.0702917128801345,0.0,0.0,-0.7574263215065002,0.2836768627166748
-0.160618782043457,0.3267316818237304,0.0058762650005519,-0.2481157034635543,-0.2307896614074707,0.0647985413670539,0.0,0.0,-0.9808582067489624,-0.2667504549026489
-0.1605018675327301,0.3210022747516632,0.008768230676651,-0.2541867792606354,-0.2278194576501846,0.0594037249684333,0.0,0.0,-0.8457140922546387,0.2244957685470581
-0.1603562384843826,0.3151372671127319,0.011889730580151,-0.2602575421333313,-0.225113570690155,0.0541178360581398,0.0,0.0,-0.8891211748123169,0.7188941240310669
