x_pos,y_pos,x_vel,y_vel,angle,ang_vel,leg_1,leg_2,main_booster,lat_booster
-0.0014527321327477,1.4034926891326904,-0.1466890126466751,-0.330105721950531,0.0012618807377293,0.0248546414077281,0.0,0.0,-0.5458685755729675,0.5384749174118042
-0.0027901649009436,1.395954132080078,-0.1333502680063247,-0.3350450396537781,0.0008735944866202,-0.0077659129165112,0.0,0.0,-0.0370939373970031,-0.0892817974090576
-0.0040598870255053,1.388283371925354,-0.1261093020439148,-0.3409234583377838,2.5738681870279837e-05,-0.0169590730220079,0.0,0.0,-0.4025933146476745,0.6988832950592041
-0.0052197454497218,1.3804785013198853,-0.1135331988334655,-0.3468833863735199,-0.0023905637208372,-0.0483303293585777,0.0,0.0,-0.2322227954864502,-0.1893504858016967
-0.0063157081604003,1.3725420236587524,-0.1067015975713729,-0.3527387380599975,-0.0052634174935519,-0.0574625506997108,0.0,0.0,-0.1344110965728759,0.1936237812042236
-0.0073503493331372,1.3644740581512451,-0.1001012101769447,-0.3585943877696991,-0.0085921790450811,-0.0665811523795127,0.0,0.0,-0.3508610725402832,0.5777945518493652
-0.00828218460083,1.356273889541626,-0.0882573798298835,-0.3644821941852569,-0.01347600761801,-0.0976854115724563,0.0,0.0,-0.7320445775985718,-0.6942963600158691
-0.0091989515349268,1.3479453325271606,-0.0873243063688278,-0.3702035248279571,-0.0177767910063266,-0.0860237777233123,0.0,0.0,-0.7472168803215027,-0.5404674410820007
-0.0101055148988962,1.3394924402236938,-0.0869597345590591,-0.3757352828979492,-0.0214361548423767,-0.0731936767697334,0.0,0.0,-0.7952885627746582,-0.801598310470581
-0.0110248569399118,1.3309149742126465,-0.0893858149647712,-0.3812568485736847,-0.0239531639963388,-0.0503446571528911,0.0,0.0,-0.9204497337341307,-0.3697510957717895
-0.0118969921022653,1.3222060203552246,-0.0842161551117897,-0.3871134221553802,-0.026916341856122,-0.0592689700424671,0.0,0.0,-0.905697762966156,0.1894929409027099
-0.0127252582460641,1.3133656978607178,-0.0793879479169845,-0.3929703831672668,-0.0303220972418785,-0.0681214109063148,0.0,0.0,-0.7532579898834229,-0.2383543848991394
-0.0135132791474461,1.304394006729126,-0.0749209001660347,-0.3988277018070221,-0.0341677069664001,-0.076918825507164,0.0,0.0,-0.5728122591972351,-0.6127688884735107
-0.0143076898530125,1.2952873706817627,-0.0762121826410293,-0.4048168063163757,-0.0373741760849952,-0.0641349703073501,0.0,0.0,-0.9188287258148192,-0.3643002510070801
-0.0150697706267237,1.286049246788025,-0.0725270584225654,-0.4106745421886444,-0.0410140492022037,-0.0728037804365158,0.0,0.0,-0.9391205310821532,-0.1041125059127807
-0.0158033370971679,1.2766799926757812,-0.0692579820752143,-0.4165327250957489,-0.045082651078701,-0.0813792720437049,0.0,0.0,-0.955976903438568,-0.6127968430519104
-0.016550064086914,1.2671890258789062,-0.0710769444704055,-0.4219338297843933,-0.0486361719667911,-0.0710766464471817,0.0,0.0,-0.6397644281387329,0.4973807334899902
-0.0172770507633686,1.2575668096542358,-0.068691685795784,-0.4277921915054321,-0.0526102147996425,-0.0794881582260131,0.0,0.0,-0.8291338682174683,-0.8783020377159119
-0.0180468559265136,1.2478259801864624,-0.0740287750959396,-0.4330273866653442,-0.0555338934063911,-0.0584785565733909,0.0,0.0,-0.6575133800506592,-0.2123802304267883
-0.0188063625246286,1.237954020500183,-0.0725821778178215,-0.4388858377933502,-0.0588681958615779,-0.0666925534605979,0.0,0.0,-0.8796064853668213,-0.7891036868095398
-0.0196091644465923,1.2279608249664309,-0.0777511969208717,-0.4442469179630279,-0.0613687261939048,-0.0500149317085742,0.0,0.0,-0.9162480235099792,-0.7348217368125916
-0.0204683300107717,1.21783709526062,-0.0844285935163497,-0.4499977827072143,-0.062836192548275,-0.0293523278087377,0.0,0.0,-0.9378986358642578,-0.2434011697769165
-0.0213316921144723,1.2075821161270142,-0.0844538584351539,-0.4558558166027069,-0.064696304500103,-0.0372057817876338,0.0,0.0,-0.6404442191123962,-0.0487394928932189
-0.0222041122615337,1.1971958875656128,-0.0849736183881759,-0.4617142081260681,-0.0669416412711143,-0.0449108853936195,0.0,0.0,-0.820383608341217,-0.5798706412315369
-0.0231470111757516,1.18668532371521,-0.0930775105953216,-0.4671845138072967,-0.068138413131237,-0.0239377450197935,0.0,0.0,-0.905909776687622,-0.256668210029602
-0.0241096504032611,1.176022171974182,-0.0946817100048065,-0.4739942252635956,-0.0697066038846969,-0.0313637033104896,0.0,0.0,-0.8837333917617798,-0.2185173630714416
-0.0250959396362304,1.1652275323867798,-0.0966763198375701,-0.4798501431941986,-0.0716382935643196,-0.0386337116360664,0.0,0.0,-0.0983058810234069,-0.5774315595626831
-0.0261655803769826,1.154313564300537,-0.1060777306556701,-0.4851073920726776,-0.072524644434452,-0.0177268050611019,0.0,0.0,-0.427864134311676,-0.515712559223175
-0.0273175239562988,1.143277883529663,-0.1152050718665123,-0.4904733896255493,-0.0725074782967567,0.000343004183378,0.0,0.0,0.167199969291687,0.5291738510131836
-0.0284563060849905,1.1326215267181396,-0.1124545782804489,-0.4736900925636291,-0.0739147439599037,-0.028145432472229,0.0,0.0,-0.5549946427345276,-0.0591446161270141
-0.0296365730464458,1.1218336820602417,-0.1162735074758529,-0.4795458912849426,-0.0756510719656944,-0.0347264297306537,0.0,0.0,-0.6029688715934753,-0.5102769732475281
-0.0309080127626657,1.1109166145324707,-0.1262304335832595,-0.4852454960346222,-0.0765601247549057,-0.0181810222566127,0.0,0.0,0.0345659255981445,0.7504291534423828
-0.032190702855587,1.1006262302398682,-0.1254928708076477,-0.4574984312057495,-0.0793053954839706,-0.0549055859446525,0.0,0.0,-0.978635847568512,0.6296052932739258
-0.0334824547171592,1.090193510055542,-0.1249680072069168,-0.4639033079147339,-0.0834723487496376,-0.0833390429615974,0.0,0.0,-0.2980896234512329,0.6885590553283691
-0.0347749702632427,1.0796241760253906,-0.1233415007591247,-0.4700870811939239,-0.0893352776765823,-0.1172582134604454,0.0,0.0,-0.5365394353866577,-0.918280839920044
-0.0361972823739051,0.0,-0.1378291547298431,-0.4751150012016296,-0.0936972871422767,-0.0872400254011154,0.0,0.0,-0.7920712828636169,0.8352091312408447
-0.0376199707388877,1.0581121444702148,-0.1359999477863311,-0.4816561937332153,-0.0999164283275604,-0.1243832930922508,0.0,0.0,-0.9780144095420836,0.6483330726623535
-0.0390540137887001,1.0471501350402832,-0.1354995369911193,-0.4877495467662811,-0.1077587753534317,-0.1568465828895568,0.0,0.0,-0.572932243347168,0.7064183950424194
-0.0405040755867958,1.0360571146011353,-0.1355507969856262,-0.493733674287796,-0.1171520128846168,-0.1878651082515716,0.0,0.0,0.3187823295593261,0.6570138931274414
-0.0418919548392295,1.025544285774231,-0.1278413236141204,-0.4681334495544433,-0.1280359476804733,-0.2176783978939056,0.0,0.0,-0.121800422668457,0.5662643909454346
-0.0433160774409771,1.014899492263794,-0.1303468942642212,-0.474182516336441,-0.1400556564331054,-0.2403943091630935,0.0,0.0,-0.4315859079360962,-0.1418148279190063
-0.0448156371712684,1.0041253566741943,-0.1377090513706207,-0.4800503551959991,-0.1522671431303024,-0.2442301213741302,0.0,0.0,-0.9740663766860962,0.417782187461853
-0.0463923439383506,0.9932217001914978,-0.1452817767858505,-0.4859185218811035,-0.1646539568901062,-0.2477362602949142,0.0,0.0,-0.4659062623977661,0.5188870429992676
-0.0480010993778705,0.9821763038635254,-0.1471389234066009,-0.4924895167350769,-0.178409993648529,-0.275120735168457,0.0,0.0,-0.1105015277862548,0.0625847578048706
-0.049690343439579,0.9710020422935486,-0.1550867110490799,-0.4983607828617096,-0.1923061609268188,-0.2779232859611511,0.0,0.0,-0.902769148349762,-0.3565937280654907
-0.0514615066349506,0.9596988558769226,-0.1632002145051956,-0.5042322278022766,-0.2063238322734832,-0.28035369515419,0.0,0.0,-0.989115595817566,-0.3897554874420166
-0.05331601947546,0.9482667446136476,-0.1714662909507751,-0.510103702545166,-0.220443770289421,-0.2823989987373352,0.0,0.0,-0.634283185005188,-0.0005514621734619
-0.0552549362182617,0.9367059469223022,-0.1798727065324783,-0.5159751176834106,-0.234646126627922,-0.2840473651885986,0.0,0.0,-0.6489630341529846,-0.2348339557647705
-0.0572792999446392,0.925016224384308,-0.1884080916643142,-0.521846354007721,-0.2489105463027954,-0.2852882742881775,0.0,0.0,-0.7619202136993408,0.0142515897750854
-0.0593900680541992,0.9131973385810852,-0.1970618367195129,-0.5277172923088074,-0.2632161676883697,-0.2861127257347107,0.0,0.0,-0.5834738612174988,-0.4754959940910339
-0.0615881904959678,0.9012497067451476,-0.2058242559432983,-0.5335878133773804,-0.2775418758392334,-0.2865135073661804,0.0,0.0,-0.1072670817375183,-0.6342294812202454
-0.0639262199401855,0.8891990780830383,-0.2212482243776321,-0.5380160808563232,-0.2904529273509979,-0.2582212686538696,0.0,0.0,-0.3162035942077636,-0.4561304450035095
-0.0663530379533767,0.8770189881324768,-0.2302002161741256,-0.5438825488090515,-0.3033410310745239,-0.2577617764472961,0.0,0.0,-0.2760462164878845,0.296964168548584
-0.0688693970441818,0.8647090196609497,-0.2392357587814331,-0.5497483015060425,-0.3161844909191131,-0.2568689286708832,0.0,0.0,-0.1182054281234741,-0.3122674822807312
-0.0714756026864051,0.8522691130638123,-0.2483478337526321,-0.5556133389472961,-0.3289617002010345,-0.2555440068244934,0.0,0.0,-0.6354121565818787,-0.2261950969696045
-0.0741723030805587,0.8396990895271301,-0.257530003786087,-0.561477541923523,-0.3416512310504913,-0.2537905275821686,0.0,0.0,-0.5721293091773987,0.501024603843689
-0.0769158378243446,0.826980710029602,-0.2612504363059997,-0.568433403968811,-0.3554127812385559,-0.2752309441566467,0.0,0.0,-0.38817298412323,-0.6832588911056519
-0.0797887817025184,0.814156174659729,-0.27539923787117,-0.5729683041572571,-0.3679606318473816,-0.2509572505950928,0.0,0.0,-0.5688735246658325,-0.7570911645889282
-0.0827999114990234,0.8012363314628601,-0.2907209396362304,-0.5769256353378296,-0.3789854645729065,-0.2204958200454712,0.0,0.0,-0.4264355897903442,-0.2071890830993652
-0.0859031677246093,0.7881853580474854,-0.3001271188259125,-0.582783579826355,-0.3898407816886902,-0.2171061038970947,0.0,0.0,0.4076583385467529,-0.3462427258491516
-0.0889384299516677,0.7754160761833191,-0.2937406599521637,-0.5702378749847412,-0.4003057479858398,-0.2092994451522827,0.0,0.0,0.3169740438461303,-0.2541256546974182
-0.0919220000505447,0.7633343935012817,-0.2884574830532074,-0.5397856831550598,-0.4109335243701935,-0.2125553637742996,0.0,0.0,0.7956020832061768,-0.3248893022537231
-0.0946507453918457,0.7518135905265808,-0.2638021111488342,-0.5146956443786621,-0.4207158088684082,-0.195645734667778,0.0,0.0,0.4234027862548828,-0.7640268206596375
-0.0972905158996582,0.7409078478813171,-0.2566589713096618,-0.486907035112381,-0.4286370575428009,-0.1584247648715973,0.0,0.0,0.7745097875595093,-0.8382701873779297
-0.0998976677656173,0.7304863929748535,-0.2552782297134399,-0.4648446440696716,-0.4345501065254211,-0.118260882794857,0.0,0.0,0.4618504047393799,-0.5511671900749207
-0.1025247573852539,0.7207459211349487,-0.2583318054676056,-0.4342717826366424,-0.4393135011196136,-0.0952677279710769,0.0,0.0,0.881666898727417,0.3363096714019775
-0.1048088073730468,0.7121800184249878,-0.2244077622890472,-0.3819687068462372,-0.4436766803264618,-0.0872643440961837,0.0,0.0,0.8997573852539062,-0.57228022813797
-0.1069941520690918,0.703894317150116,-0.2161460220813751,-0.3690084218978882,-0.4462814331054687,-0.0520950779318809,0.0,0.0,0.9282830953598022,-0.408112108707428
-0.108814813196659,0.6968028545379639,-0.1801135540008545,-0.3157984018325805,-0.4484267830848694,-0.0429068133234977,0.0,0.0,0.9547659158706664,-0.4412504434585571
-0.1105871200561523,0.6904074549674988,-0.1751010715961456,-0.2849275469779968,-0.4507616460323334,-0.0466974005103111,0.0,0.0,0.9933167695999146,-0.0631666779518127
-0.1121973991394043,0.6850539445877075,-0.1587375700473785,-0.2386796325445175,-0.4532721936702728,-0.0502110719680786,0.0,0.0,0.9672181606292723,-0.6129320859909058
-0.1135850921273231,0.6805726885795593,-0.138050764799118,-0.1993926167488098,-0.4540491998195648,-0.0155403781682252,0.0,0.0,0.9799301624298096,-0.6699110269546509
-0.114816665649414,0.6774720549583435,-0.1236818432807922,-0.1376311630010604,-0.4534732401371002,0.0115190958604216,0.0,0.0,0.972675085067749,-0.8151355981826782
-0.1158119216561317,0.6751466393470764,-0.1021182909607887,-0.1025147512555122,-0.4506299793720245,0.0568653121590614,0.0,0.0,0.7805188894271851,-0.8584153056144714
-0.1168165206909179,0.6733207106590271,-0.10496187210083,-0.0797082260251045,-0.4456966519355774,0.0986662656068801,0.0,0.0,0.8508973121643066,-0.8079460263252258
-0.1177427321672439,0.6718336939811707,-0.0991720035672187,-0.0640259683132171,-0.4385451078414917,0.1430305987596511,0.0,0.0,0.6039764881134033,-0.7564501166343689
-0.1187096610665321,0.6707136034965515,-0.1050025820732116,-0.0472155287861824,-0.4294973015785217,0.1809564083814621,0.0,0.0,0.6043884754180908,-0.368273913860321
-0.1194572448730468,0.6705160737037659,-0.0834371447563171,-0.0061598015017807,-0.4200900793075561,0.1881442964076995,0.0,0.0,0.2224712371826172,-0.4033516645431518
-0.1199985519051551,0.6709761023521423,-0.0634774416685104,0.0232006013393402,-0.4100054800510406,0.2016914188861847,0.0,0.0,0.1455662250518798,-0.5373799204826355
-0.1205235496163368,0.6721647381782532,-0.0631758645176887,0.0558779500424861,-0.3985433578491211,0.2292425632476806,0.0,0.0,-0.3942033052444458,-0.0070001482963562
-0.1211423873901367,0.6732211709022522,-0.073001392185688,0.050027746707201,-0.3866663873195648,0.2375392615795135,0.0,0.0,-0.1879180669784546,0.0365526676177978
-0.1218549758195877,0.6741455793380737,-0.0828302577137947,0.044176522642374,-0.3743694722652435,0.2459383457899093,0.0,0.0,-0.2088575959205627,0.3149416446685791
-0.1226613074541091,0.6749382019042969,-0.0926613956689834,0.0383241958916187,-0.3616479039192199,0.2544319629669189,0.0,0.0,-0.5561545491218567,0.4678447246551513
-0.1235612854361534,0.6755990982055664,-0.1024937480688095,0.0324706919491291,-0.3484972715377807,0.2630128860473633,0.0,0.0,-0.2444524765014648,0.5899258852005005
-0.1245115250349044,0.6761079430580139,-0.106857493519783,0.0254336576908826,-0.33609539270401,0.2480380237102508,0.0,0.0,-0.3721837997436523,0.5973179340362549
-0.1255046874284744,0.6764584183692932,-0.1102705746889114,0.0180905442684888,-0.3246555626392364,0.2287973910570144,0.0,0.0,0.1580557823181152,0.582816481590271
-0.1264552175998687,0.6769818663597107,-0.1053591519594192,0.0255394801497459,-0.3139419257640838,0.2142724692821502,0.0,0.0,0.1558682918548584,0.4686892032623291
-0.1273506134748459,0.6777451634407043,-0.1005982905626297,0.0362765341997146,-0.302484780550003,0.2291436493396759,0.0,0.0,-7.194280624389648e-05,0.5584497451782227
-0.1282872259616851,0.6783519983291626,-0.1038295030593872,0.0290460921823978,-0.2919959127902984,0.2097780257463455,0.0,0.0,-0.1221729516983032,0.6704111099243164
-0.1292563378810882,0.678793728351593,-0.1058847159147262,0.0214013457298278,-0.2827410995960235,0.1850956082344055,0.0,0.0,-0.1946626901626587,0.3815321922302246
-0.1303186416625976,0.6791031360626221,-0.115689530968666,0.0155514329671859,-0.2730351090431213,0.1941189616918563,0.0,0.0,-0.3293331861495971,0.18942391872406
-0.1314742118120193,0.6792805194854736,-0.1254865974187851,0.0097005069255828,-0.2628758549690246,0.2031852304935455,0.0,0.0,-0.1345113515853881,-0.2190446853637695
-0.1327230483293533,0.6793259978294373,-0.135274663567543,0.0038485031109303,-0.2522613108158111,0.2122906148433685,0.0,0.0,-0.5153797268867493,-0.2423901557922363
-0.1340647637844085,0.6792397499084473,-0.1450523436069488,-0.0020046452991664,-0.2411897331476211,0.2214316874742508,0.0,0.0,-0.5886436700820923,-0.417059063911438
-0.1354993879795074,0.6790218949317932,-0.1548182368278503,-0.0078590037301182,-0.2296594828367233,0.2306050360202789,0.0,0.0,-0.5808382630348206,0.308208703994751
-0.1370265930891037,0.678672730922699,-0.1645707786083221,-0.013714637607336,-0.2176690995693206,0.2398075759410858,0.0,0.0,-0.9672518968582152,-0.4014194011688232
-0.1386464089155197,0.6781926155090332,-0.1743083298206329,-0.0195716116577386,-0.2052172720432281,0.2490362823009491,0.0,0.0,-0.9185376167297364,-0.4445961117744446
-0.1403584480285644,0.6775814890861511,-0.1840291321277618,-0.0254299920052289,-0.1923028528690338,0.2582883536815643,0.0,0.0,-0.9043694138526917,0.131922960281372
-0.1421626061201095,0.6768399477005005,-0.193731278181076,-0.0312898494303226,-0.1789248138666153,0.2675608992576599,0.0,0.0,-0.946919083595276,0.0928966999053955
-0.1440585106611251,0.6759678721427917,-0.2034126967191696,-0.0371512360870838,-0.1650822758674621,0.2768513560295105,0.0,0.0,-0.9482569098472596,-0.4380565881729126
-0.1460460722446441,0.6749656796455383,-0.2130711823701858,-0.0430142283439636,-0.1507744193077087,0.2861571013927459,0.0,0.0,-0.9209895133972168,0.2883367538452148
-0.1481250822544098,0.6738337278366089,-0.2227043360471725,-0.0488788858056068,-0.1360006183385849,0.295475572347641,0.0,0.0,-0.9563416838645936,0.1312880516052246
-0.1502950638532638,0.6725720167160034,-0.2323095351457595,-0.0547452643513679,-0.1207603961229324,0.304804265499115,0.0,0.0,-0.9452728033065796,0.878727912902832
-0.1525042504072189,0.6711695194244385,-0.2354013472795486,-0.061226449906826,-0.1063700541853904,0.2878066897392273,0.0,0.0,-0.7799862623214722,0.8076260089874268
-0.154728889465332,0.6696298718452454,-0.2355299293994903,-0.0675495341420173,-0.0934049636125564,0.259302020072937,0.0,0.0,-0.8467847108840942,0.9520905017852784
-0.1569615304470062,0.6679400205612183,-0.23471100628376,-0.0744293555617332,-0.0820663273334503,0.2267727553844452,0.0,0.0,-0.8200293779373169,0.9014449119567872
-0.1591953337192535,0.6661157011985779,-0.2330632209777832,-0.0805871859192848,-0.0724866092205047,0.191594660282135,0.0,0.0,-0.7998862862586975,0.9730486869812012
-0.1614443808794021,0.6641600131988525,-0.2331688851118087,-0.0865355432033538,-0.0643015429377555,0.1637012660503387,0.0,0.0,-0.486080527305603,0.8717303276062012
-0.163696676492691,0.6620749235153198,-0.2318069636821746,-0.0924020484089851,-0.0577936507761478,0.1301577389240265,0.0,0.0,-0.919015109539032,0.9859309196472168
-0.1659495383501052,0.6598505973815918,-0.2301071584224701,-0.09867774695158,-0.0530299469828605,0.0952742770314216,0.0,0.0,-0.8683851361274719,0.9829466342926024
-0.1682130843400955,0.657498300075531,-0.2296963185071945,-0.104435034096241,-0.0497308075428009,0.0659830421209335,0.0,0.0,-0.975847065448761,0.9995611906051636
-0.1704765260219574,0.6550163626670837,-0.227945014834404,-0.1102590337395668,-0.0481537915766239,0.0315403826534748,0.0,0.0,-0.9086070656776428,0.992847204208374
-0.1727376878261566,0.6523908972740173,-0.2259153127670288,-0.116689421236515,-0.0483525544404983,-0.0039753373712301,0.0,0.0,-0.8690686821937561,0.998714566230774
-0.1750216484069824,0.6496307253837585,-0.2270588427782058,-0.1227199137210846,-0.0496705397963523,-0.0263599120080471,0.0,0.0,-0.9695353507995604,0.99680757522583
-0.1773285865783691,0.6467313766479492,-0.2282473742961883,-0.1289458125829696,-0.0520866326987743,-0.0483216121792793,0.0,0.0,-0.8828591108322144,0.9985619783401488
-0.1796433478593826,0.6436935663223267,-0.227568119764328,-0.1351552605628967,-0.0559569261968135,-0.0774059444665908,0.0,0.0,-0.9087255597114564,0.9683904647827148
-0.1819614470005035,0.6405155062675476,-0.2263263463973999,-0.1414612382650375,-0.0613773018121719,-0.1084075570106506,0.0,0.0,-0.9027199149131776,0.9597434997558594
-0.184269517660141,0.637188732624054,-0.2234440147876739,-0.1481778770685196,-0.06866504997015,-0.1457551717758178,0.0,0.0,-0.9602275490760804,0.987433671951294
-0.1865675896406173,0.6337257623672485,-0.220596358180046,-0.1543593108654022,-0.0777783021330833,-0.1822649985551834,0.0,0.0,-0.9562801718711852,0.985736846923828
-0.1888635605573654,0.6301319003105164,-0.2187902927398681,-0.1603255718946457,-0.0884780511260032,-0.2139951437711715,0.0,0.0,-0.3184768557548523,0.9430630207061768
