x_pos,y_pos,x_vel,y_vel,angle,ang_vel,leg_1,leg_2,main_booster,lat_booster
-0.0014999390114098,1.4031013250350952,-0.1516837775707245,-0.3475075662136078,0.0015068058855831,0.029704462736845,0.0,0.0,-0.3958649979433279,0.6158628079269325
-0.0029251098167151,1.3947794437408447,-0.1424130052328109,-0.3698635101318359,0.0014041224494576,-0.002053496427834,0.0,0.0,0.9937363921916256,-0.7418360009184777
-0.0042140008881688,1.386659860610962,-0.1304855793714523,-0.3608724772930145,0.0029705676715821,0.0313320457935333,0.0,0.0,-0.7970299729015546,0.8101392479521847
-0.0054323198273777,1.3780144453048706,-0.1218629702925682,-0.3842438757419586,0.0030019073747098,0.000627038127277,0.0,0.0,0.2241411470237786,-0.6137237664880608
-0.0065763471648097,1.369572639465332,-0.1156157702207565,-0.3751921057701111,0.0042003556154668,0.0239712465554475,0.0,0.0,-0.458944032654861,0.9116516454584824
-0.0076158521696925,1.360606670379639,-0.1026749387383461,-0.3984824120998382,0.0029375001322478,-0.0252594836056232,0.0,0.0,0.9792848025095258,-0.9189361967982212
-0.0087445257231593,1.3521547317504885,-0.1131224632263183,-0.3756380677223205,0.0031891523394733,0.0050334478728473,0.0,0.0,-0.5127458391306869,-0.9358416948012264
-0.0099154468625783,1.34318208694458,-0.1185097321867942,-0.3987971246242523,0.0045897541567683,0.0280146803706884,0.0,0.0,0.8547887701576622,0.740667233941178
-0.0110356332734227,1.3351035118103027,-0.1116689294576644,-0.3590437173843384,0.0042444318532943,-0.0069066556170582,0.0,0.0,0.3838921357708813,0.972187425737514
-0.0120728490874171,1.327420711517334,-0.1011742129921913,-0.3414524495601654,0.0017313560238108,-0.0502663627266883,0.0,0.0,-0.7011808637378059,-0.6036894110866553
-0.0131427766755223,1.319214940071106,-0.1052403002977371,-0.3646985590457916,3.3870355764520355e-06,-0.0345625095069408,0.0,0.0,0.3507645161555153,0.7026445368028646
-0.0140866283327341,1.3111324310302734,-0.0911067947745323,-0.35922372341156,-0.0032472845632582,-0.065019354224205,0.0,0.0,-0.5649184793483846,0.6503526654735113
-0.0149637218564748,1.3025299310684204,-0.0825971513986587,-0.3823559582233429,-0.0083032650873065,-0.1011286750435829,0.0,0.0,-0.1362984585145656,0.7146046816825823
-0.0157753936946392,1.2933971881866455,-0.0742131695151329,-0.4059527814388275,-0.0151749234646558,-0.1374457329511642,0.0,0.0,0.2986883891991851,0.9198001144644524
-0.0163757316768169,1.2847188711166382,-0.05109703540802,-0.3858143389225006,-0.0240096319466829,-0.1767104417085647,0.0,0.0,0.1317267183066197,-0.7951248255977119
-0.0169485099613666,1.275813341140747,-0.0497590154409408,-0.3959410488605499,-0.0314341485500335,-0.1485036164522171,0.0,0.0,0.2772839986413009,0.8202798648551545
-0.0173168182373046,1.267377853393555,-0.0275752898305654,-0.37513068318367,-0.0405908599495887,-0.1831509321928024,0.0,0.0,0.2998833363601068,-0.6415159158161378
-0.0176043510437011,1.2588520050048828,-0.0207836348563432,-0.3791648745536804,-0.0484794601798057,-0.1577864289283752,0.0,0.0,0.9122301819226646,0.841343656398334
-0.0176633838564157,1.2511898279190063,0.0037231990136206,-0.3408659696578979,-0.0580112673342227,-0.1906535476446151,0.0,0.0,0.738481279027428,-0.9161537386344434
-0.0178625099360942,1.2439117431640625,-0.0117356786504387,-0.3238135576248169,-0.0661013275384903,-0.1618157476186752,0.0,0.0,0.7970423794288708,-0.8429274291598463
-0.0179306976497173,1.2373325824737549,-0.0004178438393864,-0.2926957905292511,-0.0724474340677261,-0.1269336193799972,0.0,0.0,0.5895278775014114,0.6245345780405932
-0.0179182048887014,1.2308576107025146,0.0091120637953281,-0.2881720960140228,-0.0802337080240249,-0.1557395458221435,0.0,0.0,-0.0971838783352387,0.9875980304649844
-0.0178237911313772,1.2238481044769287,0.01991549693048,-0.3121342360973358,-0.090631179511547,-0.2079682052135467,0.0,0.0,-0.0232097087776745,-0.7250004606967524
-0.0177947040647268,1.2163153886795044,0.012324096634984,-0.3353745639324188,-0.0999737381935119,-0.1868679821491241,0.0,0.0,0.1473328322862119,-0.7133867195823509
-0.0179040916264057,1.2089550495147705,-0.0026269624941051,-0.3277000188827514,-0.1082345694303512,-0.1652313023805618,0.0,0.0,0.0599258139100893,-0.7330809626495393
-0.0181478504091501,1.201755404472351,-0.0172321014106273,-0.3205153048038482,-0.1153274551033973,-0.1418575942516327,0.0,0.0,-0.6105767706866208,0.965792457872743
-0.0183335300534963,1.1940265893936155,-0.009270186536014,-0.3442511260509491,-0.1245732903480529,-0.1849168539047241,0.0,0.0,0.8531074458890584,0.9844976513022596
-0.018508244305849,1.1871801614761353,-0.0057531469501554,-0.305307924747467,-0.136245921254158,-0.2334524095058441,0.0,0.0,-0.8407866681164069,-0.6337978515627074
-0.0187643058598041,1.1798301935195925,-0.0152257550507783,-0.327653020620346,-0.1465872377157211,-0.2068267613649368,0.0,0.0,0.2550638292019118,0.9360556317864333
-0.0189340598881244,1.1724929809570312,-0.0045308144763112,-0.327372282743454,-0.1590210795402526,-0.2486768960952758,0.0,0.0,-0.505976415582033,-0.8536125364250307
-0.0191908832639455,1.1646597385406494,-0.0147091252729296,-0.3493536114692688,-0.17000213265419,-0.2196207046508789,0.0,0.0,0.9510905814537708,0.822388793666971
-0.019420051947236,1.157075047492981,-0.0099038202315568,-0.3386417925357818,-0.1830521076917648,-0.2609994113445282,0.0,0.0,-0.2470145702117399,0.7750959783267534
-0.0196218490600585,1.1489627361297607,-0.0056663174182176,-0.3624021112918854,-0.1976429969072342,-0.2918176651000976,0.0,0.0,0.8619947800763199,-0.6036131822067453
-0.0198930744081735,1.1409595012664795,-0.0134505201131105,-0.3575816452503204,-0.2114307731389999,-0.2757552862167358,0.0,0.0,0.7464757308908041,-0.8423388490190925
-0.0200986862182617,1.1334248781204224,-0.0084387874230742,-0.3366522192955017,-0.2236882299184799,-0.2451492995023727,0.0,0.0,0.244147881012517,0.7583095299650067
-0.0201317779719829,1.126183271408081,0.0104617662727832,-0.3239927291870117,-0.237648457288742,-0.2792042791843414,0.0,0.0,0.8148864601426629,0.9980123842638178
-0.0200315471738576,1.11913001537323,0.0259614493697881,-0.3161391019821167,-0.2538663446903229,-0.3243579864501953,0.0,0.0,-0.7297346474202584,-0.952679161195945
-0.0200276374816894,1.11159086227417,0.0146820619702339,-0.3376199007034302,-0.2684648036956787,-0.2919691205024719,0.0,0.0,-0.6585261251639116,0.9801677575132536
-0.0199821479618549,1.1035138368606567,0.0207575801759958,-0.3620392084121704,-0.2850972712039947,-0.332649290561676,0.0,0.0,-0.8924784017349947,-0.6184067027105193
-0.0200118068605661,1.0949379205703735,0.012192403897643,-0.3841897845268249,-0.3007175624370575,-0.3124057948589325,0.0,0.0,0.8898645871355464,-0.9152680037919936
-0.0200050361454486,1.0872175693511963,0.0143609344959259,-0.3460164666175842,-0.3148842453956604,-0.2833341360092163,0.0,0.0,-0.4856094121932983,-0.9626448154449464
-0.0200878139585256,1.079003095626831,0.0040051625110208,-0.3678145110607147,-0.3276710212230682,-0.2557354271411896,0.0,0.0,-0.2241559028625488,-0.9926548004150392
-0.0202676765620708,1.070288896560669,-0.0071951709687709,-0.389774888753891,-0.3389435112476349,-0.2254498898983001,0.0,0.0,-0.1936761140823364,-0.9852440357208252
-0.0205421447753906,1.061084270477295,-0.0181345250457525,-0.4113173484802246,-0.3487046062946319,-0.1952216476202011,0.0,0.0,-0.9365013837814332,-0.9761554598808287
-0.0209299083799123,1.0513893365859983,-0.0313588455319404,-0.4327101707458496,-0.3565088510513305,-0.1560850590467453,0.0,0.0,-0.1303192973136901,-0.7592512965202332
-0.0214053150266408,1.041194200515747,-0.0413423031568527,-0.4546761512756347,-0.3630437552928924,-0.1306979358196258,0.0,0.0,-0.7904326915740967,-0.9909309148788452
-0.021981906145811,1.0305089950561523,-0.053056389093399,-0.4760697484016418,-0.3679110705852508,-0.0973461121320724,0.0,0.0,-0.7038300633430481,-0.9744534492492676
-0.0226755142211914,1.0193603038787842,-0.0668795555830001,-0.496141642332077,-0.3705378770828247,-0.0525363273918628,0.0,0.0,-0.7814252972602844,-0.9914548397064208
-0.0234907157719135,1.00774884223938,-0.0812617093324661,-0.5161363482475281,-0.3708089292049408,-0.0054212426766753,0.0,0.0,-0.8173102140426636,-0.9677551984786988
-0.024415398016572,0.9956547617912292,-0.094024010002613,-0.5371066331863403,-0.3691600263118744,0.03297795727849,0.0,0.0,-0.8155516386032104,-0.9700101017951964
-0.0254298206418752,0.9830693602561952,-0.1043251007795333,-0.5586104989051819,-0.3661223948001861,0.0607527792453765,0.0,0.0,-0.8032354116439819,-0.922426462173462
-0.0265527721494436,0.970009982585907,-0.1170300468802452,-0.5792176723480225,-0.3611232042312622,0.0999845787882804,0.0,0.0,-0.6487255692481995,-0.918986201286316
-0.0277682300657033,0.956454873085022,-0.1276411265134811,-0.6009307503700256,-0.3547008633613586,0.1284465789794922,0.0,0.0,-0.6630294322967529,-0.929079532623291
-0.0290858261287212,0.9424235224723816,-0.1395774036645889,-0.6217085123062134,-0.3464797139167785,0.1644228100776672,0.0,0.0,-0.6576452255249023,-0.8598306179046631
-0.0304882042109966,0.9278932809829712,-0.1492413878440857,-0.6436517834663391,-0.3370352387428283,0.1888893842697143,0.0,0.0,-0.6705377697944641,-0.7418176531791687
-0.0319911018013954,0.912871778011322,-0.1609362661838531,-0.6651724576950073,-0.3259256482124328,0.2221920490264892,0.0,0.0,-0.3997412323951721,0.3596693277359009
-0.0335302352905273,0.8973289728164673,-0.1645160615444183,-0.6884396076202393,-0.3148962259292602,0.2205884903669357,0.0,0.0,-0.5383027791976929,-0.008343756198883
-0.0351056084036827,0.8812647461891174,-0.1681099236011505,-0.7117063403129578,-0.3039369881153106,0.2191849499940872,0.0,0.0,-0.1161316633224487,0.7097091674804688
-0.0366559028625488,0.8646576404571533,-0.1640078127384185,-0.7362440228462219,-0.2946540415287018,0.1856589615345001,0.0,0.0,-0.0563109517097473,0.3162498474121094
-0.0382425300776958,0.8475285768508911,-0.167623221874237,-0.7595073580741882,-0.2854201197624206,0.1846775710582733,0.0,0.0,-0.0356824398040771,0.293572187423706
-0.0398655906319618,0.8298776149749756,-0.1712474524974823,-0.7827703356742859,-0.276224285364151,0.1839160770177841,0.0,0.0,0.579694390296936,0.8772189617156982
-0.0413780212402343,0.8126920461654663,-0.1583070307970047,-0.7624810934066772,-0.2689771056175232,0.1449438631534576,0.0,0.0,-0.0833160877227783,0.2954461574554443
-0.0429266914725303,0.7949841618537903,-0.1619428247213363,-0.7857409715652466,-0.261745274066925,0.1446364223957061,0.0,0.0,0.0518895387649536,0.6459574699401855
-0.0443449988961219,0.7772934436798096,-0.1476438194513321,-0.7852257490158081,-0.2558054625988006,0.1187964528799057,0.0,0.0,0.4056770801544189,0.0120197534561157
-0.0457067489624023,0.7595725655555725,-0.1420410126447677,-0.7865937352180481,-0.2498269975185394,0.1195693239569664,0.0,0.0,0.4461880922317505,0.1822351217269897
-0.0470817573368549,0.742120623588562,-0.1428985893726349,-0.7747303247451782,-0.2443302422761917,0.1099351793527603,0.0,0.0,0.1090439558029174,0.146766185760498
-0.04833984375,0.7249767780303955,-0.1313079893589019,-0.7610477209091187,-0.2387356609106063,0.1118916422128677,0.0,0.0,0.0408788919448852,0.3811925649642944
-0.0495399460196495,0.7075600028038025,-0.1257998049259185,-0.7731472849845886,-0.2328592091798782,0.117528960108757,0.0,0.0,-0.2073544263839721,0.2471312284469604
-0.0507758148014545,0.6896202564239502,-0.1294346153736114,-0.7964041829109192,-0.2269287407398224,0.1186092719435691,0.0,0.0,0.5477726459503174,-0.4746289253234863
-0.0520333275198936,0.6718354225158691,-0.1312731206417083,-0.7895950675010681,-0.2213409543037414,0.1117561012506485,0.0,0.0,0.7467848062515259,-0.595914363861084
-0.053316306322813,0.6546276807785034,-0.1348226815462112,-0.7638281583786011,-0.2147412151098251,0.1319948732852935,0.0,0.0,0.4438319206237793,-0.0212346315383911
-0.0544921867549419,0.6376854181289673,-0.1243409067392349,-0.7520235776901245,-0.2079305201768875,0.1362137496471405,0.0,0.0,-0.5181862711906433,0.068338394165039
-0.0557031631469726,0.6202203035354614,-0.1279440522193908,-0.7752810716629028,-0.2010230123996734,0.1381499320268631,0.0,0.0,0.4279727935791015,0.1028680801391601
-0.0567869171500206,0.6029468178749084,-0.1156361252069473,-0.7667397856712341,-0.1937151253223419,0.1461580693721771,0.0,0.0,0.2321449518203735,-0.0669581890106201
-0.0578736290335655,0.5855870842933655,-0.1159498319029808,-0.7706090807914734,-0.1864074915647506,0.1461528688669204,0.0,0.0,0.1137343645095825,0.2278093099594116
-0.0589091293513774,0.5680148601531982,-0.1111565381288528,-0.7800511121749878,-0.178762748837471,0.1528947651386261,0.0,0.0,0.9184036254882812,0.6531331539154053
-0.0598972328007221,0.5504918098449707,-0.1051621884107589,-0.7780515551567078,-0.1723992228507995,0.1272704899311065,0.0,0.0,0.911482572555542,-0.2765929698944092
-0.0607712753117084,0.5338043570518494,-0.0938514992594719,-0.7409294247627258,-0.1659387797117233,0.1292087584733963,0.0,0.0,0.3872976303100586,-0.1422034502029419
-0.0614992156624794,0.5175907015800476,-0.0797221511602401,-0.7198521494865417,-0.1590181589126587,0.138412743806839,0.0,0.0,0.5807137489318848,0.0560604333877563
-0.0622426979243755,0.5020377039909363,-0.0809247866272926,-0.6905537247657776,-0.1524376273155212,0.1316102743148803,0.0,0.0,0.2373665571212768,-0.275896668434143
-0.0630770698189735,0.4863516092300415,-0.0897458121180534,-0.6965292692184448,-0.1461421102285385,0.1259102970361709,0.0,0.0,0.009546160697937,0.0538058280944824
-0.0638492554426193,0.4708538651466369,-0.0838191956281662,,-0.1395630091428756,0.1315818876028061,0.0,0.0,0.7791541814804077,0.084557294845581
-0.0646756142377853,0.4557764828205108,-0.0889011099934578,-0.6695319414138794,-0.1333132088184356,0.1249958053231239,0.0,0.0,0.6659872531890869,0.3347094058990478
-0.0654976814985275,0.4412031471729278,-0.0884123370051384,-0.6471593976020813,-0.1271382570266723,0.1234991922974586,0.0,0.0,0.4679028987884521,0.452667236328125
-0.0662831291556358,0.4270333051681518,-0.08488230407238,-0.6292452216148376,-0.1208265274763107,0.1262344568967819,0.0,0.0,-0.458288311958313,-0.102726936340332
-0.0670996680855751,0.4123404324054718,-0.0881939753890037,-0.6525020599365234,-0.1143241971731185,0.1300464272499084,0.0,0.0,0.8930472135543823,0.7480288743972778
-0.0678147301077842,0.3976864814758301,-0.0768084451556205,-0.6508914828300476,-0.109055757522583,0.1053689569234848,0.0,0.0,0.9645310640335084,0.0272059440612792
-0.0683982819318771,0.3832052946090698,-0.0643834099173545,-0.6431812047958374,-0.1030781865119934,0.1195513755083084,0.0,0.0,0.6665176153182983,0.3878812789916992
-0.0688050240278244,0.3690376281738281,-0.0475840792059898,-0.6292108297348022,-0.096211589872837,0.1373319029808044,0.0,0.0,0.949222207069397,0.8940408229827881
-0.0689464583992958,0.3549986779689789,-0.0198284499347209,-0.6235988140106201,-0.0905755162239074,0.1127214804291725,0.0,0.0,0.7951986789703369,0.2847476005554199
-0.0690491646528244,0.3416569232940674,-0.0161420665681362,-0.5926216840744019,-0.0847589820623397,0.1163304224610328,0.0,0.0,0.8745359182357788,0.4326781034469604
-0.0690726265311241,0.3290741443634033,-0.0085890535265207,-0.5588957667350769,-0.0785683244466781,0.123813010752201,0.0,0.0,0.4976615905761719,0.4475154876708984
-0.0689640045166015,0.3168593645095825,0.0038634948432445,-0.5425270795822144,-0.0716411396861076,0.1385435909032821,0.0,0.0,0.5023282766342163,0.835054874420166
-0.0686936378479003,0.3045388758182525,0.0213487409055233,-0.5473152995109558,-0.066016711294651,0.1124887689948082,0.0,0.0,0.6211788654327393,0.2370704412460327
-0.068468764424324,0.2924484014511108,0.0168207101523876,-0.5371153950691223,-0.0604120455682277,0.1120934337377548,0.0,0.0,0.826115608215332,0.6717547178268433
-0.068058393895626,0.2812567949295044,0.0362394116818904,-0.4972211420536041,-0.0556774623692035,0.0946915596723556,0.0,0.0,0.484857439994812,0.532139778137207
-0.0676260963082313,0.2703062295913696,0.0393508002161979,-0.4865520596504211,-0.0518356598913669,0.0768359899520874,0.0,0.0,-0.1454889774322509,0.2056249380111694
-0.0672190636396408,0.2588324546813965,0.0365945063531398,-0.5098076462745667,-0.0477701090276241,0.0813110619783401,0.0,0.0,0.7188880443572998,0.4323205947875976
-0.0667115226387977,0.2479168772697448,0.0459883660078048,-0.484990507364273,-0.0430606044828891,0.0941899269819259,0.0,0.0,0.3044303655624389,0.5383070707321167
-0.0662057846784591,0.2373700737953186,0.0467560030519962,-0.4686432182788849,-0.0392955876886844,0.0753006711602211,0.0,0.0,0.095178484916687,0.3036880493164062
-0.0657588019967079,0.2270473539829254,0.0409113578498363,-0.458696573972702,-0.0355569049715995,0.0747735947370529,0.0,0.0,0.3282467126846313,0.5456535816192627
-0.0652991309762001,0.2167985290288925,0.0431094393134117,-0.4554380476474762,-0.0327233634889125,0.0566707737743854,0.0,0.0,-0.0480790734291076,0.107319951057434
-0.0648613944649696,0.2060264945030212,0.0406671836972236,-0.4786933660507202,-0.0296608339995145,0.0612504854798316,0.0,0.0,0.8847578763961792,0.5497289896011353
-0.0645664185285568,0.1956319659948349,0.0278023239225149,-0.4619457125663757,-0.0279830303043127,0.0335558876395225,0.0,0.0,0.8225252628326416,0.5220198631286621
-0.0641045570373535,0.1858988404273986,0.044949997216463,-0.4325571060180664,-0.0267551857978105,0.0245567448437213,0.0,0.0,0.3221118450164795,0.1211274862289428
-0.0636055916547775,0.1760833114385604,0.0481844767928123,-0.4362177848815918,-0.025069648399949,0.0337109640240669,0.0,0.0,0.4356274604797363,-0.2889164686203003
-0.0629832297563552,0.1667339205741882,0.0596966966986656,-0.4154912829399109,-0.0225701462477445,0.0499903634190559,0.0,0.0,0.1667008399963379,-0.7033169269561768
-0.0624409690499305,0.1576914340257644,0.0500691756606102,-0.4018297791481018,-0.018461775034666,0.0821671858429908,0.0,0.0,-0.1328057050704956,-0.2647570967674255
-0.0619164481759071,0.1481259018182754,0.0480551533401012,-0.425086110830307,-0.0141220092773437,0.086795262992382,0.0,0.0,0.4996583461761474,0.2090893983840942
-0.0613323226571083,0.138824924826622,0.0534612834453582,-0.4133337736129761,-0.0092304293066263,0.0978317260742187,0.0,0.0,0.3757104873657226,0.3830715417861938
-0.0607640258967876,0.1300209909677505,0.0516564138233661,-0.3912647664546966,-0.0041351104155182,0.101906418800354,0.0,0.0,0.0349727869033813,0.5889911651611328
-0.0601200088858604,0.1214387044310569,0.0601380169391632,-0.3814283311367035,7.825902866898105e-05,0.0842673629522323,0.0,0.0,0.184909701347351,0.7156600952148438
-0.0593687072396278,0.1128230169415474,0.0719936341047287,-0.3829214870929718,0.0031766849569976,0.0619686543941497,0.0,0.0,0.6707656383514404,-0.8962832689285278
-0.0588422790169715,0.1046228259801864,0.0476694516837596,-0.3644720017910003,0.0080783907324075,0.0980341285467147,0.0,0.0,0.3878471851348877,0.0688223838806152
-0.0584403984248638,0.0965470895171165,0.035491544753313,-0.358957976102829,0.0127122569829225,0.0926774516701698,0.0,0.0,0.6442641019821167,0.8577475547790527
-0.0580140128731727,0.0887900665402412,0.0394753888249397,-0.3447853624820709,0.015832869336009,0.0624120719730854,0.0,0.0,0.6881892681121826,0.8333864212036133
-0.0575125701725482,0.081328235566616,0.0483789183199405,-0.3316575884819031,0.0175777561962604,0.0348980464041233,0.0,0.0,0.7509944438934326,0.9185540676116944
-0.0568016991019248,0.073912389576435,0.0706885829567909,-0.3295978307723999,0.0179704204201698,0.0078529259189963,0.0,0.0,0.7447513341903687,-0.6786137223243713
-0.0560560226440429,0.0670609548687934,0.0723101422190666,-0.3045366704463959,0.0201995484530925,0.0445825979113578,0.0,0.0,0.1722787618637085,0.8013756275177002
-0.0552474968135356,0.0605549924075603,0.0799614712595939,-0.2891673743724823,0.021079234778881,0.0175939090549945,0.0,0.0,0.1612392663955688,0.0481433868408203
-0.0544074065983295,0.0538561195135116,0.0826741605997085,-0.2977481186389923,0.0223944168537855,0.0263035353273153,0.0,0.0,0.6587083339691162,0.0538480281829834
