x_pos,y_pos,x_vel,y_vel,angle,ang_vel,leg_1,leg_2,main_booster,lat_booster
-0.0015233993763104,1.4032703638076782,-0.1548230051994323,-0.3399915993213653,0.0022201412357389,0.0438286736607551,0.0,0.0,-0.3741393685340881,0.7916027307510376
-0.0029808997642248,1.395285964012146,-0.1466775238513946,-0.3548643887042999,0.0031316394452005,0.018232537433505,0.0,0.0,-0.3116806745529175,0.435184121131897
-0.0044415472075343,1.3869469165802002,-0.1474409252405166,-0.3706288337707519,0.0044884174130856,0.0271381232887506,0.0,0.0,-0.6705173254013062,0.973515510559082
-0.0058455467224121,1.3782508373260498,-0.1406615227460861,-0.3864919543266296,0.0047437851317226,0.0051083429716527,0.0,0.0,-0.2147993445396423,0.8638942241668701
-0.0071735382080078,1.3692039251327517,-0.1314049065113067,-0.4020805358886719,0.0033698061015456,-0.0274824649095535,0.0,0.0,0.2157156467437744,0.5355057716369629
-0.0083580967038869,1.3604023456573486,-0.1166779547929763,-0.3911772966384887,0.0016223170096054,-0.0349531546235084,0.0,0.0,-0.0891266465187072,0.5787506103515625
-0.0095080379396677,1.35124671459198,-0.1125645264983177,-0.4069177210330963,-0.0007851842674426,-0.0481545962393283,0.0,0.0,-0.121546447277069,0.5373661518096924
-0.0106160165742039,1.34173846244812,-0.1074731945991516,-0.4225909411907196,-0.0040775807574391,-0.0658540651202201,0.0,0.0,0.6615633964538574,-0.1873034238815307
-0.0117448810487985,1.3331385850906372,-0.1099499687552452,-0.3822236955165863,-0.0069864927791059,-0.0581833235919475,0.0,0.0,-0.5179771780967712,0.4535218477249145
-0.0128873828798532,1.3241844177246094,-0.1117497906088829,-0.397975742816925,-0.0094560617581009,-0.0493957623839378,0.0,0.0,-0.7640315294265747,0.5230534076690674
-0.0139975547790527,1.3148759603500366,-0.1077683791518211,-0.4137332141399383,-0.0126724112778902,-0.0643330514430999,0.0,0.0,-0.6066438555717468,0.7869226932525635
-0.0150545118376612,1.3052105903625488,-0.1011232733726501,-0.4296206831932068,-0.0171949453651905,-0.0904590189456939,0.0,0.0,-0.2485178709030151,-0.0924895405769348
-0.0161287300288677,1.2951910495758057,-0.1032802239060401,-0.4453631937503814,-0.0212829522788524,-0.081767737865448,0.0,0.0,-0.6606839299201965,0.7445800304412842
-0.0171558372676372,1.28480863571167,-0.0973489210009574,-0.4615302979946136,-0.0265861265361309,-0.1060730814933776,0.0,0.0,-0.5564484000205994,-0.409043550491333
-0.0182022098451852,1.2740720510482788,-0.0997154265642166,-0.4772731065750122,-0.0314596816897392,-0.0974799841642379,0.0,0.0,-0.2754872441291809,-0.4877891540527344
-0.0192689895629882,1.262981414794922,-0.1021808236837387,-0.493015706539154,-0.0359078533947467,-0.0889714956283569,0.0,0.0,0.295978307723999,-0.413110077381134
-0.0202248580753803,1.252536654472351,-0.0920379683375358,-0.4642973840236664,-0.0394263081252574,-0.0703753232955932,0.0,0.0,-0.6806831359863281,0.0958596467971801
-0.0212030410766601,1.2417376041412354,-0.0946857333183288,-0.4800470173358917,-0.0425269082188606,-0.0620178692042827,0.0,0.0,-0.7946467399597168,0.3775508403778076
-0.0222043991088867,1.2305841445922852,-0.0974147319793701,-0.4957850873470306,-0.0452134013175964,-0.0537346228957176,0.0,0.0,-0.7365901470184326,-0.7375698685646057
-0.0232956893742084,1.2190805673599243,-0.1085026115179061,-0.5112922191619873,-0.0458291620016098,-0.0123164663091301,0.0,0.0,-0.2289249897003173,-0.4492421150207519
-0.0244116783142089,1.2072224617004397,-0.1113865822553634,-0.5270325541496277,-0.0460419431328773,-0.0042561464942991,0.0,0.0,-0.7327232360839844,0.0537453889846801
-0.0255532264709472,1.19500994682312,-0.1143377572298049,-0.5427728891372681,-0.0458564572036266,0.0037100906483829,0.0,0.0,0.1386046409606933,0.282245397567749
-0.0266142841428518,1.1829992532730105,-0.1071142181754112,-0.5337846875190735,-0.0448633693158626,0.0198634341359138,0.0,0.0,-0.0968003273010253,-0.26105797290802
-0.0277022365480661,1.1706339120864868,-0.1101890429854393,-0.5495288372039795,-0.0434859693050384,0.0275504775345325,0.0,0.0,-0.6712868809700012,0.1286859512329101
-0.0288176536560058,1.157914161682129,-0.1133179292082786,-0.5652685165405273,-0.0417312234640121,0.0350980535149574,0.0,0.0,-0.2749844789505005,0.5877783298492432
-0.0299263000488281,1.144819736480713,-0.1121282428503036,-0.5819465517997742,-0.0404931493103504,0.024761613458395,0.0,0.0,-0.567961573600769,0.2808691263198852
-0.0310636516660451,1.1313707828521729,-0.1153487712144851,-0.5976849794387817,-0.0388948209583759,0.031966783106327,0.0,0.0,-0.7415722012519836,0.5296249389648438
-0.0321969985961914,1.1175711154937744,-0.1144824475049972,-0.6132861375808716,-0.0377702414989471,0.0224917270243167,0.0,0.0,-0.9554747343063354,0.0599540472030639
-0.0333601012825965,1.1034172773361206,-0.1177839636802673,-0.6290246844291687,-0.0363057367503643,0.0292898826301097,0.0,0.0,-0.4468153715133667,-0.0608834028244018
-0.0345531478524208,1.0889090299606323,-0.1211211681365966,-0.6447635293006897,-0.0345127396285533,0.0358600057661533,0.0,0.0,-0.2545100450515747,0.3144130706787109
-0.03577671200037,1.074046611785889,-0.1244910508394241,-0.6605024337768555,-0.0324034877121448,0.0421848781406879,0.0,0.0,-0.91594135761261,0.6272022724151611
-0.0369880683720111,1.0588243007659912,-0.1224780231714248,-0.676521360874176,-0.0310780070722103,0.0265095271170139,0.0,0.0,-0.6469430327415466,-0.5406295657157898
-0.0382793433964252,1.0432549715042114,-0.1319953799247741,-0.6919082999229431,-0.02824024297297,0.056755430996418,0.0,0.0,-0.8867711424827576,0.5249395370483398
-0.0395651832222938,1.0273252725601196,-0.1307967156171798,-0.7079474925994873,-0.0260625462979078,0.0435539297759532,0.0,0.0,0.1786425113677978,0.2880882024765014
-0.0408599860966205,1.011711835861206,-0.1319968402385711,-0.6938853859901428,-0.0235731732100248,0.0497872754931449,0.0,0.0,-0.8573934435844421,0.5449686050415039
-0.0421426780521869,0.9957467317581176,-0.1299100816249847,-0.7095310688018799,-0.0219589490443468,0.0322845354676246,0.0,0.0,-0.8715739250183105,0.7276725769042969
-0.0434032455086708,0.9794220328330994,-0.1265167593955993,-0.7255372405052185,-0.0215058866888284,0.0090614091604948,0.0,0.0,-0.1759136915206909,0.3579425811767578
-0.0446970947086811,0.9627431035041808,-0.1300422847270965,-0.7412764430046082,-0.0208482779562473,0.0131522370502352,0.0,0.0,-0.1370962858200073,-0.3855562210083008
-0.0460243225097656,0.9457100033760072,-0.1335809528827667,-0.7570157647132874,-0.0200057625770568,0.0168505012989044,0.0,0.0,0.2205846309661865,-0.2525321245193481
-0.0473555549979209,0.9289956092834472,-0.134241297841072,-0.7428483963012695,-0.0189022421836853,0.022070525214076,0.0,0.0,-0.5635076761245728,-0.0729647874832153
-0.0487208366394043,0.9119269251823424,-0.137800320982933,-0.7585878372192383,-0.017655486240983,0.0249354410916566,0.0,0.0,-0.8293061256408691,-0.1825103163719177
-0.0501206405460834,0.8945042490959167,-0.1413667500019073,-0.7743273377418518,-0.0162873603403568,0.0273623764514923,0.0,0.0,-0.6011282801628113,0.7127119302749634
-0.051489733159542,0.8767178654670715,-0.1367296278476715,-0.7905064225196838,-0.0164668969810009,-0.0035905842669308,0.0,0.0,-0.5512657761573792,0.3357954025268554
-0.052893828600645,0.8585772514343262,-0.1403055191040039,-0.8062458634376526,-0.0165705513209104,-0.0020731468684971,0.0,0.0,-0.151690125465393,0.4513247013092041
-0.054333209991455,0.840082585811615,-0.1438836306333542,-0.8219853639602661,-0.0166216827929019,-0.0010227283928543,0.0,0.0,0.6157267093658447,-0.115793228149414
-0.055757712572813,0.8217228651046753,-0.1426364034414291,-0.8159894943237305,-0.0164361037313938,0.0037113488651812,0.0,0.0,0.7350786924362183,0.5829510688781738
-0.0570953376591205,0.803706705570221,-0.1329651176929474,-0.8007234930992126,-0.0172259919345378,-0.0157978367060422,0.0,0.0,0.619918704032898,0.0614060163497924
-0.05856504291296,0.7865654826164246,-0.1456320136785507,-0.7618492841720581,-0.0185443181544542,-0.0263665076345205,0.0,0.0,-0.578858494758606,0.4847480058670044
-0.060070801526308,0.7690701484680176,-0.1492034941911697,-0.7775891423225403,-0.0199047420173883,-0.0272085554897785,0.0,0.0,0.5500707626342773,-0.1847604513168335
-0.0616232864558696,0.7519369125366211,-0.1537103503942489,-0.7614959478378296,-0.021422466263175,-0.0303545631468296,0.0,0.0,-0.8812913298606873,0.737380862236023
-0.0631401091814041,0.7344473600387573,-0.14820596575737,-0.7773741483688354,-0.0248443521559238,-0.0684377327561378,0.0,0.0,0.6438493728637695,-0.5857653617858887
-0.0647831931710243,0.7177106738090515,-0.1617565751075744,-0.7438936233520508,-0.0273653455078601,-0.0504199378192424,0.0,0.0,0.601209282875061,0.5231893062591553
-0.0662964805960655,0.7012569308280945,-0.1478923112154007,-0.7313458919525146,-0.0307585354894399,-0.0678639709949493,0.0,0.0,-0.287836492061615,0.7271549701690674
-0.0677886977791786,0.6844534277915955,-0.1441538631916046,-0.7469375133514404,-0.0357586108148098,-0.1000014916062355,0.0,0.0,-0.2958110570907593,0.4075286388397217
-0.0693178176879882,0.6672961115837097,-0.1476723849773407,-0.7626796960830688,-0.0409325063228607,-0.1034782528877258,0.0,0.0,0.6466214656829834,-0.1501833796501159
-0.0709597617387771,0.6504949331283569,-0.1583234220743179,-0.746892511844635,-0.0467402972280979,-0.1161558181047439,0.0,0.0,-0.4204856157302856,-0.1556054353713989
-0.0726387947797775,0.6333402395248413,-0.1618133038282394,-0.7626357674598694,-0.0527599267661571,-0.1203924790024757,0.0,0.0,0.90938401222229,-0.5300025343894958
-0.0741866081953048,0.6169914603233337,-0.1500360518693924,-0.7267841100692749,-0.0574579425156116,-0.0939602553844451,0.0,0.0,0.2240560054779052,0.5473635196685791
-0.0756323784589767,0.6011993288993835,-0.138597622513771,-0.7021128535270691,-0.0633695125579834,-0.1182314604520797,0.0,0.0,0.0270309448242187,-0.5643620491027832
-0.077181339263916,0.5857991576194763,-0.1497217714786529,-0.6846815943717957,-0.0684954151511192,-0.1025178655982017,0.0,0.0,-0.8923027515411377,0.2112060785293579
-0.0787673965096473,0.5700454115867615,-0.1531374603509903,-0.7004249095916748,-0.0738979429006576,-0.1080506667494773,0.0,0.0,-0.3703562617301941,0.3416793346405029
-0.0803901702165603,0.5539382696151733,-0.1565309762954712,-0.7161686420440674,-0.0795909613370895,-0.1138602495193481,0.0,0.0,-0.2980052828788757,0.2534201145172119
-0.0820497497916221,0.5374777317047119,-0.1599008589982986,-0.7319129109382629,-0.0855873823165893,-0.1199285387992858,0.0,0.0,0.9360349178314208,-0.7915620803833008
-0.083716869354248,0.521742582321167,-0.1619986444711685,-0.6996157765388489,-0.0902559161186218,-0.0933706611394882,0.0,0.0,0.7728095054626465,0.3709549903869629
-0.0853732079267501,0.5062955021858215,-0.1606413424015045,-0.6868492364883423,-0.0952123403549194,-0.099128358066082,0.0,0.0,-0.4060010910034179,-0.0643430352210998
-0.0870658904314041,0.4904949963092804,-0.1639307290315628,-0.7025935649871826,-0.1005057990550994,-0.1058690696954727,0.0,0.0,-0.6136260628700256,0.4420480728149414
-0.0887946113944053,0.4743411540985107,-0.1671900749206543,-0.7183383703231812,-0.1061459183692932,-0.1128022298216819,0.0,0.0,0.6337559223175049,0.6706609725952148
-0.0903883948922157,0.4582351744174957,-0.1521905958652496,-0.716347873210907,-0.1132891103625297,-0.1428638845682144,0.0,0.0,0.7959356307983398,-0.0402572154998779
-0.0918835625052452,0.4431544542312622,-0.1421087086200714,-0.6708372831344604,-0.1206602454185485,-0.1474227011203766,0.0,0.0,0.1117364168167114,-0.4381394386291504
-0.0934386253356933,0.4282066822052002,-0.1474249362945556,-0.665020227432251,-0.1286956816911697,-0.1607089042663574,0.0,0.0,-0.6291026473045349,0.2128908634185791
-0.0950285941362381,0.412906289100647,-0.1505474150180816,-0.6807692646980286,-0.1371094733476638,-0.1682759821414947,0.0,0.0,0.2818872928619385,0.0209783315658569
-0.0965636223554611,0.3979660868644714,-0.144775852560997,-0.664836585521698,-0.1457977145910263,-0.1737648397684097,0.0,0.0,-0.4346551895141601,-0.1307982802391052
-0.0981328040361404,0.3826734125614166,-0.1478190422058105,-0.680587112903595,-0.154876708984375,-0.1815800964832306,0.0,0.0,-0.0686256885528564,-0.4626467823982239
-0.0997357368469238,0.3670286238193512,-0.1508198678493499,-0.6963386535644531,-0.1643519550561905,-0.1895050704479217,0.0,0.0,0.9033849239349364,-0.7955132722854614
-0.1014030426740646,0.3517180681228637,-0.1583531647920608,-0.6814171075820923,-0.1727296113967895,-0.1675530970096588,0.0,0.0,0.7094056606292725,-0.7882745265960693
-0.103031538426876,0.3365399837493896,-0.1558108776807785,-0.6754176616668701,-0.1797916144132614,-0.141240045428276,0.0,0.0,0.9343359470367432,-0.8381301164627075
-0.1047276481986045,0.3216161727905273,-0.1637520343065261,-0.6640017628669739,-0.1856715530157089,-0.1175986751914024,0.0,0.0,0.937107801437378,-0.7261748313903809
-0.1063501387834549,0.3077359199523926,-0.1574161201715469,-0.6175143122673035,-0.1905297189950943,-0.097163014113903,0.0,0.0,0.701486349105835,0.1908638477325439
-0.1077643409371376,0.2947168350219726,-0.1365461647510528,-0.579258918762207,-0.1954246163368225,-0.0978981405496597,0.0,0.0,0.7129330635070801,-0.7729243040084839
-0.1092291846871376,0.2826544940471649,-0.1425040364265442,-0.5366358160972595,-0.1994323432445526,-0.0801545828580856,0.0,0.0,0.3788931369781494,0.3218655586242676
-0.1107757538557052,0.2706779539585113,-0.1497627347707748,-0.5329601168632507,-0.2043641358613968,-0.098636195063591,0.0,0.0,0.4408632516860962,0.6412705183029175
-0.1121243461966514,0.2593398690223694,-0.1283436864614486,-0.5048289895057678,-0.2109320759773254,-0.1313587874174118,0.0,0.0,-0.6417304277420044,-0.4865050315856933
-0.1135024055838584,0.2476495057344436,-0.1308741122484207,-0.5205796957015991,-0.2179301381111145,-0.1399613916873932,0.0,0.0,0.1886481046676635,-0.1087082028388977
-0.1148422211408615,0.2363338023424148,-0.1264680474996566,-0.5040475130081177,-0.2255433648824691,-0.1522643417119979,0.0,0.0,0.0230342149734497,-0.7197970747947693
-0.1161767020821571,0.2253245264291763,-0.126929372549057,-0.4903131127357483,-0.2321439385414123,-0.1320117115974426,0.0,0.0,0.4295328855514526,-0.7976683378219604
-0.1174018830060958,0.2146904617547989,-0.1172796115279197,-0.4734619557857513,-0.2374571859836578,-0.1062650829553604,0.0,0.0,0.9314565658569336,-0.8052282333374023
-0.1185935959219932,0.204291358590126,-0.1151626259088516,-0.4628351926803589,-0.2415274232625961,-0.0814048796892166,0.0,0.0,0.930410861968994,-0.0797471404075622
-0.1195939034223556,0.1941860765218734,-0.0960813909769058,-0.4497787356376648,-0.2455374747514724,-0.0802009850740432,0.0,0.0,0.9127492904663086,-0.6259315609931946
-0.1203300505876541,0.184641420841217,-0.0709551572799682,-0.4246528744697571,-0.2482475042343139,-0.0542005598545074,0.0,0.0,0.6817187070846558,-0.9613455533981324
-0.1209127455949783,0.1752899438142776,-0.0572766549885273,-0.4157905876636505,-0.2492596060037613,-0.0202420614659786,0.0,0.0,0.9571593999862672,-0.7965109348297119
-0.1213671714067459,0.1669110208749771,-0.0455751344561576,-0.3723739683628082,-0.2491195499897003,0.002801249269396,0.0,0.0,0.4443850517272949,-0.94436776638031
-0.1217225044965744,0.1591665148735046,-0.037147618830204,-0.3439293503761291,-0.2474858909845352,0.0326728262007236,0.0,0.0,-0.400113582611084,-0.9391916394233704
-0.1221571937203407,0.1510943472385406,-0.0461070649325847,-0.3583180010318756,-0.2447934001684188,0.0538497753441333,0.0,0.0,-0.5448102951049805,-0.9136953949928284
-0.1226737052202224,0.1426822245121002,-0.055359024554491,-0.3732611835002899,-0.241023302078247,0.0754019543528556,0.0,0.0,0.575392484664917,-0.9515916705131532
-0.1232239753007888,0.1346694380044937,-0.060118269175291,-0.3552969396114349,-0.2358504682779312,0.1034566536545753,0.0,0.0,0.4549778699874878,-0.8231896162033081
-0.1235973387956619,0.1274155974388122,-0.0437479615211486,-0.321382075548172,-0.2293503284454345,0.1300029158592224,0.0,0.0,0.0475867986679077,-0.6973719000816345
-0.1239785179495811,0.1203610301017761,-0.0454622991383075,-0.3124119341373443,-0.2219124287366867,0.1487580686807632,0.0,0.0,-0.2715035676956177,-0.6947048306465149
-0.1244422942399978,0.1129824519157409,-0.0549515299499034,-0.3266676068305969,-0.2132361233234405,0.1735262423753738,0.0,0.0,0.7825791835784912,0.621535062789917
-0.1246177703142166,0.1063111871480941,-0.0246993154287338,-0.2954857051372528,-0.2060101628303527,0.1445189416408538,0.0,0.0,-0.4801191091537475,-0.5317906737327576
-0.1248548477888107,0.099305473268032,-0.0315810814499855,-0.3102856278419494,-0.1980737596750259,0.1587277203798294,0.0,0.0,0.6393855810165405,0.1224762201309204
-0.1250428259372711,0.0930646508932113,-0.0258560124784708,-0.2764458954334259,-0.190974622964859,0.141983151435852,0.0,0.0,0.0443860292434692,0.0686743259429931
-0.1252023726701736,0.0869394838809967,-0.022500667721033,-0.2714029252529144,-0.1844063997268676,0.1313648223876953,0.0,0.0,0.5554996728897095,0.057755708694458
-0.1253813803195953,0.0813268721103668,-0.0234807468950748,-0.2487652003765106,-0.1788051426410675,0.1120249405503273,0.0,0.0,0.4885140657424927,0.5326019525527954
-0.1255934685468673,0.0760846212506294,-0.0249086748808622,-0.2325478941202163,-0.1750925034284591,0.0742530301213264,0.0,0.0,0.2622562646865845,0.6721498966217041
-0.1255820244550705,0.0712668001651763,-0.000892155629117,-0.2138863503932953,-0.1730475574731826,0.0408985391259193,0.0,0.0,0.3324782848358154,0.2071597576141357
-0.1254836022853851,0.066522866487503,0.0080316569656133,-0.2106316685676574,-0.1712344884872436,0.0362614169716835,0.0,0.0,0.3766344785690307,0.1597076654434204
-0.1251701414585113,0.0623345486819744,0.0294439103454351,-0.1859267652034759,-0.169323593378067,0.038217756897211,0.0,0.0,0.1794043779373169,-0.0266719460487365
-0.1247909516096115,0.0586164332926273,0.0365444347262382,-0.1650948226451873,-0.1679499596357345,0.0274727456271648,0.0,0.0,0.0180439949035644,0.2750004529953003
-0.1242480278015136,0.0553018674254417,0.0529783777892589,-0.1471661627292633,-0.1666316986083984,0.0263650864362716,0.0,0.0,-0.0228284001350402,0.1386429071426391
-0.1237154006958007,0.0516341775655746,0.0524147935211658,-0.1629123240709304,-0.1657758355140686,0.017117217183113,0.0,0.0,-0.0835009217262268,0.2315485477447509
-0.1231922134757042,0.0476133674383163,0.0519180372357368,-0.1786583513021469,-0.1653826385736465,0.0078637730330228,0.0,0.0,0.3029717206954956,-0.5892238020896912
-0.1225692778825759,0.0441621169447898,0.0610782317817211,-0.153256818652153,-0.1641668975353241,0.0243151187896728,0.0,0.0,0.2392178773880005,-0.5711501836776733
-0.1218776702880859,0.0408585630357265,0.0671359673142433,-0.1466022282838821,-0.1621456146240234,0.0404259152710437,0.0,0.0,0.1606807708740234,-0.1194682717323303
-0.1212084740400314,0.0378657914698123,0.0657590478658676,-0.1328880935907364,-0.1609849780797958,0.0232126377522945,0.0,0.0,-0.4726098775863647,-0.4030261039733886
-0.1205464377999305,0.034519825130701,0.0655101090669632,-0.1486340016126632,-0.160287469625473,0.0139499604701995,0.0,0.0,0.4411647319793701,-0.2987477779388428
-0.1198309883475303,0.0315533727407455,0.0714000314474105,-0.131827026605606,-0.1601400226354599,0.0029493614565581,0.0,0.0,0.4641718864440918,-0.475710391998291
-0.1190234199166297,0.0289283134043216,0.0809673368930816,-0.1166922301054,-0.1603491008281707,-0.0041814181022346,0.0,0.0,-0.014120876789093,-0.5442356467247009
-0.1182551383972168,0.0259532779455184,0.0766502767801284,-0.1322055608034134,-0.1601704955101013,0.0035720965825021,0.0,0.0,0.079901099205017,-0.6677213311195374
-0.1174009293317794,0.0232851598411798,0.0842826217412948,-0.1184609308838844,-0.159037634730339,0.0226572901010513,0.0,0.0,0.0518357753753662,-0.625927746295929
-0.1165003776550293,0.0210378263145685,0.088109940290451,-0.0996703580021858,-0.1570888757705688,0.0389751307666301,0.0,0.0,0.0393736362457275,-0.5449157357215881
