x_pos,y_pos,x_vel,y_vel,angle,ang_vel,leg_1,leg_2,main_booster,lat_booster
-0.0014739036560058,1.4033145904541016,-0.149590715765953,-0.3380298614501953,0.0019791622180491,0.0390567742288112,0.0,0.0,-0.5178332396958945,0.9647572989915651
-0.0028178214561194,1.39541757106781,-0.1344933211803436,-0.350976824760437,0.0020809592679142,0.0020367265678942,0.0,0.0,0.4093803212762941,-0.9047744898431314
-0.0040584565140306,1.3877207040786743,-0.1263854652643203,-0.3420906662940979,0.0043717720545828,0.0458210594952106,0.0,0.0,0.1535825968647681,-0.8423125187633432
-0.0054202079772949,1.3802332878112793,-0.1403644979000091,-0.3327952027320862,0.0085087232291698,0.0827469304203987,0.0,0.0,-0.7390890760912001,-0.9401693695849664
-0.0067996978759765,1.3724383115768433,-0.1438723504543304,-0.3464890718460083,0.0143640283495187,0.1171169877052307,0.0,0.0,-0.3797750520555587,0.9533839898226192
-0.0080492021515965,1.3643341064453125,-0.1287796050310135,-0.3602193295955658,0.0181625187397003,0.07597666233778,0.0,0.0,0.7220307664680345,0.6962654501849268
-0.0092444419860839,1.3568239212036133,-0.122182548046112,-0.3338263928890228,0.0207865145057439,0.0524845607578754,0.0,0.0,-0.979548972181964,0.5223495274110217
-0.0103549007326364,1.3490066528320312,-0.1126677021384239,-0.3474574685096741,0.022387471050024,0.0320222005248069,0.0,0.0,-0.5295352087788956,0.9485800136697043
-0.0113611221313476,1.3408921957015991,-0.1006463393568992,-0.3606392443180084,0.0224175006151199,0.0006004821043461,0.0,0.0,-0.7853013970098726,-0.9829996210933258
-0.0124156950041651,1.332471489906311,-0.1077453270554542,-0.3742924034595489,0.0246724002063274,0.0451023057103157,0.0,0.0,-0.7612501354155232,-0.6679798148172679
-0.0134886745363473,1.3237396478652954,-0.1109976917505264,-0.3881449103355407,0.0283383931964635,0.0733265578746795,0.0,0.0,0.2916200282604515,-0.9793400691210918
-0.0145613672211766,1.315315008163452,-0.1132582202553749,-0.3745571672916412,0.0342606864869594,0.1184566169977188,0.0,0.0,-0.0413169691991495,-0.622135603445594
-0.0156500823795795,1.306581974029541,-0.1161157488822937,-0.3883145451545715,0.0414323769509792,0.1434469223022461,0.0,0.0,-0.6076499316494728,0.6685258590113441
-0.0166593547910451,1.297537088394165,-0.1069693118333816,-0.4021698534488678,0.0474128387868404,0.1196198835968971,0.0,0.0,0.2597599401269337,0.8932481079834442
-0.0174858085811138,1.2891477346420288,-0.0872750878334045,-0.3730153739452362,0.0520004890859127,0.0917613804340362,0.0,0.0,-0.2177871478925102,0.9681998838111504
-0.0182047840207815,1.2804442644119265,-0.0745387747883796,-0.3869180083274841,0.0546102933585643,0.0522009208798408,0.0,0.0,0.3396550565540261,-0.7426830984379387
-0.0188805572688579,1.2724841833114624,-0.0721854194998741,-0.3539566993713379,0.059175718575716,0.0913169384002685,0.0,0.0,-0.9342951275363304,0.8253068610178544
-0.0194622986018657,1.2642143964767456,-0.0610438995063304,-0.3676610589027405,0.0620102621614933,0.0566959492862224,0.0,0.0,-0.026203645333596,-0.9610296032036514
-0.0200964920222759,1.2556381225585938,-0.0681926682591438,-0.3813671767711639,0.0667446553707122,0.0946961641311645,0.0,0.0,0.4537422693139414,-0.8358302590136983
-0.0208993908017873,1.2474831342697144,-0.0869365110993385,-0.3627602458000183,0.073330633342266,0.1317312866449356,0.0,0.0,-0.8788035435222072,0.6058782551315126
-0.0216362960636615,1.2390294075012207,-0.0791605412960052,-0.3760004043579101,0.0787564292550087,0.1085253953933715,0.0,0.0,-0.754120329764598,0.5888363630336778
-0.0223187450319528,1.230268478393555,-0.0728115290403366,-0.3896179497241974,0.0832926630973815,0.0907326936721801,0.0,0.0,0.79626513649436,0.8027226951840156
-0.0228271484375,1.222109079360962,-0.0544159822165966,-0.3628402948379516,0.0868479162454605,0.0711113810539245,0.0,0.0,-0.1164349220582452,-0.75886582844259
-0.0233834274113178,1.2136249542236328,-0.0608604326844215,-0.3773896396160126,0.0920481830835342,0.1040142625570297,0.0,0.0,0.5158666717279112,-0.7961309334472024
-0.0241980552673339,1.2056870460510254,-0.0883799567818641,-0.3532334566116333,0.0989104807376861,0.1372583210468292,0.0,0.0,-0.8153520320037102,-0.6447678050420264
-0.0250723846256732,1.1974129676818848,-0.0962716042995452,-0.3683459162712097,0.1076766029000282,0.1753222793340683,0.0,0.0,0.5507207786043895,0.581234387183344
-0.0259694103151559,1.1898587942123413,-0.0976877659559249,-0.3363378643989563,0.1156004592776298,0.158477246761322,0.0,0.0,0.4379573025605741,-0.8394890386306879
-0.0271430015563964,1.1830414533615112,-0.1271537542343139,-0.3037854433059692,0.1253431439399719,0.1948535740375518,0.0,0.0,-0.0663087759456653,0.9175700459795184
-0.0282611846923828,1.175933837890625,-0.1204867139458656,-0.3166453242301941,0.1339574158191681,0.1722855269908905,0.0,0.0,-0.695233444611439,0.6579794082175218
-0.029330825433135,1.1685253381729126,-0.1146400421857833,-0.3299805521965027,0.1416144371032714,0.1531407982110977,0.0,0.0,0.8357851450648068,0.9870271261915128
-0.030435848981142,1.1622374057769775,-0.1165405884385109,-0.2800508141517639,0.1476377099752426,0.1204653605818748,0.0,0.0,-0.993402898311615,0.9837692975997924
-0.0314756408333778,1.1556496620178225,-0.1086135134100914,-0.2932535707950592,0.1522606313228607,0.0924584195017814,0.0,0.0,-0.9892289638519288,0.956350803375244
-0.032454777508974,1.1487765312194824,-0.1011926084756851,-0.3058137595653534,0.1555370539426803,0.0655282288789749,0.0,0.0,-0.9898672699928284,0.965033769607544
-0.0333687774837017,1.1416012048721311,-0.0932628363370895,-0.3190965354442596,0.1574002206325531,0.0372633412480354,0.0,0.0,-0.9707295894622804,0.7746238708496094
-0.0342242233455181,1.1341331005096436,-0.0861298069357872,-0.3319821655750274,0.1579778790473938,0.0115532949566841,0.0,0.0,-0.9075689911842346,0.814103364944458
-0.0350186340510845,1.1263771057128906,-0.0786391720175743,-0.3446226418018341,0.1571798622608184,-0.015960332006216,0.0,0.0,-0.9713569283485411,0.9096519947052002
-0.035748291760683,1.1183233261108398,-0.0707373842597007,-0.3577073514461517,0.154948204755783,-0.0446332097053527,0.0,0.0,-0.8693894147872925,0.4146542549133301
-0.0364817604422569,1.109960436820984,-0.0714175477623939,-0.3714896142482757,0.153019905090332,-0.0385660603642463,0.0,0.0,-0.7700361609458923,0.2260341644287109
-0.0372189506888389,1.101288080215454,-0.0720886215567588,-0.385271668434143,0.1513930112123489,-0.0325377993285656,0.0,0.0,-0.8550829291343689,0.8297512531280518
-0.0378918647766113,1.0923229455947876,-0.0642237216234207,-0.3981396853923797,0.148326888680458,-0.0613224580883979,0.0,0.0,-0.9527657628059388,-0.4751522541046142
-0.0385681167244911,1.0830485820770264,-0.0648498758673667,-0.4119220972061157,0.1455574929714203,-0.0553878918290138,0.0,0.0,-0.8538853526115417,0.0283539295196533
-0.0392473228275775,1.0734648704528809,-0.0654405578970909,-0.4257042109966278,0.1430820822715759,-0.0495084039866924,0.0,0.0,-0.994081974029541,0.272829532623291
-0.0399291031062603,1.0635716915130615,-0.0659871473908424,-0.4394861161708832,0.1408975720405578,-0.0436898581683635,0.0,0.0,-0.9956712126731871,0.5164389610290527
-0.0405657775700092,1.053378343582153,-0.060556162148714,-0.4527549743652344,0.1377986669540405,-0.0619784221053123,0.0,0.0,-0.8793298006057739,0.067842960357666
-0.0412038788199424,1.0428752899169922,-0.0609891228377819,-0.4665369689464569,0.1349836885929107,-0.0562999323010444,0.0,0.0,-0.9868305325508118,0.5292239189147949
-0.0417978279292583,1.032066822052002,-0.0556997433304786,-0.480048805475235,0.1313131153583526,-0.0734110921621322,0.0,0.0,-0.976713478565216,-0.2038164138793945
-0.0423917770385742,1.0209490060806274,-0.0559862852096557,-0.4938308596611023,0.1279181838035583,-0.0678984969854354,0.0,0.0,-0.9148055911064148,0.7129814624786377
-0.042940329760313,1.0095382928848269,-0.0505403205752372,-0.5067852139472961,0.1236325278878212,-0.0857135653495788,0.0,0.0,-0.956784963607788,0.3758606910705566
-0.043487261980772,0.997818112373352,-0.0506489053368568,-0.5205674171447754,0.1196127831935882,-0.080394797027111,0.0,0.0,-0.9788143038749696,0.3844561576843261
-0.0440317168831825,0.9857885241508484,-0.050657220184803,-0.5343493223190308,0.1158535778522491,-0.0751842185854911,0.0,0.0,-0.9923887848854064,0.4903402328491211
-0.0445724502205848,0.9734493494033812,-0.0505579635500907,-0.5481308698654175,0.1123491302132606,-0.0700887814164161,0.0,0.0,-0.9948464632034302,0.7620964050292969
-0.0450550094246864,0.9608151912689208,-0.0435803607106208,-0.561176061630249,0.1077159941196441,-0.0926628932356834,0.0,0.0,-0.986783504486084,0.600591778755188
-0.0454755797982215,0.9478775262832642,-0.0362149700522422,-0.5746007561683655,0.101910576224327,-0.1161080002784729,0.0,0.0,-0.9176583886146544,-0.6525649428367615
-0.0459406860172748,0.9346285462379456,-0.0422036498785018,-0.5885543823242188,0.0976320281624794,-0.0855708941817283,0.0,0.0,-0.9790009260177612,0.3675334453582763
-0.0463976860046386,0.921070158481598,-0.0416055805981159,-0.6023357510566711,0.0935807824134826,-0.0810248553752899,0.0,0.0,-0.9611001014709472,-0.4719435572624206
-0.0468449592590332,0.9072020649909972,-0.0408670455217361,-0.6161167025566101,0.0897488445043563,-0.0766386017203331,0.0,0.0,-0.9869939088821412,0.5521219968795776
-0.0472313873469829,0.8930365443229675,-0.0336991548538208,-0.6292938590049744,0.0848540514707565,-0.0978960394859314,0.0,0.0,-0.9516439437866212,-0.3721609115600586
-0.0476054176688194,0.8785614967346191,-0.0326626077294349,-0.6430752277374268,0.0801611244678497,-0.0938584432005882,0.0,0.0,-0.517762303352356,-0.968357264995575
-0.0480330474674701,0.8637785911560059,-0.0399172902107238,-0.6568639874458313,0.0773471817374229,-0.0562789924442768,0.0,0.0,-0.9435322284698486,0.6590206623077393
-0.0484001152217388,0.8486971259117126,-0.0328923650085926,-0.6700943112373352,0.0735674202442169,-0.0755950510501861,0.0,0.0,-0.9243542551994324,0.4705260992050171
-0.0487503036856651,0.8333061337471008,-0.0313714742660522,-0.6838744878768921,0.0699595808982849,-0.0721569210290908,0.0,0.0,-0.5426936745643616,-0.0584569573402404
-0.0490819923579692,0.8176052570343018,-0.0296804755926132,-0.6976544857025146,0.0665125846862793,-0.0689396485686302,0.0,0.0,-0.2421135902404785,-0.7405540943145752
-0.0494398102164268,0.8015881180763245,-0.0336396247148513,-0.7117761373519897,0.0643872320652008,-0.0425066798925399,0.0,0.0,0.057967185974121,0.1464176177978515
-0.0497859939932823,0.7858502268791199,-0.0326865315437316,-0.6993803381919861,0.0624688565731048,-0.0383676066994667,0.0,0.0,0.3476924896240234,-0.4459391832351684
-0.0501228347420692,0.7702925205230713,-0.0318978205323219,-0.6913774013519287,0.0607045330107212,-0.0352865830063819,0.0,0.0,0.0241166353225708,-0.5826184749603271
-0.0505887977778911,0.7549617290496826,-0.0459779277443885,-0.6813402771949768,0.0600945875048637,-0.0121989771723747,0.0,0.0,-0.8081280589103699,0.8960402011871338
-0.0509550087153911,0.7393382787704468,-0.0342316664755344,-0.694286048412323,0.0577329620718956,-0.0472325608134269,0.0,0.0,-0.3180351257324219,0.1140298843383789
-0.0512925162911415,0.7234048247337341,-0.0314557291567325,-0.7080647945404053,0.0554549507796764,-0.045560099184513,0.0,0.0,-0.0700326561927795,0.6177855730056763
-0.0515490546822547,0.7071729302406311,-0.0221179965883493,-0.7212892174720764,0.0519597940146923,-0.0699028819799423,0.0,0.0,0.0078450441360473,0.1619095802307129
-0.0518458373844623,0.6910593509674072,-0.0259287096560001,-0.7160331010818481,0.0482530668377876,-0.0741347447037696,0.0,0.0,-0.5036367774009705,0.0072923898696899
-0.0521087646484375,0.6746359467506409,-0.0225869603455066,-0.7298123240470886,0.0445848889648914,-0.0733634680509567,0.0,0.0,-0.7909626364707947,-0.2663533687591553
-0.0523362159729003,0.6579028367996216,-0.0190559141337871,-0.7435914874076843,0.0409394949674606,-0.0729079619050026,0.0,0.0,-0.127045452594757,-0.5485095381736755
-0.0525792129337787,0.6408625841140747,-0.02195830270648,-0.7572784423828125,0.0386244319379329,-0.0463011041283607,0.0,0.0,-0.3533912897109985,0.3574354648590088
-0.0527832992374897,0.6235124468803406,-0.018050093203783,-0.7710568308830261,0.0362996868789196,-0.0464950203895568,0.0,0.0,0.2965914011001587,-0.3254358768463135
-0.0529841408133506,0.6063110828399658,-0.0175880771130323,-0.7644478678703308,0.0338262356817722,-0.0494688674807548,0.0,0.0,0.8591909408569336,0.6793198585510254
-0.0530186668038368,0.5893478989601135,0.0002656121214386,-0.7538385987281799,0.0301607754081487,-0.0733092203736305,0.0,0.0,0.3794718980789184,0.1719900369644165
-0.0530439391732215,0.572498619556427,0.0013628771994262,-0.7487826943397522,0.0263134371489286,-0.076946772634983,0.0,0.0,0.4305152893066406,0.5954704284667969
-0.0530024543404579,0.5563763976097107,0.0093334298580884,-0.7164618968963623,0.0211874525994062,-0.1025196686387062,0.0,0.0,0.2388225793838501,0.4010716676712036
-0.0528666488826274,0.5408636927604675,0.0185836981981992,-0.6893907189369202,0.016245624050498,-0.0988366082310676,0.0,0.0,-0.2430328130722046,-0.7006734609603882
-0.0527478232979774,0.5250466465950012,0.0153245907276868,-0.7029470205307007,0.0128462547436356,-0.0679873451590538,0.0,0.0,0.144052505493164,0.5640969276428223
-0.0526359565556049,0.5092569589614868,0.0160674545913934,-0.7017301917076111,0.0080252811312675,-0.0964196324348449,0.0,0.0,0.5170369148254395,-0.3172684907913208
-0.0524410232901573,0.4942468106746673,0.0243603847920894,-0.6671020984649658,0.0032326844520866,-0.0958520621061325,0.0,0.0,-0.3633578419685364,-0.6266942620277405
-0.0522503852844238,0.4789263904094696,0.0225983709096908,-0.680899977684021,-0.0002630104718264,-0.0699137598276138,0.0,0.0,0.318036675453186,-0.4049886465072632
-0.0520483963191509,0.4641073644161224,0.0241144485771656,-0.6586283445358276,-0.0041356612928211,-0.0774527937173843,0.0,0.0,0.2762012481689453,0.2662484645843506
-0.0517971031367778,0.4497888684272766,0.0292839296162128,-0.6363952159881592,-0.0082409419119358,-0.0821056514978408,0.0,0.0,-0.0417127609252929,0.0273928642272949
-0.05148820951581,0.4351606070995331,0.0352606587111949,-0.6501745581626892,-0.0125509109348058,-0.0861994475126266,0.0,0.0,-0.0256882309913635,-0.8906455039978027
-0.051188088953495,0.4202151298522949,0.0328822135925293,-0.6642732620239258,-0.0153789091855287,-0.0565600097179412,0.0,0.0,0.5257275104522705,-0.7715252041816711
-0.0507879257202148,0.4055109024047851,0.0413995720446109,-0.6535342931747437,-0.0167459417134523,-0.0273406319320201,0.0,0.0,0.8510295152664185,-0.3187936544418335
-0.0501506812870502,0.3914521932601928,0.0645841807126998,-0.6248413324356079,-0.0175967030227184,-0.0170152820646762,0.0,0.0,0.2950112819671631,-0.6166980266571045
-0.0493736267089843,0.3775405883789062,0.077364444732666,-0.6182907819747925,-0.017258733510971,0.0067593017593026,0.0,0.0,0.2624104022979736,-0.5811047554016113
-0.0485734939575195,0.3641855716705322,0.0787835717201232,-0.593545138835907,-0.0160451736301183,0.0242711789906024,0.0,0.0,-0.6170422434806824,-0.7172113656997681
-0.0477622970938682,0.3505273163318634,0.0788119360804557,-0.6070096492767334,-0.0137609960511326,0.0456836633384227,0.0,0.0,-0.0114091634750366,-0.242974042892456
-0.0468850135803222,0.3365591764450073,0.0857022553682327,-0.6207883358001709,-0.0117704579606652,0.039811123162508,0.0,0.0,0.6377549171447754,-0.5488678216934204
-0.0458734519779682,0.322759598493576,0.0980688780546188,-0.6132911443710327,-0.0087130554020404,0.0611479058861732,0.0,0.0,0.7861320972442627,-0.5672353506088257
-0.0448947921395301,0.3094757795333862,0.0941099226474762,-0.5903739929199219,-0.0050059934146702,0.0741411596536636,0.0,0.0,0.4910515546798706,0.3263664245605469
-0.0437671653926372,0.2970496416091919,0.1089755892753601,-0.55226731300354,-0.0012687226990237,0.0747455134987831,0.0,0.0,-0.0452373027801513,0.0694516897201538
-0.0425701141357421,0.2843135893344879,0.116256296634674,-0.5660464763641357,0.0021368095185607,0.0681103467941284,0.0,0.0,0.5681754350662231,-0.2572041749954223
-0.0414225570857524,0.2723999321460724,0.1122015118598938,-0.5295027494430542,0.0046560037881135,0.0503839366137981,0.0,0.0,-0.2448021173477172,-0.0200825333595275
-0.0402042381465435,0.2601763010025024,0.1196381673216819,-0.5432810187339783,0.0068277795799076,0.0434354543685913,0.0,0.0,0.5593400001525879,-0.6133424639701843
-0.0390225425362587,0.2487083077430725,0.1152122840285301,-0.5097062587738037,0.0097391195595264,0.0582269318401813,0.0,0.0,0.1797244548797607,-0.4706956148147583
-0.0378333106637001,0.2377314120531082,0.116628311574459,-0.4878771901130676,0.012016043998301,0.0455384775996208,0.0,0.0,0.0622692108154296,-0.8555727005004883
-0.036661721765995,0.2269203960895538,0.1134964674711227,-0.4805211424827575,0.0156234381720423,0.0721480697393417,0.0,0.0,-0.2673101425170898,-0.6032363772392273
-0.0354743972420692,0.2157988846302032,0.1140127182006836,-0.4943472445011139,0.0202898699790239,0.0933287516236305,0.0,0.0,0.4769665002822876,-0.7651330828666687
-0.034433364868164,0.2050616890192031,0.0984592139720916,-0.4772964417934418,0.0258578211069107,0.1113587766885757,0.0,0.0,0.3493425846099853,-0.6821644306182861
-0.0332921966910362,0.1949006170034408,0.1073379665613174,-0.4517365396022796,0.0325605794787406,0.1340551674365997,0.0,0.0,0.0459183454513549,-0.5140560269355774
-0.0320824608206748,0.1847758144140243,0.1134689673781395,-0.4501715898513794,0.039974395185709,0.1482763290405273,0.0,0.0,0.1551454067230224,-0.7814995050430298
-0.0307658202946186,0.1751505434513092,0.1228765621781349,-0.4280494153499603,0.0486450716853141,0.1734136193990707,0.0,0.0,-0.1048370599746704,-0.4799304008483886
-0.0293754581362009,0.1652159243822097,0.1306670308113098,-0.4418319761753082,0.0569205433130264,0.1655095368623733,0.0,0.0,0.3551137447357178,-0.6792380213737488
-0.0278754234313964,0.1560360491275787,0.1404441595077514,-0.40838623046875,0.0663686171174049,0.1889613419771194,0.0,0.0,-0.0301264524459838,-0.7489576935768127
-0.0263532642275095,0.146542027592659,0.1417506039142608,-0.4224535822868347,0.076717123389244,0.2069703638553619,0.0,0.0,0.0671106576919555,-0.6199654936790466
-0.0248525626957416,0.137527734041214,0.1387986242771148,-0.4012497067451477,0.0878873988986015,0.2234054803848266,0.0,0.0,-0.1072589755058288,-0.538166344165802
-0.0233169551938772,0.1282044500112533,0.1417360603809356,-0.4151064753532409,0.0996135398745536,0.2345230132341385,0.0,0.0,0.563266396522522,0.3196429014205932
-0.0216755867004394,0.1192312091588974,0.1523759216070175,-0.3996325731277466,0.1112832129001617,0.2333935499191284,0.0,0.0,0.8056999444961548,0.0348567962646484
-0.0201695449650287,0.110934242606163,0.1398935168981552,-0.3695878982543945,0.1219234392046928,0.2128046452999115,0.0,0.0,0.1235204935073852,-0.033133327960968
-0.0187207218259573,0.1028331816196441,0.1350145488977432,-0.3608814775943756,0.1317471712827682,0.1964743435382843,0.0,0.0,0.1074388027191162,-0.5503190159797668
-0.0173089019954204,0.0949726700782775,0.1306590139865875,-0.3503199219703674,0.1422286927700042,0.2096305191516876,0.0,0.0,0.1800169944763183,-0.0895115137100219
-0.0158618930727243,0.0873724296689033,0.134524255990982,-0.3387908041477203,0.15238057076931,0.2030377089977264,0.0,0.0,0.2711758613586426,0.1728359460830688
-0.0142875667661428,0.0798958614468574,0.1472324430942535,-0.3333711326122284,0.1625808030366897,0.2040044516324997,0.0,0.0,0.5427159070968628,-0.1110960245132446
-0.0126575473695993,0.0730769708752632,0.1528169363737106,-0.3042109906673431,0.172784686088562,0.2040777504444122,0.0,0.0,-0.2583893537521362,0.0159580707550048
-0.0109590534120798,0.065948374569416,0.16008061170578,-0.3179914355278015,0.1825706362724304,0.1957190483808517,0.0,0.0,0.5192399024963379,-0.4271306991577148
-0.0091878892853856,0.0589491687715053,0.1675210744142532,-0.3122881650924682,0.1922089755535125,0.1927669942378997,0.0,0.0,0.9007613658905028,-0.27785325050354
