x_pos,y_pos,x_vel,y_vel,angle,ang_vel,leg_1,leg_2,main_booster,lat_booster
-0.0015159606700763,1.4034783840179443,-0.1532025039196014,-0.3307451009750366,0.0014304132200777,0.0281919781118631,0.0,0.0,0.6322846086540446,0.8166551307357908
-0.002903938293457,1.396593451499939,-0.1383391171693802,-0.3059934675693512,0.000981630408205,-0.0089759770780801,0.0,0.0,-0.7929717310060671,-0.894629423549449
-0.0043384553864598,1.3895552158355713,-0.1440529972314834,-0.3128109872341156,0.0015755584463477,0.0118796937167644,0.0,0.0,0.9403781291655912,0.230085694445251
-0.0059055327437818,1.383250713348389,-0.1562850773334503,-0.2801999449729919,0.0011617490090429,-0.0082769524306058,0.0,0.0,0.8022528610945046,-0.8214497658144977
-0.0073748589493334,1.3778696060180664,-0.1481508761644363,-0.2391583174467086,0.0023650317452847,0.0240678768604993,0.0,0.0,0.6175540857788349,-0.4522070774139057
-0.0087023731321096,1.373140573501587,-0.1342731118202209,-0.210189014673233,0.0038734981790184,0.0301721096038818,0.0,0.0,0.0739551212706421,0.0180544028914061
-0.0100369453430175,1.368828058242798,-0.1345833241939544,-0.1916639357805252,0.0049761063419282,0.022054299712181,0.0,0.0,-0.9816672698900116,-0.3121748929902882
-0.0113625526428222,1.364369511604309,-0.1333336681127548,-0.1981600672006607,0.0057433955371379,0.0153471808880567,0.0,0.0,0.7432982489412643,-0.8660352483222566
-0.0127662662416696,1.3610981702804563,-0.1425161659717559,-0.1454066187143325,0.0078638046979904,0.0424121208488941,0.0,0.0,-0.6940022829616892,0.8551858779696899
-0.0140933040529489,1.3576864004135132,-0.1328029781579971,-0.1516310423612594,0.0079558910802006,0.001842196797952,0.0,0.0,-0.4052632216169087,-0.6419784763908107
-0.0154541973024606,1.35412859916687,-0.1369464099407196,-0.1581290513277053,0.008804396726191,0.0169718470424413,0.0,0.0,-0.940845421137565,-0.6672849475931553
-0.016851807013154,1.350422739982605,-0.1414647251367569,-0.1647192388772964,0.0104848463088274,0.0336119905114173,0.0,0.0,0.9012810085425882,0.8332215320387681
-0.0180182456970214,1.3477858304977417,-0.1166958585381507,-0.1171934306621551,0.0105301989242434,0.000907284382265,0.0,0.0,-0.7472913111191033,-0.398244671459219
-0.019174862653017,1.34500253200531,-0.1153662651777267,-0.1236978769302368,0.0102421101182699,-0.0057621011510491,0.0,0.0,0.6894558225196681,0.832125760210532
-0.0201047901064157,1.3433496952056885,-0.0909930914640426,-0.0734438970685005,0.0082629853859543,-0.039586029946804,0.0,0.0,-0.2889093150027564,-0.1341692164420467
-0.0210246089845895,1.3415507078170776,-0.089639812707901,-0.0799490585923194,0.0059514576569199,-0.0462349317967891,0.0,0.0,-0.3862248250804261,-0.0515841556009676
-0.0219341274350881,1.339605450630188,-0.0882783234119415,-0.0864395424723625,0.0033076670952141,-0.0528808608651161,0.0,0.0,0.4123872961709554,0.7549725702213173
-0.0226387977600097,1.3379895687103271,-0.0661660283803939,-0.0718200281262397,-0.0009492646204307,-0.0851463675498962,0.0,0.0,-0.1513608556060721,-0.311364642374039
-0.0233329776674509,1.3362274169921875,-0.0647855177521705,-0.0783202946186065,-0.0055363718420267,-0.0917500555515289,0.0,0.0,-0.442511191713782,-0.6251497367264915
-0.0240727420896291,1.334319829940796,-0.0704244002699852,-0.084803007543087,-0.0090455887839198,-0.0701907649636268,0.0,0.0,0.5365404155622069,-0.9523511180945148
-0.02473621442914,1.333321213722229,-0.0645344480872154,-0.0443968251347541,-0.0108393095433712,-0.0358775220811367,0.0,0.0,0.7827071406558241,0.2034593864429162
-0.0253714565187692,1.3328924179077148,-0.061424046754837,-0.0190821662545204,-0.0129030244424939,-0.0412782356142997,0.0,0.0,-0.0021583873183075,-0.4496854777868916
-0.0259960182011127,1.332317352294922,-0.0600321292877197,-0.0255796965211629,-0.0152931828051805,-0.0478075966238975,0.0,0.0,0.2314726910848545,0.1222766910336067
-0.0265542026609182,1.3319441080093384,-0.0533177331089973,-0.0166133753955364,-0.0177672188729047,-0.0494853556156158,0.0,0.0,-0.6515366043082145,-0.9817177246746784
-0.0271976478397846,1.3314300775527954,-0.0639579147100448,-0.0228490754961967,-0.0181531757116317,-0.0077197374776005,0.0,0.0,0.8330226156768983,-0.9429599472611492
-0.0280709266662597,1.3319321870803833,-0.0882024317979812,0.022322004660964,-0.0172812975943088,0.0174376107752323,0.0,0.0,-0.2906409162553058,0.3617521394473401
-0.0289334300905466,1.3322882652282717,-0.0868095383048057,0.0158283915370702,-0.0167308710515499,0.0110085997730493,0.0,0.0,0.2236930166837714,0.3746629887868262
-0.0298717506229877,1.3334174156188965,-0.0936165004968643,0.0501834377646446,-0.0169477462768554,-0.0043373643420636,0.0,0.0,0.7362753427017117,-0.9117025105641052
-0.0310104377567768,1.335634708404541,-0.114915944635868,0.0985584035515785,-0.0159101355820894,0.0207521263509988,0.0,0.0,0.7362402896236586,0.1377998564558558
-0.032152272760868,1.338474988937378,-0.1148117557168006,0.1262428164482116,-0.0152898197993636,0.0124059626832604,0.0,0.0,0.0938888179028305,-0.8112172970060505
-0.0333245284855365,1.3420202732086182,-0.1191772669553756,0.1575897336006164,-0.0133614037185907,0.0385682545602321,0.0,0.0,-0.3912559747695923,-0.0199064016342163
-0.0344860069453716,1.3454196453094482,-0.1177904978394508,0.1510960012674331,-0.0117429811507463,0.0323683321475982,0.0,0.0,-0.306068480014801,-0.2666113376617431
-0.0356368049979209,1.348672866821289,-0.1164066940546035,0.1446023732423782,-0.0104315802454948,0.0262281484901905,0.0,0.0,-0.02290540933609,-0.5992044806480408
-0.036829374730587,1.3517756462097168,-0.1216092705726623,0.1379126757383346,-0.0081064421683549,0.0465025752782821,0.0,0.0,-0.0599767565727233,-0.1486173868179321
-0.0380111709237098,1.3547323942184448,-0.1202330961823463,0.1314189285039901,-0.0060814865864813,0.0404990464448928,0.0,0.0,0.1359109878540039,-0.3806848526000976
-0.039166547358036,1.3583229780197144,-0.1173520907759666,0.1595876663923263,-0.0042949700728058,0.0357304066419601,0.0,0.0,-0.1326625943183899,-0.1457052230834961
-0.0403112396597862,1.3617675304412842,-0.1159859523177146,0.1530942171812057,-0.0028004620689898,0.0298900119960308,0.0,0.0,-0.1586766242980957,-0.1538600921630859
-0.041445255279541,1.3650660514831543,-0.1146257519721984,0.1466009020805359,-0.0015933439135551,0.0241424348205328,0.0,0.0,-0.4977947473526001,-0.4222338199615478
-0.0425685867667198,1.3682184219360352,-0.1132721081376075,0.1401076465845108,-0.000668559630867,0.018495887517929,0.0,0.0,-0.2080431580543518,-0.4555724859237671
-0.0436812415719032,1.3712247610092163,-0.1119256466627121,0.1336144655942917,-2.0585146558005363e-05,0.0129595249891281,0.0,0.0,-0.4017131328582763,-0.5762764811515808
-0.0448369979858398,1.3740898370742798,-0.1173234730958938,0.1273372769355774,0.0017055966891348,0.0345237478613853,0.0,0.0,-0.5317588448524475,0.1935895681381225
-0.0459821708500385,1.376808762550354,-0.1159933358430862,0.1208439916372299,0.0031673861667513,0.0292359329760074,0.0,0.0,-0.3164571523666382,-0.2214493751525879
-0.0471166595816612,1.3793818950653076,-0.114672377705574,0.114350788295269,0.0043717799708247,0.0240882020443677,0.0,0.0,-0.4524480104446411,-0.414368987083435
-0.0482405647635459,1.3818087577819824,-0.1133612990379333,0.1078576818108558,0.0053263735026121,0.0190918184816837,0.0,0.0,-0.0764239430427551,-0.0080891847610473
-0.0493538863956928,1.384089469909668,-0.1120608076453208,0.1013646200299263,0.0060393046587705,0.0142585756257176,0.0,0.0,-0.4340019822120666,0.0250542163848876
-0.0504567138850688,1.3862241506576538,-0.1107716113328933,0.0948716104030609,0.0065193367190659,0.0096006458625197,0.0,0.0,-0.1171371936798095,-0.512047529220581
-0.0515854842960834,1.388209581375122,-0.1140623316168785,0.0882342085242271,0.0076909963972866,0.0234332494437694,0.0,0.0,-0.3608281016349792,-0.6462205052375793
-0.0527644157409668,0.0,-0.1204151734709739,0.0820105224847793,0.01017383672297,0.0496571250259876,0.0,0.0,-0.254169225692749,0.16160249710083
-0.0539329536259174,1.3917546272277832,-0.1191643849015235,0.0755170881748199,0.0124539649114012,0.045602660626173,0.0,0.0,-0.3885562419891357,-0.020106017589569
-0.055091094225645,1.3933080434799194,-0.1179279237985611,0.0690237581729888,0.0145427575334906,0.0417758338153362,0.0,0.0,-0.2652968764305115,0.0141867399215698
-0.0562388412654399,1.3947153091430664,-0.1167065873742103,0.0625305250287056,0.0164522621780633,0.0381899587810039,0.0,0.0,-0.4120287299156189,-0.1806142330169677
-0.0573761947453022,1.3959766626358032,-0.1155011802911758,0.0560373589396476,0.0181951727718114,0.0348580740392208,0.0,0.0,-0.3071917295455932,0.2103689908981323
-0.0585032477974891,1.3970919847488403,-0.114312507212162,0.0495442524552345,0.0197848118841648,0.0317928716540336,0.0,0.0,-0.2662118673324585,-0.3181519508361816
-0.0596200004220008,1.3980610370635986,-0.1131413802504539,0.043051179498434,0.0212351437658071,0.0290063917636871,0.0,0.0,-0.321459949016571,-0.2813355922698974
-0.0607265457510948,1.3988840579986572,-0.1119886040687561,0.0365581363439559,0.0225606448948383,0.0265098959207534,0.0,0.0,-0.501393735408783,-0.2997552156448364
-0.0618227943778038,1.3995609283447266,-0.1108549982309341,0.0300651080906391,0.0237763300538063,0.0243137143552303,0.0,0.0,-0.3223165869712829,-0.0151754021644592
-0.0629087463021278,0.0,-0.1097413673996925,0.0235720835626125,0.0248976666480302,0.0224269442260265,0.0,0.0,-0.7469526529312134,-0.0157222747802734
-0.0639847740530967,1.400476336479187,-0.1086485236883163,0.0170790497213602,0.025940541177988,0.0208573788404464,0.0,0.0,-0.6397032737731934,0.1660267114639282
-0.0650506019592285,1.400714874267578,-0.1075772494077682,0.0105860047042369,0.0269210897386074,0.0196112282574176,0.0,0.0,-0.7195727825164795,-0.1270490884780883
-0.0661063194274902,1.400807499885559,-0.1065283194184303,0.0040929364040493,0.0278557427227497,0.0186931695789098,0.0,0.0,-0.6775090098381042,-0.2539219856262207
-0.0671522170305252,1.4007538557052612,-0.105502501130104,-0.0024001596029847,0.0287610590457916,0.0181061271578073,0.0,0.0,-0.6706876754760742,0.7118973731994629
-0.0681413635611534,0.0,-0.0986179783940315,-0.0086160544306039,0.0284730084240436,-0.0057609528303146,0.0,0.0,-0.8307600617408752,-0.2022258639335632
-0.0691206008195877,1.4002197980880735,-0.0976405590772628,-0.0151091609150171,0.0281887855380773,-0.0056844260543584,0.0,0.0,-0.9088538885116576,-0.2845625877380371
-0.0700901970267295,1.399733543395996,-0.0966883823275566,-0.0216023065149784,0.0279248505830764,-0.0052788471803069,0.0,0.0,-0.9401533007621764,0.2557239532470703
-0.0710500702261924,1.3991012573242188,-0.0957621037960052,-0.0280954912304878,0.0276974290609359,-0.0045483508147299,0.0,0.0,-0.8937047123908997,-0.2543466091156006
-0.072000503540039,1.3983230590820312,-0.0948623567819595,-0.0345887094736099,0.0275224987417459,-0.003498664824292,0.0,0.0,-0.8813827633857727,-0.0296176671981811
-0.0729414969682693,1.3973987102508545,-0.0939897149801254,-0.0410819612443447,0.0274156481027603,-0.0021369906608015,0.0,0.0,-0.9044482707977296,0.489875316619873
-0.0738732367753982,1.3963282108306885,-0.0931447520852088,-0.0475752465426921,0.027392067015171,-0.0004718103446066,0.0,0.0,-0.8729932904243469,-0.3348753452301025
-0.0747957229614257,1.3951117992401123,-0.0923279523849487,-0.054068561643362,0.0274664219468832,0.0014871924649924,0.0,0.0,-0.9674455523490906,0.0975900888442993
-0.0757092460989952,1.3937489986419678,-0.0915397852659225,-0.0605619102716445,0.0276529025286436,0.003729423508048,0.0,0.0,-0.9891847372055054,-0.1787809133529663
-0.0766139030456543,1.3922404050827026,-0.0907806828618049,-0.067055307328701,0.0279650818556547,0.0062434142455458,0.0,0.0,-0.9574753046035768,-0.2774758338928222
-0.0775098800659179,1.3905858993530271,-0.0900510102510452,-0.0735487267374992,0.0284159574657678,0.0090173734351992,0.0,0.0,-0.9462308883666992,0.16465425491333
-0.0783972740173339,1.3887850046157837,-0.0893510729074478,-0.0800422057509422,0.0290178898721933,0.012038929387927,0.0,0.0,-0.9660481214523317,0.7889482975006104
-0.0792063698172569,1.3868414163589478,-0.0798948630690574,-0.0863656997680664,0.0280219614505767,-0.0199187137186527,0.0,0.0,-0.9703567028045654,0.2578760385513305
-0.0800072699785232,1.3847516775131226,-0.0792551860213279,-0.0928592830896377,0.0271999835968017,-0.0164398588240146,0.0,0.0,-0.9774412512779236,0.1038030385971069
-0.080800250172615,1.3825159072875977,-0.0786458924412727,-0.0993528440594673,0.0265624206513166,-0.012751298956573,0.0,0.0,-0.9957125782966614,0.458763837814331
-0.08158540725708,1.380134344100952,-0.0780670791864395,-0.1058464050292968,0.026119165122509,-0.0088653843849897,0.0,0.0,-0.9960249066352844,0.5074665546417236
-0.0823234543204307,1.3776127099990845,-0.0725593417882919,-0.1120496243238449,0.0248836893588304,-0.0247092358767986,0.0,0.0,-0.9399678111076356,0.6572504043579102
-0.0829954147338867,1.3749538660049438,-0.0646608248353004,-0.1181290373206138,0.0223788972944021,-0.0500960350036621,0.0,0.0,-0.9987956881523132,-0.1894493699073791
-0.0836603194475174,1.3721489906311035,-0.0641735196113586,-0.124623067677021,0.020094433799386,-0.0456894785165786,0.0,0.0,-0.9917024970054626,0.1478660106658935
-0.0843182578682899,1.3691983222961426,-0.0637165307998657,-0.131116971373558,0.0180378332734107,-0.0411317944526672,0.0,0.0,-0.9903945922851562,0.4445047378540039
-0.0849695205688476,1.3661017417907717,-0.0632896870374679,-0.1376107633113861,0.016216168180108,-0.0364333242177963,0.0,0.0,-0.99099200963974,0.2531793117523193
-0.0856144875288009,1.3628588914871216,-0.0628927126526832,-0.1441044807434082,0.0146359847858548,-0.0316039584577083,0.0,0.0,-0.9918211102485656,0.7163197994232178
-0.0862017646431922,1.3594743013381958,-0.0560634322464466,-0.1504011303186416,0.0120082823559641,-0.0525538921356201,0.0,0.0,-0.99638569355011,0.7926576137542725
-0.0867217034101486,1.3559490442276,-0.0480143353343009,-0.156653493642807,0.0080885840579867,-0.0783942490816116,0.0,0.0,-0.9905951619148254,-0.2266029119491577
-0.0872358307242393,1.3522779941558838,-0.0477048866450786,-0.1631480604410171,0.0044272886589169,-0.0732258185744285,0.0,0.0,-0.9970857501029968,0.6061105728149414
-0.0876946449279785,1.3484553098678589,-0.0411667078733444,-0.1698893904685974,-0.0002233751583844,-0.0930133536458015,0.0,0.0,-0.999258041381836,-0.5847283005714417
-0.0881873145699501,1.344482421875,-0.0458249077200889,-0.1765739917755127,-0.0036226958036422,-0.0679864287376403,0.0,0.0,-0.998091459274292,-0.6337902545928955
-0.0887128859758377,1.340363621711731,-0.0503542050719261,-0.1830640882253646,-0.0057977829128503,-0.04350171610713,0.0,0.0,-0.9960684776306152,0.6556534767150879
-0.0891697853803634,1.3360933065414429,-0.0421391688287258,-0.1898119747638702,-0.0093029057607054,-0.0701023191213607,0.0,0.0,-0.991174817085266,-0.1398398280143737
-0.0896221175789833,1.331676959991455,-0.0419654361903667,-0.196305900812149,-0.0125287780538201,-0.0645174235105514,0.0,0.0,-0.9975297451019288,-0.0443755388259887
-0.0900701507925987,1.3271145820617676,-0.0418168678879737,-0.2027995735406875,-0.0154721410945057,-0.0588673539459705,0.0,0.0,-0.9970975518226624,-0.1868650317192077
-0.090513989329338,1.3224061727523804,-0.0416926965117454,-0.2092930376529693,-0.0181299969553947,-0.0531571321189403,0.0,0.0,-0.9974905252456664,0.0069136619567871
-0.0909538269042968,1.3175517320632937,-0.041592139750719,-0.2157862782478332,-0.0204995851963758,-0.0473914816975593,0.0,0.0,-0.9844135046005248,-0.5359241366386414
-0.0914361923933029,1.3125509023666382,-0.047300849109888,-0.2222684025764465,-0.0214196499437093,-0.0184013824909925,0.0,0.0,-0.9955025315284728,0.2408345937728881
-0.0919150337576866,1.3074040412902832,-0.0472449585795402,-0.2287610471248626,-0.0220465287566185,-0.0125377373769879,0.0,0.0,-0.988595485687256,0.5605206489562988
-0.0923478156328201,1.3021093606948853,-0.0418612994253635,-0.2353409975767135,-0.0234497189521789,-0.0280637852847576,0.0,0.0,-0.994201958179474,0.2894139289855957
-0.0927774459123611,1.296668529510498,-0.0418465360999107,-0.2418336421251297,-0.0245555900037288,-0.0221172999590635,0.0,0.0,-0.9969268441200256,0.4439817667007446
-0.0932041183114051,1.2910815477371216,-0.0418509319424629,-0.248326227068901,-0.0253623183816671,-0.016134463250637,0.0,0.0,-0.997319221496582,0.443017840385437
-0.0936280265450477,1.2853481769561768,-0.0418735221028327,-0.2548187375068664,-0.02586823515594,-0.0101183746010065,0.0,0.0,-0.9937691688537598,0.7408590316772461
-0.0939985290169715,1.2794721126556396,-0.035560268908739,-0.2611843347549438,-0.0273424498736858,-0.0294841732829809,0.0,0.0,-0.9965963959693908,0.179915189743042
-0.0943665504455566,1.2734498977661133,-0.0356163047254085,-0.2676769196987152,-0.0285129379481077,-0.0234099272638559,0.0,0.0,-0.998229682445526,0.6586511135101318
-0.0946902260184288,1.267280340194702,-0.030415128916502,-0.2742402851581573,-0.0304346699267625,-0.0384347140789032,0.0,0.0,-0.9953933358192444,-0.1804923415184021
-0.0950115174055099,1.2609646320343018,-0.0305005703121423,-0.2807329297065735,-0.0320503003895282,-0.032312374562025,0.0,0.0,-0.9913709163665771,0.64013671875
-0.0952711105346679,1.2545037269592283,-0.0231204107403755,-0.2872168719768524,-0.0348556190729141,-0.0561064593493938,0.0,0.0,-0.9972069263458252,-0.1341099739074707
-0.0955286994576454,1.247896671295166,-0.023231154307723,-0.2937097251415252,-0.037352867424488,-0.0499449633061885,0.0,0.0,-0.9976096749305724,-0.1601952314376831
-0.09578438103199,1.2411433458328247,-0.0233529713004827,-0.3002023696899414,-0.0395412072539329,-0.043766975402832,0.0,0.0,-0.9914543628692628,0.1911245584487915
-0.0960383415222168,1.234243869781494,-0.0234848223626613,-0.3066948652267456,-0.0414199158549308,-0.0375743731856346,0.0,0.0,-0.9937952756881714,-0.592976450920105
-0.0963260680437088,1.2272071838378906,-0.0280955228954553,-0.3127575218677521,-0.0420872308313846,-0.0133462147787213,0.0,0.0,-0.9967308640480042,0.3213527202606201
-0.0966120734810829,1.2200241088867188,-0.0282442830502986,-0.3192495703697204,-0.0424437150359153,-0.0071297637186944,0.0,0.0,-0.997645914554596,0.0467678308486938
-0.0968965515494346,1.2126951217651367,-0.0283999405801296,-0.325741559267044,-0.042488906532526,-0.0009038777789101,0.0,0.0,-0.9965187907218932,0.651833176612854
-0.0971225723624229,1.2052217721939087,-0.0214269943535327,-0.3321804702281952,-0.043649036437273,-0.0232026297599077,0.0,0.0,-0.9972092509269714,-0.0720874667167663
-0.0973470658063888,1.197602152824402,-0.0215933267027139,-0.3386725485324859,-0.0444971732795238,-0.016962707042694,0.0,0.0,-0.977744162082672,-0.2741801738739013
-0.0975701361894607,1.1898362636566162,-0.0217634346336126,-0.3451645672321319,-0.0450330674648284,-0.0107179898768663,0.0,0.0,-0.9980115294456482,-0.0733823776245117
-0.0977917686104774,1.1819241046905518,-0.0219362955540418,-0.3516564965248108,-0.0452565774321556,-0.0044700307771563,0.0,0.0,-0.9962354302406312,0.2620694637298584
-0.0980118736624717,1.1738656759262085,-0.0221108850091695,-0.3581484258174896,-0.0451675951480865,0.0017797499895095,0.0,0.0,-0.9818612337112428,-0.2175130248069763
-0.098230741918087,1.1656609773635864,-0.0222861934453248,-0.364640325307846,-0.0447660982608795,0.0080299470573663,0.0,0.0,-0.9959609508514404,0.2482173442840576
-0.0984480828046798,1.157310128211975,-0.0224612150341272,-0.3711323142051697,-0.0440521426498889,0.0142791075631976,0.0,0.0,-0.9975736737251282,0.0091302394866943
-0.0986640006303787,1.1488128900527954,-0.0226349588483572,-0.3776243329048157,-0.043025866150856,0.0205258168280124,0.0,0.0,-0.9862544536590576,0.2875893115997314
-0.0988784804940223,1.140169382095337,-0.0228064451366662,-0.3841163516044616,-0.041687436401844,0.0267686937004327,0.0,0.0,-0.9988553524017334,-0.3235394358634949
-0.0990915298461914,1.1313798427581787,-0.0229747015982866,-0.3906084895133972,-0.0400371141731739,0.0330062806606292,0.0,0.0,-0.9557068943977356,0.5820939540863037
