x_pos,y_pos,x_vel,y_vel,angle,ang_vel,leg_1,leg_2,main_booster,lat_booster
-0.0016501427162438,1.402917742729187,-0.1670677065849304,-0.3556598424911499,0.001833842950873,0.0361794456839561,0.0,0.0,0.8627478711379417,0.9366517578095774
-0.0032915114425122,1.395007848739624,-0.1641737222671508,-0.3515525460243225,0.0018719530198723,0.0007629635510966,0.0,0.0,-0.7109691663837396,-0.7202158011743541
-0.0051065445877611,1.386385202407837,-0.1826500445604324,-0.3832312524318695,0.0030019192490726,0.0226014349609613,0.0,0.0,-0.9714507666957202,0.863426542750938
-0.0069977762177586,1.3770532608032229,-0.1888669282197952,-0.414752334356308,0.0027447731699794,-0.0051430626772344,0.0,0.0,-0.6961221710620231,0.7174452331625685
-0.008952235803008,1.3670172691345217,-0.1934230476617813,-0.4460459053516388,0.0007532776216976,-0.0398338325321674,0.0,0.0,-0.6737081937296494,0.7780682554784539
-0.0109638217836618,1.356273531913757,-0.1972280442714691,-0.4775004386901855,-0.0031371724326163,-0.0778165683150291,0.0,0.0,-0.4398520919900779,0.8787943792296866
-0.0130419731140136,1.3448232412338257,-0.2021808177232742,-0.508928120136261,-0.0087083419784903,-0.1114335879683494,0.0,0.0,0.2970749387054052,-0.8190288833892493
-0.0151805877685546,1.3334298133850098,-0.2100299149751663,-0.5064024329185486,-0.012503407895565,-0.0759082213044166,0.0,0.0,0.8324206201048581,-0.889404778896188
-0.017526913434267,1.3227330446243286,-0.2325434237718582,-0.4754328727722168,-0.0145673369988799,-0.0412822626531124,0.0,0.0,-0.975439283630854,-0.6586414968243612
-0.0200603492558002,1.3113346099853516,-0.2525695860385895,-0.5066049695014954,-0.0153230130672454,-0.0151151362806558,0.0,0.0,-0.2843789062101478,-0.942494582538525
-0.0227929111570119,1.299231767654419,-0.2741261422634125,-0.537897527217865,-0.0144736161455512,0.0169896818697452,0.0,0.0,0.8389546791970288,-0.9862874449831496
-0.0256433486938476,1.287301778793335,-0.2880182862281799,-0.5301918387413025,-0.0115190362557768,0.0590968616306781,0.0,0.0,0.229255380354679,0.9970400392556972
-0.0284317024052143,1.2754474878311155,-0.2798729538917541,-0.5268513560295105,-0.0105002904310822,0.020376669242978,0.0,0.0,0.4404474376847522,0.6553589920835318
-0.0312361717224121,1.2633427381515503,-0.2803094089031219,-0.5379838347434998,-0.0106311598792672,-0.0026176513638347,0.0,0.0,-0.6104850010633107,0.8482585297145387
-0.0340953841805458,1.2505388259887695,-0.2836983799934387,-0.5690773129463196,-0.0128204822540283,-0.0437903888523578,0.0,0.0,-0.5981729602902979,-0.7996416969223548
-0.0371438041329383,1.2370200157165527,-0.3039653897285461,-0.6008474230766296,-0.0136903701350092,-0.0173990856856107,0.0,0.0,-0.5756553910576192,-0.8038564372365555
-0.0403790473937988,1.2228047847747805,-0.3239162862300873,-0.6317834258079529,-0.0133056081831455,0.0076957270503044,0.0,0.0,-0.8077924057269303,0.9762458475109134
-0.043657399713993,1.2078726291656494,-0.325820654630661,-0.6636680960655212,-0.0152891660109162,-0.039675049483776,0.0,0.0,-0.8924618747816722,0.9205961891165668
-0.0469895377755165,1.1922407150268557,-0.3290905654430389,-0.6947997212409973,-0.0193611588329076,-0.0814472585916519,0.0,0.0,0.7314648356709275,0.8850199031996226
-0.0504725463688373,1.1767922639846802,-0.3422853350639343,-0.6866870522499084,-0.0253137852996587,-0.1190631538629531,0.0,0.0,-0.0632717112877991,-0.6364748463094616
-0.0541337952017784,1.1606433391571045,-0.3611546158790588,-0.7178160548210144,-0.0302277002483606,-0.0982869490981102,0.0,0.0,0.93965687042485,-0.6967328017613048
-0.0579584129154682,0.0,-0.3789803981781006,-0.7146735787391663,-0.0336761847138404,-0.0689759403467178,0.0,0.0,-0.6648636923817668,0.7309500304489921
-0.0618517883121967,1.1277753114700315,-0.3841221332550049,-0.7463331818580627,-0.0388421602547168,-0.103328451514244,0.0,0.0,0.976029251689578,-0.9989552063791348
-0.0658562630414962,1.1108269691467283,-0.3974561095237732,-0.7533429265022278,-0.0418107062578201,-0.0593760684132576,0.0,0.0,0.7093628074142562,-0.9385071713018084
-0.0702107399702072,1.0941870212554932,-0.4341407716274261,-0.7395778298377991,-0.0430960915982723,-0.0257099606096744,0.0,0.0,-0.6304133072631364,0.6922821057126343
-0.074663445353508,1.0768202543258667,-0.4429799616336822,-0.7719287872314453,-0.0453617498278617,-0.045313473790884,0.0,0.0,-0.0413639855384215,-0.6316099254566001
-0.0793050751090049,1.0587539672851562,-0.4632011353969574,-0.8029731512069702,-0.0463116839528083,-0.0189987923949956,0.0,0.0,0.0053648446911251,0.608337625979966
-0.0841044411063194,1.0407428741455078,-0.477717787027359,-0.8005673885345459,-0.0485058575868606,-0.0438831187784671,0.0,0.0,0.9266074067412235,0.7298558881527117
-0.0891060829162597,1.0233922004699707,-0.4961555004119873,-0.7712743282318115,-0.0524661615490913,-0.079206183552742,0.0,0.0,-0.8962375669920495,0.8685131485313247
-0.0941810607910156,1.005326509475708,-0.5018826723098755,-0.8031190037727356,-0.0580166243016719,-0.1110091656446456,0.0,0.0,0.1600798007313297,-0.649554918835102
-0.0993972793221473,0.9874554872512816,-0.5174258351325989,-0.794445276260376,-0.0621694661676883,-0.0830568820238113,0.0,0.0,0.147550137295791,-0.7970654020375834
-0.1048593521118164,0.9693403244018556,-0.5436468124389648,-0.8052231073379517,-0.0646947249770164,-0.0505053028464317,0.0,0.0,-0.900012402502856,-0.750347238246427
-0.1105277091264724,0.9505321383476256,-0.5661054849624634,-0.8359529972076416,-0.0654284432530403,-0.0146742891520261,0.0,0.0,-0.9376774371677898,-0.6194011982399432
-0.1163899451494216,0.9310168027877808,-0.5869506597518921,-0.8673132658004761,-0.0647040233016014,0.0144884213805198,0.0,0.0,0.0758400521581947,0.6010686378353601
-0.1223055869340896,0.911401629447937,-0.5912104845046997,-0.8718003630638123,-0.0650589168071746,-0.0070978761650621,0.0,0.0,0.0775636829511132,0.7396517054953834
-0.1282562315464019,0.8918166160583496,-0.5933276414871216,-0.8705210089683533,-0.0667698234319686,-0.0342179536819458,0.0,0.0,0.9145297757821838,0.7354214754253854
-0.1342856436967849,0.8723083138465881,-0.5997689366340637,-0.8671808838844299,-0.0699133872985839,-0.0628713518381118,0.0,0.0,-0.8744313173733516,-0.9617905536357672
-0.1405247747898101,0.8521080613136292,-0.6226762533187866,-0.8978437185287476,-0.071147434413433,-0.0246809478849172,0.0,0.0,0.6847948621989501,0.8777344876231141
-0.1468166410923004,0.8324939012527466,-0.6262175440788269,-0.8718844652175903,-0.0740800350904464,-0.0586522221565246,0.0,0.0,-0.6012970267583786,0.7753754574778482
-0.1531830728054046,0.8121670484542847,-0.6321732401847839,-0.903645932674408,-0.0785064622759819,-0.0885283201932907,0.0,0.0,0.7162956637688538,-0.6947584858506977
-0.1597993820905685,0.7923696041107178,-0.6584212779998779,-0.8800595998764038,-0.0816884785890579,-0.063640184700489,0.0,0.0,0.965257167816162,0.9993107318878174
-0.166262149810791,0.7727647423744202,-0.6414609551429749,-0.8716030120849609,-0.0864597484469413,-0.0954254418611526,0.0,0.0,0.9539752006530762,0.995852828025818
-0.172626107931137,0.7529699206352234,-0.6299265623092651,-0.880155622959137,-0.0928721949458122,-0.1282490789890289,0.0,0.0,0.997199535369873,0.999974012374878
-0.1788577139377594,0.7333917617797852,-0.6150452494621277,-0.870660126209259,-0.1009127795696258,-0.160811573266983,0.0,0.0,0.9659513235092164,0.9997564554214478
-0.1851671189069748,0.713615357875824,-0.6208922863006592,-0.879665195941925,-0.1108974739909172,-0.1996939480304718,0.0,0.0,0.9818904399871826,0.9990115165710448
-0.1914311349391937,0.6936978101730347,-0.6145995259284973,-0.8861461877822876,-0.1226299256086349,-0.2346490621566772,0.0,0.0,0.9986082315444946,0.999889612197876
-0.1976069509983062,0.6738452911376953,-0.604073703289032,-0.8835007548332214,-0.1360719203948974,-0.2688402235507965,0.0,0.0,0.9884706735610962,0.999544620513916
-0.2038525640964508,0.654805064201355,-0.6089892983436584,-0.8477305769920349,-0.1516059041023254,-0.3106795847415924,0.0,0.0,0.9746171236038208,0.999921441078186
-0.2101870477199554,0.6364889144897461,-0.6157827973365784,-0.8159478902816772,-0.169272094964981,-0.3533239960670471,0.0,0.0,0.8721877336502075,0.999701738357544
-0.2165090590715408,0.6183063983917236,-0.6127070188522339,-0.8104485869407654,-0.188824325799942,-0.3910443186759949,0.0,0.0,0.946260929107666,0.9996345043182372
-0.2225780487060547,0.6003379821777344,-0.5859457850456238,-0.8014006018638611,-0.2099175006151199,-0.4218637943267822,0.0,0.0,0.8133924007415771,0.9998760223388672
-0.2286040782928466,0.5828590989112854,-0.5798303484916687,-0.7802396416664124,-0.2329527735710144,-0.4607053399085998,0.0,0.0,0.6110608577728271,0.999232530593872
-0.2344704121351242,0.5652386546134949,-0.5622907876968384,-0.7871761918067932,-0.2577137947082519,-0.4952207505702972,0.0,0.0,0.9296538829803468,0.9998128414154052
-0.2401504069566726,0.5482479929924011,-0.5420242547988892,-0.7599300742149353,-0.2843140363693237,-0.5320050120353699,0.0,0.0,0.2937654256820678,0.9966869354248048
-0.2456500977277755,0.5310153365135193,-0.522441029548645,-0.7715087532997131,-0.3127318620681762,-0.5683570504188538,0.0,0.0,0.850487470626831,0.96755051612854
-0.251160204410553,0.5138553977012634,-0.5218368768692017,-0.7692480087280273,-0.3431369364261627,-0.6081022620201111,0.0,0.0,0.9139883518218994,-0.0813336968421936
-0.2563872337341308,0.4972485899925232,-0.4944742321968078,-0.745087742805481,-0.3728653192520141,-0.5945683717727661,0.0,0.0,0.8217451572418213,0.9141417741775512
-0.2612474858760834,0.4808566570281982,-0.4567950665950775,-0.7364686131477356,-0.4040248095989227,-0.62319016456604,0.0,0.0,0.9329440593719482,-0.38043874502182
-0.2657766938209533,0.4650458395481109,-0.4246044754981994,-0.7110826969146729,-0.4346058964729309,-0.6116224527359009,0.0,0.0,0.968610405921936,-0.9581723809242249
-0.2701954245567322,0.4499300718307495,-0.4157823026180267,-0.6801614165306091,-0.4631741642951965,-0.5713657140731812,0.0,0.0,0.9867050647735596,-0.7308517098426819
-0.2745355069637298,0.4347014129161834,-0.4099363684654236,-0.6850854754447937,-0.4898931980133056,-0.5343804359436035,0.0,0.0,0.966103196144104,-0.9494637846946716
-0.2787887156009674,0.4200270771980285,-0.403317928314209,-0.6602208614349365,-0.5146521329879761,-0.4951784610748291,0.0,0.0,0.9779877662658693,-0.9310994744300842
-0.2827846109867096,0.4053913056850433,-0.3799996078014374,-0.6580364108085632,-0.5369919538497925,-0.4467968344688415,0.0,0.0,0.9886541366577148,-0.9795743823051452
-0.2865655422210693,0.391039490699768,-0.360746681690216,-0.6448838114738464,-0.5570249557495117,-0.400660365819931,0.0,0.0,0.9571740627288818,-0.986389458179474
-0.2902778685092926,0.3766350150108337,-0.356050968170166,-0.6466150283813477,-0.5747764110565186,-0.3550292551517486,0.0,0.0,0.9229776859283448,-0.99680358171463
-0.2939377427101135,0.362586110830307,-0.3527254462242126,-0.6302147507667542,-0.5904461145401001,-0.313394159078598,0.0,0.0,0.9697264432907104,-0.9881264567375184
-0.2971865236759186,0.3491527438163757,-0.3137141168117523,-0.6020883917808533,-0.603757917881012,-0.2662359178066253,0.0,0.0,0.9729068279266356,-0.9997921586036682
-0.3003358244895935,0.3354082405567169,-0.30591481924057,-0.6150568723678589,-0.6146036386489868,-0.2169145792722702,0.0,0.0,0.9717036485671996,-0.9980968236923218
-0.3030451834201813,0.3222505450248718,-0.2639657855033874,-0.5880893468856812,-0.6230494976043701,-0.1689176261425018,0.0,0.0,0.986154079437256,-0.9964556694030762
-0.3057050108909607,0.3092525601387024,-0.2607951760292053,-0.5801874399185181,-0.6293606758117676,-0.1262238472700119,0.0,0.0,0.9921777248382568,-0.880153238773346
-0.3081499636173248,0.2967070341110229,-0.2408568114042282,-0.5593518018722534,-0.6338086128234863,-0.0889585763216018,0.0,0.0,0.9828734397888184,-0.9915470480918884
-0.3102926611900329,0.2843899130821228,-0.212589830160141,-0.5482542514801025,-0.6358717083930969,-0.0412622466683387,0.0,0.0,0.8868440389633179,-0.9549745321273804
-0.3121581971645355,0.2727483510971069,-0.1865222454071045,-0.5174188017845154,-0.6359111666679382,-0.0007886088569648,0.0,0.0,0.9971418380737304,-0.918378472328186
-0.3136945366859436,0.2612177729606628,-0.1554959714412689,-0.5115528106689453,-0.6336223483085632,0.0457761064171791,0.0,0.0,0.9917296171188354,-0.6953909397125244
-0.3151359558105469,0.2496316283941269,-0.1472898125648498,-0.5134036540985107,-0.629771888256073,0.0770097523927688,0.0,0.0,0.9944841861724854,-0.8174477219581604
-0.3164288401603699,0.2377837747335434,-0.134179338812828,-0.5242118239402771,-0.6238200664520264,0.1190365552902221,0.0,0.0,0.9847568273544312,-0.0362284183502197
-0.3176109194755554,0.2257581055164337,-0.1230989545583725,-0.5321410298347473,-0.6178827881813049,0.1187449842691421,0.0,0.0,0.9959875345230104,-0.7499078512191772
-0.3183841705322265,0.2142621576786041,-0.0836974456906318,-0.5079308152198792,-0.6101750731468201,0.1541547179222107,0.0,0.0,0.9908584356307985,-0.9327163696289062
-0.3186511099338531,0.2032461464405059,-0.0350911915302276,-0.4857246279716491,-0.6000996828079224,0.2015080451965332,0.0,0.0,0.9848244190216064,-0.9021496772766112
-0.3186237812042236,0.1929310858249664,-0.0072766989469528,-0.4539288282394409,-0.5881686210632324,0.2386211901903152,0.0,0.0,0.9946255683898926,-0.8221143484115601
-0.3186514377593994,0.1825967133045196,-0.0141812758520245,-0.4542914032936096,-0.5746722221374512,0.2699281871318817,0.0,0.0,0.9970412254333496,-0.7646148204803467
-0.3182366490364074,0.1727711707353592,0.0283113326877355,-0.4310938715934753,-0.5592575669288635,0.3082932233810425,0.0,0.0,0.9956529140472412,-0.8181329369544983
-0.3176884055137634,0.1632813811302185,0.0401210263371467,-0.4157414138317108,-0.5422173142433167,0.3408056199550628,0.0,0.0,0.9960962533950806,-0.8173745274543762
-0.3168954849243164,0.1542477011680603,0.0629129260778427,-0.3950450718402862,-0.5234325528144836,0.3756949305534363,0.0,0.0,0.9979552030563354,-0.8099231123924255
-0.315803587436676,0.1456720679998397,0.0909974053502082,-0.3742888867855072,-0.5028129816055298,0.4123919606208801,0.0,0.0,0.996304988861084,-0.503491997718811
-0.3143607974052429,0.137266457080841,0.1245035082101821,-0.36650350689888,-0.4806559979915619,0.4431394040584564,0.0,0.0,0.9888614416122437,-0.7814456224441528
-0.3128010332584381,0.1287218630313873,0.1343052387237548,-0.3724251687526703,-0.4566634893417358,0.4798500537872314,0.0,0.0,0.996346950531006,-0.9295719265937804
-0.311021089553833,0.1200928092002868,0.1539600044488906,-0.3758738934993744,-0.4303839802742004,0.5255907773971558,0.0,0.0,0.9917349815368652,-0.5109052062034607
-0.3088511526584625,0.1116116642951965,0.1910351067781448,-0.3692603409290313,-0.4023509919643402,0.5606603622436523,0.0,0.0,0.9927897453308104,-0.9494343996047974
-0.3064188361167907,0.1030183658003807,0.2146957367658615,-0.3741315901279449,-0.3719138503074646,0.6087430119514465,0.0,0.0,0.9915227890014648,-0.8324796557426453
-0.3037406802177429,0.0950409024953842,0.2371923476457595,-0.3469305038452148,-0.3396498262882232,0.645281195640564,0.0,0.0,0.98807954788208,-0.9729598760604858
-0.300800085067749,0.0876858532428741,0.2609824538230896,-0.3194824457168579,-0.3051988184452057,0.6890210509300232,0.0,0.0,0.9908361434936525,-0.9835615158081056
-0.2975355088710785,0.0807533115148544,0.2906710207462311,-0.3010263442993164,-0.2683492004871368,0.7369922399520874,0.0,0.0,0.9922969341278076,-0.9715646505355836
-0.2941086888313293,0.0736688449978828,0.3042636811733246,-0.3083038628101349,-0.2292010486125946,0.7829638123512268,0.0,0.0,0.9975471496582032,-0.9068488478660583
-0.2906693518161773,0.0668432340025901,0.303379476070404,-0.2975724935531616,-0.1882593333721161,0.8188349604606628,0.0,0.0,0.9990019798278807,-0.8042705655097961
-0.2869691848754883,0.0608680583536624,0.3271729350090027,-0.2606924474239349,-0.1453535854816436,0.8581151962280273,0.0,1.0,0.9296505451202391,-0.0046814084053039
-0.2832551896572113,0.055869922041893,0.3462234139442444,-0.2202819436788559,-0.1218814626336097,0.4675145745277405,0.0,1.0,0.8111972808837891,0.5536566972732544
-0.2796759605407715,0.0521259158849716,0.3558196127414703,-0.1662383824586868,-0.11983073502779,0.0409628972411155,0.0,1.0,0.651864767074585,0.905836582183838
-0.2759572565555572,0.0492713302373886,0.3896170258522033,-0.1284053176641464,-0.1375531554222107,-0.3545202314853668,0.0,1.0,0.9494243860244752,-0.5936958193778992
-0.2722854018211365,0.0473512969911098,0.3929780125617981,-0.0879336819052696,-0.1633579283952713,-0.516165554523468,0.0,1.0,0.8800485134124756,0.465136170387268
-0.2685569226741791,0.0459925979375839,0.3981759548187256,-0.0633786246180534,-0.1887777149677276,-0.508430540561676,0.0,1.0,0.9202531576156616,0.5984840393066406
-0.2646976411342621,0.0447694398462772,0.4120047986507416,-0.0579013675451278,-0.2150632590055465,-0.5257314443588257,0.0,0.0,-0.8361777067184448,-0.9660201072692872
-0.2609044015407562,0.042877659201622,0.4028705656528473,-0.0876861959695816,-0.2389279901981353,-0.4773130416870117,0.0,0.0,-0.8227657675743103,-0.9668608903884888
-0.2571750581264496,0.0403175465762615,0.3938756585121155,-0.1173296421766281,-0.2602648138999939,-0.4267526566982269,0.0,0.0,-0.290213942527771,-0.8045410513877869
-0.2534599304199219,0.0370806567370891,0.3909336626529693,-0.147433653473854,-0.2801657915115356,-0.3980346024036407,0.0,0.0,-0.0809060335159301,-0.5870338082313538
-0.249744176864624,0.0331541150808334,0.3897724747657776,-0.178121879696846,-0.2989156544208526,-0.3750113546848297,0.0,0.0,0.5033814907073975,-0.5575999617576599
-0.2456564009189605,0.030501589179039,0.4078899025917053,-0.1176914200186729,-0.2980332374572754,0.0175949819386005,1.0,0.0,0.908947229385376,-0.9984408020973206
-0.241305872797966,0.0293083284050226,0.4150207936763763,-0.0490641742944717,-0.2773768305778503,0.4131595492362976,1.0,0.0,0.7543092966079712,-0.9815114736557008
-0.2365598231554031,0.0291183572262525,0.4432272315025329,-0.0027881276328116,-0.2452782094478607,0.6419874429702759,1.0,0.0,0.7038946151733398,-0.975235402584076
-0.2316951304674148,0.0290604922920465,0.4546710848808288,0.002420044504106,-0.213001862168312,0.64555823802948,1.0,0.0,0.5153454542160034,-0.9798575639724731
-0.2267737835645675,0.029634915292263,0.4634602665901184,0.0293169450014829,-0.1844238936901092,0.571211040019989,0.0,1.0,0.139906644821167,-0.9535382986068726
-0.2218114882707595,0.0305624585598707,0.4719766080379486,0.0438261441886425,-0.1608684062957763,0.4702313840389251,0.0,1.0,0.1371699571609497,-0.955248236656189
-0.2168497592210769,0.0314530245959758,0.4767389893531799,0.0415628775954246,-0.1414718180894851,0.3879224061965942,0.0,1.0,-0.212185263633728,-0.9534231424331664
-0.212005466222763,0.0318466275930404,0.468092530965805,0.0189584270119667,-0.1252041906118393,0.3253442645072937,0.0,1.0,-0.3528268337249756,-0.9638312458992004
-0.2072558850049972,0.0315982922911644,0.4575161039829254,-0.0096691455692052,-0.1078860685229301,0.3463405072689056,0.0,1.0,-0.2967801094055176,-0.9010754227638244
-0.2026110589504242,0.0308726653456687,0.4513674676418304,-0.0313595905900001,-0.0948931351304054,0.2598412632942199,0.0,1.0,-0.1404667496681213,-0.9148799180984496
-0.1980669945478439,0.0296689607203006,0.4458387792110443,-0.0529827624559402,-0.0864145159721374,0.1695576161146164,0.0,1.0,-0.0862125158309936,-0.6962050795555115
-0.1935957968235016,0.0279634334146976,0.4433567523956299,-0.0755905583500862,-0.082692801952362,0.0744215101003646,0.0,1.0,0.0612781047821044,-0.453796923160553
-0.1890273094177246,0.0262104850262403,0.4530791640281677,-0.0777105316519737,-0.0789691805839538,0.0744610279798507,0.0,1.0,0.0352305173873901,-0.7354251742362976
-0.1844619810581207,0.0245432239025831,0.4519717693328857,-0.0738681107759475,-0.0744640231132507,0.0900934711098671,0.0,1.0,0.067557692527771,-0.8622676134109497
