x_pos,y_pos,x_vel,y_vel,angle,ang_vel,leg_1,leg_2,main_booster,lat_booster
-0.0015276909107342,1.4034439325332642,-0.1548596620559692,-0.3322802186012268,0.0018642636714503,0.036782220005989,0.0,0.0,-0.4300957275600863,-0.6287178180764914
-0.003105544950813,1.3958070278167725,-0.1608613431453704,-0.3394254148006439,0.0049122655764222,0.0609663240611553,0.0,0.0,0.8866654785915529,0.0983993656076024
-0.0045383451506495,1.3886821269989014,-0.1472034454345703,-0.316675066947937,0.0087910294532775,0.0775823518633842,0.0,0.0,0.6201602238084143,-0.5659042968323105
-0.0061513902619481,1.382107496261597,-0.1661225408315658,-0.2922382950782776,0.0135539034381508,0.0952663570642471,0.0,0.0,-0.6154842503625584,-0.6653761911046558
-0.0078121186234056,1.3753539323806765,-0.1720382869243621,-0.3002268970012665,0.0194615609943866,0.1181640028953552,0.0,0.0,0.5435912420089124,-0.6758265037491424
-0.0094023700803518,1.36918306350708,-0.1667912006378173,-0.2743860483169555,0.0271293483674526,0.1533699333667755,0.0,0.0,-0.949542282141741,-0.2235653326579108
-0.0110004423186182,1.362831950187683,-0.1676724851131439,-0.2824263572692871,0.0349146164953708,0.1557198762893676,0.0,0.0,0.5876924402797088,0.2279245414018746
-0.0124848363921046,1.357240915298462,-0.1571227610111236,-0.2487159669399261,0.0435070060193538,0.1718636453151703,0.0,0.0,-0.9618578998591024,-0.4844919295502139
-0.0139780044555664,1.351470112800598,-0.1581270545721054,-0.2567593157291412,0.0522253140807151,0.1743820309638977,0.0,0.0,-0.6093705635178737,-0.0535183394259236
-0.0154804233461618,1.345519781112671,-0.1591916978359222,-0.2647921741008758,0.0610741712152957,0.176993578672409,0.0,0.0,0.7191181013795631,0.816263545562983
-0.0168677326291799,1.3403315544128418,-0.1463624536991119,-0.2309191524982452,0.0686317682266235,0.1511660516262054,0.0,0.0,0.4971555419021911,0.7045113462309711
-0.0181724540889263,1.335691213607788,-0.1369627118110656,-0.2065535485744476,0.075069174170494,0.1287600547075271,0.0,0.0,-0.8100916682469859,-0.4078453269167659
-0.0194880478084087,1.3308707475662231,-0.1381962299346923,-0.2145900875329971,0.0816478580236435,0.1315856724977493,0.0,0.0,-0.4992639521726982,-0.0128875171508913
-0.0208151824772357,1.325870394706726,-0.1394877880811691,-0.2226224392652511,0.0883704349398613,0.1344638466835022,0.0,0.0,0.9273139245629044,-0.0298066008602427
-0.0220751762390136,1.3221489191055298,-0.1337074935436248,-0.1658718734979629,0.0960151702165603,0.1529090106487274,0.0,0.0,0.8154640378107827,0.6263775816102319
-0.0232006069272756,1.3187536001205444,-0.1194785088300705,-0.1513674259185791,0.1029057204723358,0.1378235518932342,0.0,0.0,-0.2134980523523644,0.7506191156623883
-0.0242673866450786,1.3151980638504028,-0.1119096726179122,-0.1583898216485977,0.1081105172634124,0.1041052788496017,0.0,0.0,0.4264979476110695,-0.8101925923505705
-0.025308322161436,1.3119502067565918,-0.1113000065088272,-0.1448830515146255,0.1152820885181427,0.1434441357851028,0.0,0.0,-0.3316817153726423,0.3135781601690347
-0.0263632778078317,1.3085224628448486,-0.1128607392311096,-0.1529237627983093,0.1226090788841247,0.1465529501438141,0.0,0.0,0.9414873609671076,0.5746865281601018
-0.0275691989809274,1.3058948516845703,-0.1266675442457199,-0.1172979548573494,0.1286601424217224,0.121032178401947,0.0,0.0,0.4447144661419711,0.6826373636516745
-0.028699493035674,1.3041040897369385,-0.1181200295686721,-0.0800404176115989,0.133740946650505,0.1016256362199783,0.0,0.0,-0.2633075503380595,0.4557300668258391
-0.0298451427370309,1.302133083343506,-0.1198178902268409,-0.0880794897675514,0.1389847099781036,0.1048845872282981,0.0,0.0,0.582178958253952,-0.8035519412219858
-0.0310049057006835,1.3007711172103882,-0.1232355237007141,-0.0612175352871418,0.1462308913469314,0.1449367105960846,0.0,0.0,0.3326537730802013,0.4664336843804401
-0.0321619994938373,1.2996153831481934,-0.123380996286869,-0.0521326325833797,0.1539037972688675,0.1534719318151474,0.0,0.0,0.7468746581155281,0.0040915608477629
-0.0335885062813758,1.2992541790008545,-0.1497895568609237,-0.0168043319135904,0.161048337817192,0.1429037302732467,0.0,0.0,-0.8570249760085111,-0.4120033386093379
-0.0350296981632709,1.298692226409912,-0.1514293402433395,-0.0257869027554988,0.1683631390333175,0.1462955772876739,0.0,0.0,-0.1226857792066433,0.3043950928069021
-0.036488153040409,1.2979507446289062,-0.1533168852329254,-0.0338218063116073,0.1758492738008499,0.1497225761413574,0.0,0.0,-0.1318472758696702,-0.9857714287926832
-0.0380587577819824,1.2970151901245115,-0.1670880019664764,-0.0427986420691013,0.185906320810318,0.2011410444974899,0.0,0.0,0.3834964041276583,0.7694476199404394
-0.0398285873234272,1.2968459129333496,-0.1854596138000488,-0.0086076986044645,0.1944177001714706,0.1702274680137634,0.0,0.0,-0.175109027027946,-0.6112190574297489
-0.0416654571890831,1.296481013298035,-0.1935781240463256,-0.0175541602075099,0.2043752819299698,0.1991518586874008,0.0,0.0,-0.7672887650623357,0.042458029379079
-0.0435210242867469,1.2959370613098145,-0.195589542388916,-0.0255933627486228,0.2145081162452697,0.20265693962574,0.0,0.0,-0.986476480960846,0.9903361797332764
-0.0453277602791786,1.2952303886413574,-0.1891753375530243,-0.032668363302946,0.2230858206748962,0.1715545356273651,0.0,0.0,-0.9915165305137634,0.9908082485198976
-0.0470892898738384,1.2943758964538574,-0.1830906420946121,-0.0390496253967285,0.2301108390092849,0.1405006200075149,0.0,0.0,-0.978783130645752,0.9906337261199952
-0.0488004684448242,1.2933567762374878,-0.1764707565307617,-0.0461368076503276,0.2355349063873291,0.1084814891219139,0.0,0.0,-0.9901837706565856,0.9982097148895264
-0.0504528060555458,1.2921881675720217,-0.1687024682760238,-0.0524964705109596,0.239067330956459,0.0706481784582138,0.0,0.0,-0.9941282868385316,0.9973225593566896
-0.0520468726754188,1.2908756732940674,-0.1610223799943924,-0.0585949830710887,0.2406986504793167,0.0326264314353466,0.0,0.0,-0.9978235960006714,0.9819849729537964
-0.0535879135131835,1.2894048690795898,-0.1540150195360183,-0.0653612464666366,0.240617573261261,-0.0016214052448049,0.0,0.0,-0.9991317987442015,0.9723944664001464
-0.0550704970955848,1.287790298461914,-0.1463028788566589,-0.0714380368590354,0.2386229783296585,-0.0398920178413391,0.0,0.0,-0.9972060322761536,0.9748263359069824
-0.0565049163997173,1.286031723022461,-0.1398303806781768,-0.0775758922100067,0.234960675239563,-0.0732460469007492,0.0,0.0,-0.9886586666107178,0.9903316497802734
-0.0578797347843647,1.284123182296753,-0.131991907954216,-0.0839555561542511,0.2293863296508789,-0.1114867180585861,0.0,0.0,-0.929262399673462,0.9117223024368286
-0.0592180266976356,1.2820628881454468,-0.127013012766838,-0.0905274301767349,0.2224744707345962,-0.1382368355989456,0.0,0.0,-0.9997125864028932,0.9464390277862548
-0.060488224029541,1.2798508405685425,-0.1180944442749023,-0.0969892889261245,0.2134482562541961,-0.18052439391613,0.0,0.0,-0.9996057748794556,0.6520254611968994
-0.0617189407348632,1.2774720191955566,-0.1128010526299476,-0.1042783111333847,0.2030850201845169,-0.2072648108005523,0.0,0.0,-0.9988791942596436,0.8878579139709473
-0.0628893822431564,1.274937629699707,-0.1048681512475013,-0.1110161021351814,0.1908257007598877,-0.2451861351728439,0.0,0.0,-0.9826915860176086,0.7105103731155396
-0.0640272125601768,1.2722318172454834,-0.1004454120993614,-0.118595041334629,0.1774236410856247,-0.2680411040782928,0.0,0.0,-0.9901450276374816,0.6611006259918213
-0.0651288032531738,1.2693567276000977,-0.0955439284443855,-0.1261040270328521,0.1627810597419738,-0.2928523421287536,0.0,0.0,-0.9555397629737854,-0.0443546772003173
-0.0662502273917198,1.2663042545318604,-0.0976630896329879,-0.1341522634029388,0.1483203321695327,-0.2892142534255981,0.0,0.0,-0.9175385236740112,-0.5586017966270447
-0.0674434676766395,1.2630679607391355,-0.1063351854681968,-0.1425847113132476,0.1353640407323837,-0.2591258883476257,0.0,0.0,-0.7007136344909668,0.2941162586212158
-0.0686560645699501,1.2596538066864014,-0.1084197536110878,-0.1506287753582,0.1225895807147026,-0.2554894089698791,0.0,0.0,-0.8007669448852539,-0.1182544827461242
-0.069887638092041,1.256061315536499,-0.1104818806052208,-0.1586723029613495,0.1099968552589416,-0.2518546283245086,0.0,0.0,-0.928033411502838,0.1455543041229248
-0.0711378082633018,1.2522904872894287,-0.1125184074044227,-0.1667152494192123,0.0975857377052307,-0.2482223957777023,0.0,0.0,-0.9426777362823486,-0.3657208681106567
-0.0724064856767654,1.24834144115448,-0.1145260706543922,-0.1747576594352722,0.085356056690216,-0.2445936501026153,0.0,0.0,-0.9025300145149232,-0.8528069257736206
-0.0737478286027908,1.244201898574829,-0.1233803406357765,-0.1834037899971008,0.0746996477246284,-0.2131279408931732,0.0,0.0,-0.8747592568397522,-0.3877012729644775
-0.0751069039106369,1.239883542060852,-0.1253204941749572,-0.1914425045251846,0.0642241612076759,-0.2095098197460174,0.0,0.0,-0.9031952023506165,-0.5887565016746521
-0.0765181556344032,1.2353801727294922,-0.1316025853157043,-0.199767380952835,0.054811805486679,-0.1882474869489669,0.0,0.0,-0.9592440724372864,0.2639470100402832
-0.0779461860656738,1.230697512626648,-0.1334611475467682,-0.2078037112951278,0.0455796308815479,-0.1846432983875274,0.0,0.0,-0.939123272895813,-0.5161771774291992
-0.0794251412153244,1.2258377075195312,-0.1396083384752273,-0.2157602310180664,0.0373930931091308,-0.1637306958436966,0.0,0.0,-0.9145453572273254,0.076024055480957
-0.080919936299324,1.220798373222351,-0.141370877623558,-0.223794475197792,0.029385894536972,-0.1601442247629165,0.0,0.0,-0.9304727911949158,0.4732246398925781
-0.0824299827218055,1.2155791521072388,-0.1430798470973968,-0.2318283766508102,0.0215574819594621,-0.1565680205821991,0.0,0.0,-0.9936630725860596,0.9086703062057496
-0.0838920623064041,1.2101904153823853,-0.1368626803159713,-0.2393961548805236,0.0123280370607972,-0.1845890581607818,0.0,0.0,-0.9764208793640136,-0.0038620233535766
-0.0853683501482009,1.2046220302581787,-0.1384532004594802,-0.2474315762519836,0.0032762454356998,-0.181035965681076,0.0,0.0,-0.9774218797683716,0.2510246038436889
-0.0868580788373947,1.1988742351531982,-0.1399788111448288,-0.2554665803909302,-0.0055985702201724,-0.1774964034557342,0.0,0.0,-0.843463122844696,0.3047317266464233
-0.0883605927228927,1.1929469108581543,-0.1414356380701065,-0.2635011970996856,-0.0142971407622098,-0.1739714443683624,0.0,0.0,-0.9926806688308716,0.0438398122787475
-0.0898751243948936,1.186839580535889,-0.1428197622299194,-0.2715353369712829,-0.0228202603757381,-0.1704622656106948,0.0,0.0,-0.922653317451477,0.6459488868713379
-0.091349221765995,1.180546522140503,-0.1376387178897857,-0.2798803746700287,-0.0324705466628074,-0.19300577044487,0.0,0.0,-0.988925039768219,0.5148804187774658
-0.0928013771772384,1.174072504043579,-0.1348054558038711,-0.2879906594753265,-0.0427607521414756,-0.2058039158582687,0.0,0.0,-0.8894188404083252,-0.3876562714576721
-0.094263270497322,1.167419195175171,-0.1359480619430542,-0.2960270047187805,-0.0528781972825527,-0.2023490220308303,0.0,0.0,-0.9224774241447448,0.421283483505249
-0.0957338362932205,1.1605865955352783,-0.1370022594928741,-0.3040628731250763,-0.0628239437937736,-0.1989151537418365,0.0,0.0,-0.9659848809242249,0.4295370578765869
-0.0972123146057128,1.1535744667053225,-0.1379641145467758,-0.312098354101181,-0.0725991278886795,-0.1955038458108902,0.0,0.0,-0.9824522733688354,0.125335693359375
-0.0986976623535156,1.1463825702667236,-0.1388297528028488,-0.3201333880424499,-0.0822049528360366,-0.1921165287494659,0.0,0.0,-0.9789457321166992,0.8519629240036011
-0.1001316085457801,1.1390081644058228,-0.1324299573898315,-0.3284029364585876,-0.0930800959467887,-0.2175028324127197,0.0,0.0,-0.8116922974586487,0.249024748802185
-0.1015705093741417,1.1314542293548584,-0.1330921947956085,-0.3364395797252655,-0.1037884727120399,-0.2141678631305694,0.0,0.0,-0.9412252306938172,-0.2967376708984375
-0.1030132323503494,1.1237210035324097,-0.133647084236145,-0.3444757759571075,-0.1143315657973289,-0.2108619511127472,0.0,0.0,-0.5979604125022888,-0.1599078178405761
-0.1044585257768631,1.115808367729187,-0.1340911537408828,-0.3525115251541137,-0.1247109174728393,-0.2075869143009185,0.0,0.0,-0.5523483753204346,0.7679922580718994
-0.1058488860726356,1.107699632644653,-0.1273265331983566,-0.3614084124565124,-0.1363784372806549,-0.233350783586502,0.0,0.0,-0.688513457775116,0.2022984027862548
-0.1072396263480186,1.0994118452072144,-0.1275395154953003,-0.3694460093975067,-0.147885575890541,-0.2301427870988845,0.0,0.0,-0.8175272941589355,0.2526592016220093
-0.1086296066641807,1.09094500541687,-0.1276321560144424,-0.3774830996990204,-0.1592341661453247,-0.2269719541072845,0.0,0.0,-0.8190279603004456,0.0461838245391845
-0.1100174933671951,1.0822986364364624,-0.127601608633995,-0.3855197727680206,-0.1704261898994445,-0.2238405048847198,0.0,0.0,-0.9549025297164916,0.37774658203125
-0.1114020347595214,1.0734729766845703,-0.1274453401565551,-0.3935559689998626,-0.1814637333154678,-0.2207508832216262,0.0,0.0,-0.5475136041641235,0.1783173084259033
-0.1127820014953613,1.0644679069519043,-0.1271610260009765,-0.4015917479991913,-0.1923490166664123,-0.217705637216568,0.0,0.0,-0.8215899467468262,0.7934387922286987
-0.1141088455915451,1.055261254310608,-0.1207769736647605,-0.4107729494571686,-0.204340785741806,-0.2398350238800048,0.0,0.0,-0.6914790868759155,0.1156294345855712
-0.1154285445809364,1.0458754301071167,-0.120231494307518,-0.4188103377819061,-0.2161850929260254,-0.2368864715099334,0.0,0.0,-0.4584732055664062,-0.7403261661529541
-0.1168064102530479,1.036332130432129,-0.1279442608356475,-0.4256215691566467,-0.2261439263820648,-0.1991766095161438,0.0,0.0,-0.8090013861656189,-0.5283273458480835
-0.1182186156511306,1.026626467704773,-0.1326769441366195,-0.4327030479907989,-0.2347976565361023,-0.1730746924877166,0.0,0.0,-0.9143980145454408,0.5094726085662842
-0.119580939412117,1.016729474067688,-0.1268629729747772,-0.4413914084434509,-0.2443176358938217,-0.1904000341892242,0.0,0.0,-0.9004133939743042,-0.2072656750679016
-0.12093086540699,1.006652593612671,-0.125778391957283,-0.4494241178035736,-0.2537019848823547,-0.1876867860555648,0.0,0.0,-0.7892887592315674,-0.1788325309753418
-0.1222671493887901,0.9963957667350768,-0.1245582550764083,-0.4574565589427948,-0.2629540562629699,-0.1850417703390121,0.0,0.0,-0.6956475377082825,-0.8197817206382751
-0.1236422508955001,0.9859743118286132,-0.1299585998058319,-0.4645529091358185,-0.2706793248653412,-0.1545052826404571,0.0,0.0,-0.4691883325576782,-0.788657546043396
-0.1250463426113128,0.9753909707069396,-0.13417649269104,-0.471536785364151,-0.2770725786685943,-0.1278647631406784,0.0,0.0,0.5046873092651367,-0.762797474861145
-0.1262581795454025,0.9651064276695251,-0.1167929992079734,-0.4579278230667114,-0.2815748155117035,-0.090044766664505,0.0,0.0,0.2085024118423462,-0.8646537065505981
-0.127367302775383,0.955469250679016,-0.1083564981818199,-0.4288139641284942,-0.2842030525207519,-0.0525647401809692,0.0,0.0,-0.3440134525299072,-0.8260132670402527
-0.1285143792629242,0.945682942867279,-0.1138233169913292,-0.4351173937320709,-0.2851231694221496,-0.0184025410562753,0.0,0.0,-0.5865812301635742,-0.8774865865707397
-0.1296923607587814,0.9357420802116394,-0.118379607796669,-0.4417059123516083,-0.2845206260681152,0.0120510077103972,0.0,0.0,0.8712818622589111,-0.8648308515548706
-0.1306906640529632,0.9261195659637452,-0.1024402827024459,-0.4271610379219055,-0.2818358838558197,0.0536947436630725,0.0,0.0,0.7004592418670654,-0.6314640045166016
-0.1316238343715667,0.917114794254303,-0.0971302315592765,-0.3994809091091156,-0.2779143750667572,0.0784299820661544,0.0,0.0,0.7433357238769531,-0.1164058446884155
-0.1321965157985687,0.9092057943344116,-0.0615760199725627,-0.3507004380226135,-0.2734903693199157,0.0884802415966987,0.0,0.0,-0.4904813766479492,-0.0761505961418151
-0.132743164896965,0.9011160731315612,-0.0590697936713695,-0.3587282299995422,-0.2689831852912903,0.0901437699794769,0.0,0.0,-0.9257423877716064,-0.464031457901001
-0.1332629173994064,0.8928455710411072,-0.0564487390220165,-0.3667562305927276,-0.2643995285034179,0.0916733518242836,0.0,0.0,-0.185598075389862,0.0489413738250732
-0.1337545365095138,0.8843945860862732,-0.0537162125110626,-0.3747844696044922,-0.2597464323043823,0.0930619686841964,0.0,0.0,-0.1429868340492248,-0.1719193458557129
-0.1342171728610992,0.8757631182670593,-0.0508757010102272,-0.3828129768371582,-0.2550313174724579,0.0943025350570678,0.0,0.0,-0.3299096822738647,-0.154389202594757
-0.1346496641635894,0.866951048374176,-0.04793082177639,-0.3908416628837585,-0.250261902809143,0.0953882485628128,0.0,0.0,-0.8861467242240906,0.0952004194259643
-0.1350512504577636,0.8579584360122681,-0.0448852740228176,-0.3988706469535827,-0.2454462796449661,0.0963124707341194,0.0,0.0,-0.4433798789978027,0.5402766466140747
-0.1353876143693924,0.8487735390663147,-0.0375364609062671,-0.4075774550437927,-0.2414721846580505,0.0794822797179222,0.0,0.0,-0.0866480469703674,0.0589288473129272
-0.1356911659240722,0.8394079804420471,-0.0343006774783134,-0.4156062304973602,-0.237468883395195,0.0800657272338867,0.0,0.0,-0.8460501432418823,-0.4789257049560547
-0.1359613388776779,0.8298618793487549,-0.0309756342321634,-0.4236352145671844,-0.233445331454277,0.0804709047079086,0.0,0.0,-0.0282235741615295,-0.6090288758277893
-0.136240005493164,0.820145308971405,-0.0329325087368488,-0.4310566484928131,-0.2283119112253189,0.1026683896780014,0.0,0.0,-0.8566654324531555,0.3330283164978027
-0.1364836692810058,0.8102484345436096,-0.0294406749308109,-0.4390868246555328,-0.2231766581535339,0.102704681456089,0.0,0.0,-0.8937921524047852,0.159248948097229
-0.1366917639970779,0.8001713156700134,-0.0258709639310836,-0.4471172094345093,-0.2180490493774414,0.1025522947311401,0.0,0.0,-0.9639713168144226,-0.3462031483650207
-0.1368635147809982,0.7899138331413269,-0.0222270861268043,-0.4551477134227752,-0.2129385620355606,0.1022096127271652,0.0,0.0,-0.9241288304328918,-0.283758282661438
-0.136998176574707,0.7794761061668396,-0.0185126829892396,-0.4631783664226532,-0.2078547477722168,0.1016763001680374,0.0,0.0,-0.8382594585418701,-0.1365368366241455
-0.1370954513549804,0.7688583135604858,-0.0147313270717859,-0.471209168434143,-0.2028070837259292,0.100952923297882,0.0,0.0,-0.9561958909034728,-0.3671417236328125
-0.1371547728776931,0.7580602169036865,-0.0108864987269043,-0.4792400896549225,-0.1978050172328949,0.1000412106513977,0.0,0.0,-0.9191136956214904,-0.2504246234893799
-0.137175366282463,0.7470820546150208,-0.0069815777242183,-0.4872711300849914,-0.1928578168153762,0.0989437997341156,0.0,0.0,-0.968787670135498,0.3681404590606689
-0.1371570527553558,0.7359237670898438,-0.0030198462773114,-0.4953022301197052,-0.1879745721817016,0.0976644977927208,0.0,0.0,-0.8809947967529297,0.0442728996276855
-0.1370992660522461,0.724585235118866,0.0009955244604498,-0.5033333897590637,-0.1831641644239425,0.0962079018354415,0.0,0.0,-0.9732036590576172,-0.2806130051612854
-0.1370014250278473,0.7130665183067322,0.0050614727661013,-0.5113646388053894,-0.178435206413269,0.0945795029401779,0.0,0.0,-0.9100960493087769,-0.2039442062377929
-0.136863425374031,0.7013677954673767,0.0091750510036945,-0.5193958878517151,-0.1737959235906601,0.0927854403853416,0.0,0.0,-0.9595537185668944,-0.3929200768470764
-0.1366848051548004,0.68948894739151,0.0133334323763847,-0.5274271368980408,-0.1692542880773544,0.0908324420452117,0.0,0.0,-0.9224408268928528,-0.3311793804168701
-0.1364650726318359,0.6774298548698425,0.0175339002162218,-0.5354583859443665,-0.1648179739713668,0.0887266770005226,0.0,0.0,-0.9645596742630004,-0.2247928380966186
-0.1362041532993316,0.6651906967163086,0.0217738524079322,-0.5434895753860474,-0.1604940742254257,0.0864775702357292,0.0,0.0,-0.8508257269859314,0.0615066289901733
