x_pos,y_pos,x_vel,y_vel,angle,ang_vel,leg_1,leg_2,main_booster,lat_booster
-0.0015705109108239,1.4033918380737305,-0.1589352041482925,-0.3345917165279388,0.001687625539489,0.0332846865057945,0.0,0.0,0.5072686898480996,-0.6426664692281399
-0.0031900405883789,1.396282196044922,-0.1648998409509658,-0.3159902989864349,0.0046042804606258,0.0583392605185508,0.0,0.0,-0.8387513837810399,0.5170596350182268
-0.0048113823868334,1.388935923576355,-0.1637007743120193,-0.3265086114406585,0.0061514372937381,0.0309460815042257,0.0,0.0,0.7003923371117431,0.5982558839063776
-0.0065740584395825,1.3821256160736084,-0.1761636435985565,-0.3026846647262573,0.0060402089729905,-0.0022246064618229,0.0,0.0,-0.3651388360354155,0.6023074053436076
-0.0083345416933298,1.3750847578048706,-0.174342393875122,-0.3129192888736725,0.0043608141131699,-0.0335910059511661,0.0,0.0,-0.3320385495735471,0.8344748017626556
-0.0100710866972804,1.3678107261657717,-0.16978619992733,-0.3232816159725189,0.0005310126580297,-0.0766033381223678,0.0,0.0,-0.520891879784829,0.9438680410692328
-0.0117943761870265,1.360304355621338,-0.1665156036615371,-0.3336206078529358,-0.0052215848118066,-0.1150623187422752,0.0,0.0,0.2490253737137504,0.8694907062814379
-0.0133764268830418,1.3533008098602295,-0.1506296098232269,-0.3113193809986114,-0.0127090793102979,-0.1497639268636703,0.0,0.0,-0.1630570931497477,0.9446375346592244
-0.0149462698027491,1.346074104309082,-0.1474399268627166,-0.3212919533252716,-0.0221561230719089,-0.1889584809541702,0.0,0.0,-0.1837395605730365,-0.5897474289275983
-0.0166248325258493,1.3386211395263672,-0.1593481302261352,-0.3313874304294586,-0.0305596981197595,-0.1680867075920105,0.0,0.0,-0.8778070833234857,-0.5098608678448913
-0.0184009559452533,1.330938458442688,-0.1698603928089141,-0.3416303992271423,-0.0382263921201229,-0.1533479392528534,0.0,0.0,-0.8421234819970025,-0.6581450948596846
-0.0202871318906545,1.323025107383728,-0.1819037497043609,-0.35189089179039,-0.0448708198964595,-0.1329009085893631,0.0,0.0,0.7187421160638117,-0.5529513477436607
-0.022104550153017,1.315966010093689,-0.176414355635643,-0.3139053583145141,-0.05014493688941,-0.1054917350411415,0.0,0.0,0.4444857748552224,-0.517576846210193
-0.0239484794437885,1.3091330528259275,-0.1801472008228302,-0.3038386702537536,-0.0543574690818786,-0.0842583626508712,0.0,0.0,0.6805005780751554,0.9595598648499922
-0.0255770683288574,1.303314208984375,-0.1567743718624115,-0.2588401138782501,-0.0603746175765991,-0.1203539744019508,0.0,0.0,-0.4399930781924295,0.6280740516629275
-0.0272150989621877,1.2972506284713743,-0.1561055928468704,-0.2698167562484741,-0.067998893558979,-0.152499571442604,0.0,0.0,0.176247041192141,-0.7786695955818308
-0.0288289077579975,1.2918705940246582,-0.1552337110042572,-0.2394022196531295,-0.0740989074110984,-0.1220113784074783,0.0,0.0,0.7221091718383368,0.650951301430978
-0.0302717201411724,1.286813735961914,-0.1370772719383239,-0.2251267582178115,-0.0812383219599723,-0.142801359295845,0.0,0.0,0.0363521478560449,0.8266667647883961
-0.0316064842045307,1.28226900100708,-0.1244977936148643,-0.2024992406368255,-0.0901321843266487,-0.1778935939073562,0.0,0.0,-0.6525256991826214,0.8344761423612927
-0.0329540260136127,1.2774847745895386,-0.124227188527584,-0.2133010327816009,-0.1005974262952804,-0.2093235552310943,0.0,0.0,-0.6454976873159506,0.5289251600857903
-0.0343212112784385,0.0,-0.1247826665639877,-0.2239059060811996,-0.1124707087874412,-0.2374868839979171,0.0,0.0,-0.9229853741590256,-0.9437884990124654
-0.0358322151005268,1.2672233581542969,-0.1408867537975311,-0.2338117957115173,-0.1226343289017677,-0.2032904922962188,0.0,0.0,0.914621166417563,-0.5557772192845484
-0.0372220054268837,1.2626664638519287,-0.1302250474691391,-0.2032665163278579,-0.1313635259866714,-0.1745995879173278,0.0,0.0,-0.8288602272794874,-0.9329826889156552
-0.0387490279972553,1.2578802108764648,-0.1454579085111618,-0.2133677750825882,-0.1385852396488189,-0.1444472968578338,0.0,0.0,0.8195130614621573,-0.894045375247958
-0.0404911041259765,1.253968358039856,-0.1683345735073089,-0.1744215935468673,-0.1444574445486068,-0.1174543872475624,0.0,0.0,-0.7301914579374855,-0.680677129426189
-0.0423734672367572,1.2498209476470947,-0.1839101463556289,-0.1847528368234634,-0.1487721502780914,-0.0862942188978195,0.0,0.0,0.4081060704881771,0.5426683761887932
-0.0441904067993164,1.2463531494140625,-0.1761656403541565,-0.1546927392482757,-0.1542981714010238,-0.1105201616883277,0.0,0.0,-0.9850323336568252,-0.9836051209928912
-0.0461727157235145,1.242685079574585,-0.1949711441993713,-0.1633701473474502,-0.1575596779584884,-0.0652300044894218,0.0,0.0,0.1833444678188076,0.8913877459396562
-0.0481781959533691,1.2396228313446045,-0.195322498679161,-0.1366540044546127,-0.1627837121486663,-0.1044806092977523,0.0,0.0,0.7487554763828128,0.9608731377100448
-0.0501234047114849,1.237076997756958,-0.187204048037529,-0.113971434533596,-0.1701067388057708,-0.1464607268571853,0.0,0.0,0.1873729419842926,0.789456074211256
-0.0519614219665527,1.235188126564026,-0.1747957170009613,-0.0850055739283561,-0.1791306138038635,-0.1804781109094619,0.0,0.0,-0.9704058766365052,-0.7164263129234314
-0.05393648147583,1.2330808639526367,-0.1899930536746978,-0.0945825651288032,-0.1866728514432907,-0.1508444994688034,0.0,0.0,-0.965397834777832,-0.4265280365943908
-0.0559853538870811,1.23074209690094,-0.197250097990036,-0.10492904484272,-0.194353237748146,-0.1536078155040741,0.0,0.0,-0.9545490741729736,-0.1397662758827209
-0.0581082329154014,1.2281718254089355,-0.2045209407806396,-0.1152757778763771,-0.2021720707416534,-0.1563769578933715,0.0,0.0,-0.963531494140625,-0.7172410488128662
-0.0603590011596679,1.2253878116607666,-0.2185744047164917,-0.1246298626065254,-0.208726093173027,-0.1310805678367614,0.0,0.0,-0.9772191047668456,0.180221676826477
-0.0626839622855186,1.22237229347229,-0.2258685529232025,-0.1349754333496093,-0.2154190987348556,-0.1338601112365722,0.0,0.0,-0.9676263332366944,-0.5181005001068115
-0.0651253685355186,1.219136118888855,-0.2384563684463501,-0.1446711868047714,-0.2211651653051376,-0.1149213761091232,0.0,0.0,-0.9728484749794006,-0.1207146048545837
-0.0676411613821983,1.2156680822372437,-0.2457691878080368,-0.1550160944461822,-0.2270505726337433,-0.1177085638046264,0.0,0.0,-0.7661068439483643,-0.2287783622741699
-0.0702315345406532,1.2119684219360352,-0.2530899047851562,-0.1653611958026886,-0.2330754995346069,-0.1204985752701759,0.0,0.0,-0.9320297837257384,0.1066808700561523
-0.0728963837027549,1.2080368995666504,-0.2604175508022308,-0.1757065206766128,-0.2392400652170181,-0.1232909560203552,0.0,0.0,-0.8986141681671143,-0.506742000579834
-0.0756809264421463,1.2038946151733398,-0.2734413146972656,-0.1849314123392105,-0.2443368434906005,-0.1019354313611984,0.0,0.0,-0.8037806749343872,0.1854133605957031
-0.0785401314496994,1.1995203495025637,-0.2807797789573669,-0.195275992155075,-0.2495733648538589,-0.1047306880354881,0.0,0.0,-0.8322793841362,0.1953225135803222
-0.0814741104841232,1.1949142217636108,-0.2881224751472473,-0.2056207358837127,-0.254949688911438,-0.1075263991951942,0.0,0.0,-0.6210916042327881,-0.4183756709098816
-0.0844828635454177,1.1900765895843506,-0.295468658208847,-0.2159656733274459,-0.2604658007621765,-0.1103219836950302,0.0,0.0,-0.8114995956420898,-0.0981276035308837
-0.0875663757324218,1.185006856918335,-0.302817553281784,-0.2263107895851135,-0.2661216557025909,-0.1131168454885482,0.0,0.0,-0.7981589436531067,0.0210359096527099
-0.0907247513532638,1.1797055006027222,-0.3101683855056762,-0.2366561144590377,-0.2719171941280365,-0.1159104853868484,0.0,0.0,-0.8647785782814026,0.4268432855606079
-0.093957707285881,1.1741724014282229,-0.317520409822464,-0.2470015883445739,-0.2778522968292236,-0.1187022700905799,0.0,0.0,-0.540393054485321,0.0327484607696533
-0.0972655266523361,1.168407678604126,-0.3248728513717651,-0.2573472559452057,-0.2839268743991852,-0.1214915141463279,0.0,0.0,-0.5457296967506409,0.0219179391860961
-0.100648209452629,1.1624114513397217,-0.3322249948978424,-0.2676931619644165,-0.2901407480239868,-0.1242776364088058,0.0,0.0,-0.725520133972168,0.3451706171035766
-0.104105569422245,1.1561834812164309,-0.3395760655403137,-0.2780392467975616,-0.2964937388896942,-0.1270599514245987,0.0,0.0,-0.1766708493232727,-0.0910016894340515
-0.1076375991106033,1.149723768234253,-0.3469253480434418,-0.2883855104446411,-0.3029856383800506,-0.1298377215862274,0.0,0.0,-0.306524395942688,0.008072018623352
-0.1112443953752517,1.1430329084396362,-0.3542720675468445,-0.2987319827079773,-0.3096161484718323,-0.1326101720333099,0.0,0.0,-0.7444401383399963,-0.3639754056930542
-0.1149257645010948,1.1361101865768433,-0.3616154193878174,-0.3090786933898926,-0.3163849711418152,-0.1353765130043029,0.0,0.0,0.1907525062561035,0.2523425817489624
-0.1185007095336914,1.129774808883667,-0.3508563935756683,-0.2830457389354706,-0.3232811093330383,-0.1379230618476867,0.0,0.0,-0.3891416788101196,-0.38397216796875
-0.1221500411629676,1.1232075691223145,-0.358190506696701,-0.2933928370475769,-0.3303148746490478,-0.1406744718551635,0.0,0.0,-0.7692246437072754,-0.0800203084945678
-0.1258738487958908,1.116409182548523,-0.3655187487602234,-0.3037401139736175,-0.3374857306480407,-0.14341701567173,0.0,0.0,-0.7548801302909851,-0.7608940005302429
-0.1297180205583572,1.1094108819961548,-0.3787067532539367,-0.312385618686676,-0.343471497297287,-0.119714930653572,0.0,0.0,-0.4918705224990845,-0.1316220164299011
-0.1336365640163421,1.102181077003479,-0.3860195577144623,-0.3227319419384002,-0.349593311548233,-0.1224361881613731,0.0,0.0,-0.5892413258552551,0.0917720794677734
-0.1376293152570724,1.094719648361206,-0.3933234810829162,-0.3330784142017364,-0.3558505475521087,-0.1251447051763534,0.0,0.0,-0.3547120094299316,0.3043239116668701
-0.1416960656642913,1.087026596069336,-0.4006173014640808,-0.3434250652790069,-0.3622424602508545,-0.1278391182422638,0.0,0.0,0.2203935384750366,-0.3151025176048279
-0.1457044631242752,1.0794659852981567,-0.3948352336883545,-0.3375709652900696,-0.3685934543609619,-0.127019390463829,0.0,0.0,-0.6001046895980835,0.5545535087585449
-0.149752140045166,1.0716568231582642,-0.3977513909339905,-0.3489016592502594,-0.3760247230529785,-0.1486257165670395,0.0,0.0,-0.7738355398178101,0.4416165351867676
-0.1538733541965484,1.0636162757873535,-0.4050082266330719,-0.3592496812343597,-0.3835881352424621,-0.1512685120105743,0.0,0.0,-0.5568187832832336,-0.1874276399612426
-0.1580680906772613,1.0553443431854248,-0.412249743938446,-0.369597852230072,-0.3912826776504516,-0.1538908332586288,0.0,0.0,-0.8107845783233643,-0.3056414723396301
-0.1623359620571136,1.046841382980347,-0.4194744229316711,-0.3799462616443634,-0.3991072177886963,-0.1564907133579254,0.0,0.0,-0.6244247555732727,0.158043622970581
-0.1666769087314605,1.0381072759628296,-0.4266803860664367,-0.3902948796749115,-0.4070605039596557,-0.1590659320354461,0.0,0.0,-0.4412016868591308,0.3801583051681518
-0.1710906028747558,1.029141902923584,-0.4338657855987549,-0.4006436467170715,-0.415141224861145,-0.1616141647100448,0.0,0.0,-0.3607630133628845,0.556533932685852
-0.1755333840847015,1.019909381866455,-0.4354538917541504,-0.4129534363746643,-0.4246684312820434,-0.1905443370342254,0.0,0.0,0.1169438362121582,0.2552779912948608
-0.1797938346862793,1.0112236738204956,-0.4172249436378479,-0.3887248635292053,-0.4342354536056518,-0.1913403570652008,0.0,0.0,-0.5887283086776733,0.0815645456314086
-0.1841261833906173,1.0023069381713867,-0.4243367314338684,-0.3990758061408996,-0.4439250230789184,-0.1937920153141021,0.0,0.0,-0.2850586175918579,0.4151718616485595
-0.1885300576686859,0.9931593537330629,-0.4314185082912445,-0.4094268977642059,-0.4537352919578552,-0.1962057203054428,0.0,0.0,-0.5152470469474792,0.5991573333740234
-0.1929601728916168,0.9837498664855956,-0.4328067898750305,-0.4215628206729889,-0.4649786055088043,-0.22486612200737,0.0,0.0,-0.3507083654403686,-0.5062768459320068
-0.1975023299455642,0.9741470217704772,-0.4451144337654114,-0.4298643767833709,-0.4750429689884186,-0.2012869119644165,0.0,0.0,-0.0631526112556457,-0.1723428964614868
-0.2021148204803466,0.9643133878707886,-0.4520877301692962,-0.4402160048484802,-0.4852212071418762,-0.2035651952028274,0.0,0.0,-0.281369686126709,-0.1362544298171997
-0.2067969292402267,0.954249143600464,-0.459017664194107,-0.4505676925182342,-0.4955106973648071,-0.2057898789644241,0.0,0.0,0.0729538202285766,0.0027422904968261
-0.2114091366529464,0.9442012310028076,-0.4521584510803222,-0.4498728215694427,-0.5057042241096497,-0.203870803117752,0.0,0.0,0.6791632175445557,0.2143855094909668
-0.2159510552883148,0.9343986511230468,-0.4449536800384521,-0.4391160309314728,-0.516151487827301,-0.20894555747509,0.0,0.0,0.5410200357437134,0.508507251739502
-0.2201670110225677,0.9253113269805908,-0.4113691747188568,-0.4077893495559692,-0.5277909636497498,-0.2327890843153,0.0,0.0,0.2628185749053955,-0.4435734748840332
-0.2240833342075348,0.916755437850952,-0.3816383481025696,-0.3841888606548309,-0.5392454862594604,-0.229090541601181,0.0,0.0,0.3401401042938232,-0.3598330020904541
-0.2278038561344146,0.9088925123214722,-0.3616807162761688,-0.3536457121372223,-0.5512151718139648,-0.2393936216831207,0.0,0.0,0.6232633590698242,-0.4896082878112793
-0.2315278947353363,0.9013150930404664,-0.3615267276763916,-0.3412868678569793,-0.563862681388855,-0.2529506087303161,0.0,0.0,0.6630638837814331,0.2750083208084106
-0.2348570823669433,0.8944836854934692,-0.322212666273117,-0.3081853687763214,-0.5764075517654419,-0.2508984208106994,0.0,0.0,0.8776212930679321,-0.9620371460914612
-0.2380635291337967,0.8884098529815674,-0.3115420341491699,-0.2739342153072357,-0.5871551036834717,-0.2149507701396942,0.0,0.0,0.9660930633544922,-0.6698705554008484
-0.2409865409135818,0.8832159638404846,-0.2842767238616943,-0.234431192278862,-0.5967035293579102,-0.1909689307212829,0.0,0.0,0.8829913139343262,-0.7504517436027527
-0.2435827702283859,0.8788444399833679,-0.2529101967811584,-0.1973504573106765,-0.6047290563583374,-0.1605110913515091,0.0,0.0,0.9771673679351808,-0.2772119045257568
-0.2457581460475921,0.875011682510376,-0.2112099677324295,-0.1732827723026275,-0.6123355031013489,-0.1521284878253936,0.0,0.0,0.7819979190826416,-0.845789909362793
-0.2478148490190506,0.8714258074760437,-0.2008697241544723,-0.1616272181272506,-0.6181381940841675,-0.1160532385110855,0.0,0.0,0.9646358489990234,-0.8743568062782288
-0.2496117651462555,0.8681423664093018,-0.1765992939472198,-0.147409439086914,-0.6218904852867126,-0.0750457942485809,0.0,0.0,0.9463125467300416,-0.794880747795105
-0.2509706914424896,0.8653358817100525,-0.1344968378543853,-0.1254035085439682,-0.6235830783843994,-0.0338523797690868,0.0,0.0,0.2185707092285156,-0.9477259516716005
-0.2521801590919494,0.8626047372817993,-0.1212078332901001,-0.1212589368224144,-0.6232695579528809,0.0062706181779503,0.0,0.0,0.2823286056518554,-0.7277682423591614
-0.2531503140926361,0.8604094386100769,-0.0985549092292785,-0.0968366414308548,-0.6214029788970947,0.0373314097523689,0.0,0.0,0.1049801111221313,-0.7962783575057983
-0.2539048790931701,0.858638346195221,-0.0784166008234024,-0.0773078352212905,-0.617813766002655,0.0717843100428581,0.0,0.0,-0.3077876567840576,-0.6880158185958862
-0.2547421455383301,0.8566738367080688,-0.0876659303903579,-0.0854580104351043,-0.6130504608154297,0.095264583826065,0.0,0.0,0.113525390625,-0.6800346374511719
-0.2554829120635986,0.8547204732894897,-0.0792931094765663,-0.0843877866864204,-0.6067641377449036,0.1257269531488418,0.0,0.0,0.2092608213424682,-0.6151875257492065
-0.2561305165290832,0.853070080280304,-0.0710575580596923,-0.0704579353332519,-0.599209189414978,0.1510993540287017,0.0,0.0,0.0131293535232543,-0.7866315841674805
-0.2565182745456695,0.8518509864807129,-0.0465610846877098,-0.0506594367325305,-0.5899271965026855,0.1856400221586227,0.0,0.0,-0.0617993474006652,-0.5529846549034119
-0.2569820880889892,0.850437343120575,-0.0552827194333076,-0.0588916689157485,-0.5793875455856323,0.2107924669981002,0.0,0.0,-0.0054599642753601,-0.5626006126403809
-0.2575240731239319,0.848840057849884,-0.0644364207983017,-0.0665808841586113,-0.5673516392707825,0.2407180815935135,0.0,0.0,-0.4583979845046997,-0.2573711276054382
-0.2580989003181457,0.8470112681388855,-0.0678341761231422,-0.0769289508461952,-0.5552765130996704,0.2415025681257248,0.0,0.0,0.4038305282592773,0.2576808929443359
-0.2584060132503509,0.8457998037338257,-0.0409989282488822,-0.0496385768055915,-0.5433642864227295,0.2382441312074661,0.0,0.0,-0.3275254964828491,-0.5634966492652893
-0.2587808072566986,0.8443993330001831,-0.0490862503647804,-0.0576344579458236,-0.5300254821777344,0.266776293516159,0.0,0.0,-0.5070611834526062,0.108758807182312
-0.2591784596443176,0.8427676558494568,-0.0515243411064147,-0.0679842308163642,-0.5166233777999878,0.2680419385433197,0.0,0.0,0.2804994583129883,0.1028852462768554
-0.2594439089298248,0.8415799140930176,-0.0380863323807716,-0.0484772101044654,-0.5035687685012817,0.2610916197299957,0.0,0.0,-0.2650877237319946,0.2568268775939941
-0.2597252428531647,0.8401610255241394,-0.0398251302540302,-0.0588261596858501,-0.4904363453388214,0.2626482546329498,0.0,0.0,-0.4735420942306518,-0.0432032346725463
-0.2600187659263611,0.838511049747467,-0.041201788932085,-0.0691751614212989,-0.4772194027900696,0.2643387913703918,0.0,0.0,-0.3095676898956299,0.2513821125030517
-0.2603207528591156,0.8366299271583557,-0.0422101393342018,-0.0795242637395858,-0.4639116823673248,0.2661551535129547,0.0,0.0,-0.1590611338615417,0.3315958976745605
-0.2606273591518402,0.8345176577568054,-0.0428459718823432,-0.0898735076189041,-0.4505072236061096,0.2680888772010803,0.0,0.0,0.3266870975494385,0.3306692838668823
-0.2606801092624664,0.8330277800559998,-0.0175480060279369,-0.0623163618147373,-0.4370856285095215,0.268432080745697,0.0,0.0,0.2431907653808593,0.2179806232452392
-0.2603604197502136,0.8321126699447632,0.0190572272986173,-0.0367181561887264,-0.423060268163681,0.2805072963237762,0.0,0.0,-0.4006674885749817,-0.5206676721572876
-0.2600664496421814,0.8309888243675232,0.0154226319864392,-0.0458299554884433,-0.4079786241054535,0.3016327321529388,0.0,0.0,-0.2497235536575317,0.4278258085250854
-0.2597619891166687,0.8296346068382263,0.0162754636257886,-0.05618317425251,-0.392781138420105,0.303949773311615,0.0,0.0,-0.7104461193084717,0.2876327037811279
-0.2594433426856994,0.8280500173568726,0.0174909643828868,-0.0665367990732193,-0.3774640262126922,0.3063425123691559,0.0,0.0,-0.7184166312217712,0.7748057842254639
-0.2590438723564148,0.8261930346488953,0.0270833913236856,-0.0791959092020988,-0.3638383746147156,0.2725129425525665,0.0,0.0,-0.3030521869659424,0.3576375246047973
-0.2586233615875244,0.8241050839424133,0.0290016438812017,-0.0895462930202484,-0.3500865399837494,0.2750366330146789,0.0,0.0,-0.7479943633079529,0.6859170198440552
-0.2581389844417572,0.8217626214027405,0.036251675337553,-0.1011987626552581,-0.3373145759105682,0.2554393112659454,0.0,0.0,-0.352798581123352,0.4259712696075439
-0.2576270997524261,0.8191890120506287,0.0388282835483551,-0.1115476340055465,-0.3244112133979797,0.2580673694610595,0.0,0.0,-0.545501172542572,0.5260363817214966
-0.2570437788963318,0.8163624405860901,0.0468619540333747,-0.1230964437127113,-0.3124958574771881,0.238306924700737,0.0,0.0,-0.3830827474594116,0.5068414211273193
-0.2563818991184234,0.8132776618003845,0.0557820685207843,-0.1348957419395446,-0.301706999540329,0.2157763987779617,0.0,0.0,-0.480743408203125,0.2632391452789306
-0.255683571100235,0.809961199760437,0.0592476427555084,-0.1452412754297256,-0.2907809019088745,0.2185217589139938,0.0,0.0,-0.2537577748298645,0.6221894025802612
-0.2548961639404297,0.8063967823982239,0.0692623034119606,-0.1565633118152618,-0.2810269296169281,0.1950794160366058,0.0,0.0,-0.5851069688796997,0.294064998626709
