x_pos,y_pos,x_vel,y_vel,angle,ang_vel,leg_1,leg_2,main_booster,lat_booster
-0.001533317612484,1.4034055471420288,-0.1545582413673401,-0.3339858949184418,0.0011013428447768,0.0216758530586957,0.0,0.0,-0.601221725764739,0.8767341715179761
-0.0030017853714525,1.3956907987594604,-0.1453416645526886,-0.3428765833377838,-0.0003840034478344,-0.0297093391418457,0.0,0.0,-0.31463345829432,-0.8307927132958567
-0.0045310021378099,1.387750506401062,-0.1520306169986724,-0.3529024720191955,-0.0012630299897864,-0.0175822935998439,0.0,0.0,0.4202000593660624,0.6340209959434162
-0.0061320303939282,1.3802334070205688,-0.1570237874984741,-0.3340963125228882,-0.0043145790696144,-0.0610369630157947,0.0,0.0,0.3920218337395718,-0.5019346177981973
-0.0076632499694824,1.3733224868774414,-0.1506646871566772,-0.3071573972702026,-0.0067365863360464,-0.0484443046152591,0.0,0.0,-0.9426774603661374,-0.6110931253374894
-0.0092417718842625,1.366192102432251,-0.1556661278009414,-0.3169157803058624,-0.0088978679850697,-0.043229691684246,0.0,0.0,-0.8833433148337437,0.7127649237574482
-0.0107765197753906,1.3588422536849976,-0.1492440700531005,-0.3266885876655578,-0.0130896447226405,-0.0838432908058166,0.0,0.0,0.3669542658187517,-0.6596773779174174
-0.0122301103547215,1.352076768875122,-0.1420314013957977,-0.3007173538208008,-0.0163798704743385,-0.0658105313777923,0.0,0.0,0.4522849177755408,0.8333061823999178
-0.0136282918974757,1.3462035655975342,-0.1341289579868316,-0.2611020505428314,-0.0220095962285995,-0.1126045733690261,0.0,0.0,-0.5620381950888591,-0.5195840755933738
-0.0150778768584132,1.3401165008544922,-0.1396369040012359,-0.2706274390220642,-0.027276812121272,-0.1053540483117103,0.0,0.0,0.4021605195810025,-0.951360325212699
-0.0165153499692678,1.3345677852630615,-0.1397366821765899,-0.2466896176338195,-0.0312507711350917,-0.0794862583279609,0.0,0.0,-0.4039029165841092,-0.7911220351291233
-0.018018627539277,1.3288012742996216,-0.1470398902893066,-0.2563627064228058,-0.0345094203948974,-0.0651787146925926,0.0,0.0,0.3400060514276766,0.6068848135017937
-0.0193492881953716,1.32366144657135,-0.1281288564205169,-0.2285597473382949,-0.0393992066383361,-0.0978046506643295,0.0,0.0,0.8155620803585095,0.5616957060474206
-0.0205504409968853,1.3188755512237549,-0.1136057525873184,-0.2128925323486328,-0.0458390414714813,-0.1288081109523773,0.0,0.0,0.2193275430425274,-0.6590994563817738
-0.0216700546443462,1.3147854804992676,-0.106296919286251,-0.1819635033607483,-0.0514496862888336,-0.1122230291366577,0.0,0.0,-0.3214414892589605,-0.6983059912959896
-0.0228459350764751,1.3104724884033203,-0.1124000400304794,-0.1918794512748718,-0.0565918907523155,-0.102853275835514,0.0,0.0,0.1757865879294398,0.5563674327741933
-0.023846436291933,1.3068467378616333,-0.0932790488004684,-0.1614149212837219,-0.0632919073104858,-0.1340125501155853,0.0,0.0,0.9232667803406598,-0.9390343566964257
-0.024721622467041,1.3036373853683472,-0.0823138877749443,-0.1428656131029129,-0.0684511885046958,-0.1031947135925293,0.0,0.0,0.8330126482077496,0.8089208687836318
-0.02536516264081,1.3015320301055908,-0.057104367762804,-0.0939270183444023,-0.0756314024329185,-0.1436174809932708,0.0,0.0,0.3375631553269322,-0.7610732512512661
-0.0261181835085153,1.2999086380004885,-0.0688231065869331,-0.072491280734539,-0.0820561945438385,-0.1285074651241302,0.0,0.0,0.1929816476748909,0.5821469982092151
-0.0266901962459087,1.2988651990890503,-0.0490840002894401,-0.0468358621001243,-0.0901088491082191,-0.1610679179430008,0.0,0.0,0.8587396415941864,0.6561146888158615
-0.0271628387272357,1.2983355522155762,-0.0372223556041717,-0.0241721551865339,-0.1000848710536956,-0.1995386183261871,0.0,0.0,0.0364091728010826,0.6383569061929549
-0.0274703986942768,1.2980767488479614,-0.0188879258930683,-0.0123379370197653,-0.1118777021765708,-0.2358776032924652,0.0,0.0,-0.0525315684287859,-0.8597342825588727
-0.0278491973876953,1.2976020574569702,-0.026907866820693,-0.0219553727656602,-0.1228052228689193,-0.2185695171356201,0.0,0.0,0.786586882346433,0.7329352864314546
-0.0282619483768939,1.2979695796966553,-0.0278352946043014,0.0151713956147432,-0.136206567287445,-0.2680509090423584,0.0,0.0,-0.0820321780657089,-0.6923476095972658
-0.028754711151123,1.2981173992156982,-0.0369134359061718,0.0053958971984684,-0.1485286653041839,-0.2464419901371002,0.0,0.0,-0.8883331309484916,0.5535776387629925
-0.029214572161436,1.2980434894561768,-0.031904898583889,-0.0047521996311843,-0.1626025140285492,-0.2814770638942718,0.0,0.0,0.5889001673882537,-0.5798050908292167
-0.0297353751957416,1.29897940158844,-0.0382257066667079,0.0400176234543323,-0.1764772236347198,-0.2774938941001892,0.0,0.0,0.7336892534416133,-0.7845736067295856
-0.0303326603025198,1.3009624481201172,-0.0465630665421485,0.0865263789892196,-0.1896997243165969,-0.2644497752189636,0.0,0.0,0.7486899706212118,0.8061172688301977
-0.030805492773652,1.3034772872924805,-0.0318649634718894,0.109718345105648,-0.2052167952060699,-0.3103415668010711,0.0,0.0,-0.7246555189921913,0.8329563316656458
-0.0312211997807025,1.3057668209075928,-0.0238941516727209,0.0992042273283004,-0.2230772823095321,-0.357210099697113,0.0,0.0,-0.420445442199707,-0.9913493394851683
-0.0317345634102821,1.3078666925430298,-0.0353327244520187,0.0908219888806343,-0.239306166768074,-0.3245772421360016,0.0,0.0,-0.640188992023468,-0.9928410649299622
-0.0323435775935649,1.30979323387146,-0.0465902872383594,0.0832294076681137,-0.2538624703884125,-0.2911261022090912,0.0,0.0,-0.298784077167511,-0.9607046246528624
-0.0330456718802452,1.3115284442901611,-0.0574585199356079,0.0748569816350936,-0.2668865621089935,-0.2604816555976867,0.0,0.0,-0.8424318432807922,-0.9973663687705994
-0.0338315963745117,1.313080668449402,-0.0672265440225601,0.0668802931904792,-0.2785454094409942,-0.2331769168376922,0.0,0.0,-0.8145517706871033,-0.9955428242683412
-0.0346999168395996,1.314456343650818,-0.0768149942159652,0.0591990165412426,-0.2888341248035431,-0.2057745456695556,0.0,0.0,-0.4291040301322937,-0.972645938396454
-0.0356561653316021,1.3156458139419556,-0.0870746821165084,0.0511453300714492,-0.2976541817188263,-0.1764004826545715,0.0,0.0,-0.8266444206237793,-0.9289026856422424
-0.036686897277832,1.3166563510894775,-0.0956960618495941,0.0433854423463344,-0.305277556180954,-0.152467280626297,0.0,0.0,-0.7262033820152283,-0.7823094129562378
-0.0377886779606342,1.3174887895584106,-0.1039112210273742,0.0356604345142841,-0.3117669224739074,-0.1297874599695205,0.0,0.0,-0.8714976906776428,-0.6682506799697876
-0.038948155939579,1.3181285858154297,-0.1104025021195411,0.0272389147430658,-0.3175202012062073,-0.1150656342506408,0.0,0.0,-0.7017408609390259,-0.901894748210907
-0.0401952750980854,1.3185985088348389,-0.1207479983568191,0.0200051069259643,-0.3216524720191955,-0.0826445668935775,0.0,0.0,-0.90153831243515,-0.9654011130332948
-0.0415102019906044,1.318878412246704,-0.1285026967525482,0.0117707885801792,-0.3247628211975097,-0.0622069835662841,0.0,0.0,-0.7930142283439636,-0.505171537399292
-0.0428676605224609,1.318952202796936,-0.133077472448349,0.0026821710634976,-0.3275450468063354,-0.0556446313858032,0.0,0.0,-0.983520209789276,-0.7897765040397644
-0.0442841537296772,1.3188328742980957,-0.1397767961025238,-0.0057286364026367,-0.329500287771225,-0.0391046442091465,0.0,0.0,-0.9170567393302916,-0.6224120855331421
-0.0457612052559852,1.3185153007507324,-0.1466334760189056,-0.0143628381192684,-0.3306114077568054,-0.0222221035510301,0.0,0.0,-0.9244909882545472,-0.2254373431205749
-0.0472473129630088,1.3179807662963867,-0.1470763981342315,-0.0241099800914526,-0.3322139382362366,-0.0320499613881111,0.0,0.0,-0.9750807285308838,-0.3022429943084717
-0.0487423911690712,1.3172292709350586,-0.1475099623203277,-0.033856876194477,-0.3342927396297455,-0.0415765866637229,0.0,0.0,-0.9452449679374696,-0.6903138756752014
-0.0503050796687603,1.316299557685852,-0.1554610878229141,-0.0415117368102073,-0.335148274898529,-0.0171105396002531,0.0,0.0,-0.9155285358428956,-0.3662234544754028
-0.0518763549625873,1.315152883529663,-0.155873566865921,-0.0512576885521411,-0.3364469707012176,-0.0259743724018335,0.0,0.0,-0.946206271648407,0.0273901224136352
-0.0534556396305561,1.313788890838623,-0.1562744081020355,-0.0610032603144645,-0.3381707668304443,-0.0344758108258247,0.0,0.0,-0.9617130160331726,-0.8476065397262573
-0.0550905242562294,1.3122329711914062,-0.1627205312252044,-0.0693389996886253,-0.3389793634414673,-0.0161720495671033,0.0,0.0,-0.9154850840568542,0.334781289100647
-0.0567328445613384,1.3104594945907593,-0.163095623254776,-0.0790834799408912,-0.3401736617088318,-0.0238856896758079,0.0,0.0,-0.9530571103096008,-0.6069861650466919
-0.058419894427061,1.3084851503372192,-0.1681850254535675,-0.0878712013363838,-0.3407192528247833,-0.0109118204563856,0.0,0.0,-0.893430233001709,0.1944514513015747
-0.0601137168705463,1.306293487548828,-0.1685310900211334,-0.0976145043969154,-0.3416069746017456,-0.0177544690668582,0.0,0.0,-0.8245618343353271,-0.5539576411247253
-0.0618452057242393,1.3038984537124634,-0.1728108823299408,-0.1065195351839065,-0.3419623374938965,-0.0071075558662414,0.0,0.0,-0.6059442758560181,-0.0608950853347778
-0.0635826140642166,1.3012861013412476,-0.1731245666742324,-0.1162614971399307,-0.3426123559474945,-0.0130002377554774,0.0,0.0,-0.284658133983612,0.5544877052307129
-0.0652769058942794,1.298435091972351,-0.1673070192337036,-0.1272158771753311,-0.3448389172554016,-0.0445313788950443,0.0,0.0,-0.4771765470504761,0.1211174726486206
-0.0669763535261154,1.295366287231445,-0.1675850003957748,-0.1369568556547165,-0.3473090827465057,-0.0494032986462116,0.0,0.0,-0.9352781176567078,-0.6562365889549255
-0.0687212944030761,1.2921090126037598,-0.1730619966983795,-0.1451184153556823,-0.3488103151321411,-0.0300245620310306,0.0,0.0,-0.1408361196517944,-0.2003917694091797
-0.0704703330993652,1.2886334657669067,-0.1733004003763198,-0.1548576802015304,-0.3505011200904846,-0.0338164344429969,0.0,0.0,-0.8039771914482117,-0.2443704009056091
-0.0722231864929199,1.2849397659301758,-0.1735177338123321,-0.1645962297916412,-0.3523536324501037,-0.0370509587228298,0.0,0.0,0.1747089624404907,-0.076264202594757
-0.0738739967346191,1.2817667722702026,-0.1628781259059906,-0.1415647566318512,-0.3546693623065948,-0.0463146716356277,0.0,0.0,0.1687128543853759,-0.543963611125946
-0.0753507614135742,1.2788608074188232,-0.1465960144996643,-0.1294210106134414,-0.3558000922203064,-0.0226145330816507,0.0,0.0,-0.5721890330314636,0.5427217483520508
-0.0767878517508506,1.2757138013839722,-0.1414724439382553,-0.140424907207489,-0.3581633567810058,-0.0472650155425071,0.0,0.0,-0.7963528037071228,0.1511690616607666
-0.078226663172245,1.272348165512085,-0.1415965855121612,-0.150160402059555,-0.3605736792087555,-0.0482067093253135,0.0,0.0,-0.119404137134552,-0.4504523873329162
-0.0796666145324707,1.268763542175293,-0.1416952610015869,-0.1598950922489166,-0.3630022704601288,-0.0485716387629509,0.0,0.0,0.3702788352966308,-0.6138395667076111
-0.0808801651000976,1.265977144241333,-0.1203057914972305,-0.1241044253110885,-0.3641130626201629,-0.0222159586846828,0.0,0.0,-0.2901208996772766,0.1717634201049804
-0.0820938125252723,1.2629716396331787,-0.1203508824110031,-0.1338370442390442,-0.3651850521564483,-0.0214399732649326,0.0,0.0,-0.2902826070785522,-0.4201204776763916
-0.083307072520256,1.2597469091415403,-0.1203681603074073,-0.1435687988996505,-0.3661902844905853,-0.020104918628931,0.0,0.0,0.4482395648956299,-0.807913064956665
-0.0845170989632606,1.256964087486267,-0.1215916126966476,-0.1235250532627105,-0.3655665516853332,0.0124746356159448,0.0,0.0,-0.6819133162498474,-0.2437798380851745
-0.0857255905866622,1.2539619207382202,-0.1215512603521347,-0.1332551389932632,-0.3648217618465423,0.0148955630138516,0.0,0.0,-0.6770160794258118,-0.4745092988014221
-0.0869319885969162,1.250739812850952,-0.121481254696846,-0.1429844498634338,-0.3639297783374786,0.0178394168615341,0.0,0.0,-0.1750223636627197,0.1649500131607055
-0.0881357192993164,1.247298002243042,-0.1213811188936233,-0.1527130603790283,-0.3628652393817901,0.021290922537446,0.0,0.0,-0.1206015348434448,0.4674168825149536
-0.0893362984061241,1.243636131286621,-0.1212504729628562,-0.1624409556388855,-0.3616035580635071,0.0252333935350179,0.0,0.0,-0.4809167385101318,-0.0669943690299987
-0.0905331596732139,1.2397544384002686,-0.1210889965295791,-0.1721682250499725,-0.3601211011409759,0.0296491589397192,0.0,0.0,-0.4666517972946167,-0.2707104086875915
-0.0917257294058799,1.2356524467468262,-0.1208964586257934,-0.1818948835134506,-0.3583950996398926,0.0345197990536689,0.0,0.0,-0.1093583703041076,-0.1741343736648559
-0.0929135307669639,1.2313305139541626,-0.1206727400422096,-0.1916209906339645,-0.3564038276672363,0.0398261919617652,0.0,0.0,-0.6336211562156677,0.2395004034042358
-0.0940960869193077,1.2267881631851196,-0.1204177886247634,-0.2013466209173202,-0.3541263937950134,0.0455489121377468,0.0,0.0,-0.3328887820243835,0.0247789621353149
-0.0952728241682052,1.2220253944396973,-0.1201316863298416,-0.2110718190670013,-0.351542979478836,0.0516683682799339,0.0,0.0,-0.7156444787979126,0.1719350814819336
-0.096443273127079,1.2170424461364746,-0.1198145598173141,-0.2207966595888137,-0.3486347198486328,0.0581649541854858,0.0,0.0,-0.4868640899658203,-0.5961759090423584
-0.0976619720458984,1.211862564086914,-0.1263700723648071,-0.2291393131017685,-0.3439062535762787,0.0945695713162422,0.0,0.0,-0.6445437073707581,-0.1542199850082397
-0.0988732352852821,1.2064621448516846,-0.1259922534227371,-0.2388646006584167,-0.3388181626796722,0.1017619967460632,0.0,0.0,-0.6803164482116699,-0.0772683024406433
-0.1000767722725868,1.2008415460586548,-0.1255844533443451,-0.2485898584127426,-0.3333544731140136,0.1092738360166549,0.0,0.0,-0.2483276724815368,0.3561923503875732
-0.101272203028202,1.1950006484985352,-0.125147208571434,-0.2583151757717132,-0.3275001347064972,0.1170867681503295,0.0,0.0,-0.5523598194122314,0.5776627063751221
-0.1024161353707313,1.1889207363128662,-0.1192911714315414,-0.2691230177879333,-0.3223944902420044,0.1021128073334693,0.0,0.0,-0.6517775058746338,-0.3357807397842407
-0.1035510078072547,1.1826201677322388,-0.1187962740659713,-0.2788476645946502,-0.3168707191944122,0.1104752272367477,0.0,0.0,-0.3541250824928283,-0.4097240567207336
-0.1046764403581619,1.1760993003845217,-0.1182738095521926,-0.2885724902153015,-0.3109163641929626,0.1190871745347976,0.0,0.0,-0.0615131258964538,0.4100246429443359
-0.1057918518781662,1.1693581342697144,-0.117724522948265,-0.2982976734638214,-0.3045197427272796,0.1279327571392059,0.0,0.0,-0.4364268779754638,0.4524096250534057
-0.1068970710039138,1.1623966693878174,-0.1171492561697959,-0.3080232441425323,-0.2976698875427246,0.1369968056678772,0.0,0.0,-0.6022650599479675,0.5246857404708862
-0.1079439148306846,1.155188798904419,-0.1104896664619445,-0.3191756308078766,-0.2916748821735382,0.119900070130825,0.0,0.0,-0.5033371448516846,0.1985917091369629
-0.1089797019958496,1.1477606296539309,-0.1098643392324447,-0.3289007544517517,-0.2852069437503814,0.1293585896492004,0.0,0.0,-0.4363117814064026,0.3679053783416748
-0.1100042313337326,1.1401121616363523,-0.1092156171798706,-0.3386264145374298,-0.2782572209835052,0.1389943063259124,0.0,0.0,-0.3931785821914673,0.4456595182418823
-0.1110171303153038,1.132243514060974,-0.1085444465279579,-0.348352700471878,-0.2708174884319305,0.1487948298454284,0.0,0.0,-0.6092764139175415,0.6670432090759277
-0.1119602173566818,1.1241235733032229,-0.1005215495824813,-0.3597601056098938,-0.2644645869731903,0.12705859541893,0.0,0.0,-0.6607120633125305,0.4807803630828857
-0.1128911972045898,1.1157832145690918,-0.099807508289814,-0.3694859743118286,-0.2576068639755249,0.1371544301509857,0.0,0.0,-0.8080797791481018,0.3980928659439087
-0.1138097792863845,1.1072227954864502,-0.0990737825632095,-0.3792125284671783,-0.250237762928009,0.1473817825317382,0.0,0.0,-0.779445469379425,0.4020670652389526
-0.1147154793143272,1.0984424352645874,-0.0983213037252426,-0.3889398872852325,-0.2423512190580368,0.1577306687831878,0.0,0.0,-0.8969436883926392,0.3987774848937988
-0.115608312189579,1.089442253112793,-0.097551017999649,-0.3986681401729584,-0.2339416295289993,0.1681917011737823,0.0,0.0,-0.7314929366111755,0.4901196956634521
-0.1164878830313682,1.0802223682403564,-0.0967638120055198,-0.4083973169326782,-0.2250038087368011,0.1787560135126114,0.0,0.0,-0.90707528591156,0.7439675331115723
-0.1173008903861045,1.070770263671875,-0.0893176048994064,-0.4188955724239349,-0.2168944925069809,0.162185937166214,0.0,0.0,-0.8701470494270325,0.5555143356323242
-0.1180626899003982,1.0610899925231934,-0.0837932676076889,-0.4291346371173858,-0.2092094719409942,0.1537006646394729,0.0,0.0,-0.9787307977676392,0.8114778995513916
-0.118751049041748,1.0511682033538818,-0.0754378214478492,-0.4400512278079986,-0.2025498151779174,0.1331930309534073,0.0,0.0,-0.7138391733169556,0.574392557144165
-0.1193894371390342,1.0410159826278689,-0.0700761526823043,-0.4503712058067322,-0.1962756067514419,0.1254838407039642,0.0,0.0,-0.9730743765830994,0.5189039707183838
-0.1199838668107986,1.0306336879730225,-0.0654381588101387,-0.4606527388095855,-0.190235823392868,0.1207957863807678,0.0,0.0,-0.9419277906417848,0.7415571212768555
-0.1204956993460655,1.0200161933898926,-0.05600506067276,-0.4712809920310974,-0.1853923052549362,0.0968700125813484,0.0,0.0,-0.924701690673828,0.6867415904998779
-0.120935246348381,1.0091559886932373,-0.0478061437606811,-0.4821937978267669,-0.1815171390771865,0.0775032714009285,0.0,0.0,-0.948290765285492,0.2093721628189087
-0.12136010825634,0.9980759024620056,-0.0469097010791301,-0.4919202923774719,-0.1770856827497482,0.088628701865673,0.0,0.0,-0.9206647872924804,0.180545687675476
-0.1217703819274902,0.9867756962776184,-0.0460031740367412,-0.5016473531723022,-0.1720958948135376,0.0997959226369857,0.0,0.0,-0.8310756087303162,-0.2545527219772339
-0.1221658736467361,0.9752556681632996,-0.0450871959328651,-0.5113750100135803,-0.1665458977222442,0.1109995394945144,0.0,0.0,-0.8523813486099243,0.3998550176620483
-0.1225464791059494,0.9635156989097596,-0.0441623702645301,-0.5211035013198853,-0.1604341864585876,0.1222343295812606,0.0,0.0,-0.9525721669197084,0.4698935747146606
-0.1229119300842285,0.9515560865402222,-0.0432292781770229,-0.5308327078819275,-0.1537594199180603,0.1334952712059021,0.0,0.0,-0.8741868734359741,0.2910971641540527
-0.12326230853796,0.9393770098686218,-0.0422884598374366,-0.5405627489089966,-0.1465205401182174,0.1447774767875671,0.0,0.0,-0.7014068961143494,0.4577863216400146
-0.123597428202629,0.9269784688949584,-0.0413404256105423,-0.5502939224243164,-0.1387167274951934,0.1560761779546737,0.0,0.0,-0.9680412411689758,0.8808459043502808
-0.1238621696829795,0.9143506288528442,-0.0334677025675773,-0.5606024265289307,-0.131749540567398,0.1393437534570694,0.0,0.0,-0.9558042883872986,0.8504717350006104
-0.124059297144413,0.9014907479286194,-0.0259375516325235,-0.571014404296875,-0.1255543231964111,0.1239044815301895,0.0,0.0,-0.9134259223937988,0.5413409471511841
-0.1242000609636306,0.8884032964706421,-0.0198295544832944,-0.5811918377876282,-0.1198354661464691,0.1143769472837448,0.0,0.0,-0.6805636286735535,0.1240361928939819
-0.1243253722786903,0.8750963807106018,-0.0188562422990798,-0.5909225344657898,-0.1135505810379982,0.1256976723670959,0.0,0.0,-0.9550617337226868,0.2764410972595215
-0.1244352310895919,0.8615701794624329,-0.0178778134286403,-0.6006541848182678,-0.1066999435424804,0.1370127946138382,0.0,0.0,-0.9056861996650696,0.7822113037109375
-0.1244577392935752,0.8478166460990906,-0.007896258495748,-0.6108735799789429,-0.1010953933000564,0.1120908260345459,0.0,0.0,-0.7812038064002991,-0.1208818554878234
-0.1244646087288856,0.8338438868522644,-0.0069083399139344,-0.6206051111221313,-0.0949262902140617,0.1233823895454406,0.0,0.0,-0.7426966428756714,0.6128203868865967
