x_pos,y_pos,x_vel,y_vel,angle,ang_vel,leg_1,leg_2,main_booster,lat_booster
-0.0016616821521893,1.4030978679656982,-0.1688701212406158,-0.3476581275463104,0.0024175376165658,0.0477370545268058,0.0,0.0,0.1216452121734619,0.7207229137420654
-0.0033662796486169,1.395238757133484,-0.1720099747180938,-0.3492989838123321,0.0039511932991445,0.0306765586137771,0.0,0.0,-0.1089535355567932,0.8318812847137451
-0.0051295282319188,1.3868467807769775,-0.1764044314622879,-0.3729767799377441,0.0040308427996933,0.0015930471708998,0.0,0.0,0.3497449159622192,0.8047586679458618
-0.0070792199112474,1.37853741645813,-0.1938509345054626,-0.3692983090877533,0.0029234944377094,-0.0221491809934377,0.0,0.0,-0.2638570070266723,0.9088150262832642
-0.0090802190825343,1.3697047233581543,-0.1973401457071304,-0.3925638496875763,0.0001935980690177,-0.0546030886471271,0.0,0.0,0.4888944625854492,0.8556299209594727
-0.0110128400847315,1.3610785007476809,-0.1895592659711837,-0.3833918869495392,-0.0034616321790963,-0.0731115862727165,0.0,0.0,0.0422829389572143,0.8359363079071045
-0.0130325313657522,1.352471947669983,-0.1971654295921325,-0.3825339674949646,-0.0082148108631372,-0.0950720161199569,0.0,0.0,-0.3176043033599853,0.7366621494293213
-0.015117073431611,1.343340277671814,-0.2023814916610717,-0.4058989584445953,-0.0142222857102751,-0.1201605200767517,0.0,0.0,0.0832648277282714,0.5472943782806396
-0.0172963142395019,1.3345106840133667,-0.211311787366867,-0.3925099074840545,-0.020762626081705,-0.1308189928531646,0.0,0.0,-0.6076940894126892,0.8667609691619873
-0.0195439346134662,1.3251579999923706,-0.2169816493988037,-0.4158046841621399,-0.0284495577216148,-0.1537526249885559,0.0,0.0,-0.4881945848464966,0.7041983604431152
-0.0218642242252826,1.3152772188186646,-0.2232202291488647,-0.4393415153026581,-0.0371616818010807,-0.1742583960294723,0.0,0.0,-0.7763543725013733,0.4887166023254394
-0.0243202205747365,1.304870367050171,-0.2373718023300171,-0.4627535939216614,-0.0453027673065662,-0.1628367602825164,0.0,0.0,-0.2917575240135193,0.952869176864624
-0.0268200878053903,1.293936014175415,-0.240020677447319,-0.4862948656082153,-0.0551701039075851,-0.197365254163742,0.0,0.0,-0.6399370431900024,0.4823299646377563
-0.0294547080993652,1.282475829124451,-0.2540817856788635,-0.50970858335495,-0.0644636303186416,-0.1858869045972824,0.0,0.0,-0.1428106427192688,0.9488624334335328
-0.0321310050785541,1.2704907655715942,-0.2564896941184997,-0.5331834554672241,-0.07550660520792,-0.2208797484636306,0.0,0.0,-0.3538834452629089,0.8598285913467407
-0.0348615646362304,1.2579612731933594,-0.2604614496231079,-0.5575524568557739,-0.0879957824945449,-0.2498060762882232,0.0,0.0,-0.4241360425949096,0.9434456825256348
-0.03763322904706,1.2449055910110474,-0.2628523707389831,-0.5811558961868286,-0.1022105515003204,-0.2843212485313415,0.0,0.0,-0.1454846858978271,0.5659583806991577
-0.0404824241995811,1.2313121557235718,-0.2698076963424682,-0.605261504650116,-0.1172430291771888,-0.3006766140460968,0.0,0.0,-0.5780056715011597,0.6710052490234375
-0.0434014312922954,1.2171895503997805,-0.2758350074291229,-0.6290072798728943,-0.1332486271858215,-0.3201411068439483,0.0,0.0,-0.0340080857276916,0.7582266330718994
-0.0463995933532714,1.202532172203064,-0.2830473780632019,-0.6530259251594543,-0.1499873995780944,-0.3348056674003601,0.0,0.0,0.3098888397216797,0.0845242738723754
-0.0493381507694721,1.1882116794586182,-0.2781812846660614,-0.6381183862686157,-0.1656769663095474,-0.3138194978237152,0.0,0.0,0.5031027793884277,-0.0644840002059936
-0.0523284897208213,1.1739591360092163,-0.2840217053890228,-0.6351922750473022,-0.1807408332824707,-0.3013045191764831,0.0,0.0,0.4587690830230713,0.2047345638275146
-0.0552474968135356,1.1598596572875977,-0.2780112624168396,-0.6283962726593018,-0.194695308804512,-0.2791146039962768,0.0,0.0,0.6136069297790527,0.0308815240859985
-0.0581668838858604,1.1456630229949951,-0.2789975106716156,-0.632716715335846,-0.2077578455209732,-0.2612743973731994,0.0,0.0,0.3608454465866089,-0.2732380628585815
-0.0612168312072753,1.1317543983459473,-0.2921143174171448,-0.6200197339057922,-0.2207880318164825,-0.2606266736984253,0.0,0.0,0.5548528432846069,-0.5896642804145813
-0.0644387230277061,1.118335485458374,-0.3107265532016754,-0.5981592535972595,-0.2324022948741912,-0.2322848737239837,0.0,0.0,-0.3485203981399536,0.0501327514648437
-0.0677835494279861,1.1043896675109863,-0.3236125111579895,-0.6215652823448181,-0.2434463053941726,-0.2208800613880157,0.0,0.0,-0.1234658360481262,0.3244607448577881
-0.0712497681379318,1.0899169445037842,-0.3363322615623474,-0.6449697613716125,-0.2539221346378326,-0.2095167189836502,0.0,0.0,0.4288125038146972,-0.1295133829116821
-0.0747764557600021,1.075932264328003,-0.3424527645111084,-0.6233443021774292,-0.2643541693687439,-0.2086410075426101,0.0,0.0,0.3691037893295288,0.1251944303512573
-0.0783320441842079,1.0620123147964478,-0.3458367884159088,-0.6204569935798645,-0.2743032574653625,-0.1989822685718536,0.0,0.0,0.2871958017349243,0.4204580783843994
-0.0818104743957519,1.048511266708374,-0.3387557864189148,-0.6017789244651794,-0.2836241722106933,-0.1864180266857147,0.0,0.0,0.3713375329971313,-0.2979187369346618
-0.0853622406721115,1.0350334644317627,-0.3463765382766723,-0.6007496118545532,-0.2926857769489288,-0.1812326312065124,0.0,0.0,0.5943417549133301,0.1811342239379882
-0.0888779610395431,1.0221734046936035,-0.3429642021656036,-0.5733097195625305,-0.3015611171722412,-0.1775069534778595,0.0,0.0,0.2401694059371948,0.3243423700332641
-0.0924670249223709,1.0091948509216309,-0.3506399691104889,-0.5785706043243408,-0.3101061582565307,-0.1709016859531402,0.0,0.0,0.6421765089035034,-0.1379191875457763
-0.0959553718566894,0.9965712428092957,-0.3412100970745086,-0.5627021193504333,-0.3180284798145294,-0.1584472507238388,0.0,0.0,-0.8206146359443665,-0.0537562370300293
-0.0995458588004112,0.9834194183349608,-0.3519522547721863,-0.5860989093780518,-0.3254066705703735,-0.1475640535354614,0.0,0.0,0.1388977766036987,0.5097296237945557
-0.1031158417463302,0.970173478126526,-0.3494108319282532,-0.5904437899589539,-0.3333271741867065,-0.1584094762802124,0.0,0.0,0.1620568037033081,0.61271071434021
-0.1065308600664138,0.9571243524551392,-0.3332819044589996,-0.5818820595741272,-0.3419152200222015,-0.1717609316110611,0.0,0.0,0.7600162029266357,0.2702324390411377
-0.1097751632332801,0.944836676120758,-0.3165678977966308,-0.5480090975761414,-0.3501666188240051,-0.1650280952453613,0.0,0.0,-0.3065463304519653,0.6467113494873047
-0.1130560860037803,0.9319942593574524,-0.3194209039211273,-0.5729097723960876,-0.3592798411846161,-0.182264357805252,0.0,0.0,0.8869602680206299,0.656631588935852
-0.116179272532463,0.919919729232788,-0.3026123046875,-0.5391103625297546,-0.3695400953292846,-0.2052051723003387,0.0,0.0,0.3396624326705932,-0.0226022601127624
-0.1191332787275314,0.907856822013855,-0.2866336703300476,-0.5384175181388855,-0.3788233697414398,-0.1856660693883896,0.0,0.0,0.1212202310562133,0.5794899463653564
-0.1219719871878624,0.8954907655715942,-0.274599015712738,-0.5520951151847839,-0.3886886537075043,-0.1973054111003875,0.0,0.0,0.4457913637161255,-0.1471241116523742
-0.1246218681335449,0.8831893801689148,-0.2565928995609283,-0.5490459203720093,-0.3976510465145111,-0.1792480945587158,0.0,0.0,0.1158630847930908,-0.5098101496696472
-0.1273222863674163,0.870669960975647,-0.2630626559257507,-0.5583928823471069,-0.4051292538642883,-0.1495645344257354,0.0,0.0,0.7370924949645996,0.039888858795166
-0.1298951208591461,0.8580775856971741,-0.2510019838809967,-0.5614710450172424,-0.4118977785110473,-0.1353704780340194,0.0,0.0,0.9724864959716796,-0.4835129976272583
-0.132237046957016,0.845646321773529,-0.2286745309829712,-0.5541234612464905,-0.4178510904312134,-0.1190664321184158,0.0,0.0,0.8690578937530518,-0.5615450739860535
-0.1344015151262283,0.8340939283370972,-0.212112471461296,-0.5147281289100647,-0.4225319027900696,-0.0936161503195762,0.0,0.0,0.9483166933059692,-0.9126920104026794
-0.1364413201808929,0.8234413266181946,-0.2015585899353027,-0.4741773605346679,-0.4251512587070465,-0.0523873269557952,0.0,0.0,0.8972129821777344,-0.8567151427268982
-0.138356015086174,0.8131134510040283,-0.1910721361637115,-0.4591356217861175,-0.4255918562412262,-0.0088118249550461,0.0,0.0,0.966015100479126,-0.9393675923347472
-0.139908879995346,0.8031137585639954,-0.157381385564804,-0.4437961280345917,-0.423314094543457,0.0455554351210594,0.0,0.0,0.8766634464263916,-0.8171659111976624
-0.1412558555603027,0.7938181757926941,-0.1386433839797973,-0.4119594693183899,-0.4190399646759033,0.0854822322726249,0.0,0.0,0.9384975433349608,-0.93243670463562
-0.1423380821943283,0.7846621870994568,-0.1145936250686645,-0.4050562679767608,-0.4121744930744171,0.1373096704483032,0.0,0.0,0.5764608383178711,-0.903512954711914
-0.1431765556335449,0.7760725021362305,-0.0923523232340812,-0.3793111443519592,-0.4030110836029053,0.1832680255174636,0.0,0.0,0.8349792957305908,-0.5906621217727661
-0.1436770409345626,0.7676236033439636,-0.0605621337890625,-0.3725614845752716,-0.3917672336101532,0.2248770296573639,0.0,0.0,-0.1084545850753784,-0.1183083057403564
-0.1441648453474044,0.7586477398872375,-0.0596865713596344,-0.3959649801254272,-0.3801376819610595,0.2325909435749054,0.0,0.0,-0.4762866497039795,-0.1918866038322448
-0.1446327269077301,0.7491451501846313,-0.0581037774682045,-0.4193699061870575,-0.3681353330612182,0.2400471270084381,0.0,0.0,-0.4906323552131653,-0.0598418116569519
-0.1450738906860351,0.7391159534454346,-0.055825226008892,-0.4427763223648071,-0.3557735979557037,0.247234433889389,0.0,0.0,0.0887777805328369,0.1515793800354004
-0.1452464163303375,0.7292978167533875,-0.0295653231441974,-0.4333672821521759,-0.3428388237953186,0.2586952447891235,0.0,0.0,-0.929214596748352,0.7296686172485352
-0.1453303396701812,0.718934178352356,-0.0198353193700313,-0.4579298794269562,-0.3308714032173157,0.2393483221530914,0.0,0.0,-0.7933226227760315,0.5877664089202881
-0.1453219354152679,0.7080147862434387,-0.0096847731620073,-0.4829257130622864,-0.3198975622653961,0.2194769382476806,0.0,0.0,-0.0382775068283081,0.5223760604858398
-0.1452281028032302,0.6965555548667908,-0.0006325055146589,-0.5071257948875427,-0.3095092177391052,0.207767516374588,0.0,0.0,-0.9365828633308412,0.1098535060882568
-0.1450764685869217,0.6845698356628418,0.0048533943481743,-0.5305331945419312,-0.2988369464874267,0.213445633649826,0.0,0.0,-0.8969899415969849,0.517535924911499
-0.1448206007480621,0.6720399856567383,0.0160313881933689,-0.554957926273346,-0.2889906764030456,0.1969251930713653,0.0,0.0,-0.92572283744812,0.3130050897598266
-0.1444961577653885,0.6589837074279785,0.022632697597146,-0.5783657431602478,-0.2788945138454437,0.2019231617450714,0.0,0.0,-0.7255750298500061,0.0047626495361328
-0.1440978944301605,0.6454014182090759,0.0297507159411907,-0.6017746329307556,-0.2685663104057312,0.2065648138523101,0.0,0.0,-0.8416417241096497,0.255541443824768
-0.1436211615800857,0.631292998790741,0.0373579189181327,-0.6251845955848694,-0.2580243051052093,0.2108398377895355,0.0,0.0,-0.819596529006958,0.1008949279785156
-0.1430616378784179,0.6166588664054871,0.0454268530011177,-0.6485954523086548,-0.2472873926162719,0.214738130569458,0.0,0.0,-0.4639496803283691,0.5603781938552856
-0.1423691809177398,0.6014881730079651,0.0596752762794494,-0.6726768016815186,-0.2375521510839462,0.1947044730186462,0.0,0.0,-0.5745628476142883,0.1141673326492309
-0.1415858268737793,0.5857914686203003,0.0685874819755554,-0.6960874199867249,-0.2276610285043716,0.1978224366903305,0.0,0.0,-0.2336336374282837,0.0552185773849487
-0.1407079696655273,0.5695690512657166,0.0778817236423492,-0.719498872756958,-0.2176341563463211,0.2005374878644943,0.0,0.0,0.0571162700653076,-0.4095505475997925
-0.1396269798278808,0.5533978343009949,0.0979643613100051,-0.7172601222991943,-0.2074010670185089,0.2046618461608886,0.0,0.0,-0.2702189683914184,-0.1258829236030578
-0.1384450942277908,0.5367010235786438,0.1079486384987831,-0.7406730055809021,-0.1970735639333725,0.2065499275922775,0.0,0.0,0.1176015138626098,-0.2332944273948669
-0.1370339393615722,0.5200388431549072,0.1305388808250427,-0.7391668558120728,-0.1864429116249084,0.2126131504774093,0.0,0.0,0.5102009773254395,-0.648740291595459
-0.1355340927839279,0.5033972859382629,0.1381144821643829,-0.7381792664527893,-0.1745315492153167,0.2382269203662872,0.0,0.0,0.3742269277572632,-0.5715269446372986
-0.1338626891374588,0.4866201877593994,0.1539414376020431,-0.7441507577896118,-0.1613156497478485,0.2643181085586548,0.0,0.0,0.6787569522857666,0.0086100101470947
-0.1320562362670898,0.4698370695114136,0.1675588339567184,-0.7445487976074219,-0.1482393890619278,0.2615256011486053,0.0,0.0,0.4137871265411377,-0.1879844665527343
-0.1300431191921234,0.453538030385971,0.1882386356592178,-0.7231475710868835,-0.1352089494466781,0.2606087327003479,0.0,0.0,0.2283775806427002,-0.2701064348220825
-0.1277740448713302,0.4376042783260345,0.2135773599147796,-0.7070114016532898,-0.1219374015927314,0.2654311656951904,0.0,0.0,0.1313817501068115,0.1561129093170166
-0.1253960579633712,0.4219935238361358,0.2248541861772537,-0.6928018927574158,-0.1090767458081245,0.2572132050991058,0.0,0.0,0.1524842977523803,-0.7965959310531616
-0.1230407729744911,0.4062223434448242,0.2211255580186844,-0.6999518871307373,-0.0947828441858291,0.2858780920505523,0.0,0.0,0.4746462106704712,0.469495415687561
-0.1204627007246017,0.3909758925437927,0.2433086931705474,-0.6767652630805969,-0.0804198086261749,0.2872608602046966,0.0,0.0,0.3051035404205322,0.2818421125411987
-0.1178065314888954,0.3758949339389801,0.2515991330146789,-0.6695706248283386,-0.0665448531508445,0.277499258518219,0.0,0.0,0.63161301612854,0.1246182918548584
-0.1150372475385665,0.3612971305847168,0.2632883191108703,-0.6482370495796204,-0.0530582033097744,0.2697330415248871,0.0,0.0,0.2095175981521606,-0.1020246744155883
-0.1121258735656738,0.3469427525997162,0.2776875495910644,-0.6375488638877869,-0.0397694855928421,0.2657745480537414,0.0,0.0,0.1019747257232666,-0.6063754558563232
-0.1090572327375412,0.3326452076435089,0.2922634482383728,-0.6351255774497986,-0.0253565553575754,0.2882587909698486,0.0,0.0,0.4509215354919433,-0.4009459614753723
-0.1058346778154373,0.3182737231254577,0.3077585101127624,-0.6385484337806702,-0.0110422596335411,0.286285936832428,0.0,0.0,0.7364627122879028,-0.4864514470100403
-0.102383516728878,0.3040116727352142,0.3303708732128143,-0.6338289380073547,0.003510222537443,0.2910495698451996,0.0,0.0,0.7690399885177612,-0.8398606777191162
-0.0987000465393066,0.2901434898376465,0.3518171608448028,-0.6164789199829102,0.0198233313858509,0.3262621164321899,0.0,0.0,0.7369406223297119,-0.861951470375061
-0.0948028564453125,0.2763706743717193,0.3714269697666168,-0.6124660968780518,0.0378854759037494,0.3612429499626159,0.0,0.0,0.9290021657943726,-0.8069084286689758
-0.0908816307783126,0.2633924484252929,0.3724916875362396,-0.5774223208427429,0.0572737380862236,0.3877654671669006,0.0,0.0,0.911433219909668,-0.2021042108535766
-0.0868460685014724,0.2512096166610718,0.3840613961219787,-0.5423173308372498,0.0765495970845222,0.3855175971984863,0.0,0.0,0.954630970954895,-0.5595490336418152
-0.0826299637556076,0.2397003769874572,0.4008769989013672,-0.5127084255218506,0.0970978960394859,0.4109664857387543,0.0,0.0,0.9255170822143556,-0.666822612285614
-0.0782472640275955,0.2282419055700302,0.4162107110023498,-0.5108456015586853,0.1189928501844406,0.4378992915153503,0.0,0.0,0.9028306007385254,-0.6268849968910217
-0.073917768895626,0.2171141058206558,0.4101839661598205,-0.496535450220108,0.141649842262268,0.4531396329402923,0.0,0.0,0.7042348384857178,-0.0309329628944396
-0.0694973021745681,0.2068059742450714,0.419279396533966,-0.4604582786560058,0.1643789857625961,0.4545831084251404,0.0,0.0,0.7455348968505859,-0.537688672542572
-0.0651127845048904,0.1968502551317215,0.4151200354099273,-0.4452247619628906,0.1877696216106414,0.4678130745887756,0.0,0.0,0.957371473312378,0.1725863218307495
-0.0609183311462402,0.1877214461565017,0.3972315192222595,-0.4086911380290985,0.2101242989301681,0.4470941424369812,0.0,0.0,0.7854945659637451,0.5968072414398193
-0.0566061958670616,0.1792267858982086,0.4104083478450775,-0.3806377947330475,0.2311737239360809,0.4209884703159332,0.0,0.0,0.6007795333862305,-0.4636241197586059
-0.0523798950016498,0.1712534725666046,0.402515709400177,-0.3576536178588867,0.2516097128391266,0.4087203443050384,0.0,0.0,0.5403478145599365,0.209296703338623
-0.0482708923518657,0.1637429296970367,0.3916181325912475,-0.3372290432453155,0.2713066041469574,0.3939386010169983,0.0,0.0,0.2685720920562744,0.1136209964752197
-0.0441512092947959,0.1562540680170059,0.3932438492774963,-0.3364242911338806,0.2905246317386627,0.3843603730201721,0.0,0.0,0.3100512027740478,-0.3113794326782226
-0.0401254668831825,0.1488871425390243,0.3847829699516296,-0.3310743570327759,0.3089165389537811,0.3678380250930786,0.0,0.0,0.649005651473999,-0.2918785810470581
-0.0362698547542095,0.1416745036840438,0.3689159154891968,-0.324197381734848,0.3262083828449249,0.3458369970321655,0.0,0.0,0.4178464412689209,-0.2219024896621704
-0.0323939323425293,0.1348572522401809,0.3710380494594574,-0.3068189322948456,0.3435086011886596,0.3460042178630829,0.0,0.0,0.4358484745025635,-0.1931564807891845
-0.0284439083188772,0.1279950886964798,0.3787104487419128,-0.3089664876461029,0.3606371879577636,0.3425717055797577,0.0,0.0,0.7033796310424805,-0.3355628848075866
-0.0244997031986713,0.1217911839485168,0.377988338470459,-0.2799634337425232,0.3780334889888763,0.3479261696338653,0.0,0.0,0.3407751321792602,-0.4431577920913696
-0.0206731799989938,0.1159297302365303,0.3668007254600525,-0.264794260263443,0.3949147164821625,0.3376252651214599,0.0,0.0,0.1331243515014648,-0.5443440079689026
-0.0168818477541208,0.1103980839252471,0.3625938892364502,-0.2505512535572052,0.4126648306846618,0.355002224445343,0.0,0.0,0.0144100189208984,-0.2903075218200683
-0.0130586624145507,0.1048584282398223,0.3661138713359833,-0.2510389685630798,0.4301933050155639,0.3505695164203644,0.0,0.0,-0.1767551898956298,-0.0294843912124633
-0.009103775024414,0.0987933501601219,0.3798111975193023,-0.2744530737400055,0.4472796320915222,0.3417265117168426,0.0,0.0,0.3486695289611816,-0.0786805748939514
-0.005250739865005,0.0931042060256004,0.3699520230293274,-0.2578591704368591,0.4641492366790771,0.3373919129371643,0.0,0.0,0.188244342803955,0.2284940481185913
-0.0013619422679767,0.087370216846466,0.3738102316856384,-0.2599635720252991,0.4808379411697387,0.3337743282318115,0.0,0.0,0.5409557819366455,0.2430427074432373
0.0022902488708496,0.0817977264523506,0.351164162158966,-0.2526381313800812,0.4965473115444183,0.3141876459121704,0.0,0.0,0.3570361137390136,0.5434094667434692
0.005809593014419,0.0762032866477966,0.3396198153495788,-0.2531572580337524,0.5104156732559204,0.2773673236370086,0.0,0.0,0.5245029926300049,0.5982100963592529
0.009228229522705,0.0707800015807151,0.3311999440193176,-0.2450615614652633,0.5225167274475098,0.242021158337593,0.0,0.0,0.5113283395767212,0.1706817150115966
0.0125551223754882,0.065480813384056,0.3224120736122131,-0.2395139187574386,0.5342692136764526,0.2350498437881469,0.0,0.0,0.6680328845977783,0.5290088653564453
0.0159868244081735,0.0602570138871669,0.3339923918247223,-0.2358240783214569,0.5448110103607178,0.2108354568481445,0.0,0.0,0.3053303956985473,0.6865553855895996
0.0193873401731252,0.0553082339465618,0.3325002789497375,-0.2230213731527328,0.553543210029602,0.1746442764997482,0.0,1.0,0.99949312210083,0.9994239807128906
0.0223957058042287,0.0522137507796287,0.3056733608245849,-0.1360054612159729,0.5467900633811951,-0.1369563639163971,0.0,1.0,0.99367356300354,0.977720022201538
0.0251484867185354,0.0498554818332195,0.2987097203731537,-0.0955818146467208,0.5198172330856323,-0.5395843982696533,0.0,1.0,0.9875109195709229,-0.920948565006256
