x_pos,y_pos,x_vel,y_vel,angle,ang_vel,leg_1,leg_2,main_booster,lat_booster
-0.0015202522045001,1.402946949005127,-0.1536155045032501,-0.3543657660484314,0.0014189344365149,0.0279643926769495,0.0,0.0,-0.2494480914065495,0.7495951187829909
-0.0029734610579907,1.3943158388137815,-0.1447285860776901,-0.3836080133914947,0.0008413976756855,-0.0115511836484074,0.0,0.0,0.6518720564732907,-0.004627072820913
-0.0042899129912257,1.3856126070022583,-0.1313600242137909,-0.3868103325366974,0.0005551260546781,-0.00572593184188,0.0,0.0,-0.99699444436362,0.0142079926502242
-0.0056030275300145,1.3762315511703491,-0.1306625008583068,-0.4169339835643768,-8.249157690443099e-05,-0.0127535359933972,0.0,0.0,-0.3481890425330707,0.5216174474529247
-0.0068629262968897,1.3661746978759766,-0.1237163096666336,-0.4469743072986603,-0.0023231394588947,-0.044817142188549,0.0,0.0,0.7888137950493501,-0.1460278504038001
-0.0079692844301462,1.3563218116760254,-0.108730100095272,-0.4379092752933502,-0.0042036822997033,-0.0376145057380199,0.0,0.0,0.6182313136333366,0.3308241326790033
-0.0090918540954589,1.34663987159729,-0.1098914891481399,-0.4303175806999206,-0.0065416605211794,-0.046763889491558,0.0,0.0,0.7858985274588135,-0.3793057868111619
-0.0100447656586766,1.3373278379440308,-0.0933496281504631,-0.4138813614845276,-0.0084607368335127,-0.0383850783109664,0.0,0.0,0.9540562941122211,-0.2194727110760806
-0.0110000614076852,1.3288228511810305,-0.0931627377867698,-0.3780134916305542,-0.0107996761798858,-0.0467833690345287,0.0,0.0,0.3543899295405213,-0.3955841049065487
-0.011946010403335,1.320533275604248,-0.0918709635734558,-0.368440181016922,-0.0134925721213221,-0.0538628473877906,0.0,0.0,-0.5703996942519176,0.9243240329230328
-0.0128051759675145,1.311565637588501,-0.0807176679372787,-0.3986221551895141,-0.0186300240457057,-0.1027586609125137,0.0,0.0,0.2193145493948065,0.4253318457435552
-0.0136011121794581,1.302504062652588,-0.0743022337555885,-0.4028116762638092,-0.0238703284412622,-0.1048157066106796,0.0,0.0,0.4828729711617121,0.5010205962597677
-0.0142135620117187,1.293703556060791,-0.0549209415912628,-0.3912509977817535,-0.0301170330494642,-0.1249454170465469,0.0,0.0,-0.1677281943417756,-0.0364544907768347
-0.0148221971467137,1.2842258214950562,-0.0541983842849731,-0.421375572681427,-0.0367140285670757,-0.1319517344236374,0.0,0.0,-0.4586157326714111,0.2252283473306858
-0.0154272075742483,1.274071455001831,-0.0534743294119834,-0.4514923989772796,-0.0436613038182258,-0.1389582157135009,0.0,0.0,0.3927987357814815,-0.6281081451542178
-0.0159658435732126,1.2636051177978516,-0.0479645058512687,-0.4653578400611877,-0.0495050139725208,-0.116884745657444,0.0,0.0,-0.2153264691076839,0.5842270181410951
-0.0164440162479877,1.2524644136428833,-0.0401211902499198,-0.4954135119915008,-0.0571235604584217,-0.1523847132921219,0.0,0.0,0.1817204192396995,-0.161772653412147
-0.0168013572692871,1.241039752960205,-0.0281725078821182,-0.5080662369728088,-0.0646128430962562,-0.149799183011055,0.0,0.0,-0.5895140847588358,-0.5067139230349146
-0.017188262194395,1.2289466857910156,-0.0316290780901908,-0.5377978086471558,-0.0716059431433677,-0.1398751735687255,0.0,0.0,0.790268793558847,-0.5531066767428146
-0.0176640506833791,1.217108964920044,-0.0410222336649894,-0.526454508304596,-0.078109435737133,-0.1300812810659408,0.0,0.0,-0.3069989493396325,-0.8993595129924628
-0.0181916244328022,1.2046071290969849,-0.0472730249166488,-0.5559273362159729,-0.0835489779710769,-0.1088007092475891,0.0,0.0,-0.7467296776363495,-0.2153860644048212
-0.018715476617217,1.1914286613464355,-0.0465528853237628,-0.5860451459884644,-0.0893371179699897,-0.1157731264829635,0.0,0.0,0.371649920027211,0.389223899139047
-0.019087791442871,1.178234338760376,-0.031568307429552,-0.5867618322372437,-0.0949712470173835,-0.1126928552985191,0.0,0.0,-0.8989282252961261,0.2279903988985461
-0.0194565765559673,1.1643633842468262,-0.030849689617753,-0.616888701915741,-0.1009526625275611,-0.1196387633681297,0.0,0.0,0.4574260620751329,0.4427623225831105
-0.0198889728635549,1.150681734085083,-0.0362881310284137,-0.6085498332977295,-0.1078607589006424,-0.1381740868091583,0.0,0.0,-0.099106569044499,-0.1602335489780151
-0.0203191749751567,1.136302471160889,-0.035720620304346,-0.6396254301071167,-0.1151143312454223,-0.1450715214014053,0.0,0.0,0.0186615585732472,-0.7981945420841979
-0.020754050463438,1.121929407119751,-0.0374366678297519,-0.6392778158187866,-0.1211176440119743,-0.1200663074851036,0.0,0.0,0.703194963603595,-0.6651551027263836
-0.0212791450321674,1.1081894636154177,-0.0471259281039238,-0.6111072897911072,-0.1264696717262268,-0.1070406064391136,0.0,0.0,0.2834216999428487,-0.5809864327680437
-0.0218802448362112,1.094702959060669,-0.0553448982536792,-0.5998180508613586,-0.1312202513217926,-0.0950115844607353,0.0,0.0,-0.8671554081923878,0.034314683787743
-0.0224778167903423,1.080539584159851,-0.0546487495303154,-0.6299372315406799,-0.1363129913806915,-0.1018547788262367,0.0,0.0,-0.3032463216326018,-0.5000696751784309
-0.0231093410402536,1.0657131671905518,-0.058670800179243,-0.6593725085258484,-0.1407757103443145,-0.0892540216445922,0.0,0.0,-0.9686347246170044,-0.979695737361908
-0.0238245017826557,1.050222635269165,-0.0689090341329574,-0.6887156963348389,-0.1433695256710052,-0.0518761649727821,0.0,0.0,-0.921893298625946,-0.9076777100563048
-0.0246160514652729,1.0340811014175415,-0.07828289270401,-0.7174824476242065,-0.1442334800958633,-0.0172790139913558,0.0,0.0,-0.9428118467330932,-0.6175196766853333
-0.0254580490291118,1.0172687768936155,-0.0843600779771804,-0.7471970915794373,-0.1440712064504623,0.0032450649887323,0.0,0.0,-0.2978806495666504,-0.8415589928627014
-0.0263603217899799,0.999795377254486,-0.0917060449719429,-0.776459276676178,-0.1426053643226623,0.029316920787096,0.0,0.0,-0.6278119087219238,-0.8875105977058411
-0.0273259170353412,0.9816660284996032,-0.0994225591421127,-0.8054744601249695,-0.1397478729486465,0.0571499541401863,0.0,0.0,-0.1331757307052612,-0.0872483849525451
-0.0282879825681448,0.9628599882125854,-0.0987447500228881,-0.8355924487113953,-0.1372205018997192,0.0505472533404827,0.0,0.0,0.1222116947174072,-0.1457945108413696
-0.0291502960026264,0.9441400170326232,-0.0885550379753112,-0.8317896127700806,-0.1349012106657028,0.0463857129216194,0.0,0.0,0.4254360198974609,-0.0945345759391784
-0.029944896697998,0.9258304834365844,-0.0813119858503341,-0.8135920763015747,-0.1330639719963073,0.0367447175085544,0.0,0.0,0.3824458122253418,-0.714893639087677
-0.0306985862553119,0.9076070189476012,-0.0783607140183448,-0.8096606731414795,-0.1300778239965438,0.0597229674458503,0.0,0.0,-0.3025388717651367,-0.4207551479339599
-0.0314487442374229,0.8887068629264832,-0.077700175344944,-0.8397783637046814,-0.1274105459451675,0.0533456020057201,0.0,0.0,0.2654650211334228,-0.3747603893280029
-0.0320507995784282,0.8697083592414856,-0.063011035323143,-0.8441441059112549,-0.1246212944388389,0.0557849183678627,0.0,0.0,0.312920331954956,-0.308923602104187
-0.0325419418513774,0.8503894209861755,-0.051961101591587,-0.8583852052688599,-0.1217863857746124,0.0566981025040149,0.0,0.0,0.5549997091293335,0.0895512104034423
-0.0328764915466308,0.8311173319816589,-0.0364311411976814,-0.8563001751899719,-0.1188264861702919,0.0591979399323463,0.0,0.0,-0.1777629852294922,-0.3776265382766723
-0.0332077033817768,0.8111682534217834,-0.0357953868806362,-0.8864174485206604,-0.1161692813038826,0.0531441792845726,0.0,0.0,0.7766520977020264,-0.2459491491317749
-0.0334448814392089,0.7910688519477844,-0.0263240076601505,-0.8931040167808533,-0.1135811954736709,0.051761757582426,0.0,0.0,0.7294783592224121,0.2774429321289062
-0.0335622802376747,0.7709787487983704,-0.0143532902002334,-0.8926945328712463,-0.1109898760914802,0.0518263466656208,0.0,0.0,-0.0405775904655456,0.4735167026519775
-0.0336765274405479,0.7502115964889526,-0.0137428175657987,-0.9228113293647766,-0.1086847409605979,0.0461023561656475,0.0,0.0,0.2334694862365722,0.0460457801818847
-0.0338221564888954,0.7296609878540039,-0.0161432120949029,-0.9132486581802368,-0.107117511332035,0.0313447825610637,0.0,0.0,0.7424569129943848,0.2872785329818725
-0.0339294448494911,0.709236741065979,-0.0119317956268787,-0.9076554775238036,-0.1059261187911033,0.0238280333578586,0.0,0.0,0.375428557395935,-0.2314103245735168
-0.0338645949959754,0.6888256072998047,0.0049925120547413,-0.9070576429367064,-0.1044472157955169,0.0295781847089529,0.0,0.0,0.8170936107635498,-0.2052836418151855
-0.0337752327322959,0.6689558029174805,0.0080043515190482,-0.8830317854881287,-0.1035178527235984,0.0185871943831443,0.0,0.0,0.0367064476013183,-0.6696644425392151
-0.0336291305720806,0.6488176584243774,0.0125032914802432,-0.894889771938324,-0.1014272198081016,0.0418124720454216,0.0,0.0,0.4266674518585205,-0.6730182766914368
-0.033459760248661,0.6290439963340759,0.0137060191482305,-0.8786143660545349,-0.0982247218489646,0.0640498623251915,0.0,0.0,-0.249094009399414,-0.6569837927818298
-0.0333266258239746,0.6085964441299438,0.0093234134837985,-0.9085193276405334,-0.0942649543285369,0.0791953206062316,0.0,0.0,0.7568209171295166,0.0784001350402832
-0.0332446098327636,0.5882344245910645,0.0049013397656381,-0.9047728180885316,-0.0909915193915367,0.0654688775539398,0.0,0.0,0.9171968698501588,-0.1321738958358764
-0.0329669937491416,0.5685620307922363,0.0241468977183103,-0.8741168975830078,-0.0874177441000938,0.071475550532341,0.0,0.0,0.7733273506164551,-0.4075478315353393
-0.0324760451912879,0.549274742603302,0.0449970141053199,-0.8569779992103577,-0.0833503380417823,0.0813479423522949,0.0,0.0,0.2539870738983154,-0.4690512418746948
-0.0318737998604774,0.5302373170852661,0.0560293607413768,-0.8458776473999023,-0.0791986882686615,0.083032801747322,0.0,0.0,0.233530044555664,-0.8715598583221436
-0.0313563346862793,0.5114237666130066,0.0460093729197979,-0.8358665108680725,-0.0735162273049354,0.1136489510536193,0.0,0.0,0.6104996204376221,-0.6761606335639954
-0.030809212476015,0.492467314004898,0.0476433858275413,-0.8421756029129028,-0.0665212720632553,0.1398995816707611,0.0,0.0,0.8402867317199707,-0.438296377658844
-0.0303193088620901,0.4740145802497864,0.0425838157534599,-0.8198500871658325,-0.0601759701967239,0.1269060373306274,0.0,0.0,0.938141107559204,-0.337543249130249
-0.0296459197998046,0.4557803571224212,0.0603595152497291,-0.8101478815078735,-0.0532770082354545,0.1379792392253875,0.0,0.0,0.7133381366729736,0.0919477939605712
-0.02891206741333,0.4378194212913513,0.0663835853338241,-0.7980319261550903,-0.0463645532727241,0.1382492929697036,0.0,0.0,0.9592287540435792,-0.2067062854766845
-0.0281450264155864,0.4198931753635406,0.0697524398565292,-0.7965204119682312,-0.0394911058247089,0.137468621134758,0.0,0.0,0.9415688514709472,-0.3804525732994079
-0.0274940486997365,0.4023397266864776,0.0588911958038806,-0.7800052762031555,-0.0333545431494712,0.1227312833070755,0.0,0.0,0.9714531898498536,-0.4282628297805786
-0.0267815589904785,0.3856388628482818,0.0649580210447311,-0.7421334981918335,-0.0271450262516737,0.1241902261972427,0.0,0.0,0.8924322128295898,0.1561930179595947
-0.0259644500911235,0.3687593936920166,0.07501120865345,-0.7500888109207153,-0.0205274242907762,0.1323517709970474,0.0,0.0,0.9353617429733276,-0.3340591192245483
-0.0250937454402446,0.3527018427848816,0.080234870314598,-0.7135928273200989,-0.013771366328001,0.1351210176944732,0.0,0.0,0.969204306602478,-0.4018956422805786
-0.0243260376155376,0.3368157148361206,0.070438914000988,-0.7060021758079529,-0.0075233965180814,0.1249594837427139,0.0,0.0,0.942572832107544,0.0914490222930908
-0.0236592292785644,0.3214480280876159,0.0608301162719726,-0.6829919219017029,-0.0017452780157327,0.1155622452497482,0.0,0.0,0.9523035287857056,0.6650435924530029
-0.0228984840214252,0.3065072000026703,0.0714119598269462,-0.6640365719795227,0.0028590944129973,0.0920873656868934,0.0,0.0,0.9068434238433838,0.2917035818099975
-0.022288417443633,0.292350560426712,0.0569744482636451,-0.6291968822479248,0.0068421349860727,0.079660877585411,0.0,0.0,0.9455370903015136,0.2813136577606201
-0.0215958599001169,0.2785375416278839,0.0647323876619339,-0.6139400601387024,0.011309765279293,0.0893525630235672,0.0,0.0,0.8561673164367676,0.2272319793701172
-0.020945644006133,0.2647056579589844,0.0605652518570423,-0.6147918701171875,0.0157038830220699,0.0878826007246971,0.0,0.0,0.9831089973449708,0.4444217681884765
-0.0202197078615427,0.2507835626602173,0.0676368325948715,-0.6188164353370667,0.0205941833555698,0.0978059917688369,0.0,0.0,0.9520349502563475,0.3477600812911987
-0.0195393562316894,0.2367846369743347,0.0631242766976356,-0.6222505569458008,0.0254465863108634,0.0970480293035507,0.0,0.0,0.9748501777648926,0.355569839477539
-0.0188932418823242,0.2235298752784729,0.0595985278487205,-0.5891943573951721,0.0304030999541282,0.0991300866007804,0.0,0.0,0.9767661094665528,-0.2939478158950805
-0.0181812290102243,0.2110657542943954,0.065562717616558,-0.5540844798088074,0.0359677225351333,0.1112928241491317,0.0,0.0,0.9141064882278442,0.2968912124633789
-0.0176336281001567,0.1993370652198791,0.0495496913790702,-0.5214100480079651,0.0411101728677749,0.102848969399929,0.0,0.0,0.8948948383331299,-0.0272172093391418
-0.017250632867217,0.1874914318323135,0.0335998907685279,-0.526608943939209,0.045758668333292,0.0929700434207916,0.0,0.0,0.9622228145599364,0.7253673076629639
-0.0168024059385061,0.1763892918825149,0.0412421748042106,-0.493538349866867,0.0492927879095077,0.0706824362277984,0.0,0.0,0.9342799186706544,0.7347242832183838
-0.016458511352539,0.1656141877174377,0.0323782339692115,-0.4789635837078094,0.0512789003551006,0.0397222191095352,0.0,0.0,0.8767629861831665,0.0412437915802001
-0.0162174217402935,0.1553102880716323,0.0221665669232606,-0.4580169320106506,0.0532046929001808,0.0385157689452171,0.0,0.0,0.9402389526367188,0.2030024528503418
-0.0160351749509573,0.1455580592155456,0.0161002725362777,-0.4335093796253204,0.055303432047367,0.0419747754931449,0.0,0.0,0.912956953048706,0.3620896339416504
-0.0157907493412494,0.1361458599567413,0.02159920707345,-0.4184283018112182,0.0581166818737983,0.0562650375068187,0.0,0.0,0.8931965827941895,0.4709295034408569
-0.0155434608459472,0.1266461908817291,0.0214961431920528,-0.4223376512527466,0.0613118261098861,0.0639029592275619,0.0,0.0,0.8851056098937988,0.2139441967010498
-0.0152202602475881,0.1171669065952301,0.0283212307840585,-0.4214706122875213,0.0652610138058662,0.0789837390184402,0.0,0.0,0.9402681589126588,0.5810959339141846
-0.0147130964323878,0.1080366671085357,0.047098658978939,-0.4059515297412872,0.0688419491052627,0.071618840098381,0.0,0.0,0.9329488277435304,0.0037333965301513
-0.014076804742217,0.0989366173744201,0.0589658319950103,-0.4046658277511596,0.073456197977066,0.0922851711511612,0.0,0.0,0.9125053882598876,-0.300378680229187
-0.0135128023102879,0.090459905564785,0.051476664841175,-0.3769922852516174,0.0783253759145736,0.0973837673664093,0.0,0.0,0.9748026132583618,-0.2919062972068786
-0.0129850385710597,0.0826664790511131,0.0473979189991951,-0.3466644585132599,0.0836568027734756,0.1066287532448768,0.0,0.0,0.9234600067138672,0.7264838218688965
-0.0123107908293604,0.075386606156826,0.0628270208835601,-0.3238130509853363,0.0882079750299453,0.0910235419869422,0.0,0.0,0.86763596534729,-0.7987261414527893
-0.011609649285674,0.0679812058806419,0.0633437559008598,-0.3295466601848602,0.0949156656861305,0.1341536045074463,0.0,0.0,0.7778347730636597,0.6332434415817261
-0.0109734535217285,0.060713991522789,0.0579698681831359,-0.323356568813324,0.1005163043737411,0.1120127066969871,0.0,0.0,0.935293197631836,-0.1041254997253418
-0.0103425029665231,0.0542933568358421,0.0566795170307159,-0.2858060002326965,0.1068857312202453,0.1273881644010543,0.0,0.0,0.748540997505188,0.1217052936553955
-0.0098029132932424,0.0480905883014202,0.0473521202802658,-0.276165634393692,0.1134549230337143,0.131383866071701,0.0,0.0,0.818699836730957,0.8633835315704346
-0.0094477655366063,0.042510088533163,0.0305932573974132,-0.2484039664268493,0.1183378547430038,0.0976586788892746,0.0,0.0,0.856620192527771,0.9904834032058716
-0.0090022087097167,0.037459097802639,0.0411511212587356,-0.2247662842273712,0.1217290312051773,0.067823588848114,0.0,0.0,0.3086496591567993,0.5426955223083496
-0.0086350440979003,0.0326192490756511,0.0341744273900985,-0.2153142988681793,0.1242587342858314,0.0505939014256,0.0,0.0,0.7275851964950562,0.6164605617523193
-0.0084120752289891,0.0282639116048812,0.020894082263112,-0.1936843544244766,0.1256506592035293,0.0278382860124111,0.0,0.0,0.5595412254333496,0.4107046127319336
-0.0082741733640432,0.0239268876612186,0.0121764820069074,-0.1928977817296981,0.1272625178098678,0.0322375521063804,0.0,0.0,0.7207696437835693,0.5017616748809814
-0.008307266049087,0.0198281854391098,-0.00389318424277,-0.1822113245725631,0.1278349310159683,0.0114482063800096,0.0,0.0,0.7077908515930176,0.848220705986023
-0.0085165975615382,0.0158360581845045,-0.0198358856141567,-0.1773369759321212,0.1267507821321487,-0.0216833837330341,0.0,0.0,0.8304562568664551,0.834262490272522
-0.0086363796144723,0.0123934606090188,-0.0098051559180021,-0.152819886803627,0.1245827749371528,-0.0433603599667549,0.0,1.0,0.8913586139678955,0.8884197473526001
-0.0087485313415527,0.0096924398094415,0.0107833454385399,-0.118585467338562,0.1020587235689163,-0.4513446390628814,0.0,1.0,0.3695206642150879,0.1418367624282837
-0.0088966367766261,0.0077841375023126,0.0208088587969541,-0.0827740281820297,0.0667105615139007,-0.7070340514183044,0.0,1.0,0.6309657096862793,-0.1791203618049621
-0.0090964315459132,0.0063267326913774,0.0145841520279645,-0.0635892748832702,0.0325475968420505,-0.6832597851753235,0.0,1.0,0.4510703086853027,0.1914399862289428
-0.0091956136748194,0.0053382851183414,0.0240906756371259,-0.0435344986617565,-0.0010348219657316,-0.6716490983963013,0.0,0.0,-0.1381545066833496,-0.930273413658142
-0.0093620298430323,0.0036865805741399,0.0153932217508554,-0.0737342983484268,-0.0326626375317573,-0.6325564980506897,0.0,0.0,0.2208567857742309,-0.982469379901886
-0.0095055578276515,0.0030092333909124,-0.0040512029081583,-0.0303602181375026,-0.0428232587873935,-0.2032058537006378,1.0,0.0,-0.3695061206817627,0.007917046546936
-0.0095349308103322,0.0023336028680205,-0.0116100739687681,-0.0298056788742542,-0.0342598147690296,0.1712720692157745,1.0,0.0,-0.3877865672111511,0.3735083341598511
-0.0094789508730173,0.0014985060552135,-0.0174589585512876,-0.036745611578226,-0.0114946933463215,0.4553103446960449,1.0,0.0,-0.1465072035789489,0.2072358131408691
-0.0094408988952636,-3.586053935578093e-05,-0.01816276460886,-0.0681658834218978,0.0101926540955901,0.4337466657161712,1.0,0.0,0.3059146404266357,0.6984767913818359
-0.0095609668642282,-0.0009266042616218,-0.0131023051217198,-0.0396154522895813,0.0112095745280385,0.0202514417469501,0.0,1.0,-0.802621066570282,-0.1406614780426025
-0.0097430227324366,-0.0021216536406427,-0.0088071897625923,-0.0530854985117912,0.001874218811281,-0.1867801398038864,0.0,1.0,0.2845619916915893,0.1022249460220336
-0.0098065380007028,-0.0023378396872431,-0.003883273107931,-0.0096523342654109,-0.0005257747834548,-0.0479597188532352,1.0,1.0,-0.6576111316680908,-0.2749302387237549
-0.0098177911713719,-0.002255585277453,-0.0003816179814748,0.0036393189802765,-0.0012494176626205,-0.014454242773354,1.0,1.0,-0.3124138116836548,0.1460380554199218
-0.0098205562680959,-0.0018646979006007,-0.0002238226588815,0.0173475798219442,-0.0012866669567301,-0.0007205343572422,1.0,1.0,-0.8238438367843628,0.3035478591918945
-0.0098228454589843,-0.0018580460455268,-0.0002161769371014,0.0002754692395683,-0.0012892651138827,-3.269805893069133e-05,1.0,1.0,-0.5217620730400085,-0.0413347482681274
-0.0098235132172703,-0.0018603348871693,-5.892270201002248e-05,-0.0001180484105134,-0.0012885761680081,2.9664477551705204e-05,1.0,1.0,-0.6329790353775024,-0.0324524044990539
