x_pos,y_pos,x_vel,y_vel,angle,ang_vel,leg_1,leg_2,main_booster,lat_booster
-0.0016226768493652,1.403064250946045,-0.1640367805957794,-0.3491457998752594,0.0015883691376075,0.0313188508152961,0.0,0.0,0.8090959913873466,-0.8614615291637356
-0.0033508301712572,1.3954250812530518,-0.1759851425886154,-0.3395287692546844,0.004721381701529,0.062666967511177,0.0,0.0,-0.37634189224043,0.9423637856734082
-0.0050882338546216,1.387218713760376,-0.1743566989898681,-0.3647229969501495,0.0053360951133072,0.0122951073572039,0.0,0.0,0.3203688285795685,0.9407147936137475
-0.0069631575606763,1.379047989845276,-0.1858954578638076,-0.3631409406661987,0.0037652309983968,-0.0314204096794128,0.0,0.0,0.94869205725512,-0.8340600781629396
-0.0088397981598973,1.371474027633667,-0.1878893673419952,-0.3366282880306244,0.0039892853237688,0.004481544252485,0.0,0.0,0.9877256690851592,0.7647856454307641
-0.0105794910341501,1.3643200397491455,-0.1728862822055816,-0.3179517388343811,0.0029162466526031,-0.0214627422392368,0.0,0.0,-0.5847841401717093,-0.8908534516094752
-0.0124913211911916,1.3566054105758667,-0.1917222291231155,-0.3428682684898376,0.0034514772705733,0.0107051832601428,0.0,0.0,0.0233977077591471,0.9353342456393364
-0.0143194198608398,1.3489357233047483,-0.181240826845169,-0.3408749401569366,0.0018994060810655,-0.0310442801564931,0.0,0.0,-0.9848267676139756,-0.8850967840556747
-0.0163177493959665,1.3407151699066162,-0.1998662799596786,-0.3653591871261596,0.0019252299098297,0.0005166379851289,0.0,0.0,-0.641243930191647,-0.8691429357517195
-0.0184839256107807,1.331939697265625,-0.2181741744279861,-0.3900230228900909,0.0034683451522141,0.0308652110397815,0.0,0.0,0.7758882804786478,-0.7616217898303285
-0.0207101814448833,1.3235634565353394,-0.225730687379837,-0.3722892701625824,0.00654410244897,0.0615205764770507,0.0,0.0,-0.2712998999070215,-0.6567143432005571
-0.023081112653017,1.314625263214111,-0.2411665916442871,-0.3972781300544739,0.0105744218453764,0.0806138217449188,0.0,0.0,0.2835031065696805,0.7830392184548256
-0.0253802295774221,1.3059489727020264,-0.2323853075504303,-0.385633111000061,0.013007428497076,0.0486646071076393,0.0,0.0,0.6262550993530012,-0.9935929783836795
-0.0277841575443744,1.2972276210784912,-0.2447483539581298,-0.3876628279685974,0.0173260699957609,0.0863806456327438,0.0,0.0,-0.3024654573456768,-0.9377255268175286
-0.0303432457149028,1.287954568862915,-0.2615489363670349,-0.4122116267681122,0.022893251851201,0.1113540083169937,0.0,0.0,0.7349888821310293,0.6982362385401747
-0.0328276641666889,1.2785876989364624,-0.2527926862239837,-0.4163738489151001,0.027197303250432,0.086088977754116,0.0,0.0,0.1508176184339864,-0.8866303291901705
-0.0353846549987793,1.269566535949707,-0.2617150843143463,-0.4010623693466186,0.0331485234200954,0.1190351471304893,0.0,0.0,0.3828404582291256,-0.748624984871337
-0.0379758849740028,1.2604529857635498,-0.2666929364204407,-0.4052265882492065,0.0406398884952068,0.1498408764600753,0.0,0.0,0.5269469662071637,0.7336425126526935
-0.0405383110046386,1.251908540725708,-0.2623761296272278,-0.3799389600753784,0.0467112362384796,0.1214381009340286,0.0,0.0,0.2382692573390796,0.893422057491505
-0.0432172790169715,1.2434390783309937,-0.2720539271831512,-0.376554936170578,0.050824400037527,0.0822707563638687,0.0,0.0,-0.9475738705869536,0.8377135698559057
-0.0459135062992572,1.234421730041504,-0.2716046571731567,-0.4008399546146393,0.0527884140610694,0.0392835810780525,0.0,0.0,-0.1917859836995792,-0.8044854632254742
-0.0487686172127723,1.224834680557251,-0.2889538109302521,-0.4262102246284485,0.0561990588903427,0.0682189613580703,0.0,0.0,-0.181179152563047,0.65050488664426
-0.0516577735543251,1.2146921157836914,-0.2906504273414612,-0.4508530795574188,0.0579206421971321,0.0344346351921558,0.0,0.0,-0.5417617278421387,-0.7733424841653278
-0.0546964630484581,1.2039759159088137,-0.3068872392177582,-0.4763921797275543,0.0608976371586322,0.05954534932971,0.0,0.0,-0.7336140339924175,0.7544074013529688
-0.0577855110168457,1.1927058696746826,-0.3106539845466614,-0.5009635090827942,0.0626261308789253,0.0345731675624847,0.0,0.0,-0.7768445500075722,0.690205988960169
-0.0609277710318565,1.1808615922927856,-0.3148257732391357,-0.5264319181442261,0.0632213354110717,0.0119040152058005,0.0,0.0,-0.6843602960628847,0.877013701019913
-0.0640953034162521,1.1684694290161133,-0.3154910802841186,-0.5507131218910217,0.0619740262627601,-0.0249463897198438,0.0,0.0,0.1155811380894837,-0.6515565362563589
-0.067542552947998,1.1563440561294556,-0.3445681929588318,-0.5388988852500916,0.0618181377649307,-0.0031175625044852,0.0,0.0,0.5754646895355124,-0.7124568101328912
-0.0713221579790115,1.1447523832321167,-0.3788833022117615,-0.5152248740196228,0.0627407059073448,0.0184514392167329,0.0,0.0,0.1149065590716018,0.9347361687231516
-0.0751581192016601,1.1330950260162354,-0.3825887143611908,-0.5180641412734985,0.0617397651076316,-0.0200187508016824,0.0,0.0,-0.50491788742077,0.8073256979681153
-0.0790212601423263,1.1208927631378174,-0.3835704624652862,-0.542213499546051,0.0590239502489566,-0.0543160326778888,0.0,0.0,-0.8100527911446034,-0.684268826368609
-0.0830370932817459,1.1081207990646362,-0.4003472924232483,-0.567586362361908,0.0577980317175388,-0.0245182756334543,0.0,0.0,-0.5819875761781379,0.6231091662526408
-0.0871018394827842,1.0947984457015991,-0.4041059017181396,-0.5920145511627197,0.0554588101804256,-0.0467845685780048,0.0,0.0,-0.867576938146448,0.648520885330821
-0.0912107452750206,1.08091402053833,-0.4073280394077301,-0.6169570684432983,0.0519315935671329,-0.0705441161990165,0.0,0.0,-0.0058032444337514,0.7640072869414701
-0.0953472107648849,1.0664762258529663,-0.4084647297859192,-0.6415112614631653,0.0468142218887805,-0.1023476347327232,0.0,0.0,-0.0072329049364681,0.793053511661765
-0.0995077118277549,1.0514893531799316,-0.40920290350914,-0.6658899784088135,0.0400482937693595,-0.1353183090686798,0.0,0.0,0.3046692581389827,0.9181552158303689
-0.1037210449576377,1.0364800691604614,-0.4126161932945251,-0.6668655276298523,0.0314246714115142,-0.17247274518013,0.0,0.0,-0.7495173079491777,-0.6692970319613132
-0.1080705672502517,1.0209144353866575,-0.4274695813655853,-0.691666841506958,0.0240381471812725,-0.1477301865816116,0.0,0.0,0.1123990301998223,0.786874087047322
-0.112487219274044,1.005650281906128,-0.4325732290744781,-0.6782886981964111,0.015062129124999,-0.1795205622911453,0.0,0.0,-0.9353946725697276,0.6823094189011157
-0.1169310584664344,0.989829421043396,-0.4338588118553161,-0.7030792236328125,0.0046677663922309,-0.2078870236873626,0.0,0.0,0.1060300422990434,-0.8135599712152823
-0.1216069236397743,0.9742373824119568,-0.4586638510227203,-0.6929781436920166,-0.0041450071148574,-0.1762552708387375,0.0,0.0,-0.9487318992614746,0.986961841583252
-0.1262694299221038,0.9580838084220886,-0.4549422264099121,-0.7180101275444031,-0.0153097799047827,-0.2232954502105713,0.0,0.0,-0.7995362877845764,0.965785026550293
-0.1309223175048828,0.9413592219352722,-0.4517383575439453,-0.7435023188591003,-0.0286878086626529,-0.2675604224205017,0.0,0.0,-0.8184059858322144,0.9954586029052734
-0.1355606019496917,0.924071490764618,-0.4479736387729645,-0.7687214612960815,-0.0443500131368637,-0.3132439851760864,0.0,0.0,0.3469225168228149,0.996039628982544
-0.1402233093976974,0.9065726399421692,-0.4484302401542663,-0.7783490419387817,-0.0619885995984077,-0.3527717888355255,0.0,0.0,0.077196717262268,0.9928689002990724
-0.1448315680027008,0.8888236880302429,-0.4410147070884704,-0.7897771000862122,-0.0815873742103576,-0.3919757008552551,0.0,0.0,0.6026158332824707,0.9985322952270508
-0.1493294686079025,0.8711448907852173,-0.4281092286109924,-0.7870408892631531,-0.1030704006552696,-0.4296610951423645,0.0,0.0,0.7585197687149048,0.9862027168273926
-0.1538586616516113,0.854256272315979,-0.4291786253452301,-0.7524182796478271,-0.1266651302576065,-0.4718948900699615,0.0,0.0,0.709179162979126,0.98784339427948
-0.1584246605634689,0.8380518555641174,-0.4307830929756164,-0.7225942611694336,-0.152388647198677,-0.5144708156585693,0.0,0.0,0.4581952095031738,0.977858543395996
-0.1629290580749511,0.8219465613365173,-0.4227979183197021,-0.718852698802948,-0.1800450682640075,-0.5531291961669922,0.0,0.0,0.1883796453475952,0.9268149137496948
-0.1672271788120269,0.8058456182479858,-0.4005534052848816,-0.7194135189056396,-0.2094812095165252,-0.5887230038642883,0.0,0.0,0.4272634983062744,-0.2256264686584472
-0.171496108174324,0.7901450395584106,-0.3976256251335144,-0.7022197842597961,-0.2391012609004974,-0.592401385307312,0.0,0.0,-0.3178659677505493,0.40001380443573
-0.1758156716823578,0.7738955616950989,-0.4029467701911926,-0.7271841764450073,-0.2686743438243866,-0.5914614796638489,0.0,0.0,0.8003487586975098,0.0872472524642944
-0.1799477636814117,0.7583526372909546,-0.3844980299472809,-0.6963359713554382,-0.2981840372085571,-0.5901941061019897,0.0,0.0,0.3859176635742187,-0.9623046517372132
-0.1839381158351898,0.7428128123283386,-0.3725954890251159,-0.6963133215904236,-0.325599193572998,-0.548302948474884,0.0,0.0,0.8553857803344727,-0.7793158292770386
-0.1879674941301345,0.7275561690330505,-0.3780670762062073,-0.683893620967865,-0.351624071598053,-0.5204976797103882,0.0,0.0,0.7120335102081299,-0.9636991620063782
-0.1917132437229156,0.7129008173942566,-0.3519825935363769,-0.6570565700531006,-0.3754750490188598,-0.4770191311836242,0.0,0.0,0.2589623928070068,-0.9856936931610109
-0.1952572762966156,0.6983875632286072,-0.3339742124080658,-0.6505568623542786,-0.3972266018390655,-0.4350312650203705,0.0,0.0,0.9399847984313964,-0.7882786393165588
-0.1984195709228515,0.6846445202827454,-0.2977401614189148,-0.6161068081855774,-0.4170930981636047,-0.3973302841186523,0.0,0.0,0.8472169637680054,-0.966887891292572
-0.2014001905918121,0.6716614961624146,-0.281509131193161,-0.5820208787918091,-0.4350432157516479,-0.3590025305747986,0.0,0.0,0.686255931854248,-0.826539933681488
-0.2042461931705474,0.658633828163147,-0.2698481380939483,-0.5836644768714905,-0.4511505961418152,-0.3221474289894104,0.0,0.0,0.7800377607345581,-0.9101787805557252
-0.2069444209337234,0.6461980938911438,-0.2567797601222992,-0.5569854378700256,-0.4654999673366546,-0.2869882881641388,0.0,0.0,0.8607468605041504,-0.8555795550346375
-0.2093113362789154,0.6339250206947327,-0.2256247103214264,-0.5492241382598877,-0.4777544736862182,-0.2450903952121734,0.0,0.0,0.8961751461029053,-0.9492394328117372
-0.2113947868347168,0.622062087059021,-0.199207454919815,-0.5304354429244995,-0.4879401326179504,-0.2037129700183868,0.0,0.0,0.80652916431427,-0.93155699968338
-0.2133271247148513,0.6102590560913086,-0.1859115809202194,-0.5271939635276794,-0.496139258146286,-0.1639826595783233,0.0,0.0,0.7044157981872559,-0.9434015154838562
-0.2151505947113037,0.59885573387146,-0.1766799539327621,-0.5088719129562378,-0.5025126934051514,-0.1274688392877578,0.0,0.0,0.8266059160232544,-0.9441832900047302
-0.2165423333644867,0.5881801843643188,-0.135351225733757,-0.4758778512477875,-0.5068240165710449,-0.0862265527248382,0.0,0.0,0.8069531917572021,-0.9627811312675476
-0.2177421599626541,0.5773360133171082,-0.118079163134098,-0.4826706349849701,-0.50897216796875,-0.0429624542593956,0.0,0.0,0.891789436340332,-0.9696898460388184
-0.2184742391109466,0.567251980304718,-0.0731866508722305,-0.4481881558895111,-0.5089986324310303,-0.0005296582239679,0.0,0.0,0.8419005870819092,-0.9304861426353456
-0.2190870344638824,0.5574336647987366,-0.0628314539790153,-0.4357935488224029,-0.507244348526001,0.0350861921906471,0.0,0.0,0.8617634773254395,-0.9813583493232728
-0.2194623053073883,0.5481990575790405,-0.0407723598182201,-0.409228503704071,-0.5035802125930786,0.0732827633619308,0.0,0.0,0.5814218521118164,-0.9845978021621704
-0.2195499390363693,0.53922039270401,-0.0138836503028869,-0.3971817791461944,-0.4978179931640625,0.1152441054582595,0.0,0.0,0.5670206546783447,-0.9854153990745544
-0.2193988859653473,0.5309019684791565,0.0082230865955352,-0.3672339618206024,-0.4901015758514404,0.1543284058570861,0.0,0.0,0.1312623023986816,-0.9712583422660828
-0.2190299034118652,0.5225592851638794,0.0281849168241024,-0.3677196502685547,-0.4803835451602936,0.1943611353635788,0.0,0.0,0.1155121326446533,-0.9887547492980956
-0.2185839116573333,0.5140749216079712,0.0340064875781536,-0.373447984457016,-0.4686217606067657,0.2352366000413894,0.0,0.0,0.113698124885559,-0.9422784447669984
-0.2180055081844329,0.5053303241729736,0.0454404354095459,-0.3845290541648865,-0.4549508094787597,0.2734191417694092,0.0,0.0,0.1550358533859253,-0.6301133632659912
-0.2173338383436203,0.4963912963867187,0.0535668730735778,-0.3929306864738464,-0.4400525689125061,0.297964870929718,0.0,0.0,-0.5180389285087585,-0.7720351219177246
-0.2166547775268554,0.4869408309459686,0.052742850035429,-0.4153522253036499,-0.4235686957836151,0.3296774923801422,0.0,0.0,0.1455985307693481,-0.0925698280334472
-0.2156288623809814,0.4776731729507446,0.0871375575661659,-0.4073405861854553,-0.4068915247917175,0.3335436880588531,0.0,0.0,-0.2158889770507812,-0.2841205596923828
-0.2145364731550216,0.4678492248058319,0.0937420278787612,-0.4322579205036163,-0.3902858197689056,0.3321141600608825,0.0,0.0,-0.6563754677772522,-0.3855056762695312
-0.2133750468492508,0.4574689269065857,0.1006105542182922,-0.4571753442287445,-0.373759925365448,0.3305180072784424,0.0,0.0,-0.3824373483657837,-0.205482006072998
-0.2121423184871673,0.4465323686599731,0.1077240109443664,-0.4820928871631622,-0.3573223650455475,0.3287513256072998,0.0,0.0,-0.4821959137916565,0.1720621585845947
-0.2108361721038818,0.4350394308567047,0.1150642037391662,-0.5070104598999023,-0.3409818708896637,0.3268101811408996,0.0,0.0,-0.772005558013916,-0.1203291416168212
-0.2094546258449554,0.4229903221130371,0.1226138621568679,-0.5319280028343201,-0.3247473239898681,0.3246909379959106,0.0,0.0,-0.6189681887626648,-0.0229538083076477
-0.2079959362745285,0.4103849232196808,0.1303567141294479,-0.5568456053733826,-0.3086278140544891,0.3223901093006134,0.0,0.0,-0.4988443851470947,-0.0302440524101257
-0.2064584195613861,0.3972230851650238,0.1382775008678436,-0.5817630887031555,-0.2926326096057892,0.3199042677879333,0.0,0.0,-0.3753857612609863,-0.2568295001983642
-0.2048406600952148,0.3835049867630005,0.1463619917631149,-0.6066803336143494,-0.276771068572998,0.3172303140163421,0.0,0.0,-0.0010886788368225,-0.4177830219268799
-0.2031412571668625,0.3692304790019989,0.1545968949794769,-0.6315975785255432,-0.2610528171062469,0.3143652379512787,0.0,0.0,0.7711710929870605,0.1542236804962158
-0.2010484188795089,0.3552256226539612,0.1932966411113739,-0.6196717023849487,-0.2447580844163894,0.3258951008319855,0.0,0.0,0.6415326595306396,-0.406835675239563
-0.1986421644687652,0.3411847949028015,0.2241007089614868,-0.6213775873184204,-0.2279855906963348,0.3354502022266388,0.0,0.0,0.3447638750076294,-0.8988103270530701
-0.1960858404636383,0.3275140523910522,0.2374290227890014,-0.6048786640167236,-0.2095735520124435,0.3682411909103393,0.0,0.0,0.1762391328811645,-0.5596825480461121
-0.1933499276638031,0.3140910565853119,0.2543398737907409,-0.5939630270004272,-0.1901716589927673,0.3880379199981689,0.0,0.0,-0.0691887736320495,-0.5230744481086731
-0.190558910369873,0.3001247644424438,0.2591342628002167,-0.6182857751846313,-0.1701288372278213,0.4008563458919525,0.0,0.0,0.5480828285217285,0.0906264781951904
-0.1875351965427398,0.2860322892665863,0.2820966839790344,-0.6241347193717957,-0.1498524695634842,0.4055268764495849,0.0,0.0,0.6862831115722656,-0.4876503944396972
-0.1843986511230468,0.2721683979034424,0.2937907576560974,-0.6142938137054443,-0.1300380378961563,0.3962890803813934,0.0,0.0,0.8001575469970703,-0.7429255843162537
-0.181008905172348,0.2591492533683777,0.3175517320632934,-0.5768998861312866,-0.1087418273091316,0.4259242415428161,0.0,0.0,0.4313602447509765,-0.817707896232605
-0.177563190460205,0.2463259994983673,0.3217347860336303,,-0.0860795080661773,0.4532465040683746,0.0,0.0,0.7559454441070557,-0.8695198893547058
-0.1741686761379242,0.2342491894960403,0.315306156873703,-0.535528302192688,-0.062181033194065,0.477969080209732,0.0,0.0,0.5528826713562012,0.440232515335083
-0.1705615073442459,0.222594603896141,0.3364184498786926,-0.5171504020690918,-0.0381597876548767,0.4804252684116363,0.0,0.0,0.853168249130249,0.4406756162643432
-0.1668915748596191,0.2116523385047912,0.3432174623012543,-0.4858842194080353,-0.0146820964291691,0.4695537984371185,0.0,0.0,0.4959579706192016,-0.1901388168334961
-0.1631956994533538,0.2011757642030716,0.3464303016662597,-0.4655587077140808,0.008173169568181,0.4571056962013244,0.0,0.0,0.883228063583374,0.1071361303329467
-0.1594417542219162,0.1909968256950378,0.3526651561260223,-0.452670156955719,0.0306113343685865,0.4487635195255279,0.0,0.0,0.5955591201782227,0.5109349489212036
-0.1556943953037262,0.1811315864324569,0.3536837100982666,-0.4390157163143158,0.0514130257070064,0.4160336852073669,0.0,0.0,0.6952488422393799,0.3741596937179565
-0.1520372331142425,0.1715046763420105,0.3457034528255462,-0.4286677539348602,0.071194976568222,0.3956393301486969,0.0,0.0,0.8201730251312256,0.4162783622741699
-0.1482284516096115,0.162519484758377,0.3606800734996795,-0.4004179835319519,0.0912012681365013,0.4001259803771972,0.0,0.0,0.3960274457931518,0.3993427753448486
-0.1443046629428863,0.1534519791603088,0.3723037242889404,-0.404343694448471,0.1111223250627517,0.3984211683273315,0.0,0.0,0.9089581966400146,0.3389222621917724
-0.1402201652526855,0.1451711803674698,0.3879772424697876,-0.369680792093277,0.1314840316772461,0.4072340428829193,0.0,0.0,0.7029623985290527,0.2664004564285278
-0.1361717283725738,0.1375200897455215,0.3848602473735809,-0.3419351577758789,0.1513929367065429,0.3981784582138061,0.0,0.0,0.3087799549102783,0.029942512512207
-0.1320216208696365,0.1303426325321197,0.3949227035045624,-0.3211622238159179,0.1714717894792556,0.4015777707099914,0.0,0.0,0.5203675031661987,-0.0527637004852294
-0.1278012245893478,0.1234159544110298,0.4020567834377289,-0.3102851808071136,0.19151371717453,0.4008387625217438,0.0,0.0,0.336876630783081,-0.0748084783554077
-0.1236201301217079,0.1169044822454452,0.3985961973667145,-0.2920365035533905,0.2111583650112152,0.392893373966217,0.0,0.0,0.069852590560913,-0.1918782591819763
-0.1194153800606727,0.1105972826480865,0.4012452661991119,-0.2831870913505554,0.2306060343980789,0.3889537155628204,0.0,0.0,0.1315188407897949,0.2162694931030273
-0.1151364296674728,0.1042110547423362,0.4088801443576813,-0.2869230210781097,0.2499220520257949,0.3863205909729004,0.0,0.0,0.2684190273284912,-0.1098747253417968
-0.1109736412763595,0.0979231670498848,0.3981720805168152,-0.282650738954544,0.2684090137481689,0.3697397112846374,0.0,0.0,0.2034826278686523,-0.2838560938835144
-0.1069082245230674,0.0915830731391906,0.3893501758575439,-0.2850354313850403,0.2860612273216247,0.3530436754226684,0.0,0.0,0.2017594575881958,0.2046493291854858
-0.1028810515999794,0.0852686464786529,0.3860718607902527,-0.2839991748332977,0.3032311499118805,0.3433982133865356,0.0,0.0,0.3712589740753174,0.1966793537139892
-0.0988731384277343,0.0790396332740783,0.3845441937446594,-0.2803262770175934,0.3200837075710296,0.3370514512062073,0.0,0.0,0.3516364097595215,0.0112186670303344
-0.0947638526558876,0.0727216303348541,0.3946928381919861,-0.2844783961772918,0.3370064198970794,0.3384540975093841,0.0,0.0,0.6224913597106934,-0.0552678704261779
-0.0906940475106239,0.0668433755636215,0.3908445537090301,-0.2651222646236419,0.3539411425590515,0.3386946320533752,0.0,0.0,0.3572252988815307,0.0882948637008667
-0.0867420211434364,0.0613494962453842,0.379468023777008,-0.2481335699558258,0.3705340325832367,0.3318580090999603,0.0,0.0,0.1846500635147094,0.3064185380935669
-0.0827362090349197,0.0556343160569667,0.385174959897995,-0.2580837905406952,0.3868949115276336,0.3272182047367096,0.0,0.0,0.2193379402160644,0.1859273910522461
