x_pos,y_pos,x_vel,y_vel,angle,ang_vel,leg_1,leg_2,main_booster,lat_booster
-0.001591682434082,1.4034030437469482,-0.1607962548732757,-0.3340887129306793,0.0014546180609613,0.0286707822233438,0.0,0.0,0.4904018037170339,-0.7641476551768991
-0.0032561302650719,1.396308422088623,-0.1691285967826843,-0.3153252005577087,0.0041146124713122,0.0532057285308837,0.0,0.0,-0.6052138909867137,-0.6183300710343815
-0.005017471499741,1.3889870643615725,-0.1794182658195495,-0.3254047632217407,0.0073604341596364,0.0649226009845733,0.0,0.0,-0.9969755826946656,0.7583557733244715
-0.0067850113846361,1.381442308425903,-0.1784473359584808,-0.335324615240097,0.0090346792712807,0.0334879793226718,0.0,0.0,-0.5770305886365703,0.9434489042007524
-0.0085112573578953,1.373680591583252,-0.1716537624597549,-0.3449633717536926,0.0080748461186885,-0.0191984381526708,0.0,0.0,0.5809428194097277,-0.9396994248474428
-0.0102107049897313,1.3664765357971191,-0.1706853359937667,-0.3201866447925567,0.0088095040991902,0.0146942883729934,0.0,0.0,-0.3532034225143519,-0.6302265426063911
-0.0119993211701512,1.3590502738952637,-0.1805262267589569,-0.3300686776638031,0.0104630943387746,0.0330747291445732,0.0,0.0,-0.1075003857517182,0.6167938018293889
-0.0137591361999511,1.351405382156372,-0.1757361739873886,-0.3397708535194397,0.0102166887372732,-0.004928512033075,0.0,0.0,-0.4194763872695037,0.6916553668047297
-0.0154915805906057,1.3435473442077637,-0.1712540835142135,-0.3492290079593658,0.0082499841228127,-0.0393375977873802,0.0,0.0,-0.129876006371495,0.7086436144514385
-0.0171880722045898,1.3354734182357788,-0.165865421295166,-0.3588323891162872,0.0045006186701357,-0.0749943479895591,0.0,0.0,-0.6563982835632642,0.6834963490767003
-0.018836785107851,1.327179193496704,-0.1591329276561737,-0.3686265647411346,-0.0011794178280979,-0.1136108487844467,0.0,0.0,0.633666521058944,0.6185352854028003
-0.020368194207549,1.319446086883545,-0.1459503024816513,-0.3437111973762512,-0.0082830302417278,-0.1420854032039642,0.0,0.0,-0.6754653381718891,0.7990003718183685
-0.0218243598937988,1.311495661735535,-0.1360955834388733,-0.3534311652183532,-0.0177004802972078,-0.1883663535118103,0.0,0.0,0.8333690253634525,0.8859688092859241
-0.0231144912540912,1.3039041757583618,-0.1174851432442665,-0.3375721275806427,-0.0291043501347303,-0.2280981242656707,0.0,0.0,-0.6663685108331898,0.6242609351575412
-0.0243331901729106,1.2960971593856812,-0.1083900704979896,-0.3472868800163269,-0.0424277186393737,-0.2664918303489685,0.0,0.0,-0.937112854094882,0.7691164380249412
-0.0254637710750103,1.288058519363403,-0.0973668843507766,-0.3577938675880432,-0.0579504631459713,-0.3104835152626037,0.0,0.0,-0.8668119043060949,-0.6232379232965899
-0.0266093257814645,1.279812574386597,-0.0994507148861885,-0.3671472668647766,-0.0729124546051025,-0.2992669641971588,0.0,0.0,-0.7568733612583041,0.8713253761565165
-0.0276421550661325,1.2713322639465332,-0.0856421738862991,-0.3778530359268188,-0.0904167219996452,-0.350117415189743,0.0,0.0,-0.3343957876547889,0.6743181689986829
-0.0285791400820016,1.2626336812973022,-0.0741230398416519,-0.3879057466983795,-0.1098755747079849,-0.3892121911048889,0.0,0.0,0.6947430511609061,-0.8173404052366094
-0.0295683853328228,1.2546098232269287,-0.0804413333535194,-0.3580787777900696,-0.1282759457826614,-0.3680406808853149,0.0,0.0,0.7846501324023516,0.9829427420214034
-0.0301789287477731,1.2475411891937256,-0.0404676087200641,-0.3160678446292877,-0.1488098502159118,-0.4107157289981842,0.0,0.0,0.9367675947062856,0.7837939406878512
-0.0305874831974506,1.2410056591033936,-0.0184161067008972,-0.2928661108016968,-0.1712820529937744,-0.4494847357273102,0.0,0.0,-0.6882090161250842,0.7697177325587811
-0.0308691971004009,1.2342368364334106,-0.0035460642538964,-0.3038597404956817,-0.1960322558879852,-0.4950485825538635,0.0,0.0,-0.3371775443477938,-0.9114847516788454
-0.031155776232481,1.227264165878296,-0.0053465152159333,-0.3131626546382904,-0.2195753157138824,-0.4709036350250244,0.0,0.0,-0.878785703329152,-0.9391238757495384
-0.0314684882760047,1.220109939575195,-0.009973457083106,-0.3212761282920837,-0.2411854267120361,-0.4322407245635986,0.0,0.0,0.7582575376822518,0.9289250475566688
-0.0316348075866699,1.213853359222412,0.0070662149228155,-0.282135009765625,-0.265337198972702,-0.4830360412597656,0.0,0.0,0.522436926341195,-0.7196122687189301
-0.0316054336726665,1.2083783149719238,0.0254410561174154,-0.2475856989622116,-0.2884275615215301,-0.4618072509765625,0.0,0.0,0.1561564176130887,0.6824369014633802
-0.0313838943839073,1.2035492658615112,0.0463522598147392,-0.2196148782968521,-0.3134244978427887,-0.4999385774135589,0.0,0.0,-0.4441791046150196,-0.9007447585902162
-0.0311655048280954,1.198554515838623,0.0440776050090789,-0.2269588112831115,-0.3365822434425354,-0.4631547927856445,0.0,0.0,-0.5141493411680578,0.9987313178061918
-0.0307960510253906,1.193306803703308,0.0612697824835777,-0.239115685224533,-0.3621166944503784,-0.5106889009475708,0.0,0.0,-0.4899954973929783,0.8312283798745456
-0.0302773471921682,1.1878211498260498,0.0779620036482811,-0.2506367564201355,-0.3897975087165832,-0.5536169409751892,0.0,0.0,-0.0776286145333751,-0.9685885597940438
-0.0297529213130474,1.182168960571289,0.0765241831541061,-0.2580241560935974,-0.4156200289726257,-0.5164505839347839,0.0,0.0,-0.8475605559065009,-0.9787806640150865
-0.0292167663574218,1.1763662099838257,0.0756524056196212,-0.2645730674266815,-0.4395098686218261,-0.4777967035770416,0.0,0.0,-0.5031627138746697,0.7364178620479102
-0.028544520959258,1.170312762260437,0.0906182825565338,-0.2765930294990539,-0.4651645421981811,-0.5130934119224548,0.0,0.0,0.5470543040406486,0.7637916827363884
-0.0274456981569528,1.1647859811782837,0.1347128599882125,-0.2542020678520202,-0.4927667677402496,-0.5520443320274353,0.0,0.0,-0.1484205176382493,0.6542900423747208
-0.0262022018432617,1.159016728401184,0.150387167930603,-0.2660315930843353,-0.5221518278121948,-0.587701678276062,0.0,0.0,0.8303047917545048,0.6638692784741247
-0.0245913509279489,1.1536766290664673,0.188288077712059,-0.2481104880571365,-0.5533852577209473,-0.6246691942214966,0.0,0.0,-0.3038954031516518,0.8951594929417592
-0.0228131301701068,1.1480770111083984,0.2065193653106689,-0.2610892057418823,-0.5869928598403931,-0.672151505947113,0.0,0.0,-0.9930365671210066,0.86372273565009
-0.0208744052797555,1.1422276496887207,0.2236324101686477,-0.2736316323280334,-0.622664749622345,-0.7134389281272888,0.0,0.0,-0.4086244636398994,0.9445721660094064
-0.018765639513731,1.136108160018921,0.2418699711561203,-0.287355363368988,-0.660812258720398,-0.7629518508911133,0.0,0.0,-0.0107754025768989,0.9214915715521204
-0.0164975170046091,1.129738450050354,0.2584492564201355,-0.3001211285591125,-0.7009265422821045,-0.8022867441177368,0.0,0.0,-0.8293434381484985,-0.999141812324524
-0.0141654014587402,1.1232231855392456,0.2627107501029968,-0.3067556619644165,-0.7396012544631958,-0.7734957933425903,0.0,0.0,-0.7654321193695068,-0.9990323185920716
-0.0117733953520655,1.116560697555542,0.2665651440620422,-0.3133176863193512,-0.7767270803451538,-0.742516279220581,0.0,0.0,-0.6732708811759949,-0.9980742931365968
-0.0093144420534372,1.109757900238037,0.2711643874645233,-0.3194397389888763,-0.8122678399085999,-0.7108151912689209,0.0,0.0,-0.5710229873657227,-0.9991028308868408
-0.006803608033806,1.1028285026550293,0.2739951908588409,-0.3245877921581268,-0.8456835150718689,-0.6683136820793152,0.0,0.0,-0.6425337195396423,-0.9996318221092224
-0.0042304992675781,1.0957623720169067,0.2781893908977508,-0.3302133977413177,-0.8772643208503723,-0.6316163539886475,0.0,0.0,-0.6291475892066956,-0.9718302488327026
-0.0015880584251135,1.0885590314865112,0.2832406461238861,-0.3358080983161926,-0.9070853590965272,-0.5964208841323853,0.0,0.0,-0.5757686495780945,-0.9944168329238892
0.0011193274985998,1.0812561511993408,0.2875180840492248,-0.3392339646816253,-0.9343783855438232,-0.5458614826202393,0.0,0.0,-0.6756387948989868,-0.9997438192367554
0.0038911818992346,1.0738564729690552,0.2918011546134949,-0.3423649370670318,-0.9590201377868652,-0.4928354620933532,0.0,0.0,-0.7561013698577881,-0.9969106316566468
0.0067311287857592,1.0663363933563232,0.2968451678752899,-0.346700519323349,-0.9814378619194032,-0.4483562111854553,0.0,0.0,-0.7052533030509949,-0.9984927773475648
0.0096534732729196,1.0586724281311035,0.3037870526313782,-0.3523740768432617,-1.0022351741790771,-0.4159466326236725,0.0,0.0,-0.772178053855896,-0.9911015033721924
0.0126500129699707,1.0508990287780762,0.3095534741878509,-0.3559958636760711,-1.0206053256988523,-0.3674025237560272,0.0,0.0,-0.8752298355102539,-0.9988325238227844
0.0157258994877338,1.0429840087890625,0.3162543177604675,-0.361350953578949,-1.0371748208999634,-0.3313905298709869,0.0,0.0,-0.8879388570785522,-0.9980387091636658
0.0188836101442575,1.0349524021148682,0.3230697512626648,-0.3653117716312408,-1.0514765977859497,-0.2860344052314758,0.0,0.0,-0.9198532700538636,-0.9994882345199584
0.0221258159726858,1.0267739295959473,0.3304957449436188,-0.3709020912647247,-1.064077377319336,-0.2520156502723694,0.0,0.0,-0.930018186569214,-0.9633601307868958
0.0254394523799419,1.0184842348098757,0.3362446427345276,-0.3743492066860199,-1.0740821361541748,-0.2000957429409027,0.0,0.0,-0.9302642345428468,-0.9996628165245056
0.0288431160151958,1.0100626945495603,0.3442097306251526,-0.3790623843669891,-1.0820972919464111,-0.1603024154901504,0.0,0.0,-0.9502365589141846,-0.9904224276542664
0.0323371887207031,1.0014986991882324,0.3523364961147308,-0.3843332231044769,-1.0882986783981323,-0.1240276843309402,0.0,0.0,-0.9646703600883484,-0.999772012233734
0.035921860486269,0.9928058981895448,0.360380083322525,-0.3887956440448761,-1.0923842191696167,-0.081710584461689,0.0,0.0,-0.9667282104492188,-0.9995983242988586
0.039587877690792,0.984008491039276,0.3672339618206024,-0.3917998373508453,-1.0937323570251465,-0.0269621796905994,0.0,0.0,-0.979023814201355,-0.9997705817222596
0.0433325767517089,0.9750775694847108,0.3740577101707458,-0.3964034616947174,-1.0928553342819214,0.0175399184226989,0.0,0.0,-0.9845955967903136,-0.9989475607872008
0.0471556670963764,0.966044008731842,0.3805570006370544,-0.3992432057857513,-1.089111089706421,0.0748864859342575,0.0,0.0,-0.9825862646102904,-0.9884467720985411
0.0510658249258995,0.9568662643432616,0.3883275389671325,-0.4044923186302185,-1.0834050178527832,0.1141224727034568,0.0,0.0,-0.9833598136901855,-0.9969366788864136
0.0550594329833984,0.94756281375885,0.3954934477806091,-0.4086596369743347,-1.075301170349121,0.1620759814977646,0.0,0.0,-0.977889358997345,-0.9948176741600036
0.0591303817927837,0.938131868839264,0.4019602239131927,-0.4128986895084381,-1.064741134643555,0.2112017422914505,0.0,0.0,-0.9739682078361512,-0.9844096899032592
0.0632756203413009,0.9285969138145448,0.407806396484375,-0.4158110916614532,-1.0512104034423828,0.2706143260002136,0.0,0.0,-0.9750112295150756,-0.9707126021385192
0.0675105080008506,0.9189379811286926,0.4153691828250885,-0.4199871122837066,-1.0352813005447388,0.3185825943946838,0.0,0.0,-0.96312415599823,-0.9181159138679504
0.0718269348144531,0.909129798412323,0.4222408235073089,-0.4255355596542358,-1.0173208713531494,0.3592089712619781,0.0,0.0,-0.943333387374878,-0.9470394849777222
0.0762331038713455,0.899194061756134,0.4296421408653259,-0.4299974739551544,-0.9970221519470216,0.4059748649597168,0.0,0.0,-0.8776363730430603,-0.9058911204338074
0.0807139426469802,0.8891361355781555,0.4352571070194244,-0.4340835511684418,-0.9740676879882812,0.4590899050235748,0.0,0.0,-0.8725647330284119,-0.8802647590637207
0.0852744132280349,0.8789566159248352,0.4412595331668854,-0.4382574260234833,-0.9485217332839966,0.5109187364578247,0.0,0.0,-0.7529411315917969,-0.8609095811843872
0.0899211913347244,0.868635892868042,0.4480600357055664,-0.4436548054218292,-0.9208510518074036,0.553413987159729,0.0,0.0,-0.6520633101463318,-0.8984174728393555
0.0946455970406532,0.8582033514976501,0.4534482061862945,-0.4474707841873169,-0.8904065489768982,0.6088889241218567,0.0,0.0,-0.6034854054450989,-0.8936393857002258
0.0994555503129959,0.8476251363754272,0.4599323272705078,-0.4532861709594726,-0.8579196333885193,0.6497381925582886,0.0,0.0,-0.6069878935813904,-0.8697357177734375
0.1043400764465332,0.836908757686615,0.4649781584739685,-0.4587451517581939,-0.8231009840965271,0.696373462677002,0.0,0.0,-0.5561733245849609,-0.8516336679458618
0.1093054786324501,0.8260378241539001,0.4707601070404053,-0.4652268588542938,-0.7863342761993408,0.7353343963623047,0.0,0.0,-0.5348736047744751,-0.7718333005905151
0.1143481284379959,0.8150176405906677,0.4759858250617981,-0.4715502560138702,-0.7474971413612366,0.7767426371574402,0.0,0.0,-0.5596912503242493,-0.7315760850906372
0.1194773688912391,0.8038522005081177,0.4821337163448334,-0.4778981208801269,-0.7067321538925171,0.8153003454208374,0.0,0.0,-0.5146152377128601,-0.9413722157478333
0.1246887221932411,0.7925493121147156,0.4875865876674652,-0.4839867055416107,-0.6638804078102112,0.8570354580879211,0.0,0.0,-0.3789066076278686,-0.9476082921028136
0.1299617737531662,0.7811309695243835,0.4903486371040344,-0.4889966249465942,-0.6182817220687866,0.9119741320610046,0.0,0.0,-0.2744642496109009,-0.8997316360473633
0.1352887153625488,0.7695797085762024,0.4922656416893005,-0.4950926601886749,-0.5700585246086121,0.9644650220870972,0.0,0.0,0.0341964960098266,-0.6870752573013306
0.1409905403852462,0.7584819197654724,0.5269388556480408,-0.4756476283073425,-0.5200589895248413,0.9999914169311525,0.0,0.0,0.5638387203216553,-0.8296796679496765
0.1469402313232422,0.748028039932251,0.5487553477287292,-0.4479170143604278,-0.468170166015625,1.0377774238586426,0.0,0.0,0.8483026027679443,-0.5330504775047302
0.1532627046108245,0.7384732365608215,0.5836663842201233,-0.4092414975166321,-0.4150610268115997,1.0621840953826904,0.0,0.0,0.9324522018432616,-0.1190607547760009
0.1600259840488433,0.7298611402511597,0.6263876557350159,-0.369026631116867,-0.3617323935031891,1.0665744543075562,0.0,0.0,0.96053147315979,-0.6707140803337097
0.1672107726335525,0.7220008969306946,0.6656351685523987,-0.3370043933391571,-0.3064597249031067,1.105454683303833,0.0,0.0,0.968813419342041,-0.6997801065444946
0.1746149063110351,0.7145463824272156,0.6848689317703247,-0.3206391334533691,-0.2494059205055236,1.1410778760910034,0.0,0.0,0.9728102684020996,-0.7804210186004639
0.1823129653930664,0.7075846195220947,0.7113344073295593,-0.3005756735801697,-0.1902206838130951,1.1837069988250732,0.0,0.0,0.9860882759094238,-0.2443931102752685
0.1904319822788238,0.7014083862304688,0.7516310811042786,-0.2678803503513336,-0.1299264281988144,1.2058875560760498,0.0,0.0,0.990584135055542,0.4610488414764404
0.1988939344882965,0.6957332491874695,0.784372866153717,-0.2479861676692962,-0.0685625001788139,1.2272812128067017,0.0,0.0,0.987946391105652,0.362622857093811
0.2075235396623611,0.6912403106689453,0.8005765676498413,-0.1979837566614151,-0.0069346381351351,1.2325599193572998,0.0,0.0,0.960513949394226,-0.021829605102539
0.2163055390119552,0.687926709651947,0.8153035044670105,-0.1481479257345199,0.0551610365509986,1.241915941238403,0.0,0.0,0.9165421724319458,-0.1599977612495422
0.2252953499555587,0.685614824295044,0.8353277444839478,-0.1062942594289779,0.1182250082492828,1.261282205581665,0.0,0.0,0.4886422157287597,-0.4977188110351562
0.2344438582658767,0.683589518070221,0.8509343266487122,-0.0963145047426223,0.1820117384195327,1.2757370471954346,0.0,0.0,0.2484853267669677,-0.2508625388145447
0.243583396077156,0.6819538474082947,0.8506520390510559,-0.0817205160856247,0.2459204345941543,1.2781774997711182,0.0,0.0,0.2421228885650634,0.690784215927124
0.252782255411148,0.6811473369598389,0.8585314750671387,-0.0473456196486949,0.308833360671997,1.2582616806030271,0.0,0.0,-0.0380639433860778,0.2393661737442016
0.2620743811130523,0.6801711916923523,0.8687693476676941,-0.057511631399393,0.3720592260360718,1.2645199298858645,0.0,0.0,-0.4303853511810303,0.9465041160583496
0.2715093493461609,0.6790637969970703,0.8856610059738159,-0.0655088722705841,0.4340449869632721,1.239717721939087,0.0,0.0,0.1552698612213134,0.6876366138458252
0.2809366285800934,0.6785270571708679,0.8874437212944031,-0.0421796590089798,0.4949898719787597,1.218900442123413,0.0,0.0,0.4438079595565796,0.972414255142212
0.2901546359062195,0.6787007451057434,0.8698263168334961,-0.0121906315907835,0.5541667342185974,1.183540105819702,0.0,0.0,0.951080560684204,-0.0210052728652954
0.2989063262939453,0.6797457337379456,0.8251570463180542,0.0245650745928287,0.6132239103317261,1.181145429611206,0.0,0.0,0.5350131988525391,0.9981443881988524
0.3075145781040191,0.681217610836029,0.8142929077148438,0.0423791743814945,0.6704452633857727,1.1444292068481443,0.0,0.0,0.9539451599121094,0.9617193937301636
0.3156971037387848,0.6832679510116577,0.7752940654754639,0.0672420114278793,0.7256686091423035,1.1044694185256958,0.0,0.0,0.931227207183838,0.9633455276489258
0.3234604001045227,0.6856951117515564,0.7369180917739868,0.0834160149097442,0.7788247466087341,1.06312358379364,0.0,0.0,0.7710492610931396,0.972318172454834
0.3308975100517273,0.6889688372612,0.7074775099754333,0.1205228492617607,0.8302751183509827,1.029008388519287,0.0,0.0,0.920201301574707,0.4540024995803833
0.3381380140781402,0.6925613880157471,0.6893396377563477,0.133141428232193,0.8824104070663452,1.0427087545394895,0.0,0.0,0.9919631481170654,0.943709135055542
0.3449013829231262,0.6971460580825806,0.644682765007019,0.1768915206193924,0.933003306388855,1.0118592977523804,0.0,0.0,-0.8476271033287048,0.2146050930023193
0.3517313003540039,0.7015335559844971,0.6532129049301147,0.1668961644172668,0.9839594960212708,1.0191266536712646,0.0,0.0,0.9997031688690186,0.1427302360534668
0.3578585684299469,0.706798255443573,0.5845280885696411,0.2042265832424163,1.036081075668335,1.042432188987732,0.0,0.0,0.6408611536026001,0.814329981803894
0.3636244833469391,0.7124914526939392,0.5514553189277649,0.2231952995061874,1.086740493774414,1.0131890773773191,0.0,0.0,-0.9813679456710817,0.4347759485244751
0.36944779753685,0.7179834246635437,0.5593194365501404,0.213223859667778,1.1377739906311035,1.0206730365753174,0.0,0.0,0.7850568294525146,0.8800415992736816
0.3746066093444824,0.7239999175071716,0.4959199428558349,0.23684623837471,1.1871309280395508,0.9871422648429872,0.0,0.0,-0.5078935623168945,0.815882682800293
0.3798470497131347,0.7299069166183472,0.5069831013679504,0.2325419038534164,1.2346160411834717,0.9497049450874328,0.0,0.0,0.6099793910980225,0.8726208209991455
0.3845466673374176,0.7358106374740601,0.4556209444999695,0.2331043183803558,1.2802261114120483,0.9122010469436646,0.0,0.0,0.9800093173980712,0.9114997386932372
0.3886776864528656,0.741625964641571,0.401292473077774,0.2301481068134308,1.3237450122833252,0.8703773617744446,0.0,0.0,0.9884262084960938,0.9510972499847412
0.3922093510627746,0.7475419640541077,0.3436425328254699,0.2356216013431549,1.365259885787964,0.8302983045578003,0.0,0.0,-0.607807457447052,0.9172744750976562
0.3958027958869934,0.7533506751060486,0.3518538475036621,0.2319463193416595,1.4047856330871582,0.7905156016349792,0.0,0.0,0.9991968870162964,0.9267795085906982
0.3990564346313476,0.759411633014679,0.3196731209754944,0.2441003322601318,1.4426239728927612,0.7567681074142456,0.0,0.0,0.1196730136871337,0.8742837905883789
0.401907742023468,0.7655589580535889,0.2810580730438232,0.2490624338388443,1.4786200523376465,0.7199210524559021,0.0,0.0,0.7103598117828369,0.8559403419494629
0.4039701521396637,0.7717460989952087,0.2035739421844482,0.2518991231918335,1.5128977298736572,0.6855533719062805,0.0,0.0,-0.5097479820251465,0.8108924627304077
0.4060796797275543,0.7778176069259644,0.2095191478729248,0.2479646652936935,1.5453275442123413,0.6485955119132996,0.0,0.0,0.9684722423553468,0.5673532485961914
