x_pos,y_pos,x_vel,y_vel,angle,ang_vel,leg_1,leg_2,main_booster,lat_booster
-0.001543617225252,1.402944564819336,-0.1556965261697769,-0.3544731438159942,0.0011856994824483,0.0233467388898134,0.0,0.0,-0.5491487286035832,0.3783453565008845
-0.0031080245971679,1.3943119049072266,-0.1569960862398147,-0.3836677968502044,0.0017337810713797,0.0109631512314081,0.0,0.0,-0.581889776671958,0.4371945709381463
-0.0046933172270655,1.3849989175796509,-0.1584589183330536,-0.4139134287834167,0.0016677925596013,-0.0013200419489294,0.0,0.0,0.7352982783757807,-0.6236116121092017
-0.0064844130538403,1.3757903575897217,-0.1793001890182495,-0.4092656075954437,0.0018580155447125,0.0038049868308007,0.0,0.0,0.3548751715829739,-0.375139568952175
-0.008191967383027,1.3667042255401611,-0.170831561088562,-0.4038300812244415,0.0019275392405688,0.0013905139639973,0.0,0.0,-0.7424564962676543,0.7061664976016363
-0.0098529811948537,1.356937289237976,-0.1637910902500152,-0.4340901970863342,-0.0003512911207508,-0.0455808341503143,0.0,0.0,-0.0433514432077983,0.3554664097699543
-0.0115355495363473,1.3464902639389038,-0.1653106808662414,-0.4643098413944244,-0.0032670148648321,-0.0583200231194496,0.0,0.0,0.9351045521207724,-0.2489462883359772
-0.0130623821169137,1.3364994525909424,-0.1499311178922653,-0.4440509974956512,-0.0059917876496911,-0.0545003041625022,0.0,0.0,-0.3384801551707779,0.3448507081326388
-0.0146112442016601,1.3258283138275146,-0.1514701843261718,-0.474283367395401,-0.0093642426654696,-0.0674557834863662,0.0,0.0,0.2544784992731081,-0.2203964267860684
-0.0161773674190044,1.3153051137924194,-0.1525535434484481,-0.4677337408065796,-0.0133902691304683,-0.0805278792977333,0.0,0.0,-0.7613788698565307,0.9529862993988624
-0.0176799781620502,1.3041012287139893,-0.1433344185352325,-0.4980309307575226,-0.020229073241353,-0.1367887556552887,0.0,0.0,-0.8681034500020248,0.4834370518313992
-0.0192045215517282,1.2922183275222778,-0.1448756754398346,-0.5282547473907471,-0.0277244430035352,-0.1499209105968475,0.0,0.0,0.7762038821763253,-0.5486560832686304
-0.0206240657716989,1.2807821035385132,-0.1352432668209076,-0.5084115862846375,-0.0343653857707977,-0.1328310370445251,0.0,0.0,-0.525504214291699,-0.1929822897681683
-0.0220657344907522,1.2686668634414673,-0.1367868483066558,-0.5386483669281006,-0.0416704826056957,-0.1461151093244552,0.0,0.0,0.462547593778408,0.8370550758063744
-0.0232926364988088,1.2569622993469238,-0.113160990178585,-0.5204922556877136,-0.051100768148899,-0.1886231005191803,0.0,0.0,-0.3388191896227808,0.186404252983648
-0.0245414730161428,1.2445793151855469,-0.1146892309188842,-0.5507335662841797,-0.0611982233822345,-0.2019672840833664,0.0,0.0,0.3931912054901363,0.4309919894820654
-0.0256520267575979,1.2325875759124756,-0.1007466092705726,-0.5334134697914124,-0.0714197009801864,-0.2044479846954345,0.0,0.0,-0.268165693917699,-0.3742191689727269
-0.0267845150083303,1.2199177742004397,-0.102259337902069,-0.5636573433876038,-0.0823129415512085,-0.2178844958543777,0.0,0.0,-0.4742250897704714,0.6504482347745681
-0.0278788562864065,1.2065696716308594,-0.0962668433785438,-0.5940292477607727,-0.0953793451189994,-0.2613511681556701,0.0,0.0,-0.7541175626003578,-0.5594840654454396
-0.0290444381535053,1.1925511360168457,-0.1040109768509864,-0.6238853335380554,-0.1078564599156379,-0.2495647221803665,0.0,0.0,-0.7415159842067336,0.7846011958169407
-0.030156422406435,1.1778500080108645,-0.0960704833269119,-0.654552161693573,-0.1229020208120346,-0.300938606262207,0.0,0.0,0.0161085321454199,0.305798879528862
-0.0312488563358783,1.1628764867782593,-0.0935031101107597,-0.6668540239334106,-0.1385892331600189,-0.3137728869915008,0.0,0.0,0.8661787743432734,-0.1149005716068644
-0.0321318618953228,1.1481106281280518,-0.0726007968187332,-0.6577907800674438,-0.1542722731828689,-0.3136889636516571,0.0,0.0,0.4456485732262409,-0.3604697414402207
-0.0329331383109092,1.133060097694397,-0.0640642642974853,-0.6706551909446716,-0.1703503280878067,-0.3215900659561157,0.0,0.0,0.0500598205773041,0.2643970790431448
-0.0337741859257221,1.11796236038208,-0.0670059993863105,-0.6730645298957825,-0.1875258833169937,-0.3435419201850891,0.0,0.0,0.3276996249370927,-0.5359967214922312
-0.0346990600228309,1.103053092956543,-0.0755266398191452,-0.6648724675178528,-0.2045863270759582,-0.3412088453769684,0.0,0.0,0.1311084512129483,-0.9105304220091056
-0.0356095321476459,1.088226318359375,-0.0753000974655151,-0.6612328886985779,-0.2204949408769607,-0.3181724548339844,0.0,0.0,0.0659519653435094,0.1784490359478291
-0.0365057960152626,1.0735318660736084,-0.0728720277547836,-0.6556766033172607,-0.2374775111675262,-0.3396515250205993,0.0,0.0,0.5218845838530917,0.0411262192463831
-0.0373706817626953,1.05924654006958,-0.0685745254158973,-0.6379044055938721,-0.2557006776332855,-0.3644635081291199,0.0,0.0,0.3463228184434452,0.8872867768576709
-0.0381058678030967,1.0448424816131592,-0.0532584898173809,-0.643842875957489,-0.276422917842865,-0.4144449830055237,0.0,0.0,0.0675483289056548,-0.4862416765857738
-0.038698673248291,1.0305513143539429,-0.0385252423584461,-0.6392377614974976,-0.2977747321128845,-0.4270367622375488,0.0,0.0,-0.8247932195663452,-0.9700530171394348
-0.0393932349979877,1.0156207084655762,-0.050319604575634,-0.667624294757843,-0.3175905048847198,-0.3963155150413513,0.0,0.0,-0.823756992816925,-0.968191623687744
-0.0401860252022743,1.0000665187835691,-0.0617725253105163,-0.6952331066131592,-0.3358373343944549,-0.364936351776123,0.0,0.0,-0.7465435862541199,-0.944994866847992
-0.0410761833190918,0.9838721752166748,-0.0729807764291763,-0.7235785126686096,-0.3526429831981659,-0.3361124396324157,0.0,0.0,-0.8735338449478149,-0.9431268572807312
-0.0420510284602642,0.9670432209968568,-0.0826765298843383,-0.7516599297523499,-0.3682511150836944,-0.3121632635593414,0.0,0.0,-0.7773231863975525,-0.9847649931907654
-0.0431110374629497,0.9495878219604492,-0.0925033241510391,-0.7793366312980652,-0.382573515176773,-0.286448061466217,0.0,0.0,-0.9042948484420776,-0.638643741607666
-0.044237233698368,0.931484580039978,-0.0998414605855941,-0.8080814480781555,-0.3962133526802063,-0.2727965712547302,0.0,0.0,0.1341841220855713,-0.9884122014045716
-0.0452192313969135,0.913463830947876,-0.0867463424801826,-0.8041616678237915,-0.4084961712360382,-0.2456564605236053,0.0,0.0,-0.7801692485809326,-0.9656057953834534
-0.0462884902954101,0.8948262929916382,-0.0968853086233139,-0.8312712907791138,-0.4193212687969208,-0.2165017426013946,0.0,0.0,-0.285569429397583,-0.9636579155921936
-0.047439195215702,0.8755588531494141,-0.1061893850564956,-0.8589968085289001,-0.428925484418869,-0.1920845806598663,0.0,0.0,0.1137430667877197,-0.969713032245636
-0.0485314354300498,0.8564403653144836,-0.1016516238451004,-0.8520470261573792,-0.4371642768383026,-0.1647762656211853,0.0,0.0,0.155027151107788,-0.95753413438797
-0.0494604110717773,0.837124764919281,-0.0865404605865478,-0.860465943813324,-0.4441078901290893,-0.1388716995716095,0.0,0.0,0.3970363140106201,-0.9247090220451356
-0.0502740852534771,0.8174700736999512,-0.076205275952816,-0.8751963973045349,-0.4497543275356293,-0.1129288226366043,0.0,0.0,-0.2018043398857116,-0.9831701517105104
-0.0511607155203819,0.7971795797348022,-0.0844501107931137,-0.9031594395637512,-0.454374611377716,-0.0924059897661209,0.0,0.0,0.0014029741287231,-0.9916113615036012
-0.0520832054316997,0.7765142321586609,-0.0893174260854721,-0.9194185137748718,-0.4575980603694916,-0.0644686371088028,0.0,0.0,0.0419147014617919,-0.9765503406524658
-0.0529666915535926,0.7554752826690674,-0.0866181626915931,-0.9356316924095154,-0.4594990909099579,-0.0380209907889366,0.0,0.0,0.1327720880508422,-0.994211971759796
-0.0537544265389442,0.7341862916946411,-0.0782857909798622,-0.9463394284248352,-0.4600280225276947,-0.010578523389995,0.0,0.0,0.2592878341674804,-0.987085461616516
-0.0544283874332904,0.713202953338623,-0.0681739002466201,-0.932336449623108,-0.4591688811779022,0.0171829257160425,0.0,0.0,0.2153681516647339,-0.9795268177986144
-0.0550263412296772,0.6924578547477722,-0.0618373826146125,-0.9213293194770812,-0.456928551197052,0.0448066256940364,0.0,0.0,0.1080899238586425,-0.991114854812622
-0.0555714592337608,0.6715563535690308,-0.0578174367547035,-0.9278823733329772,-0.4532915949821472,0.0727389007806778,0.0,0.0,0.5839135646820068,-0.9919981360435486
-0.0558177940547466,0.6506654620170593,-0.0293569471687078,-0.9269616603851318,-0.4481171369552612,0.1034889072179794,0.0,0.0,0.773932695388794,-0.9703279137611388
-0.0558612830936908,0.6302683353424072,-0.0102289821952581,-0.9046682119369508,-0.4416759014129638,0.1288249492645263,0.0,0.0,0.7193593978881836,-0.9307969808578492
-0.0556699745357036,0.6097837090492249,0.0119045982137322,-0.9081730246543884,-0.4338009655475616,0.1574988365173339,0.0,0.0,0.8827347755432129,-0.9103925824165344
-0.0551652908325195,0.5899109244346619,0.0420841202139854,-0.8806701302528381,-0.4246838986873626,0.1823413521051406,0.0,0.0,0.9247695207595824,-0.9316803216934204
-0.054328728467226,0.5700628161430359,0.0737485066056251,-0.8791889548301697,-0.4139806032180786,0.214065283536911,0.0,0.0,0.7426860332489014,-0.98101145029068
-0.053476333618164,0.5503331422805786,0.0741559565067291,-0.8736775517463684,-0.4020585119724273,0.238441914319992,0.0,0.0,0.8016759157180786,-0.9336309432983398
-0.0522523894906044,0.5311124920845032,0.1098867058753967,-0.8507652878761292,-0.3886841535568237,0.2674873173236847,0.0,0.0,0.7309925556182861,-0.842203676700592
-0.0506812110543251,0.5121484398841858,0.1432844996452331,-0.8391373753547668,-0.3739568293094635,0.2945466637611389,0.0,0.0,0.7792021036148071,-0.808684229850769
-0.0487683303654193,0.4937427639961242,0.1762507855892181,-0.8141791820526123,-0.3580454885959625,0.3182268440723419,0.0,0.0,0.7545157670974731,-0.5241451263427734
-0.0466880798339843,0.4759067893028259,0.1927112638950348,-0.7889729142189026,-0.3419435024261474,0.3220388889312744,0.0,0.0,0.710730791091919,-0.6172037720680237
-0.044478990137577,0.4579296112060547,0.2047854959964752,-0.7952491641044617,-0.3250949084758758,0.3369719684123993,0.0,0.0,0.7384927272796631,-0.8325618505477905
-0.0422118194401264,0.4404193758964538,0.2096765786409378,-0.7745030522346497,-0.3073905408382416,0.3540871739387512,0.0,0.0,0.4429326057434082,-0.6115780472755432
-0.0397477149963378,0.4228487014770508,0.2284424602985382,-0.7772296667098999,-0.2888381779193878,0.3710475564002991,0.0,0.0,0.4340709447860718,-0.4355250000953674
-0.0371179580688476,0.4053609073162079,0.2454343289136886,-0.7738635540008545,-0.2708253264427185,0.3602578639984131,0.0,0.0,0.5147929191589355,-0.8819349408149719
-0.0344555862247943,0.387749433517456,0.2474796026945114,-0.7793753147125244,-0.2516498565673828,0.3835096657276153,0.0,0.0,0.7648863792419434,-0.6715347170829773
-0.0318306908011436,0.3704557120800018,0.2432448416948318,-0.7654308676719666,-0.2320713698863983,0.3915696740150451,0.0,0.0,0.5591437816619873,-0.9022411704063416
-0.02906971052289,0.3536949753761291,0.2555143237113952,-0.7418118715286255,-0.2112514376640319,0.4163985252380371,0.0,0.0,0.9379706382751464,-0.8357078433036804
-0.0262040141969919,0.3367431163787842,0.2646245062351227,-0.7504327297210693,-0.1891493946313858,0.4420414566993713,0.0,0.0,0.8336255550384521,-0.3079295754432678
-0.0231346134096384,0.3205063343048095,0.2853683531284332,-0.7190244793891907,-0.167508378624916,0.4328206479549408,0.0,0.0,0.8809843063354492,-0.7447043061256409
-0.0201519969850778,0.3044348955154419,0.27596315741539,-0.7119238376617432,-0.1452311128377914,0.4455457627773285,0.0,0.0,0.9750659465789796,-0.7753006815910339
-0.0172340385615825,0.2889351546764374,0.268748015165329,-0.6867884397506714,-0.1222549974918365,0.4595221579074859,0.0,0.0,0.959324836730957,-0.3050689697265625
-0.0141929630190134,0.2738554775714874,0.2813947200775146,-0.6685045957565308,-0.0996818840503692,0.4514620900154114,0.0,0.0,0.926257848739624,-0.8382059335708618
-0.0112855909392237,0.259616881608963,0.2671743035316467,-0.6314198970794678,-0.0763322860002517,0.4669919610023498,0.0,0.0,0.9367718696594238,-0.782291054725647
-0.0082976343110203,0.245715394616127,0.2739577293395996,-0.6167612075805664,-0.0517656505107879,0.4913331866264343,0.0,0.0,0.9928109645843506,-0.5814590454101562
-0.0053771017119288,0.2318515181541443,0.2666747868061065,-0.6154856085777283,-0.0267029590904712,0.5012542009353638,0.0,0.0,0.974597692489624,0.4282150268554687
-0.0023674964904785,0.2178955823183059,0.2757231891155243,-0.6200066208839417,-0.0017878777580335,0.4983020424842834,0.0,0.0,0.9892263412475586,0.3549401760101318
0.0006025314214639,0.2038808017969131,0.2724512219429016,-0.6230297684669495,0.0224420800805091,0.4845994412899017,0.0,0.0,0.9925146102905272,0.6438565254211426
0.0035889626014977,0.1906348317861557,0.2759324908256531,-0.5892022848129272,0.0448683090507984,0.4485250115394592,0.0,0.0,0.96937894821167,-0.2023502588272094
0.0066249845549464,0.1781789362430572,0.2809596955776214,-0.5544289350509644,0.0672584399580955,0.4478031098842621,0.0,0.0,0.9970252513885498,-0.0542897582054138
0.0094574932008981,0.1665138304233551,0.2617316246032715,-0.519553542137146,0.0885610803961753,0.4260528683662414,0.0,0.0,0.9555206298828124,0.6632390022277832
0.0121426582336425,0.1547377854585647,0.2492290288209915,-0.5246336460113525,0.107678011059761,0.3823390603065491,0.0,0.0,0.991281270980835,0.3529050350189209
0.0147721292451024,0.1437146216630935,0.2439140081405639,-0.4913988709449768,0.126597374677658,0.3783871531486511,0.0,0.0,0.946103811264038,-0.047855794429779
0.0171962734311819,0.1330014616250991,0.2243851721286773,-0.4777703881263733,0.1445624679327011,0.3593017160892486,0.0,0.0,0.9737436771392822,0.5629575252532959
0.019477654248476,0.122810274362564,0.2118625938892364,-0.4545994699001312,0.1608192324638366,0.3251349329948425,0.0,0.0,0.9747462272644044,0.1309014558792114
0.021610165014863,0.1131759285926818,0.1974413245916366,-0.429980605840683,0.1766510754823684,0.3166369497776031,0.0,0.0,0.9599802494049072,-0.1205504536628723
0.0237224586308002,0.1039105728268623,0.1953180730342865,-0.4137639105319977,0.1926256269216537,0.3194912075996399,0.0,0.0,0.9433863162994384,0.3128936290740967
0.0257843974977731,0.0945685505867004,0.1905075907707214,-0.4173148274421692,0.2084173560142517,0.3158343434333801,0.0,0.0,0.9747316837310792,0.2354998588562011
0.0278545375913381,0.0852898210287094,0.1911671757698059,-0.4147031605243683,0.2244348973035812,0.3203504979610443,0.0,0.0,0.918932557106018,0.1251875162124633
0.0299430843442678,0.076360784471035,0.1925498694181442,-0.3994146287441253,0.2409813106060028,0.3309279382228851,0.0,0.0,0.9389386177062988,0.2275601625442505
0.0320795997977256,0.0674873888492584,0.1968948096036911,-0.3972064256668091,0.2580490708351135,0.34135502576828,0.0,0.0,0.8932576179504395,0.7835173606872559
0.0340478904545307,0.0592118836939334,0.1819169819355011,-0.3705006837844848,0.273303210735321,0.3050827383995056,0.0,0.0,0.886368989944458,0.4173879623413086
0.0358162894845008,0.0515238866209983,0.1619914919137954,-0.344533234834671,0.2885397970676422,0.3047319054603576,0.0,0.0,0.942638635635376,0.5240404605865479
0.0375487320125103,0.0443718284368515,0.1592254638671875,-0.320715844631195,0.3030139505863189,0.2894828915596008,0.0,0.0,0.8339865207672119,0.4739145040512085
0.0392798408865928,0.0371109098196029,0.1587559431791305,-0.3257701694965362,0.317880779504776,0.2973367273807525,0.0,0.0,0.9555299282073976,0.4594284296035766
0.0407631881535053,0.030001912266016,0.1344181299209594,-0.3190706968307495,0.3323632478713989,0.2896492183208465,0.0,1.0,0.997262954711914,0.9990153312683104
0.0420943275094032,0.024893769994378,0.1353639066219329,-0.2274859249591827,0.3271389007568359,-0.1086808890104293,0.0,1.0,0.998634934425354,0.8538656234741211
0.0430971160531044,0.0208610147237777,0.125022143125534,-0.1738715320825576,0.3013829588890075,-0.5152063965797424,0.0,1.0,0.9957380294799804,-0.7577676177024841
0.0435122475028038,0.0181009862571954,0.0801059529185295,-0.115337386727333,0.2612891495227813,-0.8024781942367554,0.0,1.0,0.9562702178955078,-0.5481410622596741
0.0437248237431049,0.016192827373743,0.0664248839020729,-0.0774346143007278,0.2153271734714508,-0.9193288087844848,0.0,1.0,0.8145091533660889,-0.667747974395752
0.0436667427420616,0.0147809125483036,0.037441998720169,-0.0570492297410965,0.1717596352100372,-0.8714100122451782,0.0,1.0,0.5635664463043213,-0.7212570309638977
0.0433496460318565,0.0137225482612848,0.0102763874456286,-0.0427350997924804,0.1297921985387802,-0.8393824696540833,0.0,0.0,-0.990044891834259,-0.8278124332427979
0.0429639816284179,0.0119910575449466,0.0019945639651268,-0.0739317014813423,0.0894843861460685,-0.8061887621879578,0.0,0.0,-0.8249810934066772,-0.9030582308769226
0.042492963373661,0.0095900865271687,-0.0085324626415967,-0.1048564612865448,0.0512867160141468,-0.7639843225479126,0.0,0.0,0.0171477794647216,-0.9783230423927308
0.041816521435976,0.006994245108217,-0.0310267508029937,-0.1145219355821609,0.0150863379240036,-0.7240367531776428,0.0,0.0,0.8997714519500732,-0.9187029004096984
0.0411899574100971,0.0049814796075224,-0.0281365402042865,-0.0894685611128807,-0.0190142635256052,-0.6820392608642578,0.0,0.0,0.7155710458755493,-0.9871707558631896
0.0405648238956928,0.0028697228990495,-0.0301466025412082,-0.0945831984281539,-0.0510043390095233,-0.6398269534111023,1.0,0.0,0.8328917026519775,-0.3007795810699463
0.0402099601924419,0.0018673992017284,-0.0173623524606227,-0.0454951003193855,-0.0680283084511756,-0.3393134474754333,1.0,0.0,-0.0453757643699646,-0.4362905025482178
0.0399769768118858,0.0008548474288545,-0.0249223429709672,-0.0449342206120491,-0.0664088800549507,0.0324203893542289,1.0,0.0,-0.2612326145172119,0.4111614227294922
0.0398466102778911,-0.0002303385699633,-0.0316926762461662,-0.0475084260106086,-0.0479165762662887,0.3699018061161041,1.0,0.0,-0.2604371309280395,0.333297848701477
0.0397824272513389,-0.0015860700514167,-0.0363933965563774,-0.0595624856650829,-0.0182444620877504,0.5935180187225342,1.0,0.0,-0.1444677114486694,0.275633692741394
0.0397514328360557,-0.0034462355542927,-0.0384440161287784,-0.0826243460178375,0.0166860744357109,0.6986634731292725,1.0,1.0,0.807558536529541,0.6004501581192017
0.0397424697875976,-0.0041967178694903,-0.020796051248908,-0.0339863300323486,0.0349678844213485,0.3638979792594909,1.0,1.0,0.4704008102416992,0.9891653060913086
0.0397553443908691,-0.0044247768819332,0.0020780570339411,-0.0101295839995145,0.0341374836862087,-0.016662023961544,0.0,1.0,-0.8848720788955688,-0.1044121980667114
0.0396809577941894,-0.0048410915769636,0.0076833711937069,-0.0182351469993591,0.0191875360906124,-0.2990314364433288,0.0,1.0,-0.5539988279342651,-0.0536088943481445
0.0397064201533794,-0.0049348617903888,0.010730443522334,-0.0041171447373926,0.0111958570778369,-0.1597303599119186,1.0,1.0,-0.7789722084999084,-0.0447077751159668
0.0397512428462505,-0.0047503616660833,0.0080175120383501,0.0082066003233194,0.0077297007665038,-0.0692825242877006,1.0,1.0,-0.9304001927375792,-0.3261098265647888
0.0398375503718853,-0.0042933486402034,0.0087275579571723,0.0202980991452932,0.007666035555303,-0.0012282442767173,1.0,1.0,-0.9103363156318665,0.1098552942276001
0.0399416908621788,-0.0035555267240852,0.0090281050652265,0.0327728353440761,0.0090601798146963,0.0279196556657552,1.0,1.0,-0.7850582599639893,0.4096888303756714
0.0400434508919715,-0.0025735164526849,0.0089882211759686,0.0436240099370479,0.0102526908740401,0.023880299180746,1.0,1.0,-0.9308335185050964,0.0468182563781738
0.0400513634085655,-0.0017077350057661,0.0074112946167588,0.0385019071400165,0.0037415181286633,-0.1301934421062469,1.0,1.0,-0.8470160961151123,-0.6923950910568237
0.0400046333670616,-0.0009405517484992,0.0012298176297917,0.0340949110686779,-0.0020686718635261,-0.116178348660469,1.0,1.0,-0.9744405150413512,-0.5204718112945557
