x_pos,y_pos,x_vel,y_vel,angle,ang_vel,leg_1,leg_2,main_booster,lat_booster
-0.001514148665592,1.4033257961273191,-0.153408944606781,-0.3375263810157776,0.0017919947858899,0.0353507697582244,0.0,0.0,-0.5018868280922466,0.6017948847171897
-0.0029674530960619,1.3954530954360962,-0.145826444029808,-0.3498974144458771,0.0022787812631577,0.0097372503951191,0.0,0.0,-0.826408531783055,0.7018790672145534
-0.0043438910506665,1.387276291847229,-0.1364639699459076,-0.3634105622768402,0.0011093268403783,-0.023391094058752,0.0,0.0,0.6976598449844813,0.6491544242560983
-0.0057929037138819,1.3795686960220337,-0.1421327888965606,-0.3425621092319488,-0.0016318764537572,-0.0548292510211467,0.0,0.0,-0.8490131027151682,0.8865788495626044
-0.0071479799225926,1.3715649843215942,-0.1306321918964386,-0.3557330071926117,-0.0064482702873647,-0.0963367745280265,0.0,0.0,0.5603465900315856,-0.549388030195809
-0.0083941463381052,1.3640305995941162,-0.1212845221161842,-0.3348827064037323,-0.0097438059747219,-0.0659168437123298,0.0,0.0,0.8392333902339402,-0.9846058172019692
-0.0097305299714207,1.3571631908416748,-0.1322892904281616,-0.3052281737327575,-0.011070723645389,-0.0265409536659717,0.0,0.0,0.3498351592199153,0.7850426399759475
-0.0108528137207031,1.3507888317108154,-0.1095913499593734,-0.2833272218704223,-0.0136801721528172,-0.0521934740245342,0.0,0.0,-0.1047758776612233,-0.8153216566930532
-0.0120316501706838,1.3441258668899536,-0.1169984117150306,-0.2961376011371612,-0.0145578635856509,-0.017555383965373,0.0,0.0,0.2903966542994984,0.9721037956719272
-0.0131176952272653,1.3380197286605835,-0.1058605685830116,-0.2714143991470337,-0.0172712989151477,-0.0542737953364849,0.0,0.0,-0.551339054881085,-0.6654230224656928
-0.0142400739714503,1.3316161632537842,-0.1107441335916519,-0.2846118807792663,-0.0187536105513572,-0.0296485070139169,0.0,0.0,0.6841651638275723,-0.7440816599787592
-0.0153238298371434,1.3257198333740234,-0.1086412519216537,-0.2620644271373749,-0.0184858459979295,0.0053556733764708,0.0,0.0,-0.5807546083981807,-0.7589224860894892
-0.016446303576231,1.3195295333862305,-0.1138270646333694,-0.2751020193099975,-0.0169227756559848,0.0312642343342304,0.0,0.0,0.5830297843344145,-0.9336840518604445
-0.0175542831420898,1.313542366027832,-0.1144744902849197,-0.2660576105117798,-0.0132842045277357,0.0727779790759086,0.0,0.0,-0.5494801920037922,0.8451420654528757
-0.0185721404850482,1.307263731956482,-0.1035155802965164,-0.2790412008762359,-0.0115818809717893,0.0340495891869068,0.0,0.0,-0.7445010965012617,-0.5752729293940437
-0.0196197517216205,1.3006802797317505,-0.1075697913765907,-0.2925796210765838,-0.0088030928745865,0.0555809028446674,0.0,0.0,0.7087913209983236,0.8359294475846912
-0.020428467541933,1.295132040977478,-0.0824580043554306,-0.2465796470642089,-0.0072435652837157,0.0311933401972055,0.0,0.0,-0.4430324017952003,-0.8428635953725043
-0.0212810523808002,1.289278268814087,-0.0882831662893295,-0.2601542174816131,-0.0042470465414226,0.0599358193576335,0.0,0.0,0.2926779263665229,-0.7868206086706824
-0.0221001617610454,1.2840754985809326,-0.0867907777428627,-0.2312256544828415,0.0005824356921948,0.0965982303023338,0.0,0.0,-0.8510279552602444,0.6751035648167403
-0.0228664390742778,1.2785738706588743,-0.0805077999830246,-0.2445234358310699,0.0044259852729737,0.0768777504563331,0.0,0.0,0.064291535223286,0.9358717174709452
-0.0234563834965229,1.273508071899414,-0.0611865893006324,-0.2251470237970352,0.0065857768058776,0.0431995950639247,0.0,0.0,-0.245666884180544,0.8396616934711465
-0.0239724162966012,1.2681397199630735,-0.0522586032748222,-0.2386035621166229,0.0072388378903269,0.0130622833967208,0.0,0.0,0.6161174791145494,0.645865194268405
-0.0242969505488872,1.2632725238800049,-0.0323423184454441,-0.2163149416446685,0.0071248728781938,-0.0022791447117924,0.0,0.0,-0.5930570205057879,-0.5914297091893264
-0.024656867608428,1.2580996751785278,-0.0371437668800354,-0.2299147099256515,0.0082609830424189,0.0227240864187479,0.0,0.0,-0.3884459085122089,0.9005796962918373
-0.0249567031860351,1.2526311874389648,-0.0299641042947769,-0.2430400252342224,0.0082471081987023,-0.000277419341728,0.0,0.0,-0.3214532804588468,0.957100046084963
-0.0251934044063091,1.2468485832214355,-0.0224271174520254,-0.2570050358772278,0.0070182951167225,-0.0245765540748834,0.0,0.0,-0.0180975705043409,0.9011422665724949
-0.0253531448543071,1.2407736778259275,-0.0131306052207946,-0.2699874341487884,0.0042213755659759,-0.0559384748339653,0.0,0.0,-0.3359312814513338,-0.6419450028602393
-0.0255695339292287,1.234406352043152,-0.0206241942942142,-0.282988041639328,0.0032212312798947,-0.0200029220432043,0.0,0.0,-0.5045909340646995,0.7839677634091746
-0.025732422247529,1.2277472019195557,-0.0142913060262799,-0.2959615290164947,0.0012510000960901,-0.0394047461450099,0.0,0.0,-0.1551359628804816,-0.8327752367154991
-0.0259588249027729,1.2207860946655271,-0.0226403195410966,-0.3093827664852142,0.0012532604159787,4.524551331996918e-05,0.0,0.0,0.329185412664158,0.8458264594077731
-0.0260973926633596,1.2145577669143677,-0.0124498894438147,-0.2768153846263885,-0.0001430244010407,-0.0279256049543619,0.0,0.0,-0.9875607490539552,0.8444328308105469
-0.0261735916137695,1.2080256938934326,-0.0049961367622017,-0.2903094589710235,-0.0027282238006591,-0.0517040267586708,0.0,0.0,-0.9608646035194396,-0.1404920816421508
-0.0262456890195608,1.201195240020752,-0.0048713190481066,-0.3035842180252075,-0.0050330902449786,-0.0460972264409065,0.0,0.0,-0.9410917162895204,0.5657655000686646
-0.0262738224118948,1.1940606832504272,0.00024826664594,-0.3171040713787079,-0.0080569284036755,-0.0604768767952919,0.0,0.0,-0.9825634360313416,0.5465686321258545
-0.0262537952512502,1.1866281032562256,0.0058947396464645,-0.3303582370281219,-0.0119034200906753,-0.0769298374652862,0.0,0.0,-0.2559735774993896,0.4707112312316894
-0.0262303352355957,1.1788971424102783,0.0059415148571133,-0.3436334431171417,-0.0154500687494874,-0.0709327235817909,0.0,0.0,-0.9584495425224304,-0.4697379469871521
-0.0262035373598337,1.1708674430847168,0.0059636738151311,-0.3569083511829376,-0.0186908449977636,-0.0648156180977821,0.0,0.0,-0.8639429807662964,-0.1396332383155822
-0.0261735916137695,1.1625393629074097,0.005962009076029,-0.370182991027832,-0.0216200202703475,-0.0585837475955486,0.0,0.0,-0.9935907125473022,-0.5254042148590088
-0.0261849407106637,1.153919696807861,0.0003893578541465,-0.3831179738044739,-0.0231185629963874,-0.0299707204103469,0.0,0.0,-0.9713593125343324,-0.5888475179672241
-0.0262377746403217,1.1450035572052002,-0.0052271084859967,-0.3962726294994354,-0.0231786910444498,-0.0012025195173919,0.0,0.0,-0.9855067133903505,0.0226236581802368
-0.0262880325317382,1.1357887983322144,-0.0052949907258152,-0.4095462560653686,-0.0229116752743721,0.0053404606878757,0.0,0.0,-0.79827481508255,-0.2930663228034973
-0.0263357162475585,1.1262750625610352,-0.0053830514661967,-0.4228199124336242,-0.0223129075020551,0.0119756804779171,0.0,0.0,-0.9725310206413268,-0.5118522047996521
-0.0264151580631732,1.1164581775665283,-0.0097599346190691,-0.4362816512584686,-0.0205247849225997,0.0357624068856239,0.0,0.0,-0.978713035583496,-0.2839877605438232
-0.0264925006777048,1.1063425540924072,-0.0098852459341287,-0.4495556056499481,-0.0183965694159269,0.0425643548369407,0.0,0.0,-0.9709442853927612,0.4817657470703125
-0.0265677459537982,1.095928192138672,-0.0100275436416268,-0.4628297388553619,-0.0159245505928993,0.0494405403733253,0.0,0.0,-0.937498927116394,0.4044742584228515
-0.0266409870237112,1.0852152109146118,-0.0101856850087642,-0.4761040508747101,-0.0131053244695067,0.0563847795128822,0.0,0.0,-0.9340665936470032,-0.0180574059486389
-0.026712417602539,1.0742034912109375,-0.0103584937751293,-0.4893785715103149,-0.0099357711151242,0.0633907839655876,0.0,0.0,-0.9572055339813232,0.764866828918457
-0.0267329216003417,1.0629007816314695,-0.0043620476499199,-0.5023291707038879,-0.007650064304471,0.0457142405211925,0.0,0.0,-0.9834120869636536,0.1670384407043457
-0.0267517082393169,1.0512994527816772,-0.0045605194754898,-0.5156037211418152,-0.0050088400021195,0.0528246089816093,0.0,0.0,-0.8915446400642395,0.1108288764953613
-0.0267690662294626,1.0393996238708496,-0.0047699366696178,-0.5288784503936768,-0.0020099692046642,0.0599773600697517,0.0,0.0,-0.8880943059921265,0.5766177177429199
-0.0267284400761127,1.0272008180618286,0.0021004620939493,-0.5421698093414307,-7.150491728680208e-05,0.0387692563235759,0.0,0.0,-0.8720316886901855,0.02792489528656
-0.0266863815486431,1.0147032737731934,0.0018730747979134,-0.5554444193840027,0.002227829536423,0.0459867343306541,0.0,0.0,-0.8109003901481628,0.5776381492614746
-0.0265891067683696,1.001904010772705,0.0084161628037691,-0.5688521862030029,0.0035319959279149,0.0260829962790012,0.0,0.0,-0.902754247188568,0.7198587656021118
-0.0264331810176372,0.9888131618499756,0.0153606589883565,-0.5818145871162415,0.0037596812471747,0.0045537645928561,0.0,0.0,-0.929741382598877,-0.2268059253692627
-0.0262760166078805,0.9754238724708556,0.0151164550334215,-0.5950889587402344,0.0043505341745913,0.0118170101195573,0.0,0.0,-0.9435875415802002,-0.3126914501190185
-0.0261177066713571,0.961735725402832,0.0148694366216659,-0.6083633303642273,0.0053046052344143,0.0190813560038805,0.0,0.0,-0.8880323171615601,0.4064066410064697
-0.0259581562131643,0.9477490782737732,0.014621028676629,-0.6216378808021545,0.0066215875558555,0.0263394750654697,0.0,0.0,-0.8852896094322205,0.6147998571395874
-0.0257375724613666,0.9334668517112732,0.0218752715736627,-0.6347683072090149,0.0067979488521814,0.0035273204557597,0.0,0.0,-0.6778343319892883,-0.388646125793457
-0.0255158431828022,0.9188860654830932,0.0216284301131963,-0.6480427384376526,0.0073354882188141,0.0107508543878793,0.0,0.0,-0.6192048788070679,-0.0281939506530761
-0.0252928733825683,0.9040064215660096,0.0213845707476139,-0.6613172888755798,0.0082327732816338,0.0179456211626529,0.0,0.0,-0.8606930375099182,0.093441367149353
-0.0250687599182128,0.8888282775878906,0.0211451780050992,-0.6745918989181519,0.0094879688695073,0.0251038018614053,0.0,0.0,-0.5987686514854431,0.3172608613967895
-0.0248433109372854,0.8733515739440918,0.0209117494523525,-0.6878665685653687,0.0110988421365618,0.0322174653410911,0.0,0.0,-0.7544536590576172,0.543816089630127
-0.0245647430419921,0.8575757741928101,0.0271938554942607,-0.701154351234436,0.0117595791816711,0.0132144261151552,0.0,0.0,-0.4458569288253784,-0.0350116491317749
-0.0242846496403217,0.8415012359619141,0.0269768722355365,-0.7144289612770081,0.0127702895551919,0.0202143639326095,0.0,0.0,-0.6740545034408569,0.2986284494400024
-0.0240032188594341,0.8251281976699829,0.0267703793942928,-0.7277036905288696,0.0141275264322757,0.0271447263658046,0.0,0.0,-0.4528442025184631,0.8112435340881348
-0.0236692428588867,0.808458149433136,0.0329744555056095,-0.7408978343009949,0.0145456511527299,0.0083626825362443,0.0,0.0,-0.3088319301605224,0.5925121307373047
-0.0232851020991802,0.7914974093437195,0.0388795770704746,-0.7538062930107117,0.0140813030302524,-0.0092868683859705,0.0,0.0,-0.7649354934692383,0.612891435623169
-0.02284412458539,0.774232029914856,0.0456351600587368,-0.7673413157463074,0.0125657944008708,-0.0303102247416973,0.0,0.0,-0.5181246399879456,-0.5940622091293335
-0.0224463455379009,0.7566739320755005,0.0398469381034374,-0.7803577780723572,0.0125063927844166,-0.0011882818071171,0.0,0.0,-0.3312435150146484,0.597235918045044
-0.022006606683135,0.738815426826477,0.0447211824357509,-0.7937065362930298,0.0117673762142658,-0.014780530706048,0.0,0.0,-0.0318516492843627,-0.5120800733566284
-0.021611500531435,0.7206596732139587,0.0387485325336456,-0.8069320917129517,0.0125179337337613,0.0150110255926847,0.0,0.0,0.0784705877304077,0.5578255653381348
-0.0211528781801462,0.702816903591156,0.0458855256438255,-0.7930139303207397,0.0125046782195568,-0.0002653077826835,0.0,0.0,-0.1445622444152832,0.3202630281448364
-0.0206917766481637,0.684675395488739,0.0458176843822002,-0.8062885999679565,0.0127934822812676,0.0057759280316531,0.0,0.0,-0.2240110039710998,0.8311448097229004
-0.0201542861759662,0.6662368178367615,0.0550332479178905,-0.819484293460846,0.0115219810977578,-0.025429954752326,0.0,0.0,0.3359264135360718,-0.0886261463165283
-0.0196450240910053,0.647973358631134,0.0520532801747322,-0.811697781085968,0.010410257615149,-0.0222345348447561,0.0,0.0,-0.3696050643920898,0.5583720207214355
-0.0190835949033498,0.6294063329696655,0.0582362934947013,-0.8251920342445374,0.0083399806171655,-0.0414054170250892,0.0,0.0,-0.0697265267372131,-0.8550925254821777
-999.0,0.6105311512947083,0.0493424758315086,-0.8388956189155579,0.0083271162584424,-0.000257419393165,0.0,0.0,0.3570680618286133,0.0053092241287231
-0.0181059837341308,0.5923345685005188,0.0482138842344284,-0.8087398409843445,0.0085399216040968,0.0042563090100884,0.0,0.0,0.087333083152771,0.1129249334335327
-0.0175701137632131,0.5746453404426575,0.0528758876025676,-0.7861941456794739,0.0092432713136076,0.0140669522807002,0.0,0.0,-0.3140703439712524,-0.0655848979949951
-0.0170305259525775,0.5566573739051819,0.0530062690377235,-0.7994686961174011,0.0101823126897215,0.0187807139009237,0.0,0.0,-0.0930041670799255,0.1608623266220092
-0.0164871215820312,0.5383708477020264,0.0531702935695648,-0.8127432465553284,0.0113452523946762,0.0232585128396749,0.0,0.0,0.6961073875427246,-0.1650644540786743
-0.0159072875976562,0.5210036635398865,0.0563984028995037,-0.7718889713287354,0.0129112089052796,0.0313192643225193,0.0,0.0,0.0956397056579589,-0.1220725774765014
-0.015395164489746,0.5039089918136597,0.0497375205159187,-0.7597770094871521,0.014364774338901,0.0290714539587497,0.0,0.0,0.3485555648803711,-0.097043752670288
-0.0149311069399118,0.4873445928096771,0.0449521839618682,-0.7362117171287537,0.0157962013036012,0.028628459200263,0.0,0.0,0.6970999240875244,0.3421005010604858
-0.0144858360290527,0.471558541059494,0.0429592207074165,-0.701617956161499,0.0173414032906293,0.0309041589498519,0.0,0.0,-0.5963517427444458,0.0287035703659057
-0.0140355108305811,0.455473929643631,0.0433085747063159,-0.7148926258087158,0.0190424602478742,0.0340210907161235,0.0,0.0,-0.2378851175308227,-0.4498144388198852
-0.0135799404233694,0.4390907287597656,0.043697964400053,-0.7281674146652222,0.0208839662373065,0.0368299633264541,0.0,0.0,0.3812323808670044,0.6739859580993652
-0.0129865650087594,0.422913134098053,0.0585455186665058,-0.7190144658088684,0.0216621328145265,0.015563366934657,0.0,0.0,0.7112898826599121,-0.5462697148323059
-0.0122805591672658,0.4073277711868286,0.0681626051664352,-0.6927213668823242,0.0240741092711687,0.0482392869889736,0.0,0.0,0.7383290529251099,-0.4187949299812317
-0.0114317890256643,0.3920713663101196,0.0816554799675941,-0.6781154274940491,0.027255356311798,0.0636250749230384,0.0,0.0,0.5022439956665039,-0.0986598134040832
-0.010600471869111,0.3775405883789062,0.0798621177673339,,0.0304859410971403,0.0646115392446518,0.0,0.0,0.2761796712875366,0.2014557123184204
-0.0097564700990915,0.3635908961296081,0.0809555128216743,-0.6200607419013977,0.0338821113109588,0.0679236501455307,0.0,0.0,-0.143086552619934,-0.1877591609954834
-0.0089057926088571,0.3493427038192749,0.0815997198224067,-0.633336067199707,0.0373148061335086,0.0686536505818367,0.0,0.0,0.4311109781265259,0.0470256805419921
-0.007971191778779,0.3352247774600982,0.0895551219582557,-0.6275663375854492,0.0411690697073936,0.0770853906869888,0.0,0.0,0.3391997814178467,0.3207066059112549
-0.0070888521149754,0.3214244246482849,0.0845338553190231,-0.6134577393531799,0.0448243580758571,0.0731056183576583,0.0,0.0,0.4743803739547729,-0.1149489879608154
-0.006157970521599,0.3084843158721924,0.0890552699565887,-0.5752391219139099,0.0488072969019413,0.0796589031815528,0.0,0.0,-0.0202716588973999,0.0159810781478881
-0.0052193640731275,0.2952457666397095,0.0898767262697219,-0.588514506816864,0.0527484789490699,0.0788235664367675,0.0,0.0,0.5209255218505859,-0.3164230585098266
-0.0044257165864109,0.2827966213226318,0.0759802311658859,-0.5534194707870483,0.056097637861967,0.0669829621911048,0.0,0.0,0.2982754707336426,-0.0421558618545532
-0.0035861968062818,0.270875871181488,0.0803264826536178,-0.5299493670463562,0.0596805363893508,0.0716580301523208,0.0,0.0,-0.2854676246643066,-0.1077301502227783
-0.0027381896506994,0.2586565017700195,0.0812804773449897,-0.5432240962982178,0.0631600990891456,0.06959118694067,0.0,0.0,0.5692806243896484,-0.3311053514480591
-0.002004814101383,0.2471958994865417,0.0703162178397178,-0.5094921588897705,0.0661520808935165,0.0598393455147743,0.0,0.0,0.1582508087158203,-0.6689258813858032
-0.0013578415382653,0.2359497100114822,0.0605003722012043,-0.5000201463699341,0.0703057274222374,0.0830730348825454,0.0,0.0,0.8116326332092285,0.4987215995788574
-0.0008755683666095,0.2253782302141189,0.0447903722524642,-0.4700102210044861,0.0737019255757331,0.0679240077733993,0.0,0.0,0.8834965229034424,-0.0982401967048645
-0.0005990028148517,0.2153823226690292,0.025214210152626,-0.4443884193897247,0.0761182233691215,0.0483260229229927,0.0,0.0,0.8554825782775879,0.0369442701339721
-0.0002555847167968,0.2063081562519073,0.0315525755286216,-0.4034384191036224,0.0788779333233833,0.0551941804587841,0.0,0.0,0.3558095693588257,0.751575231552124
0.0001896858157124,0.1973951458930969,0.0433910451829433,-0.3961949646472931,0.079995684325695,0.0223549809306859,0.0,0.0,0.5608000755310059,-0.5623182654380798
0.0006899833679199,0.1892775595188141,0.0476527884602546,-0.3609079122543335,0.0823490172624588,0.0470667518675327,0.0,0.0,0.7469093799591064,-0.8689020872116089
0.0010373115073889,0.1820833086967468,0.0309300385415554,-0.3199607133865356,0.0861178562045097,0.0753767564892768,0.0,0.0,0.3652635812759399,0.3570747375488281
0.0014517784584313,0.1756606698036193,0.0373805835843086,-0.2856887280941009,0.0901457145810127,0.0805573612451553,0.0,0.0,0.2170548439025879,0.6464062929153442
0.0019516944885253,0.1695924401283264,0.0474376417696476,-0.2698544561862945,0.0926767364144325,0.0506201311945915,0.0,0.0,0.415016770362854,0.3380568027496338
0.0023914338089525,0.1642687916755676,0.0417801439762115,-0.2367434352636337,0.0948551893234252,0.043569091707468,0.0,0.0,-0.2699999213218689,-0.4044300317764282
0.0028420449234545,0.1586461663246154,0.0432130321860313,-0.2500153481960296,0.0966916531324386,0.0367291420698165,0.0,0.0,-0.0333048105239868,-0.4127122163772583
0.0033038139808923,0.152724340558052,0.044679932296276,-0.2632869482040405,0.0981685742735862,0.0295385308563709,0.0,0.0,-0.0464062094688415,-0.7089744210243225
0.0037095069419592,0.1464947611093521,0.0377427525818347,-0.2770580947399139,0.1009690091013908,0.0560086779296398,0.0,0.0,0.4994601011276245,-0.4783521890640259
0.0039634704589843,0.140645682811737,0.0235189162194728,-0.2600882351398468,0.1028375849127769,0.037371601909399,0.0,0.0,-0.1412898302078247,-0.4961187839508056
0.0042289732955396,0.1344974189996719,0.0250811967998743,-0.2733592689037323,0.1042974293231964,0.0291969086974859,0.0,0.0,0.0425806045532226,-0.4672642350196838
0.0044874190352857,0.1285546422004699,0.024722846224904,-0.264201283454895,0.1054091081023216,0.0222335681319236,0.0,0.0,-0.0603281259536743,0.2470557689666748
0.0047575952485203,0.1223126053810119,0.0263430122286081,-0.2774717211723327,0.1060822606086731,0.0134628470987081,0.0,0.0,0.3863614797592163,-0.0416969060897827
0.0050602913834154,0.1166400536894798,0.0296687241643667,-0.2521547079086303,0.1066811978816986,0.0119787817820906,0.0,0.0,0.1599390506744384,-0.3947563171386719
0.0053322790190577,0.1115156710147857,0.0269813276827335,-0.2277651280164718,0.1068956404924392,0.0042890631593763,0.0,0.0,-0.0628122091293335,-0.8501941561698914
0.005557251162827,0.1060729324817657,0.0212398152798414,-0.241990178823471,0.1081515625119209,0.0251183453947305,0.0,0.0,-0.3662109375,-0.5609696507453918
