x_pos,y_pos,x_vel,y_vel,angle,ang_vel,leg_1,leg_2,main_booster,lat_booster
-0.0014815330505371,1.403417468070984,-0.1497713327407837,-0.3334492743015289,0.0014482245314866,0.0285437945276498,0.0,0.0,0.0334250657066461,-0.846936774999502
-0.0029502869583666,1.3961597681045532,-0.1497060358524322,-0.3225729763507843,0.0042563355527818,0.0561681501567363,0.0,0.0,0.7158941258929072,-0.985488100293689
-0.0043012620881199,1.389317274093628,-0.1398552358150482,-0.3041292428970337,0.008963618427515,0.0941544324159622,0.0,0.0,0.3898397364208388,0.6482322331208216
-0.0056749344803392,1.3828954696655271,-0.1403096467256546,-0.2854370772838592,0.011882116086781,0.0583750531077384,0.0,0.0,-0.9074311579729772,0.9410013488849238
-0.0069189071655273,1.3762712478637695,-0.1247847825288772,-0.2944188416004181,0.012271006591618,0.0077783674933016,0.0,0.0,-0.7953977152090259,-0.6398777697407894
-0.0081624034792184,1.3694381713867188,-0.1254718154668808,-0.3036960363388061,0.0133748352527618,0.022078575566411,0.0,0.0,-0.1426675243659321,0.522529867454668
-0.0093278884887695,1.3623991012573242,-0.1163945347070694,-0.3128508031368255,0.013224633410573,-0.0030043700244277,0.0,0.0,0.6586217487162516,-0.6481688931376133
-0.0103525165468454,1.3561311960220337,-0.1037566438317298,-0.2785854935646057,0.0145055940374732,0.0256214085966348,0.0,0.0,-0.2295709246084651,0.9960302778646832
-0.011263370513916,1.3496685028076172,-0.0901776403188705,-0.2872182726860046,0.0136088030412793,-0.0179373212158679,0.0,0.0,-0.4801406612321917,-0.7055487739524748
-0.0121936798095703,1.343002200126648,-0.0932942479848861,-0.2962810695171356,0.0138781946152448,0.0053882673382759,0.0,0.0,0.6177067610476636,-0.937686749771526
-0.0130754467099905,1.3370031118392944,-0.0902341678738594,-0.26664799451828,0.0159127209335565,0.0406939163804054,0.0,0.0,0.2982163839611815,-0.6901446143474794
-0.0139217376708984,1.33141827583313,-0.0879464298486709,-0.2482564002275467,0.0191985070705413,0.065721645951271,0.0,0.0,0.194208778106568,-0.9358782630691612
-0.0147076603025197,1.3263907432556152,-0.0836297124624252,-0.2235224395990371,0.0241730343550443,0.0994996428489685,0.0,0.0,0.0514954180890625,-0.6738042942036464
-0.0154694560915231,1.321488857269287,-0.0824034139513969,-0.2179689854383468,0.0303360261023044,0.123271070420742,0.0,0.0,-0.5459800955169476,0.5331105282571846
-0.0161476135253906,1.3163882493972778,-0.0725299268960952,-0.2267938107252121,0.034999530762434,0.0932785123586654,0.0,0.0,-0.7064465512760445,0.9037779301821036
-0.0167102813720703,1.3110746145248413,-0.0586568005383014,-0.236217975616455,0.0373611077666282,0.0472357310354709,0.0,0.0,0.025475402268305,-0.9447110808806742
-0.0172350890934467,1.306362509727478,-0.0565513595938682,-0.2095319628715515,0.0413951054215431,0.0806872546672821,0.0,0.0,0.889810138647732,-0.8038057094968716
-0.0176339149475097,1.3020861148834229,-0.0457980930805206,-0.1902335733175277,0.0472455285489559,0.1170189753174781,0.0,0.0,0.729029682574573,-0.7074737513075833
-0.0179899223148822,1.298872709274292,-0.0430221743881702,-0.1430768370628357,0.0545916482806205,0.1469360440969467,0.0,0.0,-0.4074064595554696,-0.5882140090812317
-0.0183714870363473,1.295447826385498,-0.0467712245881557,-0.1525410860776901,0.0631150528788566,0.1704833805561065,0.0,0.0,0.9697439777203212,0.993172647228123
-0.0185373313724994,1.2931896448135376,-0.0233423337340354,-0.1006653755903244,0.0698144435882568,0.1340001821517944,0.0,0.0,-0.4891988079781724,-0.8179027958978841
-0.0187410358339548,0.0,-0.0286220964044332,-0.1104542016983032,0.077982097864151,0.163367748260498,0.0,0.0,0.1348212695025812,0.810039911131351
-0.0187835693359375,1.2886089086532593,-0.0108031872659921,-0.0938984453678131,0.084484189748764,0.1300534754991531,0.0,0.0,-0.5273738392513561,0.6032630834885025
-0.0187496189028024,1.28629732131958,-0.0016984650865197,-0.103027157485485,0.0895382165908813,0.1010894626379013,0.0,0.0,0.8378991862673972,0.9782858405504076
-0.0188563354313373,1.2848381996154783,-0.0134231951087713,-0.0650228559970855,0.0922692641615867,0.0546255819499492,0.0,0.0,0.9426480866371134,-0.6307830060862358
-0.0192495342344045,1.2843581438064575,-0.0427552722394466,-0.0215515904128551,0.0956776738166809,0.0681686848402023,0.0,0.0,-0.3066395692886179,-0.6693713917041045
-0.0196752548217773,1.283667802810669,-0.0472679995000362,-0.0309850797057151,0.1003295257687568,0.0930373072624206,0.0,0.0,0.3579627846539355,-0.6551477182689243
-0.0203200336545705,1.283764362335205,-0.0701939314603805,0.0039004846476018,0.1060001403093338,0.113412357866764,0.0,0.0,-0.7779114383337769,-0.5507726468091608
-0.0209999084472656,1.2836506366729736,-0.0749796852469444,-0.0055673345923423,0.112943135201931,0.1388599723577499,0.0,0.0,0.526046123929756,-0.512640771054305
-0.0217744819819927,1.283989429473877,-0.0853599458932876,0.0144450273364782,0.1208023577928543,0.1571842730045318,0.0,0.0,-0.0704532519896843,-0.6707357763015664
-0.0225848201662302,1.2841206789016724,-0.0901855826377868,0.0050582545809447,0.1299111545085907,0.1821752488613128,0.0,0.0,-0.9830178618431092,0.99803626537323
-0.0233115199953317,1.2840533256530762,-0.0800453275442123,-0.0036568827927112,0.137250930070877,0.146795853972435,0.0,0.0,-0.97629714012146,0.9858410358428956
-0.0239585880190134,1.2838023900985718,-0.0703368037939071,-0.0116801019757986,0.1428589224815368,0.112159825861454,0.0,0.0,-0.9866310954093932,0.9442918300628662
-0.0245257373899221,1.2833505868911743,-0.060639314353466,-0.0204614233225584,0.1467643529176712,0.0781085267663002,0.0,0.0,-0.972888171672821,0.9706329107284546
-0.0250033382326364,1.282711148262024,-0.0496532544493675,-0.0286057796329259,0.1486642956733703,0.0379984453320503,0.0,0.0,-0.9318974018096924,0.6043461561203003
-0.0254216194152832,1.2818803787231443,-0.0424731709063053,-0.0369937196373939,0.1493133902549743,0.0129820210859179,0.0,0.0,-0.905099391937256,0.6675150394439697
-0.0257794372737407,1.2808504104614258,-0.0351603887975215,-0.0457126013934612,0.148691639304161,-0.0124346511438488,0.0,0.0,-0.8793237209320068,0.8938000202178955
-0.0260544773191213,1.279637098312378,-0.0249826572835445,-0.053675539791584,0.1461770236492157,-0.0502922944724559,0.0,0.0,-0.9143580794334412,0.7995865345001221
-0.0262636188417673,1.2782387733459473,-0.0169086400419473,-0.0617622807621955,0.1421816498041153,-0.0799077674746513,0.0,0.0,-0.7289483547210693,0.2131541967391967
-0.0264653209596872,1.2766337394714355,-0.016183903440833,-0.0709612742066383,0.138211190700531,-0.0794092044234275,0.0,0.0,-0.6353016495704651,0.3719644546508789
-0.0266602523624897,1.2748219966888428,-0.0155483931303024,-0.0801603123545646,0.1342718601226806,-0.0787866339087486,0.0,0.0,-0.6496909856796265,0.6882390975952148
-0.0267844200134277,1.2728153467178345,-0.0068236654624342,-0.0886929705739021,0.1287133246660232,-0.1111708059906959,0.0,0.0,-0.6400904655456543,-0.5973827838897705
-0.0269420631229877,1.2705880403518677,-0.0112346839159727,-0.0986102893948555,0.1242008879780769,-0.0902488306164741,0.0,0.0,-0.8320541977882385,0.6286219358444214
-0.0270379073917865,1.2681636810302734,-0.0036210007965564,-0.1072660386562347,0.1182745173573494,-0.1185275316238403,0.0,0.0,-0.6312117576599121,-0.3691483736038208
-0.027130126953125,1.2655328512191772,-0.0033095213584601,-0.1164668574929237,0.1124004423618316,-0.1174815073609352,0.0,0.0,-0.683211624622345,-0.4268877506256103
-0.0272193904966115,1.2626957893371582,-0.0030704117380082,-0.1256676465272903,0.1065829917788505,-0.1163490265607833,0.0,0.0,-0.7938217520713806,-0.5589258670806885
-0.0273457523435354,1.2596426010131836,-0.0078380024060606,-0.1353573501110077,0.1018290668725967,-0.0950784832239151,0.0,0.0,-0.8563100695610046,0.4764482975006103
-0.027470301836729,1.2563830614089966,-0.0077325897291302,-0.1445571482181549,0.0971391797065734,-0.0937979072332382,0.0,0.0,-0.8128358125686646,0.5973275899887085
-0.0275575630366802,1.252927541732788,-0.0031188626307994,-0.1532246172428131,0.0915860459208488,-0.1110622286796569,0.0,0.0,-0.8786711692810059,0.2988260984420776
-0.0276441574096679,1.2492655515670776,-0.0031314748339354,-0.1624251008033752,0.0861026719212532,-0.1096673607826232,0.0,0.0,-0.8014437556266785,0.5621721744537354
-0.0276758186519145,1.2454042434692385,0.0036902718711644,-0.171235904097557,0.0793043747544288,-0.1359660774469375,0.0,0.0,-0.9591084122657776,0.0222587585449218
-0.0277080535888671,1.2413365840911863,0.0035755473654717,-0.1804376393556594,0.0725797787308693,-0.1344921141862869,0.0,0.0,-0.8622211217880249,-0.6201894879341125
-0.0277809146791696,1.2370549440383911,-0.0015946930507197,-0.1900360733270645,0.0669418275356292,-0.1127590164542198,0.0,0.0,-0.937713086605072,-0.01724374294281
-0.0278551094233989,1.2325667142868042,-0.0017956498777493,-0.1992365419864654,0.0613796897232532,-0.111242726445198,0.0,0.0,-0.8923704624176025,0.4486202001571655
-0.0279309265315532,1.2278721332550049,-0.0020335060544312,-0.208436906337738,0.0558937340974807,-0.1097192019224166,0.0,0.0,-0.9699511528015136,0.5261852741241455
-0.0279735568910837,1.2229714393615725,0.002093631774187,-0.2175774276256561,0.0496032461524009,-0.1258097141981125,0.0,0.0,-0.948809802532196,-0.5730323195457458
-0.0280569083988666,1.2178668975830078,-0.0030184073839336,-0.2267031967639923,0.0443494841456413,-0.1050755009055137,0.0,0.0,-0.9942306876182556,-0.1879236698150634
-0.0281427390873432,1.2125558853149414,-0.0033422210253775,-0.2359031736850738,0.0391701199114322,-0.1035870686173439,0.0,0.0,-0.9929566383361816,0.3402308225631714
-0.0282313339412212,1.2070382833480835,-0.003686421085149,-0.2451030313968658,0.0340636447072029,-0.1021295636892318,0.0,0.0,-0.9883095026016236,0.5103664398193359
-0.0282876007258892,1.2013205289840698,0.0003675264888443,-0.2540043890476227,0.0281406082212924,-0.1184606552124023,0.0,0.0,-0.99454003572464,0.3015660047531128
-0.0283470153808593,1.195396065711975,-5.062483069195878e-06,-0.2632048726081848,0.0222858972847461,-0.1170942336320877,0.0,0.0,-0.982380747795105,0.3789212703704834
-0.0284094810485839,1.1892651319503784,-0.0003857309056911,-0.2724052369594574,0.0164964832365512,-0.1157881394028663,0.0,0.0,-0.9448111057281494,0.3002653121948242
-0.0284751895815134,1.1829278469085691,-0.0007704115705564,-0.2816055119037628,0.0107688792049884,-0.1145522445440292,0.0,0.0,-0.9903845191001892,0.3507949113845825
-0.0285441391170024,1.1763839721679688,-0.0011550665367394,-0.2908056974411011,0.0050990488380193,-0.1133964210748672,0.0,0.0,-0.9570814371109008,0.0410609245300293
-0.0286164283752441,1.1696336269378662,-0.0015356892254203,-0.3000057935714721,-0.0005174706457182,-0.1123305335640907,0.0,0.0,-0.9463319182395936,-0.1059991717338562
-0.0286918636411428,1.1626768112182615,-0.0019083123188465,-0.3092058300971985,-0.0060857022181153,-0.1113644242286682,0.0,0.0,-0.9617671370506288,-0.0652723908424377
-0.0287705417722463,1.1555134057998655,-0.0022690086625516,-0.3184057772159576,-0.011611103080213,-0.1105080097913742,0.0,0.0,-0.981136679649353,-0.0604593157768249
-0.0288522727787494,1.1481434106826782,-0.0026138990651816,-0.3276056945323944,-0.0170996747910976,-0.109771117568016,0.0,0.0,-0.9947695136070251,0.086879014968872
-0.0289369579404592,1.1405669450759888,-0.0029391555581241,-0.3368055522441864,-0.0225578509271144,-0.1091633886098861,0.0,0.0,-0.992528796195984,-0.2212503552436828
-0.0290244109928607,1.1327838897705078,-0.0032410088460892,-0.3460054099559784,-0.0279925726354122,-0.1086944937705993,0.0,0.0,-0.9836691617965698,-0.3272020220756531
-0.0291145332157611,1.1247942447662354,-0.0035157490056008,-0.3552052080631256,-0.0334112681448459,-0.1083740219473838,0.0,0.0,-0.9770891666412354,0.1562974452972412
-0.0292068477720022,1.116598129272461,-0.0037597317714244,-0.3644050657749176,-0.0388218387961387,-0.1082114577293396,0.0,0.0,-0.9793164134025574,-0.3933471441268921
-0.0293012615293264,1.1081955432891846,-0.0039693894796073,-0.3736048638820648,-0.0442326366901397,-0.1082160249352455,0.0,0.0,-0.9786247611045836,-0.1134127378463745
-0.0293974876403808,1.0995862483978271,-0.0041412292048335,-0.3828047811985016,-0.0496524907648563,-0.1083968728780746,0.0,0.0,-0.9979817271232604,-0.771742045879364
-0.0295598022639751,1.0907691717147827,-0.0123737100511789,-0.3920045495033264,-0.053470142185688,-0.0763529688119888,0.0,0.0,-0.965423345565796,-0.1800054907798767
-0.0297232624143362,1.081745147705078,-0.0124596776440739,-0.4012032747268677,-0.0573158077895641,-0.0769131481647491,0.0,0.0,-0.9721951484680176,-0.2068735361099243
-0.0298874862492084,1.0725146532058716,-0.012497860006988,-0.4104020893573761,-0.0611995905637741,-0.0776756852865219,0.0,0.0,-0.9841452240943908,-0.4022435545921325
-0.0300520900636911,1.0630773305892944,-0.0124851362779736,-0.4196009933948517,-0.0651320219039917,-0.0786487907171249,0.0,0.0,-0.9785603284835817,-0.3919233679771423
-0.0302165988832712,1.0534334182739258,-0.0124184908345341,-0.4288000166416168,-0.0691240355372428,-0.0798404291272163,0.0,0.0,-0.9213434457778932,-0.6922407150268555
-0.0304450988769531,1.0435965061187744,-0.0203981585800647,-0.4373151957988739,-0.071550153195858,-0.0485223531723022,0.0,0.0,-0.9605832695961,-0.7768850922584534
-0.0307475086301565,1.0335525274276731,-0.0296006500720977,-0.4464223980903625,-0.0721815824508667,-0.0126287471503019,0.0,0.0,-0.8556491732597351,-0.6760260462760925
-0.0310978889465332,1.0233134031295776,-0.0355728939175605,-0.4550517797470093,-0.0716500878334045,0.0106298979371786,0.0,0.0,-0.8725081086158752,-0.4620914459228515
-0.0314462669193744,1.0128673315048218,-0.0352626107633113,-0.4642498195171356,-0.0712254494428634,0.0084925610572099,0.0,0.0,-0.9667589664459229,-0.1111136078834533
-0.0317919738590717,1.002214431762695,-0.0348851457238197,-0.4734479486942291,-0.0709203109145164,0.0061028860509395,0.0,0.0,-0.9304522275924684,-0.0481194257736206
-0.0321346297860145,0.9913546442985536,-0.0344382598996162,-0.4826461374759674,-0.0707475468516349,0.0034554868470877,0.0,0.0,-0.97684508562088,-0.1261407136917114
-0.0324735641479492,0.9802882075309752,-0.0339198634028434,-0.4918444454669952,-0.070720262825489,0.0005453680059872,0.0,0.0,-0.9483102560043336,-0.2323967218399047
-0.03280820697546,0.9690148830413818,-0.0333280377089977,-0.5010427832603455,-0.0708518549799919,-0.002631904091686,0.0,0.0,-0.9724395275115968,-0.170576810836792
-0.0331378951668739,0.957534909248352,-0.0326610021293163,-0.5102412104606628,-0.0711558684706687,-0.0060801301151514,0.0,0.0,-0.9600793719291688,0.3814144134521484
-0.0334620475769043,0.9458479285240172,-0.0319171547889709,-0.5194397568702698,-0.0716460049152374,-0.0098027121275663,0.0,0.0,-0.9726038575172424,0.3192914724349975
-0.033780001103878,0.9339543581008912,-0.0310950670391321,-0.5286384224891663,-0.0723361149430275,-0.013802352361381,0.0,0.0,-0.9935399293899536,0.4840121269226074
-0.0340910926461219,0.9218539595603944,-0.0301934815943241,-0.5378370881080627,-0.0732401758432388,-0.0180811695754528,0.0,0.0,-0.990874707698822,-0.1028277277946472
-0.0343946442008018,0.909546971321106,-0.0292113125324249,-0.5470358729362488,-0.0743722170591354,-0.0226407311856746,0.0,0.0,-0.9932050108909608,0.1489371061325073
-0.0346900001168251,0.8970332741737366,-0.028147667646408,-0.5562347769737244,-0.0757463127374649,-0.0274819433689117,0.0,0.0,-0.9977552890777588,-0.5909423232078552
-0.03501558303833,0.8843111395835876,-0.0319041088223457,-0.5654629468917847,-0.0763985216617584,-0.0130438255146145,0.0,0.0,-0.9842441082000732,-0.4243911504745483
-0.0353316292166709,0.8713821768760681,-0.0306755099445581,-0.5746620297431946,-0.0773209482431411,-0.0184487532824277,0.0,0.0,-0.9703882932662964,-0.3652831315994262
-0.0356374755501747,0.8582468032836914,-0.029363814741373,-0.5838612914085388,-0.0785276740789413,-0.0241345465183258,0.0,0.0,-0.9721465110778807,-0.5948968529701233
-0.0359810814261436,0.8449103236198425,-0.0340868383646011,-0.5927490592002869,-0.0788019895553588,-0.0054862415418028,0.0,0.0,-0.898106575012207,-0.7314648628234863
-0.0363823883235454,0.8313822150230408,-0.0413105338811874,-0.6011925339698792,-0.0776286050677299,0.0234674848616123,0.0,0.0,-0.9881479144096376,0.2610681056976318
-0.0367712974548339,0.8176474571228027,-0.0397492311894893,-0.610392153263092,-0.0767811238765716,0.016949962824583,0.0,0.0,-0.975691854953766,0.0919798612594604
-0.037147331982851,0.8037061095237732,-0.0381052084267139,-0.6195917129516602,-0.076273076236248,0.0101606678217649,0.0,0.0,-0.986132025718689,-0.2894289493560791
-0.0375095382332801,0.7895581126213074,-0.0363790094852447,-0.6287912726402283,-0.0761179104447364,0.0031032343395054,0.0,0.0,-0.9854084253311156,-0.8203069567680359
-0.0379248633980751,0.7752084732055664,-0.0430423393845558,-0.6376821398735046,-0.0746284499764442,0.0297893434762954,0.0,0.0,-0.9340423941612244,0.387813925743103
-0.0383252128958702,0.760652482509613,-0.0411541126668453,-0.6468821167945862,-0.0735180526971817,0.022207947447896,0.0,0.0,-0.8861261606216431,-0.5563790798187256
-0.038764763623476,0.7458946108818054,-0.0460789129137992,-0.6557994484901428,-0.0714149996638298,0.0420611500740051,0.0,0.0,-0.8673883676528931,-0.6894710063934326
-0.0392325408756732,0.7309391498565674,-0.0496409609913826,-0.6645505428314209,-0.0685838088393211,0.0566237680613994,0.0,0.0,-0.7811403274536133,-0.2975362539291382
-0.0396833419799804,0.7157773375511169,-0.0475178509950637,-0.6737509965896606,-0.0661690756678581,0.0482948161661624,0.0,0.0,-0.8820915818214417,0.0121271610260009
-0.0401164069771766,0.7004088759422302,-0.0453191846609115,-0.6829511523246765,-0.0641826763749122,0.039728183299303,0.0,0.0,-0.8418505787849426,-0.267467737197876
-0.0405312553048133,0.6848340630531311,-0.0430465936660766,-0.6921511292457581,-0.0626361742615699,0.0309300832450389,0.0,0.0,-0.5508660078048706,-0.6311809420585632
-0.0409648902714252,0.6690636873245239,-0.0454442389309406,-0.7008265256881714,-0.0605805031955242,0.0411134287714958,0.0,0.0,-0.6690346002578735,0.0420112609863281
-0.0413790717720985,0.6530864238739014,-0.0430292189121246,-0.7100266218185425,-0.0589869059622287,0.0318720452487468,0.0,0.0,-0.3318958878517151,0.2408044338226318
-0.0417733192443847,0.636902928352356,-0.0405459068715572,-0.7192265391349792,-0.0578659437596797,0.0224192310124635,0.0,0.0,-0.3065363764762878,-0.4587188959121704
-0.0421467795968055,0.6205126643180847,-0.0379964150488376,-0.7284263372421265,-0.0572278387844562,0.0127620603889226,0.0,0.0,-0.5857037901878357,0.2569042444229126
-0.0424990653991699,0.603915810585022,-0.0353829525411129,-0.7376261353492737,-0.0570824667811393,0.0029076244682073,0.0,0.0,0.4598376750946045,-0.6166714429855347
-0.0429651252925396,0.5879461169242859,-0.0472246780991554,-0.7097437977790833,-0.0564624518156051,0.0124003337696194,0.0,0.0,0.2412940263748169,0.1045538187026977
-0.0434834472835063,0.572357177734375,-0.0514843389391899,-0.6928552389144897,-0.056799940764904,-0.0067498004063963,0.0,0.0,-0.3666044473648071,-0.6424146890640259
-0.0440316200256347,0.5565657615661621,-0.0552908591926097,-0.7018215656280518,-0.0563334114849567,0.0093304496258497,0.0,0.0,0.0538678169250488,-0.5175437927246094
-0.044560145586729,0.5410784482955933,-0.0538652949035167,-0.6882894039154053,-0.055333461612463,0.0199989788234233,0.0,0.0,-0.358259916305542,-0.0987325310707092
-0.0450651161372661,0.5253845453262329,-0.0509683415293693,-0.697489321231842,-0.0548701472580432,0.0092665618285536,0.0,0.0,0.2944153547286987,0.4165173768997192
-0.0454404838383197,0.510280191898346,-0.0378150343894958,-0.671294093132019,-0.0545979104936122,0.0054447720758616,0.0,0.0,-0.6928136348724365,-0.1586999297142028
-0.0457915291190147,0.4949692785739898,-0.0348230525851249,-0.680493950843811,-0.0548773258924484,-0.0055883144959807,0.0,0.0,0.099682331085205,-0.4395902156829834
