x_pos,y_pos,x_vel,y_vel,angle,ang_vel,leg_1,leg_2,main_booster,lat_booster
-0.001473331474699,1.4033098220825195,-0.1485382616519928,-0.3382368981838226,0.0010707348119467,0.0210701171308755,0.0,0.0,-0.1846979856491089,0.8880701065063477
-0.0028209686279296,1.3954038619995115,-0.1332102864980697,-0.3513809740543365,-0.000458825554233,-0.0305934809148311,0.0,0.0,-0.1952912807464599,0.2164095640182495
-0.0041186334565281,1.387182593345642,-0.127546027302742,-0.3653909265995025,-0.0026509235613048,-0.0438461787998676,0.0,0.0,-0.6310272812843323,-0.5290958285331726
-0.0054164887405931,1.3786451816558838,-0.1281665861606598,-0.379446804523468,-0.0042519401758909,-0.0320233479142189,0.0,0.0,-0.2995005846023559,0.7305475473403931
-0.0065953256562352,1.369794845581055,-0.113832376897335,-0.3933566212654114,-0.0082679828628897,-0.0803283303976059,0.0,0.0,0.2273652553558349,-0.1768561601638794
-0.0076201437041163,1.361234188079834,-0.0982459038496017,-0.3805004358291626,-0.0124540459364652,-0.0837290808558464,0.0,0.0,-0.1431643962860107,0.1693124771118164
-0.0085965152829885,1.3523592948913574,-0.0927455350756645,-0.3944933116436004,-0.0172976460307836,-0.0968808084726333,0.0,0.0,-0.1106452941894531,-0.0707314014434814
-0.0095251081511378,1.343170166015625,-0.0872951000928878,-0.4084801971912384,-0.0227958522737026,-0.1099745035171508,0.0,0.0,-0.1904328465461731,-0.1222835779190063
-0.0104063991457223,1.3336670398712158,-0.0818995535373687,-0.4224689900875091,-0.0289466921240091,-0.1230281591415405,0.0,0.0,-0.8548617959022522,-0.280794620513916
-0.0112407682463526,1.323850154876709,-0.0765634849667549,-0.4364591836929321,-0.0357477478682994,-0.1360335052013397,0.0,0.0,-0.2546968460083008,-0.4441910982131958
-0.0120289800688624,1.313719391822815,-0.0712919384241104,-0.4504505097866058,-0.0431963466107845,-0.1489858031272888,0.0,0.0,-0.7759431600570679,-0.8171327114105225
-0.0128285409882664,1.3032770156860352,-0.0732212215662002,-0.4643129408359527,-0.0498594529926776,-0.133274495601654,0.0,0.0,-0.1559104323387146,-0.8409287333488464
-0.0136350635439157,1.2925291061401367,-0.0745983719825744,-0.4778979420661926,-0.0558562390506267,-0.1199466437101364,0.0,0.0,-0.8193992972373962,-0.9168617129325868
-0.0144618991762399,1.2814643383026123,-0.0776139199733734,-0.4919704496860504,-0.0608821101486682,-0.1005264297127723,0.0,0.0,-0.6161698698997498,-0.9631640315055848
-0.0153034208342432,1.2701008319854736,-0.0799188837409019,-0.5052226185798645,-0.0650761052966117,-0.0838873982429504,0.0,0.0,-0.8149664998054504,-0.8268191814422607
-0.0161564834415912,1.2584187984466553,-0.0817990899085998,-0.5193549990653992,-0.0685598850250244,-0.0696817263960838,0.0,0.0,-0.5029228329658508,-0.9409898519515992
-0.0170252807438373,1.2464396953582764,-0.0841817110776901,-0.532531201839447,-0.0712254494428634,-0.0533157102763652,0.0,0.0,-0.2137373089790344,-0.8393494486808777
-0.0179048534482717,1.234144687652588,-0.0859230607748031,-0.5465376973152161,-0.0732408463954925,-0.040311612188816,0.0,0.0,-0.7664443254470825,-0.8854329586029053
-0.0188036914914846,1.221550703048706,-0.0887169390916824,-0.5597988367080688,-0.0743940994143486,-0.023067457601428,0.0,0.0,-0.125309407711029,-0.9551035165786744
-0.0197502132505178,1.2086513042449951,-0.0950469821691513,-0.5732780694961548,-0.0740050449967384,0.0077819973230361,0.0,0.0,-0.6898037195205688,-0.6635428667068481
-0.020701503381133,1.195447564125061,-0.095957800745964,-0.5867976546287537,-0.07317965477705,0.0165091026574373,0.0,0.0,-0.4797359704971313,-0.4287210702896118
-0.0216178894042968,1.1819294691085815,-0.091864950954914,-0.6007875800132751,-0.0729523375630378,0.0045469412580132,0.0,0.0,0.1715098619461059,-0.5175287127494812
-0.0224127769470214,1.1686677932739258,-0.0803789049386978,-0.58937007188797,-0.0720795392990112,0.01745749078691,0.0,0.0,-0.6945671439170837,-0.1718688011169433
-0.0231759063899517,1.155091643333435,-0.0765993148088455,-0.6033643484115601,-0.0717901512980461,0.0057884235866367,0.0,0.0,-0.8361487984657288,-0.7583399415016174
-0.0239824298769235,1.1412115097045898,-0.0822549983859062,-0.6168147325515747,-0.0702079534530639,0.0316467955708503,0.0,0.0,-0.9024261832237244,-0.3052996397018432
-0.024761389940977,1.1269960403442385,-0.0789239853620529,-0.6317561864852905,-0.069190889596939,0.0203416012227535,0.0,0.0,-0.0824859142303466,-0.6994882225990295
-0.0255681034177541,1.1124763488769531,-0.0825401023030281,-0.6452323794364929,-0.0673433318734169,0.0369509346783161,0.0,0.0,-0.6486759185791016,0.0374045372009277
-0.0263498313724994,1.0976426601409912,-0.0794868022203445,-0.6592204570770264,-0.0660393014550209,0.0260806623846292,0.0,0.0,-0.6196264624595642,-0.0551209449768066
-0.0271083824336528,1.0824947357177734,-0.0766370147466659,-0.6732081770896912,-0.0652670785784721,0.0154443709179759,0.0,0.0,0.2482131719589233,-0.782295286655426
-0.0279016494750976,1.0675890445709229,-0.0811382085084915,-0.6624051928520203,-0.0634766146540641,0.0358093902468681,0.0,0.0,-0.3999485373497009,0.3190218210220337
-0.0286758430302143,1.0523688793182373,-0.0787177383899688,-0.6763927936553955,-0.0621921233832836,0.0256896968930959,0.0,0.0,-0.2511094212532043,-0.1229457855224609
-0.0294330604374408,1.036834716796875,-0.0765219554305076,-0.6903801560401917,-0.0613994486629962,0.0158535744994878,0.0,0.0,-0.3842169046401977,0.1256866455078125
-0.0301754958927631,1.0209861993789673,-0.0745566710829734,-0.7043673396110535,-0.061083510518074,0.0063186772167682,0.0,0.0,0.0797291994094848,-0.0147751569747924
-0.0309324264526367,1.0051801204681396,-0.0753507316112518,-0.7025079131126404,-0.0614210739731788,-0.0067509138025343,0.0,0.0,0.0340192317962646,-0.7007155418395996
-0.0316983237862587,0.9896528720855712,-0.0772324949502945,-0.6900714039802551,-0.0607980191707611,0.0124609759077429,0.0,0.0,-0.5604433417320251,-0.2807583212852478
-0.0324563011527061,0.9738113880157472,-0.0759857520461082,-0.7040582895278931,-0.0606010593473911,0.0039391755126416,0.0,0.0,-0.5306323766708374,-0.5574325919151306
-0.0332542434334754,0.9576569199562072,-0.0807615965604782,-0.7179383635520935,-0.0596542097628116,0.0189370978623628,0.0,0.0,-0.596903383731842,-0.482972502708435
-0.0340486541390419,0.9411880373954772,-0.0800073891878128,-0.7319249510765076,-0.0590950325131416,0.0111835356801748,0.0,0.0,0.3588864803314209,-0.1381716728210449
-0.034833051264286,0.9254454970359802,-0.0784848555922508,-0.6996678709983826,-0.0590526312589645,0.0008479181560687,0.0,0.0,-0.7344589829444885,-0.526594877243042
-0.0356580726802349,0.909392774105072,-0.0831970870494842,-0.7134284377098083,-0.0583567954599857,0.0139164822176098,0.0,0.0,-0.4662730097770691,-0.0711889266967773
-0.0364860519766807,0.8930255770683289,-0.0831827074289321,-0.7274147868156433,-0.0579842291772365,0.0074513750150799,0.0,0.0,-0.3809372186660766,-0.6578111052513123
-0.0373608581721782,0.8763460516929626,-0.0886013209819793,-0.7412662506103516,-0.0568711794912815,0.0222609974443912,0.0,0.0,0.0854936838150024,0.0713934898376464
-0.0381676666438579,0.8596554398536682,-0.081823356449604,-0.7417682409286499,-0.0557389259338378,0.0226448215544223,0.0,0.0,-0.0595764517784118,0.2019587755203247
-0.0389841087162494,0.8426502346992493,-0.0825274214148521,-0.7557542324066162,-0.0548581108450889,0.0176162347197532,0.0,0.0,0.545407772064209,-0.7681918144226074
-0.0399001128971576,0.8257424235343933,-0.0937327221035957,-0.7513771057128906,-0.0527491010725498,0.0421801209449768,0.0,0.0,-0.0655426979064941,0.0894680023193359
-0.0408296585083007,0.8085203766822815,-0.0948928296566009,-0.7653629779815674,-0.0508402734994888,0.0381767526268959,0.0,0.0,0.684751033782959,0.0939327478408813
-0.0416895858943462,0.7916616797447205,-0.0880330651998519,-0.7492081522941589,-0.0488173700869083,0.0404578745365142,0.0,0.0,-0.5939299464225769,0.0604686737060546
-0.0425668731331825,0.7744885087013245,-0.0896247327327728,-0.763193666934967,-0.04694140329957,0.0375191941857337,0.0,0.0,0.3795435428619385,-0.3921241164207458
-0.0435430519282817,0.7579945921897888,-0.0988791361451149,-0.733023464679718,-0.0456976853311061,0.0248742513358593,0.0,0.0,-0.2482891082763672,0.0603542327880859
-0.0445401184260845,0.7411860823631287,-0.1008741483092308,-0.7470085024833679,-0.0445464551448822,0.0230247192084789,0.0,0.0,0.318623423576355,-0.372322678565979
-0.0454249382019043,0.7247384786605835,-0.0901268571615219,-0.7309626936912537,-0.0429306402802467,0.0323162451386451,0.0,0.0,-0.2435657978057861,0.2603546380996704
-0.0463339798152446,0.7079761624336243,-0.0924946442246437,-0.7449476718902588,-0.0413524433970451,0.0315639749169349,0.0,0.0,-0.3000826835632324,0.1956119537353515
-0.0472683906555175,0.690899133682251,-0.0950369164347648,-0.7589324712753296,-0.0397845394909381,0.0313581638038158,0.0,0.0,0.2446591854095459,-0.4054099917411804
-0.0482034683227539,0.6744080781936646,-0.0951241627335548,-0.7328916788101196,-0.0381886251270771,0.031918354332447,0.0,0.0,-0.0811712741851806,0.3569233417510986
-0.0491667762398719,0.6576025485992432,-0.0979914218187332,-0.7468763589859009,-0.0365490950644016,0.0327908620238304,0.0,0.0,0.0566446781158447,0.3837816715240478
-0.0502095222473144,0.6409372687339783,-0.1057279929518699,-0.7406418323516846,-0.0351221971213817,0.0285379104316234,0.0,0.0,0.455935001373291,0.1907256841659546
-0.0511754974722862,0.6250059008598328,-0.0985278487205505,-0.7080172896385193,-0.0332160554826259,0.0381229482591152,0.0,0.0,-0.4903737306594848,0.7814235687255859
-0.0520971305668354,0.608759343624115,-0.0922842174768447,-0.7220720052719116,-0.0330988280475139,0.0023441675584763,0.0,0.0,0.4141035079956054,0.7237365245819092
-0.0528998374938964,0.5932554602622986,-0.0791904106736183,-0.6890828609466553,-0.0341571234166622,-0.0211657993495464,0.0,0.0,-0.2993741035461426,0.3496439456939697
-0.053736113011837,0.5774369239807129,-0.0827341303229332,-0.7030670642852783,-0.0350454300642013,-0.0177661441266536,0.0,0.0,-0.4151060581207275,0.227518081665039
-0.0546071045100688,0.5613036155700684,-0.0863912031054496,-0.7170511484146118,-0.0357405133545398,-0.0139016108587384,0.0,0.0,0.736467719078064,0.3858230113983154
-0.0555924400687217,0.545966386795044,-0.0975572019815445,-0.6816784739494324,-0.0367074012756347,-0.0193377528339624,0.0,0.0,-0.2800993919372558,0.5701682567596436
-0.0565597526729106,0.5303099155426025,-0.0946061164140701,-0.6958933472633362,-0.0388040654361248,-0.0419329553842544,0.0,0.0,0.7556076049804688,0.8387899398803711
-0.0574447624385356,0.5153109431266785,-0.0849977880716323,-0.666718065738678,-0.0422605648636817,-0.0691303983330726,0.0,0.0,-0.3160055875778198,0.3441282510757446
-0.0583673492074012,0.4999972581863403,-0.089042991399765,-0.6807026267051697,-0.0454391576349735,-0.0635719671845436,0.0,0.0,0.7410917282104492,0.614809513092041
-0.0593915954232215,0.485308825969696,-0.0979145467281341,-0.652961790561676,-0.0498960427939891,-0.0891375988721847,0.0,0.0,-0.029093325138092,0.8594039678573608
-0.0603839866816997,0.470310628414154,-0.0932579934597015,-0.6667956709861755,-0.0558071993291378,-0.1182233318686485,0.0,0.0,-0.0663927197456359,0.1342003345489502
-0.0614157691597938,0.4549980759620666,-0.0975331217050552,-0.6807816028594971,-0.0613861307501792,-0.1115784645080566,0.0,0.0,0.8711521625518799,0.215457797050476
-0.0623974800109863,0.4408156275749206,-0.0930274724960327,-0.6305512189865112,-0.0664748102426529,-0.101773664355278,0.0,0.0,-0.296496033668518,0.7077463865280151
-0.0633725151419639,0.4263108074665069,-0.0915273427963256,-0.6449354887008667,-0.072389043867588,-0.1182847395539283,0.0,0.0,0.9348430633544922,0.2707476615905761
-0.0644381493330001,0.4126894176006317,-0.1004726439714431,-0.6056992411613464,-0.0784220173954963,-0.1206592917442321,0.0,0.0,-0.6936337947845459,0.8127689361572266
-0.065477468073368,0.3987472057342529,-0.0965201929211616,-0.6200596690177917,-0.0857636407017707,-0.1468325108289718,0.0,0.0,-0.2175801396369934,0.4142158031463623
-0.066558264195919,0.3844906091690063,-0.1010816469788551,-0.6340458393096924,-0.0926997438073158,-0.1387221962213516,0.0,0.0,0.4032778739929199,0.348697304725647
-0.0675733536481857,0.3706432580947876,-0.0952227339148521,-0.6158395409584045,-0.0989293679594993,-0.1245926618576049,0.0,0.0,0.6937777996063232,0.5826092958450317
-0.0685823410749435,0.3570739924907684,-0.0937817469239234,-0.6035686135292053,-0.1059877797961235,-0.1411682963371276,0.0,0.0,0.7549588680267334,-0.2139705419540405
-0.0695252418518066,0.3436934947967529,-0.0879659280180931,-0.595148503780365,-0.1122720316052436,-0.1256849914789199,0.0,0.0,0.4210754632949829,-0.9384815096855164
-0.0705835372209549,0.3304416537284851,-0.1018027290701866,-0.5892783403396606,-0.116265058517456,-0.0798608660697937,0.0,0.0,0.8020994663238525,0.0838000774383544
-0.0715932846069336,0.3181652128696441,-0.0973763540387153,-0.545902669429779,-0.1198408007621765,-0.071515217423439,0.0,0.0,0.2040666341781616,0.0130243301391601
-0.0725170150399208,0.3064484596252441,-0.08952297270298,-0.5209758877754211,-0.1226783767342567,-0.056751362979412,0.0,0.0,-0.8596730828285217,0.3149092197418213
-0.0734840407967567,0.2944163680076599,-0.0943240970373153,-0.5349563360214233,-0.1250394433736801,-0.0472213365137577,0.0,0.0,0.5813074111938477,-0.3893088698387146
-0.0745777115225792,0.2825639247894287,-0.106903851032257,-0.5269849300384521,-0.1274892091751098,-0.0489953905344009,0.0,0.0,-0.8205632567405701,0.2059444189071655
-0.0757148712873458,0.2703959941864013,-0.1117458939552307,-0.5409647822380066,-0.129447802901268,-0.0391717478632926,0.0,0.0,-0.0089282393455505,0.7436562776565552
-0.0768470764160156,0.257903128862381,-0.1105136647820472,-0.5554755926132202,-0.1321440637111663,-0.0539250150322914,0.0,0.0,0.7678321599960327,-0.0180009007453918
-0.077985480427742,0.2461848109960556,-0.1113694682717323,-0.5210335850715637,-0.1346077620983123,-0.049273557960987,0.0,0.0,0.7158331871032715,-0.4623552560806274
-0.0790824890136718,0.2352330237627029,-0.1076779812574386,-0.4869299530982971,-0.1366193741559982,-0.0402321740984916,0.0,0.0,-0.4247946739196777,-0.4833418130874634
-0.0802231803536415,0.2239657491445541,-0.112570583820343,-0.5009090304374695,-0.1381163448095321,-0.0299396514892578,0.0,0.0,-0.0885669589042663,0.8990728855133057
-0.0813353508710861,0.2123588621616363,-0.1083588153123855,-0.5161296129226685,-0.1409659087657928,-0.0569912195205688,0.0,0.0,0.3846642971038818,-0.487735390663147
-0.082366943359375,0.2009212076663971,-0.1011828556656837,-0.5085287690162659,-0.1429321318864822,-0.039324440062046,0.0,0.0,0.8560582399368286,0.0543239116668701
-0.0831872969865799,0.1900850087404251,-0.0813541263341903,-0.4816710650920868,-0.1436061412096023,-0.0134798120707273,0.0,0.0,0.8215504884719849,-0.0264061689376831
-0.0838369354605674,0.1795457899570465,-0.0655359253287315,-0.4683566391468048,-0.1430379748344421,0.0113634131848812,0.0,0.0,0.2760188579559326,0.1203507184982299
-0.0844518691301345,0.1695532351732254,-0.062578335404396,-0.4440080523490906,-0.1419556587934494,0.0216463562101125,0.0,0.0,0.1019110679626464,0.3878436088562011
-0.0850183516740799,0.1599919945001602,-0.0583696141839027,-0.4247830510139465,-0.1402405947446823,0.0343013778328895,0.0,0.0,0.1423033475875854,-0.2058205604553222
-0.085478588938713,0.1507820636034011,-0.048685498535633,-0.4090804755687713,-0.1375873982906341,0.0530638322234153,0.0,0.0,-0.5538274049758911,-0.599338710308075
-0.0860219001770019,0.1412585824728012,-0.0585331544280052,-0.4228840172290802,-0.1333981901407241,0.083784319460392,0.0,0.0,0.4549891948699951,0.6809862852096558
-0.0865461379289627,0.132083922624588,-0.0557090118527412,-0.407473623752594,-0.1301218420267105,0.0655269920825958,0.0,0.0,0.7923948764801025,0.6971344947814941
-0.0868377685546875,0.1239640563726425,-0.0318391919136047,-0.3606517910957336,-0.1274594664573669,0.0532474890351295,0.0,0.0,-0.3919718265533447,-0.8286571502685547
-0.0872399359941482,0.1155414879322052,-0.0451620183885097,-0.3739196360111236,-0.1225314289331436,0.0985605269670486,0.0,0.0,0.5094312429428101,0.6204849481582642
-0.0876695662736892,0.1079050600528717,-0.0469584390521049,-0.3390763998031616,-0.1185615956783294,0.0793966054916381,0.0,0.0,-0.0292644500732421,0.4078110456466675
-0.0881417244672775,0.0999532788991928,-0.0517634227871894,-0.3530568480491638,-0.1140429750084877,0.0903721153736114,0.0,0.0,0.8698689937591553,0.8977560997009277
-0.0885549560189247,0.0929574370384216,-0.0444992743432521,-0.3106869757175445,-0.1108847856521606,0.0631638020277023,0.0,0.0,0.4839514493942261,0.9677398204803468
-0.0889433845877647,0.0866571739315986,-0.0405621044337749,-0.2798871397972107,-0.1091834083199501,0.0340276136994361,0.0,0.0,0.1444603204727172,0.8870975971221924
-0.089286521077156,0.0805446729063987,-0.0347925536334514,-0.2716318368911743,-0.1087098270654678,0.0094717191532254,0.0,0.0,0.1909821033477783,0.8591651916503906
-0.0896532088518142,0.0747687667608261,-0.0359141305088996,-0.2567595541477203,-0.1094574332237243,-0.0149522926658391,0.0,0.0,0.4299963712692261,0.8768520355224609
-0.0900894179940223,0.0693642199039459,-0.0414936579763889,-0.2403569370508194,-0.1115716025233268,-0.0422834940254688,0.0,0.0,0.0996830463409423,0.990607500076294
-0.0903511047363281,0.0643361210823059,-0.0225870572030544,-0.2237458676099777,-0.1151332333683967,-0.0712326690554618,0.0,0.0,-0.0291693210601806,-0.2137304544448852
-0.0906533226370811,0.0589926578104496,-0.027189165353775,-0.2377262711524963,-0.1181478425860405,-0.0602924451231956,0.0,0.0,0.4177225828170776,0.9854624271392822
-0.0906982421875,0.0542774759232997,-0.000133696681587,-0.2099142223596573,-0.1224782913923263,-0.0866089016199112,0.0,0.0,-0.0998297929763794,0.5581398010253906
-0.0907403007149696,0.049243863672018,0.0006733966292813,-0.2241242378950119,-0.1273344457149505,-0.0971229672431945,0.0,0.0,0.5594136714935303,-0.4455989599227905
-0.090585708618164,0.0450692735612392,0.0191720370203256,-0.1858576089143753,-0.1310250610113144,-0.0738123208284378,0.0,0.0,0.1964870691299438,0.5528329610824585
-0.0903115272521972,0.0411831475794315,0.0315785482525825,-0.1730888038873672,-0.135163813829422,-0.0827751755714416,0.0,0.0,0.086230993270874,-0.6381252408027649
-0.0900580435991287,0.0377969853579998,0.0276843067258596,-0.1507099419832229,-0.1374929547309875,-0.0465827956795692,0.0,0.0,0.0170041322708129,-0.1954555511474609
-0.0897390395402908,0.0348079316318035,0.0335229635238647,-0.1329989433288574,-0.1391136199235916,-0.0324135869741439,0.0,0.0,0.0494450330734252,-0.2052823305130005
-0.0893664360046386,0.0319252349436283,0.0381137877702713,-0.1282008439302444,-0.1399645954370498,-0.0170194339007139,0.0,0.0,-0.3210039138793945,0.2462157011032104
-0.0890306457877159,0.0287268981337547,0.0338905081152915,-0.1421793103218078,-0.1402856558561325,-0.0064211124554276,0.0,0.0,0.0540430545806884,-0.3764472007751465
-0.0887665748596191,0.0257178880274295,0.0265902616083621,-0.1337511390447616,-0.1404588669538498,-0.0034642200917005,0.0,0.0,0.3972425460815429,0.7342967987060547
-0.0884341225028038,0.023092970252037,0.0344032049179077,-0.1167720779776573,-0.1416086852550506,-0.0229964517056942,0.0,0.0,0.1869732141494751,0.6842422485351562
-0.0880085006356239,0.0207044463604688,0.0445412918925285,-0.1063460335135459,-0.1435803323984146,-0.039433054625988,0.0,0.0,-0.0869135856628418,0.2741976976394653
-0.0876173973083496,0.018000278621912,0.0405701547861099,-0.120324783027172,-0.1450367420911789,-0.029128074645996,0.0,0.0,0.182409405708313,-0.1085637807846069
-0.0871204361319542,0.0156917199492454,0.0503221079707145,-0.1026621535420417,-0.1456595212221145,-0.0124556701630353,0.0,0.0,-0.3215967416763305,-0.4224170446395874
-0.0865781754255294,0.013774761930108,0.0374392494559288,-0.0836667194962501,-0.1288700997829437,0.3358761370182037,1.0,0.0,0.346615195274353,0.0615320205688476
