x_pos,y_pos,x_vel,y_vel,angle,ang_vel,leg_1,leg_2,main_booster,lat_booster
-0.0015140533214434,1.4029872417449951,-0.1536091268062591,-0.3525722324848175,0.0019804239273071,0.0390817448496818,0.0,0.0,0.4483313329325227,0.8994578645174465
-0.0028964995872229,1.395042896270752,-0.1386858820915222,-0.3530841469764709,0.0024129771627485,0.0086527541279792,0.0,0.0,0.8979498551767047,0.7647277831575003
-0.0040427208878099,1.387152075767517,-0.1141523122787475,-0.3507027924060821,0.0019495853921398,-0.0092686163261532,0.0,0.0,-0.9759473780183592,0.6182414910689401
-0.0051390649750828,1.3786219358444214,-0.1083865538239479,-0.3791148066520691,0.0007184513378888,-0.0246251337230205,0.0,0.0,0.0137896894363935,0.6969651375896954
-0.0060788155533373,1.370057225227356,-0.0916421562433242,-0.380652904510498,-0.0015928596258163,-0.0462307073175907,0.0,0.0,-0.2980430885543388,-0.981587863521229
-0.0070669176056981,1.360853910446167,-0.0982140526175499,-0.4090350270271301,-0.0021885139867663,-0.0119139784947037,0.0,0.0,-0.2965442868088379,-0.6914399877166746
-0.0081002237275242,1.3510136604309082,-0.1043766513466835,-0.4373443722724914,-0.0011509888572618,0.0207523107528686,0.0,0.0,-0.399973242932149,0.8861791637423685
-0.0090351104736328,1.3405386209487915,-0.0925385504961013,-0.4655603170394897,-0.0020889078732579,-0.0187600851058959,0.0,0.0,0.5761837156984775,-0.9191150993422936
-0.0100421905517578,1.3306339979171753,-0.1018028706312179,-0.4402005076408386,-0.0010094718309119,0.0215906910598278,0.0,0.0,-0.4595953352611466,-0.8494263355309073
-0.0111051555722951,1.3200974464416504,-0.1092984080314636,-0.4682912230491638,0.0019675721414387,0.0595462135970592,0.0,0.0,-0.9163111801299452,-0.8636947435746816
-0.0122153284028172,1.308924436569214,-0.1157268434762954,-0.4965915083885193,0.0066246693022549,0.0931503549218177,0.0,0.0,-0.4249506891460219,-0.8910930279093082
-0.0133767127990722,1.297112226486206,-0.1226397901773452,-0.525031328201294,0.0130539089441299,0.1285962909460067,0.0,0.0,-0.3259994880591192,0.8437661283103901
-0.0144468303769826,1.2846691608428955,-0.1116638332605362,-0.5530765056610107,0.0176612921059131,0.0921564027667045,0.0,0.0,0.7423765502001827,-0.8800791430460358
-0.0155017850920557,1.2721431255340576,-0.112284816801548,-0.5568085312843323,0.0243726950138807,0.134240061044693,0.0,0.0,-0.6510613170842234,-0.74342924877516
-0.0165921207517385,1.2589867115020752,-0.1171743720769882,-0.5848888158798218,0.0324245616793632,0.1610521972179412,0.0,0.0,0.662250391642653,-0.8617243778009371
-0.0176280979067087,1.245634913444519,-0.1138896569609642,-0.5936598181724548,0.0426080375909805,0.203688234090805,0.0,0.0,0.2686529373062674,0.7167130198161471
-0.0185084342956542,1.2326512336730957,-0.0972778052091598,-0.5773370265960693,0.0517501272261142,0.1828587353229522,0.0,0.0,0.3175136951425956,0.8518913600901117
-0.0191994663327932,1.219486951828003,-0.0769781023263931,-0.5853676199913025,0.0595471300184726,0.1559539884328842,0.0,0.0,-0.6975009522690772,-0.7162597896490208
-0.0199307445436716,1.2056891918182373,-0.0824166387319564,-0.6136323809623718,0.0687492117285728,0.1840583980083465,0.0,0.0,-0.6572718571583478,-0.714231909916865
-0.0207192413508892,1.191248655319214,-0.0899685323238372,-0.6423448920249939,0.0797728970646858,0.2204935252666473,0.0,0.0,-0.029190756691386,-0.6392034118760621
-0.0215419773012399,1.1761728525161743,-0.094601847231388,-0.6707384586334229,0.092008888721466,0.244741752743721,0.0,0.0,0.947267992201724,0.945697216377873
-0.0223177913576364,1.161247730255127,-0.0882441848516464,-0.6640264391899109,0.1026022657752037,0.2118866890668869,0.0,0.0,-0.120063988182266,0.7416261068259721
-0.0230185501277446,1.145696759223938,-0.079143114387989,-0.6918023228645325,0.1116119548678398,0.1802095621824264,0.0,0.0,0.0170273268109284,0.764412786454776
-0.0236271861940622,1.1298060417175293,-0.0686307176947593,-0.7068429589271545,0.1193352043628692,0.154479369521141,0.0,0.0,0.7427321224107108,0.9466906004152552
-0.0244068149477243,1.1142762899398804,-0.0837774574756622,-0.6906866431236267,0.1251306533813476,0.1159195154905319,0.0,0.0,0.9937657710644175,0.816152908095463
-0.0254158023744821,1.0993337631225586,-0.1048769578337669,-0.6644546985626221,0.1290877163410186,0.0791411772370338,0.0,0.0,0.710515003718297,-0.6886970755428828
-0.0265717506408691,1.0848678350448608,-0.1211615651845932,-0.6434155106544495,0.1346400082111358,0.1110454425215721,0.0,0.0,-0.5308562065733249,0.924112106303969
-0.0276729576289653,1.0697866678237915,-0.1144503951072692,-0.6706749200820923,0.1389537751674652,0.0862753987312316,0.0,0.0,0.5767444928279744,-0.9706883505711512
-0.0290955547243356,1.0551297664642334,-0.148584246635437,-0.652016818523407,0.1452593058347702,0.1261107623577118,0.0,0.0,-0.0339564463854893,-0.6423416529258411
-0.0305736549198627,1.039823055267334,-0.1556778848171234,-0.6810864806175232,0.1531063467264175,0.1569408625364303,0.0,0.0,-0.2331705397206758,0.6511366557182195
-0.0320054069161415,1.0238995552062988,-0.1498856246471405,-0.7084139585494995,0.1598166227340698,0.134205088019371,0.0,0.0,0.0666859565869122,-0.6746646055819108
-0.0335973724722862,1.007728934288025,-0.1674088835716247,-0.7196013927459717,0.1680316776037216,0.1643008291721344,0.0,0.0,0.2314782366955379,-0.8043099948062333
-0.0354302413761615,0.9917802214622498,-0.1932375580072403,-0.7099922299385071,0.177998661994934,0.1993396133184433,0.0,0.0,-0.2556420330359812,0.8075609509541795
-0.037215806543827,0.9752036929130554,-0.1872616410255432,-0.737798273563385,0.186730682849884,0.1746404469013214,0.0,0.0,-0.1452298528053603,-0.9457858613659456
-0.0390844345092773,0.9579736590385436,-0.1975930631160736,-0.7671730518341064,0.1975151747465133,0.215689942240715,0.0,0.0,0.0191286970918622,-0.7807452008776502
-0.0411062240600585,0.9407861828804016,-0.214636281132698,-0.7655960321426392,0.2100743800401687,0.2511844038963318,0.0,0.0,-0.24893657815594,-0.9689626670909582
-0.0432201400399208,0.9229348301887512,-0.2260431349277496,-0.7955448031425476,0.22487573325634,0.2960271835327148,0.0,0.0,-0.3874998502827609,-0.903202326168864
-0.04541702196002,0.904434621334076,-0.2361588478088379,-0.8248347640037537,0.2415791600942611,0.3340684771537781,0.0,0.0,-0.0066577593609706,-0.8411826665994566
-0.0477028861641883,0.885285496711731,-0.2469414174556732,-0.8541980981826782,0.2602847814559936,0.3741119503974914,0.0,0.0,0.2398348220630772,-0.8162687209493966
-0.0501656532287597,0.8661515116691589,-0.26637664437294,-0.8540980815887451,0.2808605432510376,0.4115149974822998,0.0,0.0,0.5668671225837965,0.9508516539916968
-0.0528954491019248,0.8474414348602295,-0.291136085987091,-0.8351613879203796,0.2995693683624267,0.3741769790649414,0.0,0.0,0.796186089515686,0.9836386442184448
-0.0555996894836425,0.8290132880210876,-0.2869376242160797,-0.8225225806236267,0.3166840672492981,0.34229376912117,0.0,0.0,0.6354930400848389,0.991793155670166
-0.0582466125488281,0.8104715943336487,-0.2794981896877289,-0.827387273311615,0.3320976495742798,0.3082710802555084,0.0,0.0,0.395410418510437,0.9639899730682372
-0.0609037391841411,0.7920116782188416,-0.2787978053092956,-0.823512613773346,0.3457938432693481,0.2739241123199463,0.0,0.0,0.0512833595275878,0.853806734085083
-0.0636170357465744,0.7731910347938538,-0.2828757166862488,-0.8392924666404724,0.357935756444931,0.2428382635116577,0.0,0.0,0.64802086353302,0.9600307941436768
-0.066357135772705,0.7542616724967957,-0.2838821113109588,-0.8438056707382202,0.3683611154556274,0.2085068523883819,0.0,0.0,0.6253411769866943,0.9854004383087158
-0.069151684641838,0.7353855967521667,-0.2876380383968353,-0.8410575985908508,0.3770156800746918,0.1730910390615463,0.0,0.0,0.5127980709075928,0.9824256896972656
-0.0723025351762771,0.7169264554977417,-0.3213765621185303,-0.8220874667167664,0.3837077021598816,0.1338403224945068,0.0,0.0,0.10992431640625,0.4786500930786133
-0.0757710486650466,0.698517918586731,-0.3529017865657806,-0.8198041319847107,0.3901551961898803,0.1289496719837188,0.0,0.0,-0.3543431758880615,0.8060406446456909
-0.0792212486267089,0.6795058250427246,-0.3497057855129242,-0.8462685346603394,0.3951623141765594,0.100142702460289,0.0,0.0,-0.2645018100738525,-0.0213019251823425
-0.0827119797468185,0.6598579287528992,-0.3539013564586639,-0.8745957612991333,0.400326132774353,0.1032765731215477,0.0,0.0,-0.2385435104370117,0.8197509050369263
-0.0861930847167968,0.6396127343177795,-0.3516328930854797,-0.9007842540740968,0.4040997624397278,0.0754726976156234,0.0,0.0,-0.2462592124938964,0.8675980567932129
-0.0896432846784591,0.6187741756439209,-0.3466950356960296,-0.9266369938850404,0.405901700258255,0.0360384173691272,0.0,0.0,0.0342825651168823,0.920522689819336
-0.0932704955339431,0.5980393290519714,-0.3627412915229797,-0.9215561747550964,0.4059222340583801,0.0004107149725314,0.0,0.0,-0.00859135389328,0.9826329946517944
-0.0968563109636306,0.5767216086387634,-0.35635906457901,-0.9468244910240172,0.4035387933254242,-0.0476690754294395,0.0,0.0,0.2424635887145996,0.9974075555801392
-0.1006353348493576,0.5552486181259155,-0.3738648295402527,-0.9532137513160706,0.3992132544517517,-0.0865106433629989,0.0,0.0,0.0828192234039306,0.9966484308242798
-0.1045311912894249,0.5339582562446594,-0.3836862742900848,-0.9445878863334656,0.3928908407688141,-0.1264483034610748,0.0,0.0,0.294420838356018,0.9380607604980468
-0.1085003837943077,0.5128816962242126,-0.3893151879310608,-0.9346581101417542,0.3847861289978027,-0.162094235420227,0.0,0.0,0.5951662063598633,0.919203281402588
-0.112683393061161,0.492369681596756,-0.4090657830238342,-0.9091835021972656,0.374967098236084,-0.1963808685541153,0.0,0.0,0.146065354347229,0.7997314929962158
-0.1171228438615799,0.471990704536438,-0.4331482946872711,-0.902944028377533,0.363542377948761,-0.228494256734848,0.0,0.0,0.2688641548156738,0.802538275718689
-0.1216195076704025,0.4514263868331909,-0.4373833537101745,-0.910905122756958,0.350594699382782,-0.2589538693428039,0.0,0.0,0.6433768272399902,0.8002897500991821
-0.1264615058898925,0.4311900734901428,-0.4701669216156006,-0.8960409164428711,0.3358792960643768,-0.294308453798294,0.0,0.0,-0.0387814044952392,0.706601619720459
-0.1313017904758453,0.4103513062000274,-0.4683062434196472,-0.9225954413414,0.3194802701473236,-0.3279803991317749,0.0,0.0,0.9009770154953004,0.1919968128204345
-0.1364011764526367,0.3898960649967193,-0.4943059086799621,-0.9057579040527344,0.3032528460025787,-0.3245486319065094,0.0,0.0,0.3325241804122925,-0.1725229024887085
-0.1416560113430023,0.3692727386951446,-0.5098265409469604,-0.9134098887443542,0.2870904505252838,-0.3232481777667999,0.0,0.0,0.7940692901611328,-0.5159683227539062
-0.1473346650600433,0.3488611280918121,-0.5527901649475098,-0.9042889475822448,0.2715944945812225,-0.3099191784858703,0.0,0.0,0.99212646484375,-0.6126368641853333
-0.1533789634704589,0.3293049037456512,-0.5905722379684448,-0.866657555103302,0.2574236392974853,-0.2834170460700989,0.0,0.0,0.9378461837768556,-0.8556438088417053
-0.1595406532287597,0.3096160590648651,-0.6041773557662964,-0.8730075359344482,0.2452065199613571,-0.244342640042305,0.0,0.0,0.5976383686065674,-0.9141109585762024
-0.1660157144069671,0.2904874682426452,-0.6373198628425598,-0.848494827747345,0.2348585873842239,-0.2069589346647262,0.0,0.0,0.8104972839355469,-0.8862243890762329
-0.1728605329990387,0.2714115381240845,-0.6758403182029724,-0.8464618921279907,0.2260876446962356,-0.1754188537597656,0.0,0.0,0.3716669082641601,-0.8805488348007202
-0.1800563782453537,0.2524720430374145,-0.7125593423843384,-0.8406963348388672,0.218979999423027,-0.1421525329351425,0.0,0.0,0.2242956161499023,-0.7170596718788147
-0.1874557435512542,0.2335622608661651,-0.7343338131904602,-0.8396139144897461,0.213311105966568,-0.1133774667978286,0.0,0.0,0.826235294342041,-0.604049026966095
-0.1953235566616058,0.215327039361,-0.7819305062294006,-0.8097606897354126,0.2084089368581771,-0.0980432778596878,0.0,0.0,0.8456699848175049,-0.2395070791244506
-0.2033196985721588,0.1974269747734069,-0.7950742840766907,-0.7949252724647522,0.2038325518369674,-0.0915275812149047,0.0,0.0,0.9712533950805664,0.4770321846008301
-0.2115257233381271,0.1795631051063537,-0.8158144950866699,-0.793298602104187,0.1990076452493667,-0.0964985564351081,0.0,0.0,0.9662797451019288,0.760340690612793
-0.2197392433881759,0.1616670489311218,-0.8151803016662598,-0.7945628762245178,0.1927919536828994,-0.1243140920996666,0.0,0.0,0.9774779081344604,0.8665943145751953
-0.2280808985233307,0.1437315791845321,-0.8260906934738159,-0.7960978150367737,0.1846800595521927,-0.1622379869222641,0.0,0.0,0.9783244132995604,0.6898540258407593
-0.2366335391998291,0.1265784651041031,-0.8456796407699585,-0.761195957660675,0.1750670969486236,-0.1922591924667358,0.0,0.0,0.9857381582260132,0.7714242935180664
-0.2452746331691742,0.1102883666753768,-0.8531146049499512,-0.7227449417114258,0.1640497893095016,-0.2203460186719894,0.0,0.0,0.9978454113006592,0.8111257553100586
-0.2542409002780914,0.0948129519820213,-0.8835490345954895,-0.6864044070243835,0.1509793549776077,-0.2614091038703918,0.0,0.0,0.9957791566848756,0.7518496513366699
-0.2634560167789459,0.0792637169361114,-0.9063968658447266,-0.6896128058433533,0.1359043270349502,-0.3015004694461822,0.0,1.0,0.843037486076355,0.9999680519104004
-0.2722736001014709,0.0655428990721702,-0.8492439985275269,-0.6074102520942688,0.1023807078599929,-0.6720214486122131,0.0,1.0,0.981681227684021,0.9963886737823486
-0.2811936736106872,0.0530507415533065,-0.8362764120101929,-0.552353024482727,0.048133760690689,-1.083756685256958,0.0,1.0,0.9958512783050536,0.2551857233047485
-0.2903354167938232,0.0413855649530887,-0.8516085743904114,-0.5176481604576111,-0.0136869261041283,-1.2364680767059326,0.0,1.0,0.986268162727356,0.0187007188796997
-0.2993732988834381,0.0311206430196762,-0.8243199586868286,-0.459295392036438,-0.0938697233796119,-1.6056334972381592,0.0,1.0,0.976804256439209,-0.4576171636581421
-0.3082629740238189,0.0219487771391868,-0.7900336384773254,-0.4169603884220123,-0.1925374865531921,-1.9733740091323853,1.0,0.0,0.9999948740005492,-0.999992609024048
-0.3168195784091949,0.0148959252983331,-0.7251898646354675,-0.3185156583786011,-0.3091455101966858,-2.463578939437866,1.0,0.0,0.9999948740005492,-0.999992609024048
