x_pos,y_pos,x_vel,y_vel,angle,ang_vel,leg_1,leg_2,main_booster,lat_booster
-0.0015857696998864,1.40351140499115,-0.1609362214803695,-0.3292759358882904,0.0021043145097792,0.0415349453687667,0.0,0.0,-0.0362124374954051,0.6956000949727557
-0.0031749724876135,1.3960096836090088,-0.1597585380077362,-0.3334139287471771,0.0029395867604762,0.0167078487575054,0.0,0.0,0.841082422297522,-0.8763747796343345
-0.004732608795166,1.389063835144043,-0.1589538156986236,-0.3087176978588104,0.0061028809286653,0.0632718652486801,0.0,0.0,0.0821142892593487,-0.887744116157337
-0.0065159797668457,1.3824913501739502,-0.1835306733846664,-0.2921381890773773,0.0112415635958313,0.1027831584215164,0.0,0.0,0.2572228261400373,0.8044680575117933
-0.0081920623779296,1.3765560388565063,-0.171555608510971,-0.2638326287269592,0.0151515137404203,0.0782060772180557,0.0,0.0,0.1082866746493034,0.8637516626613675
-0.0097597120329737,1.3710566759109497,-0.1592775285243988,-0.2444388419389724,0.0176218654960393,0.0494118742644786,0.0,0.0,0.0193038492350718,0.8378527659971204
-0.0113456724211573,1.3659801483154297,-0.1596164256334304,-0.2256398499011993,0.0186304673552513,0.0201739910989999,0.0,0.0,0.8175715330680178,-0.6203707948935095
-0.01287841796875,1.3618632555007937,-0.1562022268772125,-0.1830083578824997,0.0215309187769889,0.0580142810940742,0.0,0.0,0.4322024241538573,0.653756871156906
-0.0144476890563964,1.358729600906372,-0.1586891561746597,-0.1392984539270401,0.0232758503407239,0.0349017344415187,0.0,0.0,0.5620411275941468,0.7154157284153161
-0.0160377509891986,1.3565192222595217,-0.1594917625188827,-0.0982493162155151,0.0237488467246294,0.0094610210508108,0.0,0.0,0.1299995990256615,0.6467831964887262
-0.0175803191959857,1.3548099994659424,-0.1536596864461898,-0.0759552419185638,0.0231639444828033,-0.0116988588124513,0.0,0.0,0.3590782180795417,0.7670907371798482
-0.0190665237605571,1.353642225265503,-0.1467015296220779,-0.051873467862606,0.021263001486659,-0.0380226448178291,0.0,0.0,-0.6185054459108517,0.6161139304505246
-0.020552635192871,1.3523664474487305,-0.1452685594558715,-0.056657139211893,0.0179633740335702,-0.0659985765814781,0.0,0.0,0.5027401087332786,0.6305094324902191
-0.0219843871891498,1.3514597415924072,-0.1387964785099029,-0.0402549691498279,0.0136331869289278,-0.086611583828926,0.0,0.0,-0.0167960934357311,-0.8777788633070596
-0.0235267635434865,1.3504478931427002,-0.1512579023838043,-0.0449426658451557,0.0106810452416539,-0.059048406779766,0.0,0.0,-0.5703237754114705,0.7193758595225224
-0.0250589363276958,1.349315881729126,-0.1485468000173568,-0.0502826124429702,0.0060646263882517,-0.0923365801572799,0.0,0.0,-0.1066474506850214,0.8393271921320937
-0.0265657417476177,1.3480818271636963,-0.143945425748825,-0.0548339858651161,-0.0005958850379101,-0.1332224011421203,0.0,0.0,0.1799303502250442,-0.9401278379522486
-0.0280825607478618,1.3471283912658691,-0.1468437910079956,-0.0423796810209751,-0.0053737270645797,-0.0955656021833419,0.0,0.0,0.6133919226054938,0.979825145093375
-0.0294646266847848,1.3472459316253662,-0.1314935833215713,0.0051883487030863,-0.012009491212666,-0.1327270567417144,0.0,0.0,-0.9565362282749668,-0.7965446198912061
-0.0309712402522563,1.3472516536712646,-0.1457032263278961,0.0002056639350485,-0.0169132035225629,-0.0980831459164619,0.0,0.0,0.5244280653419471,-0.6657173774793226
-0.0324419029057025,1.3481881618499756,-0.1436434090137481,0.0415750741958618,-0.0203099455684423,-0.0679409354925155,0.0,0.0,0.8421932859104604,0.7745087081317714
-0.0338782295584678,1.3497447967529297,-0.1385720670223236,0.0691069439053535,-0.0253202263265848,-0.1002143770456314,0.0,0.0,-0.8573172869404142,-0.5372425164328097
-0.035397719591856,1.3511890172958374,-0.1476000845432281,0.0641142874956131,-0.029616080224514,-0.085924856364727,0.0,0.0,-0.9106278358429968,-0.5887350274264402
-0.0370067581534385,1.3525159358978271,-0.1574678272008896,0.0589002408087253,-0.0330223403871059,-0.0681312978267669,0.0,0.0,-0.1381705336456271,-0.6177280126400716
-0.0387231819331646,1.3537346124649048,-0.1695663034915924,0.0541153885424137,-0.0350731126964092,-0.0410188697278499,0.0,0.0,0.6033748872669389,0.7142559810759685
-0.040559958666563,1.3558523654937744,-0.1796668320894241,0.094018742442131,-0.0390360318124294,-0.0792584121227264,0.0,0.0,-0.4983850413989314,0.8240550445530164
-0.0423747077584266,1.3578587770462036,-0.175600379705429,0.0890072956681251,-0.0448470786213874,-0.1162206679582595,0.0,0.0,-0.8350598694276725,-0.5296070981029377
-0.0442823395133018,1.359761357307434,-0.1859558969736099,0.0844153389334678,-0.0495909415185451,-0.0948771089315414,0.0,0.0,0.5771442521943451,-0.9019989302286598
-0.0464041717350482,1.3626824617385864,-0.2087772339582443,0.1297069936990738,-0.0529583618044853,-0.0673484504222869,0.0,0.0,0.6223544693214444,0.7886132049840759
-0.0484992042183876,1.366201877593994,-0.2042203247547149,0.1562266200780868,-0.0581840761005878,-0.1045143380761146,0.0,0.0,-0.146745475259532,-0.5648058280243458
-0.0506731979548931,1.3696190118789673,-0.2129441499710083,0.1516926139593124,-0.0625815466046333,-0.0879492312669754,0.0,0.0,-0.2820243835449219,-0.8973695039749146
-0.0529608726501464,1.3729257583618164,-0.2260914146900177,0.1468529850244522,-0.0652392953634262,-0.053154744207859,0.0,0.0,-0.3705347776412964,-0.9403207898139954
-0.055363941937685,1.3761368989944458,-0.2394805699586868,0.1426801681518554,-0.0660556629300117,-0.0163269881159067,0.0,0.0,-0.0461857914924621,-0.8864962458610535
-0.057873535901308,1.3792349100112915,-0.2518003582954407,0.1377258151769638,-0.0652239248156547,0.0166345592588186,0.0,0.0,-0.3400413990020752,-0.8134883046150208
-0.0604717247188091,1.382227897644043,-0.2619354724884033,0.1331169754266739,-0.0631294772028923,0.0418890826404094,0.0,0.0,-0.5268008708953857,-0.8266739845275879
-0.0631564110517501,1.385120511054993,-0.2718725800514221,0.1287007480859756,-0.059762168675661,0.0673462748527526,0.0,0.0,-0.1709086894989013,-0.680026113986969
-0.0659178718924522,1.3879021406173706,-0.280647724866867,0.1238004490733146,-0.0553179420530796,0.0888844951987266,0.0,0.0,-0.1760914325714111,-0.1399733424186706
-0.0686971694231033,1.390571117401123,-0.2820754647254944,0.1187734752893447,-0.0512183681130409,0.0819914862513542,0.0,0.0,-0.2123472094535827,-0.4078571796417236
-0.0714912414550781,1.393127679824829,-0.283195436000824,0.1137468293309211,-0.0474727153778076,0.0749129801988601,0.0,0.0,-0.2022215127944946,-0.6962264180183411
-0.0743494033813476,1.395576238632202,-0.2905788421630859,0.1089682355523109,-0.0427693799138069,0.0940669924020767,0.0,0.0,-0.1586129069328308,-0.1999019384384155
-0.0772161483764648,1.3979122638702393,-0.2910628020763397,0.103941336274147,-0.0384369753301143,0.086648017168045,0.0,0.0,-0.4114096760749817,-0.1172789931297302
-0.0800883322954177,1.4001357555389404,-0.2912206053733825,0.0989148244261741,-0.0344833247363567,0.0790729969739914,0.0,0.0,-0.3598322868347168,-0.0732729434967041
-0.0829627960920333,1.4022462368011477,-0.2910482585430145,0.0938886627554893,-0.0309157855808734,0.0713506340980529,0.0,0.0,-0.3749256730079651,0.0084002017974853
-0.0858361274003982,1.4042444229125977,-0.2905431985855102,0.0888628587126731,-0.0277413297444582,0.0634891018271446,0.0,0.0,-0.3916347622871399,-0.3972448110580444
-0.0887050628662109,1.4061295986175537,-0.2897040843963623,0.0838373675942421,-0.024966511875391,0.0554960556328296,0.0,0.0,-0.1045155525207519,-0.3956027030944824
-0.0915663689374923,1.4079020023345947,-0.2885308861732483,0.078812152147293,-0.0225975774228572,0.0473788119852542,0.0,0.0,-0.3454383611679077,-0.3076632618904114
-0.0944168120622634,1.4095615148544312,-0.2870249152183532,0.0737871825695037,-0.0206403601914644,0.0391441881656646,0.0,0.0,-0.3494107723236084,-0.6870482563972473
-0.097317598760128,1.4111175537109375,-0.2932721376419067,0.069201610982418,-0.0174785442650318,0.0632360950112342,0.0,0.0,-0.2581210732460022,-0.1779407858848571
-0.1002009361982345,1.4125608205795288,-0.2911101579666137,0.064176432788372,-0.0147392582148313,0.0547858886420726,0.0,0.0,-0.1017807722091674,0.1916488409042358
-0.1030637770891189,1.413891315460205,-0.2886274456977844,0.0591515637934207,-0.0124273989349603,0.0462368950247764,0.0,0.0,-0.1440755128860473,-0.4272283315658569
-0.1059029549360275,1.4151089191436768,-0.2858303785324096,0.0541269369423389,-0.010547668673098,0.0375947803258895,0.0,0.0,-0.3792376518249511,-0.4036032557487488
-0.1087156310677528,1.4162133932113647,-0.282726526260376,0.0491025447845459,-0.0091044250875711,0.0288648847490549,0.0,0.0,-0.2700037360191345,-0.3770109415054321
-0.1114987358450889,1.417204976081848,-0.2793244421482086,0.0440783128142356,-0.008101811632514,0.0200523734092712,0.0,0.0,-0.0698720812797546,-0.6894128918647766
-0.1143035888671875,1.4180908203125,-0.2824386954307556,0.0393736585974693,-0.0061799264512956,0.0384378582239151,0.0,0.0,-0.0721473693847656,0.2593836784362793
-0.1170734390616417,1.4188635349273682,-0.2784689366817474,0.034349400550127,-0.0047061871737241,0.0294746663421392,0.0,0.0,-0.3197705745697021,-0.2981230020523071
-0.1198053359985351,1.4195231199264526,-0.2742311060428619,0.0293253231793642,-0.0036840373650193,0.0204430427402257,0.0,0.0,-0.2328647375106811,0.034230351448059
-0.122496984899044,1.420069932937622,-0.2697363495826721,0.0243013743311166,-0.0031166693661361,0.0113473394885659,0.0,0.0,-0.2623366117477417,-0.0711469650268554
-0.125145822763443,1.4205036163330078,-0.2649962604045868,0.0192775055766105,-0.0030070915818214,0.0021915766410529,0.0,0.0,-0.1207426786422729,-0.3617942333221435
-0.1277496367692947,1.4208242893218994,-0.2600225210189819,0.0142536656931042,-0.003358082845807,-0.0070198969915509,0.0,0.0,-0.3870900869369507,-0.3593995571136474
-0.1303061544895172,1.421032190322876,-0.2548269927501678,0.0092298043891787,-0.0041722645983099,-0.0162836071103811,0.0,0.0,-0.3412066698074341,-0.5898195505142212
-0.132856085896492,1.4211220741271973,-0.2547814548015594,0.0039931605570018,-0.0043789688497781,-0.0041344850324094,0.0,0.0,-0.5541000962257385,-0.3161407709121704
-0.1353547126054763,1.4210988283157349,-0.2491777241230011,-0.0010307357879355,-0.0050535597838461,-0.0134917749091982,0.0,0.0,-0.4025065302848816,-0.2165855169296264
-0.1378001272678375,1.4209628105163574,-0.2433872669935226,-0.0060546942986547,-0.0061981040053069,-0.0228908024728298,0.0,0.0,-0.574194610118866,-0.3471499681472778
-0.1401906907558441,1.4207136631011963,-0.2374213486909866,-0.0110787693411111,-0.0078145321458578,-0.0323284454643726,0.0,0.0,-0.6263274550437927,-0.6955486536026001
-0.1425791680812835,1.4203470945358276,-0.2381099909543991,-0.0162963550537824,-0.008539599366486,-0.0145017430186271,0.0,0.0,-0.7213683724403381,-0.1610262989997863
-0.1449096649885177,1.4198676347732544,-0.2318256795406341,-0.0213204585015773,-0.0097399903461337,-0.0240078065544366,0.0,0.0,-0.9003678560256958,-0.2128630876541137
-0.1471806466579437,1.4192750453948977,-0.2253976315259933,-0.0263446867465972,-0.0114171868190169,-0.0335440039634704,0.0,0.0,-0.9516250491142272,-0.4344022274017334
-0.1493908911943435,1.418569564819336,-0.2188355177640915,-0.0313691012561321,-0.0135725634172558,-0.0431077554821968,0.0,0.0,-0.9747214913368224,-0.5957574248313904
-0.1515839546918869,1.4177591800689695,-0.2177916020154953,-0.0360362567007541,-0.0150755615904927,-0.0300598554313182,0.0,0.0,-0.9769825339317322,-0.6469007134437561
-0.1537732183933258,1.4168343544006348,-0.2184176445007324,-0.0411116145551204,-0.0155718382447958,-0.0099254958331584,0.0,0.0,-0.9721583127975464,-0.351209282875061
-0.1558981835842132,1.415796399116516,-0.2115070074796676,-0.046135988086462,-0.0165497306734323,-0.0195579025894403,0.0,0.0,-0.9641910195350648,-0.4446790218353271
-0.1579579412937164,0.0,-0.2044964134693145,-0.0511604584753513,-0.0180101729929447,-0.0292088780552148,0.0,0.0,-0.9935829639434814,-0.4168620705604553
-0.1599515974521637,1.413382053375244,-0.19739331305027,-0.0561850890517234,-0.0199539978057146,-0.0388764701783657,0.0,0.0,-0.9967532753944396,-0.4369300603866577
-0.1618781089782714,1.4120056629180908,-0.1902045607566833,-0.0612099356949329,-0.0223819483071565,-0.0485587492585182,0.0,0.0,-0.9891253709793092,-0.4128257036209106
-0.1637370139360427,1.4105165004730225,-0.1829366087913513,-0.0662350580096244,-0.0252946503460407,-0.0582539625465869,0.0,0.0,-0.9988842606544496,-0.6738653779029846
-0.1655747443437576,1.4089092016220093,-0.1815410107374191,-0.0714771673083305,-0.0275044590234756,-0.0441961660981178,0.0,0.0,-0.9760978817939758,-0.3516678810119629
-0.1673434227705001,1.4071890115737915,-0.1741323769092559,-0.0765024200081825,-0.0302000660449266,-0.0539120808243751,0.0,0.0,-0.9975250363349916,-0.3388196229934692
-0.1690421998500824,1.4053561687469482,-0.1666614115238189,-0.0815279707312583,-0.0333818569779396,-0.0636358931660652,0.0,0.0,-0.9947805404663086,-0.7934507131576538
-0.1707249581813812,1.4034212827682495,-0.1659427434206009,-0.0860500261187553,-0.0356807857751846,-0.0459785088896751,0.0,0.0,-0.9837706685066224,-0.659022331237793
-0.1723983734846115,1.4013835191726685,-0.1661036759614944,-0.0905968844890594,-0.0369104780256748,-0.0245935153216123,0.0,0.0,-0.9962260723114014,-0.4613668322563171
-0.1740004569292068,1.399233102798462,-0.1584735065698623,-0.0956222340464592,-0.0386270768940448,-0.0343318954110145,0.0,0.0,-0.998318076133728,-0.4409312605857849
-0.1755307167768478,1.3969696760177612,-0.1507984399795532,-0.1006477773189544,-0.0408306866884231,-0.0440721660852432,0.0,0.0,-0.99662184715271,-0.6637667417526245
-0.1770501136779785,1.3945975303649902,-0.1507755666971206,-0.1054665222764015,-0.0419786870479583,-0.0229600835591554,0.0,0.0,-0.998373806476593,-0.0957164168357849
-0.1784969270229339,1.3921124935150146,-0.1430212557315826,-0.1104920655488967,-0.0436136685311794,-0.0326996967196464,0.0,0.0,-0.9962322115898132,-0.4809839725494385
-0.1798706948757171,1.3895149230957031,-0.1352321207523346,-0.1155177727341651,-0.0457355193793773,-0.042436771094799,0.0,0.0,-0.9720125198364258,-0.5151720643043518
-0.1812059432268142,1.3868069648742676,-0.1317807137966156,-0.1204062849283218,-0.0474674403667449,-0.0346385203301906,0.0,0.0,-0.9938977956771852,-0.2508211731910705
-0.1824677437543869,1.3839863538742063,-0.1239302307367324,-0.1254321783781051,-0.0496857427060604,-0.0443658977746963,0.0,0.0,-0.9974077343940736,-0.647067129611969
-0.1836990416049957,1.381051540374756,-0.1214969977736473,-0.1304888576269149,-0.0513017252087593,-0.0323194861412048,0.0,0.0,-0.9894944429397584,-0.6299205422401428
-0.1848938912153244,1.378006935119629,-0.1183159947395324,-0.135360911488533,-0.0524561144411563,-0.0230876449495553,0.0,0.0,-0.9931109547615052,-0.4663382172584533
-0.1860143691301345,1.374849557876587,-0.1103916317224502,-0.1403868794441223,-0.0540955439209938,-0.0327884927392005,0.0,0.0,-0.9975835680961608,-0.4626924991607666
-0.1870602667331695,1.371579647064209,-0.1024468168616294,-0.1454130113124847,-0.0562194064259529,-0.0424769744277,0.0,0.0,-0.9930645227432252,-0.7905698418617249
-0.188090518116951,1.368207931518555,-0.101895771920681,-0.1498943269252777,-0.0573332719504833,-0.0222773235291242,0.0,0.0,-0.9962441325187684,-0.5727654099464417
-0.1890815794467926,1.3647288084030151,-0.09841088950634,-0.1546527594327926,-0.0580254383385181,-0.0138433249667286,0.0,0.0,-0.9862008690834044,-0.4338141679763794
-0.1899976730346679,1.3611372709274292,-0.0904153436422348,-0.1596788614988327,-0.0591995753347873,-0.0234829820692539,0.0,0.0,-0.987968683242798,-0.5869632363319397
-0.1908889710903167,1.357435703277588,-0.0887383222579956,-0.1645296514034271,-0.0595848597586154,-0.0077055795118212,0.0,0.0,-0.9820796251296996,-0.4913818836212158
-0.1917049437761306,1.353621482849121,-0.0807167589664459,-0.1695557534694671,-0.0604499280452728,-0.0173015166074037,0.0,0.0,-0.991896629333496,-0.4988576173782348
-0.1924452781677246,1.3496946096420288,-0.0726842731237411,-0.1745819598436355,-0.0617935210466384,-0.0268717017024755,0.0,0.0,-0.965873658657074,-0.3223681449890136
-0.1931100785732269,1.3456552028656006,-0.0646421462297439,-0.1796082854270935,-0.0636141821742057,-0.0364132598042488,0.0,0.0,-0.986040472984314,-0.5710734724998474
-0.1937375962734222,1.3415098190307615,-0.0614204779267311,-0.1843015104532241,-0.0649372264742851,-0.0264607407152652,0.0,0.0,-0.9789944887161256,-0.7227014899253845
-0.194351390004158,1.3372628688812256,-0.0611376948654651,-0.1887578964233398,-0.0651662051677703,-0.004579828120768,0.0,0.0,-0.95672208070755,-0.335701584815979
-0.1948891580104828,1.3329033851623535,-0.0530738420784473,-0.1937841773033142,-0.0658670142292976,-0.014015850611031,0.0,0.0,-0.9663822650909424,-0.2331580519676208
-0.1953510344028473,1.3284313678741455,-0.0450049862265586,-0.1988105177879333,-0.0670374780893325,-0.0234092269092798,0.0,0.0,-0.9878949522972108,-0.6649293899536133
-0.1957995444536209,1.3238537311553955,-0.0447930358350276,-0.2034554928541183,-0.0670948922634124,-0.0011482074623927,0.0,0.0,-0.9790226817131042,-0.4490998983383178
-0.1961719542741775,1.3191633224487305,-0.0367173627018928,-0.2084818184375763,-0.067617043852806,-0.0104429703205823,0.0,0.0,-0.9649012088775636,-0.636117696762085
-0.1965095549821853,1.3143683671951294,-0.0338163152337074,-0.2131069302558899,-0.0675565227866172,0.0012103107292205,0.0,0.0,-0.9430145025253296,-0.5385422110557556
-0.1968092918395996,1.3094600439071655,-0.0305507592856884,-0.2181258052587509,-0.0669929981231689,0.0112705854699015,0.0,0.0,-0.9838364124298096,-0.6166248321533203
-0.1970696449279785,1.3044475317001345,-0.0270887669175863,-0.2227322310209274,-0.0659518092870712,0.020823948085308,0.0,0.0,-0.966418981552124,0.1811927556991577
-0.197253793478012,1.2993223667144775,-0.0190118141472339,-0.2277585566043853,-0.0653622299432754,0.0117915580049157,0.0,0.0,-0.9770991206169128,-0.6128283739089966
-0.1973982751369476,1.2940952777862549,-0.0155395101755857,-0.2322670817375183,-0.0642876252532005,0.0214923284947872,0.0,0.0,-0.989363431930542,-0.7141992449760437
-0.1975158751010894,1.288760542869568,-0.0136481700465083,-0.2370252460241317,-0.062414426356554,0.0374640151858329,0.0,0.0,-0.9900212287902832,-0.5318266749382019
-0.1975994110107422,1.2833223342895508,-0.0108926575630903,-0.2415931224822998,-0.0599068589508533,0.0501514747738838,0.0,0.0,-0.991580069065094,-0.268395185470581
-0.1976067572832107,1.2777714729309082,-0.0028311875648796,-0.2466195225715637,-0.0578319951891899,0.0414971411228179,0.0,0.0,-0.9800444841384888,-0.1892247796058654
-0.1975378096103668,1.2721080780029297,0.0052236351184546,-0.2516456842422485,-0.0561839826405048,0.0329603478312492,0.0,0.0,-0.97784024477005,-0.3152713775634765
-0.1973926573991775,1.266331911087036,0.0132705913856625,-0.2566716074943542,-0.0549564026296138,0.0245518572628498,0.0,0.0,-0.9928494691848756,-0.8708344101905823
-0.197254940867424,1.2604478597640991,0.0108258603140711,-0.261414885520935,-0.0520402677357196,0.0583226308226585,0.0,0.0,-0.9796150922775269,-0.6349318027496338
-0.1970929205417633,1.2544547319412231,0.0123308096081018,-0.2662309110164642,-0.048221405595541,0.0763773471117019,0.0,0.0,-0.991190493106842,-0.8721610903739929
-0.1969208717346191,1.2483524084091189,0.0120641216635704,-0.2710627019405365,-0.0431398823857307,0.1016304939985275,0.0,0.0,-0.9863799214363098,0.5027166604995728
-0.1966244727373123,1.2421295642852783,0.0261217001825571,-0.2764683663845062,-0.0396647490561008,0.0695027187466621,0.0,0.0,-0.99498450756073,-0.8725173473358154
-0.1963097602128982,1.2358015775680542,0.0268634743988513,-0.2811298966407776,-0.0351131930947303,0.0910312831401825,0.0,0.0,-0.9904077649116516,0.2249033451080322
-0.1959190368652343,1.2293609380722046,0.0348337478935718,-0.2861564457416534,-0.0309300012886524,0.0836637541651725,0.0,0.0,-0.9948700070381165,0.0852850675582885
