x_pos,y_pos,x_vel,y_vel,angle,ang_vel,leg_1,leg_2,main_booster,lat_booster
-0.0015204430092126,1.4034390449523926,-0.1541845500469207,-0.3324887454509735,0.0019095442257821,0.0376785323023796,0.0,0.0,-0.6343534676324241,-0.929032070715678
-0.0031047821976244,1.3957912921905518,-0.1621512621641159,-0.3399114310741424,0.0055877957493066,0.0735725760459899,0.0,0.0,0.7680193740221057,0.9590159338433136
-0.0044534681364893,1.3886011838912964,-0.1370829641819,-0.3195682168006897,0.0077715422958135,0.0436792597174644,0.0,0.0,0.87395599715602,0.8216703229264833
-0.0058869360946118,1.3820719718933103,-0.1437148749828338,-0.2901872992515564,0.0081386100500822,0.0073420861735939,0.0,0.0,-0.4267401216145949,0.9442801654403254
-0.0072274208068847,1.375361442565918,-0.1322519183158874,-0.2982372939586639,0.0063734361901879,-0.0353070273995399,0.0,0.0,0.8405087201033823,0.6170555138120969
-0.0083562852814793,1.369374394416809,-0.1104564666748046,-0.2660836577415466,0.0039741690270602,-0.0479899309575557,0.0,0.0,0.1984800572327383,0.9648679569934224
-0.0094271656125783,1.36383056640625,-0.102866843342781,-0.246382400393486,-0.0002102029538946,-0.0836951807141304,0.0,0.0,0.6629568424672498,0.6999706732951663
-0.0102761266753077,1.35908043384552,-0.0797727853059768,-0.2111221849918365,-0.0052752825431525,-0.101310908794403,0.0,0.0,-0.933084001236662,0.7883852857513729
-0.011061668395996,1.3541535139083862,-0.0720107853412628,-0.2190138846635818,-0.0117412041872739,-0.1293303817510604,0.0,0.0,0.8336938292731448,0.7922868670560915
-0.0117737771943211,1.350255012512207,-0.0632080882787704,-0.1733482331037521,-0.0196501836180686,-0.1581943035125732,0.0,0.0,0.7481182762966991,0.7506664370312545
-0.0123123172670602,1.3471109867095947,-0.0447043068706989,-0.1398764997720718,-0.0287000611424446,-0.1810144782066345,0.0,0.0,-0.9781898108578182,-0.7691741637864202
-0.0129022598266601,1.343783259391785,-0.0513296835124492,-0.1480658501386642,-0.036279484629631,-0.1516019105911255,0.0,0.0,-0.4953236465539758,-0.9598630436921884
-0.0135494228452444,1.3402788639068604,-0.0586902908980846,-0.1559070199728012,-0.0422444865107536,-0.1193108707666397,0.0,0.0,0.5160443155349408,0.7781258845940778
-0.0140498159453272,1.3370625972747805,-0.0426898635923862,-0.1431749016046524,-0.0495128110051155,-0.1453797966241836,0.0,0.0,-0.6847977842725361,0.995825191183987
-0.0144514087587594,1.3336645364761353,-0.0304848216474056,-0.1513653695583343,-0.0590999461710453,-0.1917604953050613,0.0,0.0,0.2108372940965952,-0.7127822911906114
-0.0148050310090184,1.3303970098495483,-0.0273449029773473,-0.1455560773611068,-0.0670369938015937,-0.1587548702955246,0.0,0.0,-0.4366098099411482,0.8709110779668454
-0.0150728225708007,1.3269466161727903,-0.0167468637228012,-0.1538257896900177,-0.0769866183400154,-0.1990105062723159,0.0,0.0,0.7933333274155914,-0.7408328818470062
-0.0151992794126272,1.3239011764526367,-0.0045882584527134,-0.1357850730419159,-0.0849776417016983,-0.1598347276449203,0.0,0.0,-0.0752738804985215,0.7512234775381174
-0.0152562139555811,1.3206695318222046,0.0039956904947757,-0.1442091017961502,-0.0945972055196762,-0.1924086958169937,0.0,0.0,0.1379486271524528,-0.935038510196045
-0.015414809808135,1.317854642868042,-0.0081427935510873,-0.1256060451269149,-0.1022621244192123,-0.1533122509717941,0.0,0.0,0.98968367162179,-0.7049532609417042
-0.0153716085478663,1.3161944150924685,0.0101000657305121,-0.0741967782378196,-0.1080035641789436,-0.1148391366004943,0.0,0.0,0.4604573717065807,-0.6661439039248127
-0.015328025445342,1.3149349689483645,0.0086767394095659,-0.0562951825559139,-0.1123023778200149,-0.0859841406345367,0.0,0.0,0.6535398050350336,-0.7665453492670025
-0.015142535790801,1.314287543296814,0.0209680125117301,-0.0289608314633369,-0.1147078946232795,-0.0481144152581691,0.0,0.0,0.6214708954491923,0.8149471114439676
-0.0147844310849905,1.313878059387207,0.0396467857062816,-0.0185009203851223,-0.1185275837779045,-0.0764008685946464,0.0,0.0,-0.88782139559845,0.6833259264487245
-0.0143866539001464,1.3132777214050293,0.0445672683417797,-0.0270666722208261,-0.1233057528734207,-0.0955720841884613,0.0,0.0,0.8020215043228787,-0.6283775709049528
-0.0141169549897313,1.3136582374572754,0.0308686401695013,0.0165809784084558,-0.1271829456090927,-0.0775434300303459,0.0,0.0,-0.2646059593367531,-0.8466944993109593
-0.0139151569455862,1.3138712644577026,0.0223147738724946,0.0092831887304782,-0.1293060332536697,-0.0424618683755397,0.0,0.0,0.8741381947326794,-0.893024725535233
-0.0138267520815134,1.3153458833694458,0.0094141596928238,0.0654891282320022,-0.1298736333847046,-0.011352221481502,0.0,0.0,-0.9620487017736704,0.6953155684903416
-0.0136981010437011,1.3166322708129885,0.0144560877233743,0.0570391789078712,-0.1314655095338821,-0.0318375378847122,0.0,0.0,0.7723910606329969,-0.7478511546170035
-0.0135876657441258,1.3185250759124756,0.0111409220844507,0.0841082036495208,-0.1315617561340332,-0.0019248828757554,0.0,0.0,0.1880927371329448,-0.6048901033593046
-0.013433170504868,1.321150779724121,0.0142594771459698,0.116807572543621,-0.1303724497556686,0.0237859860062599,0.0,0.0,-0.1263870225153247,-0.87117673996626
-0.0133603094145655,1.323601484298706,0.0040683904662728,0.1091937497258186,-0.1271774023771286,0.063901349902153,0.0,0.0,0.958489487413565,0.6923812574587537
-0.0132211688905954,1.3272966146469116,0.0123182442039251,0.1643696576356887,-0.1255883872509002,0.0317805297672748,0.0,0.0,0.9630599404670734,-0.9290726184276058
-0.013189697638154,1.3314656019210815,-0.0001893352746265,0.1855604648590088,-0.1222715750336647,0.0663361027836799,0.0,0.0,0.947084382081459,0.9156342903384816
-0.0129803661257028,1.3365345001220703,0.0193742904812097,0.2254112064838409,-0.1207188591361045,0.0310546495020389,0.0,0.0,-0.2799368708134939,-0.6280591786506793
-0.0128240585327148,1.3414314985275269,0.0128254424780607,0.2178676575422287,-0.1179312616586685,0.0557519719004631,0.0,0.0,0.33988522048387,-0.952375228567696
-0.012729930691421,1.3467061519622805,0.0047061396762728,0.2347941249608993,-0.1132505536079406,0.0936142057180404,0.0,0.0,0.5854322660932065,-0.6494154222507224
-0.0125706670805811,1.352891445159912,0.0098166447132825,0.2753548622131347,-0.1071819961071014,0.1213710755109787,0.0,0.0,0.1884202530833494,-0.944265939778552
-0.0124597549438476,1.3598239421844482,0.0030921560246497,0.3086582124233246,-0.0992379784584045,0.1588801741600036,0.0,0.0,-0.8236801233473694,0.8860870079237826
-0.0122826574370265,1.3665618896484375,0.0115672498941421,0.2998575866222381,-0.0931541919708252,0.1216757670044899,0.0,0.0,0.3002271196407906,0.7495385133628085
-0.012090777978301,1.374041199684143,0.0147037208080291,0.3326885998249054,-0.0887042731046676,0.0889985859394073,0.0,0.0,-0.3653146624565124,0.9732997417449952
-0.0118143083527684,1.3813209533691406,0.0255370382219553,0.3236647844314575,-0.0866172537207603,0.0417401939630508,0.0,0.0,-0.4579505324363708,0.8244359493255615
-0.0114709855988621,1.3883965015411377,0.0341761633753776,0.3144755959510803,-0.0864730328321456,0.0028845842462033,0.0,0.0,-0.2863019704818725,0.6422884464263916
-0.0110774040222167,1.395277738571167,0.0407638140022754,0.3057526350021362,-0.0878591239452362,-0.0277218781411647,0.0,0.0,-0.5934967398643494,0.6743861436843872
-0.0106433872133493,1.4019593000411987,0.0461058393120765,0.2967960238456726,-0.0905468091368675,-0.0537536740303039,0.0,0.0,-0.709119439125061,0.0804125070571899
-0.0102185253053903,1.408455729484558,0.0452488362789154,0.2885583341121673,-0.0932871326804161,-0.0548063404858112,0.0,0.0,-0.5141043066978455,-0.2699635624885559
-0.0098031042143702,1.4147670269012451,0.0443678572773933,0.2803205251693725,-0.0960865542292594,-0.0559885874390602,0.0,0.0,-0.4937244653701782,-0.0223686695098876
-0.0093973157927393,1.4208929538726809,0.043463721871376,0.2720826268196106,-0.0989514291286468,-0.0572971403598785,0.0,0.0,-0.682503342628479,-0.3916517496109009
-0.0090016368776559,1.4268341064453125,0.0425372868776321,0.2638446092605591,-0.1018878370523452,-0.0587284043431282,0.0,0.0,-0.675766110420227,-0.2988967895507812
-0.0086160656064748,1.4325898885726929,0.041589431464672,0.2556065022945404,-0.1049017235636711,-0.0602774433791637,0.0,0.0,-0.6628978252410889,-0.5965649485588074
-0.0082768443971872,1.4381660223007202,0.0361320339143276,0.247676134109497,-0.1070924624800682,-0.043814767152071,0.0,0.0,-0.6675243377685547,-0.7370794415473938
-0.0080114360898733,1.443572163581848,0.0272060334682464,0.2402269095182418,-0.1077591851353645,-0.0133344754576683,0.0,0.0,-0.5862410068511963,-0.3440151810646057
-0.0077570914290845,1.4487932920455933,0.0261996947228908,0.2319892942905426,-0.1085195764899253,-0.0152079192921519,0.0,0.0,-0.5411553382873535,0.1570069789886474
-0.0075139999389648,1.453829050064087,0.0251758061349391,0.2237516045570373,-0.1093785390257835,-0.0171793606132268,0.0,0.0,-0.1634523868560791,0.0075327157974243
-0.007282352540642,1.4586796760559082,0.0241354070603847,0.2155138701200485,-0.1103407219052314,-0.0192437190562486,0.0,0.0,-0.519359827041626,-0.3380892276763916
-0.0070622442290186,1.4633451700210571,0.0230795536190271,0.2072760611772537,-0.1114105060696601,-0.0213958509266376,0.0,0.0,-0.4601342678070068,-0.396791398525238
-0.0068540573120117,1.4678255319595337,0.0220093354582786,0.1990382075309753,-0.1125920489430427,-0.0236307438462972,0.0,0.0,-0.6474569439888,-0.6782281994819641
-0.0066987993195652,1.472130537033081,0.0157879162579774,0.1913108080625534,-0.1128450632095336,-0.0050607174634933,0.0,0.0,-0.7108160257339478,-0.6338285803794861
-0.0065987585112452,1.476264238357544,0.009263215586543,0.1837751418352127,-0.1121070981025695,0.0147593785077333,0.0,0.0,-0.7212868928909302,-0.4441468715667724
-0.0065110204741358,1.480212688446045,0.0081566702574491,0.1755371838808059,-0.1114918142557144,0.012305311858654,0.0,0.0,-0.5524258017539978,-0.6775797605514526
-0.0064848898909986,1.483978509902954,0.0008787887054495,0.1674960106611251,-0.1097679436206817,0.0344772674143314,0.0,0.0,-0.6869552135467529,-0.1546975970268249
-0.0064713479951024,1.4875593185424805,-0.0002461580443195,0.1592578440904617,-0.1081729605793953,0.0318996384739875,0.0,0.0,-0.7640379071235657,-0.5689565539360046
-0.0065060616470873,1.4909591674804688,-0.0058534312993288,0.1512793749570846,-0.1058081313967704,0.047296930104494,0.0,0.0,-0.5681045055389404,-0.2642328143119812
-0.0065534589812159,1.4941740036010742,-0.0069918953813612,0.1430409699678421,-0.1035775318741798,0.0446120351552963,0.0,0.0,-0.8375256657600403,-0.5182912349700928
-0.0066542625427246,1.497206211090088,-0.0132140191271901,0.1349831521511078,-0.1004648953676223,0.0622525624930858,0.0,0.0,-0.830574631690979,-0.4685832262039184
-0.0067679407075047,1.5000535249710083,-0.0143609549850225,0.1267444491386413,-0.0974911376833915,0.0594748668372631,0.0,0.0,-0.9162640571594238,-0.3670817613601684
-0.0068943975493311,1.5027157068252563,-0.0155101399868726,0.1185058280825614,-0.0946583598852157,0.0566556639969348,0.0,0.0,-0.7747962474822998,-0.5555196404457092
-0.0070721628144383,1.5051918029785156,-0.021444784477353,0.1102738678455352,-0.0910144001245498,0.0728792399168014,0.0,0.0,-0.8039644360542297,-0.6592820286750793
-0.0073119164444506,1.5074973106384275,-0.0287752412259578,0.1027514934539794,-0.0862577930092811,0.0951322838664054,0.0,0.0,-0.8255848288536072,-0.2609425783157348
-0.0075646401382982,1.5096179246902466,-0.02992326579988,0.0945118218660354,-0.0816475227475166,0.0922054648399353,0.0,0.0,-0.6841062903404236,-0.3988388180732727
-0.0078302379697561,1.5115535259246826,-0.0310680475085973,0.0862722918391227,-0.0771851316094398,0.0892478302121162,0.0,0.0,-0.7459917068481445,-0.2640261650085449
-0.0081087108701467,1.5133044719696045,-0.0322081632912159,0.0780329331755638,-0.0728720650076866,0.0862615555524826,0.0,0.0,-0.7654211521148682,-0.4556387066841125
-0.0084000583738088,1.514870285987854,-0.0333421528339386,0.0697937309741973,-0.0687096267938613,0.0832486525177955,0.0,0.0,-0.8103654980659485,-0.3457599878311157
-0.0087041854858398,1.5162513256072998,-0.0344685278832912,0.0615546815097332,-0.0646990910172462,0.0802109390497207,0.0,0.0,-0.9043601751327516,-0.6647716164588928
-0.009076690301299,1.5174474716186523,-0.0425638854503631,0.0533858872950077,-0.0594453513622283,0.1050747483968734,0.0,0.0,-0.7502485513687134,-0.2828903198242187
-0.0094617847353219,0.0,-0.0436705462634563,0.0451460853219032,-0.0543457455933094,0.1019922643899917,0.0,0.0,-0.6785203218460083,-0.0940702557563781
-0.0098594669252634,1.5192854404449463,-0.0447649396955966,0.0369064733386039,-0.0494012683629989,0.0988896191120147,0.0,0.0,-0.7008631229400635,-0.1203681826591491
-0.0102694509550929,1.5199270248413086,-0.0458454526960849,0.028667053207755,-0.0446128547191619,0.0957681462168693,0.0,0.0,-0.6570411920547485,-0.5642667412757874
-0.0107301715761423,1.5203920602798462,-0.0517469570040702,0.0208223927766084,-0.0390071272850036,0.1121148020029068,0.0,0.0,-0.7574469447135925,-0.1906505823135376
-0.0112029071897268,1.5206722021102903,-0.0527947843074798,0.0125825144350528,-0.0335591733455657,0.1089588850736618,0.0,0.0,-0.6776998043060303,0.312597393989563
-0.0116876605898141,1.520767331123352,-0.0538236610591411,0.0043428530916571,-0.0282698068767786,0.1057872772216796,0.0,0.0,-0.5827054381370544,0.3711278438568115
-0.0121840480715036,1.5206775665283203,-0.0548318512737751,-0.0038965977728366,-0.0231397543102502,0.1026008576154708,0.0,0.0,-0.7190248966217041,-0.0519207715988159
-0.0126918796449899,1.520402908325195,-0.0558175630867481,-0.0121358437463641,-0.0181697346270084,0.0994003564119339,0.0,0.0,-0.8232834935188293,-0.2655646204948425
-0.0132109643891453,1.519943356513977,-0.0567789673805236,-0.0203748866915702,-0.0133604072034358,0.096186488866806,0.0,0.0,-0.7704278826713562,0.432621955871582
-0.0137410163879394,1.519298791885376,-0.0577142052352428,-0.0286137368530035,-0.0087124155834317,0.0929598361253738,0.0,0.0,-0.6543890833854675,0.6991791725158691
-0.0142185213044285,1.5184683799743652,-0.0506736114621162,-0.0368928983807563,-0.0058181011117994,0.0578863322734832,0.0,0.0,-0.4707857370376587,-0.690649151802063
-0.0147589687258005,1.5174463987350464,-0.0581410527229309,-0.0454073995351791,-0.0017671384848654,0.0810191929340362,0.0,0.0,-0.6078993082046509,-0.0819939970970153
-0.0153094287961721,1.5162392854690552,-0.0589863061904907,-0.0536455288529396,0.0021207383833825,0.0777574107050895,0.0,0.0,-0.5987303256988525,0.609023928642273
-0.0158096309751272,1.5148471593856812,-0.0522726774215698,-0.0618801228702068,0.0043379813432693,0.0443451032042503,0.0,0.0,-0.2196953296661377,-0.4914264678955078
-0.0163192749023437,0.0,-0.0530480556190013,-0.0701172053813934,0.0063910642638802,0.0410619899630546,0.0,0.0,0.0896122455596923,-0.6971673965454102
-0.0169006343930959,1.5122547149658203,-0.0614461787045002,-0.0451290793716907,0.0096613755449652,0.0654065236449241,0.0,0.0,-0.0518414378166198,0.0379011631011962
-0.0174905769526958,1.5110543966293335,-0.0621435344219207,-0.0533665753901004,0.0127665260806679,0.0621031299233436,0.0,0.0,-0.296308159828186,-0.1169479489326477
-0.0180888175964355,1.509669065475464,-0.062798798084259,-0.0616039372980594,0.0157060306519269,0.0587900653481483,0.0,0.0,-0.2104228734970092,0.3289248943328857
-0.0186947826296091,1.5080983638763428,-0.0634099096059799,-0.069841168820858,0.0184794049710035,0.0554674752056598,0.0,0.0,-0.0221092104911804,-0.0331758260726928
-0.0193080902099609,1.5063422918319702,-0.0639747828245163,-0.0780782848596572,0.0210861768573522,0.0521355792880058,0.0,0.0,-0.4759033918380737,0.5328238010406494
-0.0198803897947073,1.5044089555740356,-0.0584670715034008,-0.0859473943710327,0.0223167762160301,0.0246119312942028,0.0,0.0,-0.4589191675186157,-0.0344136357307434
-0.020458985120058,1.5022902488708496,-0.0589333362877368,-0.094183936715126,0.0233798883855342,0.0212619248777627,0.0,0.0,0.1595414876937866,-0.7386643886566162
-0.0212142951786518,1.5008246898651123,-0.0778306648135185,-0.0651769712567329,0.0256429892033338,0.0452620647847652,0.0,0.0,-0.3021310567855835,-0.5477046966552734
-0.0220121387392282,1.4991750717163086,-0.0828456133604049,-0.0733705833554267,0.0286692809313535,0.0605259537696838,0.0,0.0,-0.3002705574035644,0.1294885873794555
-0.0228147506713867,1.497340202331543,-0.0831489637494087,-0.0816076770424842,0.0315267778933048,0.0571498982608318,0.0,0.0,-0.082057237625122,-0.1150749921798706
-0.0236214641481637,1.4953200817108154,-0.0833942145109176,-0.089844636619091,0.0342150628566741,0.0537654571235179,0.0,0.0,-0.2679063081741333,0.1824835538864135
-0.0244318004697561,1.4931144714355469,-0.0835795849561691,-0.0980814918875694,0.0367337092757225,0.0503728091716766,0.0,0.0,0.1222783327102661,0.0253757238388061
-0.0253392215818166,1.491331696510315,-0.0927507579326629,-0.0792864114046096,0.0387157015502452,0.0396397076547145,0.0,0.0,-0.3988707065582275,-0.1331438422203064
-0.0262490268796682,1.4893635511398315,-0.0928113535046577,-0.0875229090452194,0.0405272655189037,0.0362311750650405,0.0,0.0,0.0210509300231933,0.6743583679199219
-0.0270504001528024,1.4878873825073242,-0.0805135667324066,-0.0656173750758171,0.0408926121890544,0.0073072537779808,0.0,0.0,-0.3867747783660888,-0.1597051620483398
-0.0278529170900583,1.486225724220276,-0.0804434269666671,-0.0738535299897193,0.0410867929458618,0.0038836915045976,0.0,0.0,-0.0320742726325988,0.4207711219787597
-0.028655719012022,1.484378695487976,-0.0803059786558151,-0.0820896700024604,0.0411094278097152,0.0004529553407337,0.0,0.0,-0.1381141543388366,0.5852155685424805
-0.0294138900935649,1.482353925704956,-0.0745276734232902,-0.089956410229206,0.0398394167423248,-0.0254002325236797,0.0,0.0,-0.4592691659927368,-0.140784740447998
-0.0301710125058889,1.4801437854766846,-0.0742525309324264,-0.0981926992535591,0.0383972041308879,-0.0288442522287368,0.0,0.0,-0.6489658355712891,-0.3099575042724609
-0.030926514416933,1.4777482748031616,-0.0739072933793068,-0.1064290478825569,0.0367824956774711,-0.032294362783432,0.0,0.0,-0.8293682336807251,-0.6560938954353333
-0.0317321792244911,1.4751708507537842,-0.0800953656435012,-0.1145352870225906,0.0363148041069507,-0.0093537298962473,0.0,0.0,-0.5091983079910278,0.4291396141052246
-0.0325347892940044,1.4724081754684448,-0.0796084254980087,-0.1227715089917182,0.035674087703228,-0.0128146652132272,0.0,0.0,-0.6542294025421143,0.3726706504821777
-0.0333335883915424,1.4694600105285645,-0.0790501981973648,-0.1310077607631683,0.0348600782454013,-0.016280174255371,0.0,0.0,-0.7980754971504211,0.3849058151245117
-0.0341277122497558,1.4663265943527222,-0.0784206539392471,-0.1392440348863601,0.0338725894689559,-0.0197496861219406,0.0,0.0,-0.5818914175033569,0.2064661979675293
-0.0349167808890342,1.4630076885223389,-0.0777199789881706,-0.1474803388118744,0.0327114798128604,-0.0232225209474563,0.0,0.0,-0.9078574776649476,-0.2737765908241272
-0.0356997475028038,1.459503412246704,-0.0769485086202621,-0.1557167172431945,0.031376589089632,-0.0266978703439235,0.0,0.0,-0.4799212217330932,0.2983790636062622
-0.0364761352539062,1.4558136463165283,-0.0761068165302276,-0.1639531254768371,0.0298678502440452,-0.0301749017089605,0.0,0.0,-0.4919718503952026,-0.1230759024620056
-0.0372450836002826,1.4519386291503906,-0.0751956179738044,-0.1721896231174469,0.0281852111220359,-0.0336526818573474,0.0,0.0,-0.764781653881073,-0.0534363985061645
-0.0380060188472271,1.447878360748291,-0.0742158219218254,-0.1804261654615402,0.026328707113862,-0.0371301546692848,0.0,0.0,-0.6319140791893005,-0.2833696603775024
-0.0387582778930664,1.4436326026916504,-0.0731685012578964,-0.1886627972126007,0.0242983903735876,-0.0406062379479408,0.0,0.0,-0.6794294118881226,-0.2885115146636963
-0.0395011901855468,1.439201593399048,-0.0720548927783966,-0.1968995183706283,0.0220944173634052,-0.0440796837210655,0.0,0.0,-0.5228546857833862,0.4740664958953857
