x_pos,y_pos,x_vel,y_vel,angle,ang_vel,leg_1,leg_2,main_booster,lat_booster
-0.0015092849498614,1.4031044244766235,-0.1529062986373901,-0.3473634719848633,0.0017672718968242,0.0348616428673267,0.0,0.0,0.0297073125839233,0.6823712587356567
-0.0029123306740075,1.3952200412750244,-0.140722244977951,-0.3504181206226349,0.0021839994005858,0.0083360495045781,0.0,0.0,-0.2057484984397888,0.8897209167480469
-0.0042117116972804,1.3868088722229004,-0.1281798928976059,-0.3738299012184143,0.0004545305564533,-0.0345926955342292,0.0,0.0,-0.2310963869094848,-0.4227516651153564
-0.0054907798767089,1.377877712249756,-0.1261626482009887,-0.3969448208808899,-0.001272864290513,-0.034551091492176,0.0,0.0,-0.0795146822929382,-0.2447191476821899
-0.0067480085417628,1.3684264421463013,-0.1239710673689842,-0.4200582504272461,-0.0030008556786924,-0.0345630869269371,0.0,0.0,0.0798206329345703,-0.4415791034698486
-0.0078908922150731,1.3589873313903809,-0.1129679828882217,-0.4195240437984466,-0.0043018353171646,-0.0260219667106866,0.0,0.0,-0.0755059123039245,0.2104239463806152
-0.0090086935088038,1.3490279912948608,-0.1104510650038719,-0.4426414370536804,-0.0056067234836518,-0.0261003766208887,0.0,0.0,-0.0206259489059448,0.3741413354873657
-0.0100997928529977,1.3385486602783203,-0.1077820435166359,-0.4657532572746277,-0.0069169639609754,-0.026207361370325,0.0,0.0,0.6958918571472168,-0.3904264569282532
-0.0111692426726222,1.3288378715515137,-0.105552852153778,-0.4315966367721557,-0.0082938047125935,-0.0275397561490535,0.0,0.0,-0.1140265464782714,0.8631918430328369
-0.0121413227170705,1.3186116218566897,-0.0940807312726974,-0.454528272151947,-0.0113880243152379,-0.0618900842964649,0.0,0.0,-0.4415045976638794,0.0173554420471191
-0.0130826951935887,1.3078652620315552,-0.0909956842660904,-0.4776368737220764,-0.0144934244453907,-0.0621137246489524,0.0,0.0,-0.3998391032218933,-0.1271257400512695
-0.013992023654282,1.2965991497039795,-0.0877888798713684,-0.5007501244544983,-0.0176135543733835,-0.0624080076813697,0.0,0.0,-0.3633178472518921,0.0781975984573364
-0.0148683544248342,1.2848131656646729,-0.0844666659832,-0.5238641500473022,-0.0207506511360406,-0.0627475082874298,0.0,0.0,-0.6394676566123962,-0.753258466720581
-0.0157633777707815,1.2725017070770264,-0.0876434668898582,-0.5471991300582886,-0.0225851703435182,-0.0366934053599834,0.0,0.0,-0.1469550728797912,-0.9407775402069092
-0.0166799537837505,1.259682059288025,-0.0912308022379875,-0.5697707533836365,-0.0230125710368156,-0.0085487570613622,0.0,0.0,-0.4217133522033691,-0.3294135928153991
-0.0175607688724994,1.2463423013687134,-0.0876102149486541,-0.5928841829299927,-0.0234662164002656,-0.0090738963335752,0.0,0.0,-0.6542352437973022,-0.5943713784217834
-0.0184406284242868,1.2324906587600708,-0.0884279385209083,-0.6156191229820251,-0.0230380352586507,0.0085647478699684,0.0,0.0,-0.0852175951004028,-0.657471776008606
-0.01932268217206,1.2181148529052734,-0.0896170437335968,-0.6389060616493225,-0.0216462593525648,0.0278380457311868,0.0,0.0,0.6837587356567383,-0.2690605521202087
-0.020049761980772,1.2044426202774048,-0.0745476335287094,-0.6076279282569885,-0.019827201962471,0.0363844856619834,0.0,0.0,-0.3346004486083984,0.016041874885559
-0.0207378380000591,1.190250039100647,-0.0706080645322799,-0.6307516694068909,-0.0180475749075412,0.0355959758162498,0.0,0.0,-0.8860867023468018,-0.3750981092453003
-0.0213862415403127,1.1755377054214478,-0.0665993243455886,-0.6538622379302979,-0.0163104832172393,0.0347449034452438,0.0,0.0,0.0310490131378173,-0.6482994556427002
-0.0220328327268362,1.160716891288757,-0.0676868185400962,-0.6586716771125793,-0.0133228050544857,0.0597590021789073,0.0,0.0,-0.6868351101875305,-0.3550929427146911
-0.0226387027651071,1.1453760862350464,-0.0635593682527542,-0.6817891597747803,-0.0103857945650815,0.0587451346218586,0.0,0.0,-0.6260528564453125,-0.3258035182952881
-0.0232033729553222,1.1295154094696045,-0.0593762993812561,-0.7049033641815186,-0.0075024208053946,0.0576728284358978,0.0,0.0,-0.4531053304672241,-0.294390320777893
-0.0237261764705181,1.113134741783142,-0.0551424324512481,-0.7280160784721375,-0.0046766987070441,0.0565193779766559,0.0,0.0,-0.3944050669670105,0.3895368576049804
-0.0242068283259868,1.09621262550354,-0.0508675575256347,-0.7520841956138611,-0.001912243431434,0.0552892163395881,0.0,0.0,-0.4103580117225647,0.0900306701660156
-0.0246448516845703,1.0787707567214966,-0.0465353056788444,-0.775196373462677,0.000787507800851,0.0539948046207428,0.0,0.0,-0.4021302461624145,0.2565093040466308
-0.0250398628413677,1.060808777809143,-0.0421633869409561,-0.7983084917068481,0.0034188781864941,0.0526275224983692,0.0,0.0,0.1852103471755981,-0.075925588607788
-0.025486946105957,1.0431599617004397,-0.0468661971390247,-0.7843958139419556,0.0055451369844377,0.0425251796841621,0.0,0.0,0.1234468221664428,0.1096405982971191
-0.0259064678102731,1.0254886150360107,-0.043968841433525,-0.7854095697402954,0.0075295441783964,0.0396883897483348,0.0,0.0,-0.1102917194366455,0.0535722970962524
-0.0262822154909372,1.0072970390319824,-0.039497260004282,-0.8085212707519531,0.0094344802200794,0.0380984805524349,0.0,0.0,0.2977581024169922,0.1487914323806762
-0.0266780853271484,0.9891011118888856,-0.0411464497447013,-0.8087216019630432,0.0109734423458576,0.030779143795371,0.0,0.0,0.5012532472610474,0.6397590637207031
-0.0270689968019723,0.9714832305908204,-0.0390938073396682,-0.7830202579498291,0.0109802233055233,0.0001356389402644,0.0,0.0,0.1231756210327148,-0.7167389392852783
-0.0275239944458007,0.953704833984375,-0.0468122847378253,-0.7901634573936462,0.0122721502557396,0.0258382800966501,0.0,0.0,0.6147959232330322,0.4362626075744629
-0.027925968170166,0.9363261461257936,-0.0414829775691032,-0.7723957896232605,0.0135430451482534,0.0254177898168563,0.0,0.0,0.3749177455902099,0.6625802516937256
-0.0282225608825683,0.919377863407135,-0.0295368991792202,-0.7532539367675781,0.0134278992190957,-0.0023028035648167,0.0,0.0,-0.1905587911605835,-0.3639622926712036
-0.0284741409122943,0.901909589767456,-0.0249411575496196,-0.7763651609420776,0.0132106794044375,-0.0043441513553261,0.0,0.0,0.2116035223007202,0.3205649852752685
-0.0286601074039936,0.8847591876983643,-0.0184083469212055,-0.7622410655021667,0.013016783632338,-0.0038777790032327,0.0,0.0,0.0697594881057739,0.3670592308044433
-0.0288336761295795,0.8679065108299255,-0.0169273018836975,-0.7490041851997375,0.0125955445691943,-0.0084248036146163,0.0,0.0,-0.6986711025238037,-0.0181575417518615
-0.0289621353149414,0.8505337834358215,-0.0123017206788063,-0.7721155285835266,0.0120611814782023,-0.0106873046606779,0.0,0.0,0.3304564952850342,0.558720588684082
-0.0291026122868061,0.8335853815078735,-0.0120594892650842,-0.7532483339309692,0.010097986087203,-0.0392641574144363,0.0,0.0,0.0076696872711181,-0.3065664768218994
-0.029125977307558,0.816597044467926,-0.0005714441649615,-0.7550266981124878,0.0083627197891473,-0.0347054339945316,0.0,0.0,-0.1706677675247192,-0.6602336168289185
-0.0291479118168354,0.799081027507782,-0.0014289213577285,-0.7784934639930725,0.0076049738563597,-0.0151548963040113,0.0,0.0,-0.2563726902008056,0.4531986713409424
-0.0291248317807912,0.7810446619987488,0.0032068185973912,-0.8016049265861511,0.0067200507037341,-0.0176987163722515,0.0,0.0,-0.2159508466720581,0.3465454578399658
-0.0290567390620708,0.7624883651733398,0.0078400420024991,-0.8247163891792297,0.0057045738212764,-0.0203096065670251,0.0,0.0,0.4633917808532715,-0.0242429375648498
-0.028904628008604,0.7438565492630005,0.0161794424057006,-0.8280816674232483,0.0047435034066438,-0.0192213840782642,0.0,0.0,-0.0857105255126953,-0.0105195045471191
-0.0287077911198139,0.7247045636177063,0.0208017025142908,-0.8511931896209717,0.0036454263608902,-0.0219615511596202,0.0,0.0,0.3595138788223266,0.4796360731124878
-0.0285611152648925,0.7060614228248596,0.0163523107767105,-0.8285862803459167,0.0019793547689914,-0.0333212651312351,0.0,0.0,0.44283127784729,-0.0339049100875854
-0.0284871105104684,0.6879302859306335,0.0097781391814351,-0.8058261871337891,-0.0003658469358924,-0.0469041429460048,0.0,0.0,-0.4941869974136352,-0.3114219903945923
-0.0283686630427837,0.6692790985107422,0.0143691804260015,-0.8289381861686707,-0.0028570806607604,-0.0498245283961296,0.0,0.0,-0.0788251161575317,0.0150274038314819
-0.0282058715820312,0.6501080989837646,0.0189458560198545,-0.8520501852035522,-0.0054971426725387,-0.0528009235858917,0.0,0.0,0.5789296627044678,-0.6040134429931641
-0.0281025879085063,0.6314781308174133,0.0120815280824899,-0.8280037045478821,-0.0072273197583854,-0.0346034690737724,0.0,0.0,0.2704193592071533,0.0678217411041259
-0.0278689377009868,0.6128402948379517,0.0248838700354099,-0.8283643126487732,-0.0087227383628487,-0.0299082342535257,0.0,0.0,0.3829522132873535,-0.2704802751541137
-0.0275831222534179,0.594683825969696,0.030245017260313,-0.8069645762443542,-0.0103623699396848,-0.0327926650643348,0.0,0.0,0.2580823898315429,-0.6926793456077576
-0.0271778106689453,0.5765604972839355,0.0407667979598045,-0.8054807782173157,-0.0105995722115039,-0.0047439211048185,0.0,0.0,0.2624865770339966,0.2901699542999267
-0.0267986301332712,0.5584585070610046,0.0386649072170257,-0.8045399188995361,-0.011335645802319,-0.0147216664627194,0.0,0.0,0.4001734256744385,-0.6089964509010315
-0.0263298992067575,0.5408545732498169,0.0463764481246471,-0.7823947072029114,-0.0108442371711134,0.0098282266408205,0.0,0.0,0.1560752391815185,-0.4181561470031738
-0.0257169716060161,0.5234369039535522,0.0605125129222869,-0.7741121053695679,-0.0100712906569242,0.0154589461162686,0.0,0.0,0.3482223749160766,-0.77202308177948
-0.0250475890934467,0.5065149664878845,0.0646820217370987,-0.7520745396614075,-0.0078383320942521,0.0446591489017009,0.0,0.0,-0.4051270484924316,-0.4624649286270141
-0.0243362430483102,0.4890730082988739,0.0690364465117454,-0.7751865386962891,-0.0057740681804716,0.041285440325737,0.0,0.0,0.3894757032394409,-0.6424792408943176
-0.0235852245241403,0.4715727567672729,0.0718007385730743,-0.7777772545814514,-0.0025120349600911,0.06524059176445,0.0,0.0,0.7376550436019897,-0.1696401834487915
-0.022896671667695,0.4546597003936767,0.0662170648574829,-0.7516905069351196,9.044009493663908e-05,0.0520493872463703,0.0,0.0,0.8186862468719482,-0.0990281701087951
-0.0220314972102642,0.4380806982517242,0.0834136828780174,-0.7368476986885071,0.0031489019747823,0.0611694157123565,0.0,0.0,0.3366656303405761,-0.0665173530578613
-0.0211087223142385,0.4217257499694824,0.089274525642395,-0.7268958687782288,0.0061215101741254,0.0594520978629589,0.0,0.0,0.4983530044555664,-0.6489482522010803
-0.0201918594539165,0.4053910970687866,0.0875245258212089,-0.7260090708732605,0.0102256517857313,0.0820830538868904,0.0,0.0,0.6896402835845947,-0.5753580331802368
-0.0194233898073434,0.3894407451152801,0.0720604881644249,-0.7089426517486572,0.0149475615471601,0.094438187777996,0.0,0.0,0.5742683410644531,-0.3299534320831299
-0.0186079032719135,0.3741942048072815,0.0768494457006454,-0.6776778101921082,0.0195875652134418,0.0927999764680862,0.0,0.0,0.8045159578323364,0.0879073143005371
-0.0176708213984966,0.3589096069335937,0.0887718945741653,-0.6793887615203857,0.0244652554392814,0.0975535809993743,0.0,0.0,0.8857009410858154,-0.0794155001640319
-0.0166890136897563,0.3445675373077392,0.0932794213294982,-0.6375154256820679,0.0293081831187009,0.0968587100505828,0.0,0.0,0.661907434463501,-0.1278656721115112
-0.015778636559844,0.3304153382778168,0.0867571830749511,-0.6290746927261353,0.0335355773568153,0.0845477804541587,0.0,0.0,0.6240284442901611,-0.2293594479560852
-0.0149443624541163,0.3167365789413452,0.0797594189643859,-0.6080310344696045,0.0371677204966545,0.0726428031921386,0.0,0.0,0.7018365859985352,0.2209527492523193
-0.0140662193298339,0.30350062251091,0.0841654315590858,-0.5883592963218689,0.0407688692212104,0.072022721171379,0.0,0.0,0.2724984884262085,-0.0479457974433898
-0.013278579339385,0.2907135486602783,0.0757697522640228,-0.5683994889259338,0.0437337160110473,0.0592970363795757,0.0,0.0,0.4445041418075561,-0.1558742523193359
-0.0124141694977879,0.2781672477722168,0.0833163261413574,-0.557704746723175,0.0468188859522342,0.0617033615708351,0.0,0.0,0.4174796342849731,-0.4532623887062073
-0.0115605350583791,0.26560178399086,0.0825573056936264,-0.5585571527481079,0.0495939850807189,0.0555020943284034,0.0,0.0,0.5733269453048706,-0.5599154233932495
-0.0106634143739938,0.2529760301113128,0.0857739150524139,-0.5612785220146179,0.053482562303543,0.0777714699506759,0.0,0.0,0.86263108253479,0.389817476272583
-0.0097900386899709,0.2404006868600845,0.0837552323937416,-0.5590362548828125,0.0570318326354026,0.0709853321313858,0.0,0.0,0.881392240524292,-0.0909592509269714
-0.0089459419250488,0.2286571860313415,0.0810416713356971,-0.5220628976821899,0.0603636018931865,0.0666353851556778,0.0,0.0,0.7252891063690186,-0.3167935609817505
-0.0080389026552438,0.2176768630743026,0.0871164575219154,-0.4881644248962402,0.0639098957180976,0.0709258168935775,0.0,0.0,0.5670855045318604,-0.8894416093826294
-0.0073412894271314,0.2073278278112411,0.0647260546684265,-0.4601791799068451,0.0688915699720382,0.0996335819363594,0.0,0.0,0.4728323221206665,-0.6227566003799438
-0.0068092346191406,0.1968764364719391,0.0473536252975463,-0.464787483215332,0.0746786817908287,0.1157418936491012,0.0,0.0,0.562152624130249,0.3249684572219848
-0.0062665939331054,0.1870275884866714,0.0484110675752162,-0.4380290806293487,0.080475203692913,0.1159302443265914,0.0,0.0,0.7439074516296387,-0.4896420240402221
-0.0058519365265965,0.1775543838739395,0.0362857840955257,-0.4213210940361023,0.085611954331398,0.1027350425720214,0.0,0.0,0.90565824508667,-0.1653271913528442
-0.0055403709411621,0.168721541762352,0.0264256559312343,-0.3928459584712982,0.0902934670448303,0.093630202114582,0.0,0.0,0.7486231327056885,-0.3311312198638916
-0.0052824974991381,0.1604727804660797,0.021287951618433,-0.3668909072875976,0.094756118953228,0.0892529487609863,0.0,0.0,0.7236714363098145,-0.937963604927063
-0.0050298692658543,0.1526146978139877,0.0188904553651809,-0.3496659994125366,0.1010807231068611,0.1264921724796295,0.0,0.0,0.589707612991333,0.493687629699707
-0.0047638891264796,0.1447319388389587,0.0202775541692972,-0.3507873117923736,0.1073560491204261,0.1255063861608505,0.0,0.0,0.4378379583358764,0.3774819374084472
-0.004432201385498,0.1368649750947952,0.0266254935413599,-0.3501242697238922,0.1138531044125557,0.1299411803483963,0.0,0.0,0.0354058742523193,0.2605533599853515
-0.0040275575593113,0.1290275007486343,0.0336460210382938,-0.3488679230213165,0.1206282377243042,0.1355026960372924,0.0,0.0,0.432386040687561,-0.2261947989463806
-0.0035230636131018,0.1212014555931091,0.0432238653302192,-0.3484276235103607,0.1278175115585327,0.1437853276729583,0.0,0.0,0.2938046455383301,0.7003687620162964
-0.003023910569027,0.113745629787445,0.0442540235817432,-0.3318656980991363,0.1334570944309234,0.1127914786338806,0.0,0.0,0.5774049758911133,0.5431616306304932
-0.0025282860733568,0.1068655848503112,0.0450518503785133,-0.3061903715133667,0.1379530727863311,0.0899197906255722,0.0,0.0,0.6664975881576538,-0.5780425667762756
-0.0020186423789709,0.1004860028624534,0.0450885370373725,-0.2840942740440368,0.143812209367752,0.1171826869249343,0.0,0.0,-0.0486247539520263,-0.1152538061141967
-0.0014916419750079,0.0935865715146064,0.0469460934400558,-0.3072070777416229,0.1495425999164581,0.1146081238985061,0.0,0.0,0.3080358505249023,0.8589661121368408
-0.000988197280094,0.0867673233151435,0.0465011298656463,-0.3034696280956268,0.1533895134925842,0.0769383907318115,0.0,0.0,0.764739990234375,0.8761824369430542
-0.0004437446477822,0.0808432921767234,0.0522996298968791,-0.263513833284378,0.1555300652980804,0.0428111478686332,0.0,0.0,0.4567899703979492,-0.9069111943244934
-5.636215064441785e-05,0.0751203894615173,0.0349120311439037,-0.2547541856765747,0.1593465954065323,0.076330728828907,0.0,0.0,0.5579142570495605,0.4068629741668701
0.0001094818144338,0.0699604600667953,0.0134305479004979,-0.2296725362539291,0.1625115275382995,0.0632982477545738,0.0,0.0,0.557544469833374,0.2910380363464355
0.0002626419009175,0.065274178981781,0.0118706431239843,-0.208657905459404,0.1659527271986007,0.0688242614269256,0.0,0.0,-0.132511556148529,0.8759161233901978
0.000488948833663,0.0600897185504436,0.0208867229521274,-0.2306180447340011,0.1676943153142929,0.0348317101597785,0.0,0.0,0.7506356239318848,0.7907350063323975
0.0005596160772256,0.0555555671453475,0.0071981400251388,-0.2015015035867691,0.1675691753625869,-0.0025027715601027,0.0,0.0,0.5132298469543457,0.4517965316772461
0.0005417823558673,0.0511701926589012,-0.001468189060688,-0.1948719620704651,0.1672535836696624,-0.006311840377748,0.0,0.0,0.3800318241119385,0.959397315979004
0.0004135131894145,0.0469995364546775,-0.0104343006387352,-0.1850953698158264,0.1648585498332977,-0.04790049046278,0.0,0.0,0.4329962730407715,0.8215138912200928
0.0001384735078318,0.042959127575159,-0.0232026688754558,-0.1791039109230041,0.160554900765419,-0.0860729441046714,0.0,0.0,0.4601054191589355,0.9608275890350342
-5.064010474598035e-05,0.0393887870013713,-0.0127162840217351,-0.158024787902832,0.1543542891740799,-0.1240121573209762,0.0,0.0,0.2597588300704956,0.9052741527557372
-0.0001515388430561,0.0357372611761093,-0.0020381167996674,-0.1614802926778793,0.1463209390640258,-0.1606670171022415,0.0,0.0,0.3325304985046386,0.8704195022583008
-0.0001367568911518,0.032530628144741,0.0112166050821542,-0.1415883898735046,0.1366152912378311,-0.1941133886575698,0.0,0.0,0.0440453290939331,0.7557582855224609
-0.0001416206359863,0.0295491553843021,0.0108366571366786,-0.1315111219882965,0.1253444254398346,-0.2254175692796707,0.0,0.0,-0.0961548089981079,0.7096250057220459
-999.0,0.0260707959532737,0.0199059136211872,-0.1535429805517196,0.1122826859354972,-0.2612349689006805,0.0,0.0,0.0452890396118164,0.0026232004165649
4.291534423828125e-06,0.0226293429732322,0.0207845494151115,-0.1520309746265411,0.0994179248809814,-0.2572955191135406,0.0,0.0,-0.0777490735054016,-0.4085175991058349
8.554458327125758e-05,0.0186699721962213,0.0211267992854118,-0.1751561164855957,0.0865350738167762,-0.2576570808887481,0.0,0.0,0.1394511461257934,-0.5992478132247925
0.0001213073701364,0.0150094367563724,0.0153192328289151,-0.1620500683784485,0.0749080553650856,-0.2325405180454254,0.0,0.0,0.401419997215271,-0.3016148805618286
0.0001980781526071,0.0114200683310627,0.0191129222512245,-0.1589933782815933,0.063595987856388,-0.2262412756681442,0.0,0.0,0.3181222677230835,-0.4743878841400146
0.0001475334138376,0.0080416295677423,0.006840577814728,-0.1496891528367996,0.0518399737775325,-0.2351205348968505,0.0,0.0,0.3163623809814453,-0.3016457557678222
-2.536773718020413e-05,0.004751524887979,-0.0049344217404723,-0.1458427757024765,0.0396270789206028,-0.2442579716444015,0.0,0.0,0.4452109336853027,-0.3673593997955322
-0.0002361297665629,0.0016814327100291,-0.008652594871819,-0.1361653208732605,0.0273521170020103,-0.2454989850521087,0.0,0.0,0.4857890605926513,-0.2979755401611328
-0.0004798889276571,-0.0008810782455839,-0.0038485955446958,-0.1136492937803268,0.0070455186069011,-0.4061861932277679,0.0,1.0,0.43649423122406,0.2069555521011352
-0.0006146430969238,-0.0034721279516816,0.0069580720737576,-0.1151951774954795,-0.0131701193749904,-0.4043530821800232,1.0,1.0,0.9461996555328368,-0.4008355736732483
-0.0005898475646972,-0.0048598311841487,0.0140015436336398,-0.0621307417750358,-0.0233429577201604,-0.2019147425889969,1.0,1.0,0.4213377237319946,-0.2591449022293091
-0.0004721641598735,-0.0050566340796649,0.0123827923089265,-0.0087637919932603,-0.0239005833864212,-0.0111153852194547,1.0,1.0,-0.4594759941101074,-0.17023766040802
-0.0003863334713969,-0.0049949432723224,0.0049568926915526,0.0027839243412017,-0.0203170720487833,0.0716754645109176,1.0,1.0,-0.0865339636802673,0.3859301805496216
