x_pos,y_pos,x_vel,y_vel,angle,ang_vel,leg_1,leg_2,main_booster,lat_booster
-0.0014653205871582,1.4034388065338137,-0.1486641019582748,-0.3325036466121673,0.0019113401649519,0.0377138331532478,0.0,0.0,-0.1739020427775477,-0.683612177778502
-0.0029227256309241,1.3957915306091309,-0.1490478813648224,-0.339885264635086,0.0051885908469557,0.0655519515275955,0.0,0.0,0.2489959816962417,0.3620336527134368
-0.00422506313771,1.38841712474823,-0.1342217475175857,-0.327768325805664,0.0091289086267352,0.0788138955831527,0.0,0.0,-0.911211946295606,0.8984261633824786
-0.0054167746566236,1.380854845046997,-0.1219029650092125,-0.3361172974109649,0.0118233608081936,0.0538940913975238,0.0,0.0,0.7848121810992805,0.7035012153606869
-0.0063583375886082,1.3741695880889893,-0.0960336327552795,-0.2971388101577759,0.0136787118390202,0.0371105149388313,0.0,0.0,-0.2492208141299936,-0.9903180874647604
-0.0073101045563817,1.3672958612442017,-0.0987622961401939,-0.3055335879325866,0.0172325745224952,0.0710836797952652,0.0,0.0,0.3049706614284382,0.4752415336878191
-0.0082396510988473,1.360920548439026,-0.0966427624225616,-0.2833990156650543,0.0208857282996177,0.0730697512626648,0.0,0.0,0.3209593507978912,-0.3752933512561006
-0.0090147973969578,1.355139136314392,-0.0819781944155693,-0.257022887468338,0.0252953451126813,0.0882002711296081,0.0,0.0,-0.3604852905979885,-0.2721434788594005
-0.0097468374297022,1.3491721153259275,-0.0778505131602287,-0.2652817666530609,0.0298928115516901,0.0919577628374099,0.0,0.0,-0.7189257713106603,-0.951793075204916
-0.0105134006589651,1.3430228233337402,-0.0834074020385742,-0.2734580934047699,0.0365682728588581,0.1335213780403137,0.0,0.0,-0.7407135980769521,0.4047030955048486
-0.0112421987578272,1.3366883993148804,-0.0798187553882598,-0.2817155122756958,0.0434343591332435,0.137334406375885,0.0,0.0,-0.9092219339420908,-0.2829214109339572
-0.011936092749238,1.3301689624786377,-0.0765188485383987,-0.2899733483791351,0.0504941046237945,0.1412076652050018,0.0,0.0,-0.8747955185633232,-0.3216689189816636
-0.0125980377197265,1.3234647512435913,-0.0735228881239891,-0.2982317805290222,0.0577489733695983,0.1451108753681183,0.0,0.0,0.8689402747201309,-0.2187354959880695
-0.0131764411926269,1.3171840906143188,-0.0657352954149246,-0.2794654667377472,0.065569594502449,0.1564264446496963,0.0,0.0,-0.9472297821355068,-0.275686761365513
-0.0137293813750147,1.3107184171676636,-0.0633892565965652,-0.2877301275730133,0.073589026927948,0.1604032218456268,0.0,0.0,0.726948984748635,-0.0182333873391318
-0.0141688343137502,1.3045458793640137,-0.0527860224246978,-0.2747943699359894,0.0823487937450409,0.1752112656831741,0.0,0.0,0.9157403425076364,0.8915322541630849
-0.0144266132265329,1.2997121810913086,-0.0333736427128315,-0.2152651101350784,0.0898810774087905,0.1506597697734832,0.0,0.0,0.9318069103044656,-0.4882264599371675
-0.0145429614931344,1.2953705787658691,-0.0202165357768535,-0.1934964507818222,0.0984005630016326,0.170405238866806,0.0,0.0,0.6048614329338842,0.989280365828716
-0.0145412441343069,1.2920448780059814,-0.0067541114985942,-0.1482773721218109,0.1052790284156799,0.1375816315412521,0.0,0.0,0.7571589302276214,0.2635969189518463
-0.0146807674318552,1.2894185781478882,-0.020671647042036,-0.1172084584832191,0.1119682341814041,0.1337961852550506,0.0,0.0,0.3585792107868701,0.3267232434936477
-0.014781380072236,1.2875467538833618,-0.0174939297139644,-0.0837655216455459,0.1193601414561271,0.1478517204523086,0.0,0.0,0.0141558208940208,0.750374545579249
-0.014847183600068,1.2859023809432983,-0.0127183375880122,-0.0735832750797271,0.1254767477512359,0.1223430261015892,0.0,0.0,-0.7803159553806533,0.5360714383122128
-0.0148658752441406,1.284082055091858,-0.0069201723672449,-0.0813366994261741,0.1305125206708908,0.100723996758461,0.0,0.0,-0.6145279723486725,0.741706530177833
-0.0148267745971679,1.2820813655853271,0.0002908954629674,-0.0892454013228416,0.1341205388307571,0.0721669793128967,0.0,0.0,-0.7860998515442528,-0.170774012856569
-0.0147993089631199,1.279895305633545,-0.0010917193721979,-0.0975036844611167,0.1379526406526565,0.0766485035419464,0.0,0.0,0.0901566790991563,0.0271921156470581
-0.0149442674592137,1.2781734466552734,-0.0181213915348052,-0.0768689811229705,0.1415659189224243,0.0722654163837432,0.0,0.0,0.7538922996305077,0.0441799180701831
-0.0152129177004098,1.2774126529693604,-0.0307344831526279,-0.0341892018914222,0.1454267799854278,0.0772173181176185,0.0,0.0,0.6381596131140035,-0.1916641325064548
-0.015750790014863,1.2776529788970947,-0.0572856664657592,0.010340292006731,0.1489192396402359,0.0698490589857101,0.0,0.0,-0.5015042613088487,0.3160687137277526
-0.0163146015256643,1.2777085304260254,-0.0601082220673561,0.0020846878178417,0.1526447534561157,0.0745104104280471,0.0,0.0,-0.3615478421993447,-0.2160640984474078
-0.0169075969606637,1.2775789499282837,-0.063265636563301,-0.0061711519956588,0.1566052138805389,0.0792092159390449,0.0,0.0,-0.6283096716272445,-0.7705486390580495
-0.0175923351198434,1.277259349822998,-0.0741576999425888,-0.014816622249782,0.1622916311025619,0.1137280836701393,0.0,0.0,-0.9563243985176086,0.9890749454498292
-0.0182446483522653,1.2767657041549685,-0.0694397985935211,-0.022405918687582,0.1664949804544448,0.0840668976306915,0.0,0.0,-0.970190405845642,0.9756622314453124
-0.0188709255307912,1.2761125564575195,-0.0653721988201141,-0.0293368324637413,0.1692461371421814,0.05502300709486,0.0,0.0,-0.9553993940353394,0.8465361595153809
-0.019478416070342,1.2752819061279297,-0.062230784446001,-0.0370853580534458,0.1707262396812439,0.0296023748815059,0.0,0.0,-0.9722962379455566,0.9680576324462892
-0.020052433013916,1.2742881774902344,-0.0571383237838745,-0.0441338419914245,0.1704548597335815,-0.0054276520386338,0.0,0.0,-0.9675477743148804,0.9010696411132812
-0.0206012725830078,1.2731345891952517,-0.052989087998867,-0.051050491631031,0.168562114238739,-0.037854678928852,0.0,0.0,-0.9892225861549376,0.8486335277557373
-0.0211347583681345,1.27180814743042,-0.0500845126807689,-0.0585946999490261,0.1652894169092178,-0.0654539912939071,0.0,0.0,-0.8877189755439758,0.7644779682159424
-0.0216563232243061,1.2703180313110352,-0.0474910922348499,-0.0657070726156234,0.1606293469667434,-0.0932013913989067,0.0,0.0,-0.8958454728126526,0.7543504238128662
-0.0221763607114553,1.268665075302124,-0.0461721122264862,-0.0728494226932525,0.1547972410917282,-0.1166417151689529,0.0,0.0,-0.920082688331604,0.4223909378051758
-0.0227508544921875,1.2668273448944092,-0.0518620014190673,-0.0811071023344993,0.1492096781730651,-0.1117510795593261,0.0,0.0,-0.8689906001091003,0.5157949924468994
-0.0233489032834768,1.2648166418075562,-0.0535992458462715,-0.088755652308464,0.143015518784523,-0.1238834485411644,0.0,0.0,-0.9362879395484924,0.2692453861236572
-0.0240048412233591,1.2626211643218994,-0.059620089828968,-0.0970134437084198,0.1370656192302703,-0.1189983114600181,0.0,0.0,-0.9868601560592652,0.6779357194900513
-0.0246576312929391,1.2602463960647583,-0.0579745694994926,-0.1048886850476265,0.1297898292541504,-0.1455154716968536,0.0,0.0,-0.7397255301475525,-0.0342549681663513
-0.0253710746765136,1.2576870918273926,-0.0642771124839782,-0.1131474152207374,0.1227572336792945,-0.140651986002922,0.0,0.0,-0.8942328095436096,0.2037495374679565
-0.0261465068906545,1.2549432516098022,-0.0707040578126907,-0.1214057132601738,0.1159669533371925,-0.1358058750629425,0.0,0.0,-0.9373680353164672,-0.0137800574302673
-0.0269848816096782,1.2520146369934082,-0.0772452726960182,-0.1296635717153549,0.1094178780913353,-0.1309816539287567,0.0,0.0,-0.8456892371177673,0.1112802028656005
-0.0278873443603515,1.2489013671875,-0.0838912948966026,-0.1379210352897644,0.103108674287796,-0.1261839121580124,0.0,0.0,-0.9050480127334596,0.0636110305786132
-0.0288549419492483,1.2456029653549194,-0.0906333550810813,-0.1461780816316604,0.0970378220081329,-0.1214174777269363,0.0,0.0,-0.8327621221542358,0.598813533782959
-0.029852008447051,1.2421305179595947,-0.0928825512528419,-0.1539014279842376,0.0902708247303962,-0.1353398710489273,0.0,0.0,-0.6381609439849854,0.449316143989563
-0.0309158321470022,1.238473415374756,-0.0997928231954574,-0.1621587127447128,0.0837382823228836,-0.1306510269641876,0.0,0.0,-0.8622063398361206,0.56443190574646
-0.0319921486079692,1.2346384525299072,-0.0998600870370864,-0.1700353175401687,0.0760455206036567,-0.1538551896810531,0.0,0.0,-0.7541857361793518,0.1301448345184326
-0.0331365577876567,1.2306184768676758,-0.1069108471274375,-0.178293377161026,0.0685822516679763,-0.1492654383182525,0.0,0.0,-0.7943685054779053,0.7322778701782227
-0.0342814438045024,1.226417064666748,-0.1054330691695213,-0.1863393038511276,0.0596238896250724,-0.1791673153638839,0.0,0.0,-0.7978950142860413,0.4200464487075805
-0.0354956611990928,1.2220313549041748,-0.1126009225845336,-0.1945988237857818,0.0508888810873031,-0.1747002303600311,0.0,0.0,-0.921381950378418,0.2538021802902221
-0.0367800705134868,1.2174609899520874,-0.1198198422789573,-0.2028578072786331,0.0423736497759819,-0.1703043282032013,0.0,0.0,-0.8980066776275635,0.135850191116333
-0.0381349548697471,1.2127059698104858,-0.1270853281021118,-0.2111163437366485,0.0340743325650692,-0.1659865975379943,0.0,0.0,-0.8413057327270508,0.0119682550430297
-0.0395607948303222,1.2077664136886597,-0.1343931853771209,-0.2193744331598281,0.0259866248816251,-0.1617542207241058,0.0,0.0,-0.9372307658195496,0.6563496589660645
-0.0409941673278808,1.20264732837677,-0.1337358653545379,-0.2273747771978378,0.0165010262280702,-0.1897120326757431,0.0,0.0,-0.9775435328483582,0.5115776062011719
-0.0424539558589458,1.1973505020141602,-0.1354136317968368,-0.2353372424840927,0.0060734404250979,-0.2085518538951873,0.0,0.0,-0.910851001739502,0.6637140512466431
-0.043939970433712,1.191875696182251,-0.1370722949504852,-0.2433173507452011,-0.0053107133135199,-0.2276828736066818,0.0,0.0,-0.9145784378051758,0.2565618753433227
-0.0454984679818153,1.1862170696258545,-0.144514724612236,-0.2515798509120941,-0.0165041480213403,-0.223868727684021,0.0,0.0,-0.9442319869995116,0.4211434125900268
-0.0471298210322856,1.180374264717102,-0.1519835442304611,-0.2598417997360229,-0.0275131743401289,-0.2201806604862213,0.0,0.0,-0.9577957391738892,0.4941606521606445
-0.0488342270255088,1.1743474006652832,-0.1594762802124023,-0.2681032121181488,-0.0383445546030998,-0.2166275233030319,0.0,0.0,-0.975787878036499,0.2102985382080078
-0.0506120696663856,1.1681362390518188,-0.1669906079769134,-0.2763642072677612,-0.0490054748952388,-0.2132183313369751,0.0,0.0,-0.9167383909225464,0.4951478242874145
-0.0524634346365928,1.161740779876709,-0.1745244562625885,-0.2846247255802154,-0.0595035962760448,-0.209962248802185,0.0,0.0,-0.9706014394760132,0.0237759351730346
-0.0543888099491596,1.1551610231399536,-0.1820758879184723,-0.292884886264801,-0.0698470026254654,-0.206868290901184,0.0,0.0,-0.9870415925979614,0.7912647724151611
-0.0563230514526367,1.1483995914459229,-0.1814826428890228,-0.3011140823364258,-0.0816736668348312,-0.2365333586931228,0.0,0.0,-0.9774762988090516,0.1834869384765625
-0.0583316795527935,1.141453981399536,-0.1890643090009689,-0.3093765676021576,-0.0933631286025047,-0.2337894439697265,0.0,0.0,-0.9502549767494202,0.2630876302719116
-0.0604148879647254,1.1343246698379517,-0.1966586112976074,-0.3176386654376983,-0.1049248129129409,-0.2312337905168533,0.0,0.0,-0.9626465439796448,0.6499538421630859
-0.0625297576189041,1.1270015239715576,-0.198867991566658,-0.3264060020446777,-0.1174632757902145,-0.2507693469524383,0.0,0.0,-0.9785143733024596,0.9450409412384032
-0.0646563544869422,1.119487762451172,-0.1985539644956588,-0.335116982460022,-0.1314908117055893,-0.2805506587028503,0.0,0.0,-0.9406048655509948,0.8927143812179565
-0.0667840987443924,1.1117782592773438,-0.1969265639781952,-0.3441244959831238,-0.1472946256399154,-0.316076248884201,0.0,0.0,-0.9868373274803162,-0.7691389918327332
-0.0690592750906944,1.1039104461669922,-0.2136482000350952,-0.3511103093624115,-0.1611401438713073,-0.2769104540348053,0.0,0.0,-0.9575504064559937,-0.5170767903327942
-0.0714450851082801,1.0958677530288696,-0.2257377654314041,-0.3588946461677551,-0.1740013062953949,-0.2572232782840729,0.0,0.0,-0.971217155456543,0.254019021987915
-0.0739064216613769,1.0876414775848389,-0.2333822548389434,-0.3671590685844421,-0.1867982745170593,-0.2559390962123871,0.0,0.0,-0.9750829339027404,-0.2384071350097656
-0.0764434784650802,1.0792315006256104,-0.2410312592983245,-0.3754234611988067,-0.1995423883199691,-0.2548823058605194,0.0,0.0,-0.9411110281944276,-0.5569331049919128
-0.0791024193167686,1.070645809173584,-0.2544630169868469,-0.3831605911254883,-0.2110713273286819,-0.2305785864591598,0.0,0.0,-0.8914263248443604,-0.5651249289512634
-0.0818808525800705,1.0618953704833984,-0.2676113843917846,-0.3904058039188385,-0.2214139699935913,-0.2068528234958648,0.0,0.0,-0.4805936813354492,-0.4106022119522095
-0.0847353935241699,1.0529606342315674,-0.2752673029899597,-0.3986659049987793,-0.2317380905151367,-0.2064822912216186,0.0,0.0,-0.8305399417877197,-0.1903790831565857
-0.087666317820549,1.0438416004180908,-0.2829242348670959,-0.4069261848926544,-0.2420549243688583,-0.2063369005918502,0.0,0.0,-0.3950831890106201,-0.0743250846862793
-0.0906735435128212,1.0345382690429688,-0.2905815243721008,-0.4151866734027862,-0.2523756027221679,-0.2064132988452911,0.0,0.0,-0.9124992489814758,-0.5893828272819519
-0.0937982574105262,1.0250718593597412,-0.3034405708312988,-0.4223115146160126,-0.2615948617458343,-0.1843850314617157,0.0,0.0,-0.4625054001808166,-0.4046823978424072
-0.0969996452331543,1.015420913696289,-0.3110955059528351,-0.4305706620216369,-0.2708393931388855,-0.1848905533552169,0.0,0.0,-0.8868494033813477,-0.3686145544052124
-0.1002776175737381,1.0055856704711914,-0.3187485039234161,-0.4388300776481628,-0.2801194190979004,-0.1856011748313903,0.0,0.0,-0.579840362071991,0.4917161464691162
-0.103632353246212,0.9955660700798036,-0.3263988196849823,-0.4470897912979126,-0.2894449532032013,-0.1865098178386688,0.0,0.0,-0.8846120238304138,-0.5011085271835327
-0.1070960983633995,0.9853763580322266,-0.3381243944168091,-0.4545358717441559,-0.2979547381401062,-0.1701964437961578,0.0,0.0,-0.7362155914306641,0.4123642444610595
-0.1106367111206054,0.9750022888183594,-0.3457665741443634,-0.4627948999404907,-0.3065285980701446,-0.1714773327112198,0.0,0.0,-0.7239642143249512,-0.3252851963043213
-0.114254280924797,0.964443862438202,-0.353403776884079,-0.4710542857646942,-0.3151751458644867,-0.1729314774274826,0.0,0.0,-0.4549962282180786,0.7606106996536255
-0.1178776770830154,0.9536662101745604,-0.3520986437797546,-0.4812660813331604,-0.3258328139781952,-0.2131533175706863,0.0,0.0,-0.79532390832901,-0.6440433263778687
-0.1216158866882324,0.9427188038825988,-0.3644889891147613,-0.4886879920959472,-0.3355737328529358,-0.1948179453611374,0.0,0.0,-0.8617236018180847,0.7681212425231934
-0.1253730803728103,0.9315630793571472,-0.3648456633090973,-0.4983749091625213,-0.346960961818695,-0.2277445048093795,0.0,0.0,-0.8268358707427979,0.6288892030715942
-0.1291568726301193,0.920202136039734,-0.3661700189113617,-0.5079297423362732,-0.3598007559776306,-0.2567958831787109,0.0,0.0,-0.9030130505561828,0.4446548223495483
-0.1330170631408691,0.9086579084396362,-0.3737733662128448,-0.5161976218223572,-0.3727500438690185,-0.2589854896068573,0.0,0.0,-0.6162164211273193,0.5663254261016846
-0.1369068175554275,0.8968972563743591,-0.3753904700279236,-0.5263081789016724,-0.3871831595897674,-0.2886626720428467,0.0,0.0,-0.7966642379760742,0.8047558069229126
-0.1408199369907379,0.8849195837974548,-0.3762711882591247,-0.5365124344825745,-0.4032563269138336,-0.3214635252952575,0.0,0.0,-0.7519092559814453,0.4564423561096191
-0.1448088586330413,0.8727602362632751,-0.3838445842266083,-0.5447881817817688,-0.4194561541080475,-0.3239966332912445,0.0,0.0,-0.3109086751937866,0.2072149515151977
-0.1488736122846603,0.8604189157485962,-0.3914044499397278,-0.5530645251274109,-0.4357876777648926,-0.3266309797763824,0.0,0.0,-0.1635596752166748,-0.0320843458175659
-0.1530137956142425,0.8478962182998657,-0.3989493250846863,-0.561341404914856,-0.4522556662559509,-0.3293598294258117,0.0,0.0,0.4321626424789428,-0.5776700973510742
-0.1569311171770095,0.8359860777854919,-0.3779066205024719,-0.5338923335075378,-0.4674791097640991,-0.3044688701629638,0.0,0.0,-0.0608646869659423,-0.3906922340393066
-0.1609238684177398,0.8238940834999084,-0.3854143321514129,-0.5421668887138367,-0.4828475713729858,-0.3073694109916687,0.0,0.0,0.3973411321640014,-0.6382153034210205
-0.1648082733154297,0.8125534057617188,-0.3756536841392517,-0.5085693597793579,-0.497156023979187,-0.2861689627170563,0.0,0.0,0.1027619838714599,-0.5111367106437683
-0.1686609238386154,0.8015087246894836,-0.3733606934547424,-0.4952467978000641,-0.5105742812156677,-0.2683645784854889,0.0,0.0,0.3773690462112427,-0.7012391090393066
-0.1724851578474044,0.7910571098327637,-0.3716235756874084,-0.4685964286327362,-0.5228273868560791,-0.2450621128082275,0.0,0.0,0.4608255624771118,-0.6343372464179993
-0.1763221770524978,0.7811691164970398,-0.3737735450267792,-0.4433254897594452,-0.5341765284538269,-0.2269815504550933,0.0,0.0,0.6047873497009277,-0.6220362186431885
-0.1798230111598968,0.7719540596008301,-0.3414338231086731,-0.4129994511604309,-0.5441164374351501,-0.198797807097435,0.0,0.0,0.6303203105926514,-0.8714224696159363
-0.1832128465175628,0.7630166411399841,-0.331912636756897,-0.4000923931598663,-0.5522863268852234,-0.1633974015712738,0.0,0.0,0.6837925910949707,-0.6125576496124268
-0.1861722022294998,0.7548045516014099,-0.2901992201805115,-0.3673577010631561,-0.5589396357536316,-0.1330663561820984,0.0,0.0,0.9701862335205078,0.0497070550918579
-0.1887375861406326,0.7476067543029785,-0.2505915760993957,-0.3223962783813476,-0.5658882856369019,-0.1389731466770172,0.0,0.0,0.9724581241607666,-0.4848840236663818
-0.190685749053955,0.7413800358772278,-0.189405545592308,-0.2790545523166656,-0.5722202062606812,-0.1266389489173889,0.0,0.0,0.9850977659225464,-0.4886693954467773
-0.1922526359558105,0.7357728481292725,-0.1515202671289444,-0.2514396905899048,-0.5783012509346008,-0.1216222420334816,0.0,0.0,0.8799755573272705,-0.8066251277923584
-0.1934411972761154,0.7312141060829163,-0.115018680691719,-0.2042910456657409,-0.5828304886817932,-0.0905845537781715,0.0,0.0,0.7620886564254761,-0.734553873538971
-0.1942258775234222,0.7275173664093018,-0.0759505927562713,-0.1654103100299835,-0.5858076214790344,-0.0595429427921772,0.0,0.0,0.6376360654830933,-0.8126222491264343
-0.1948113441467285,0.7241801619529724,-0.05746641010046,-0.1488007456064224,-0.5870875120162964,-0.0255978610366582,0.0,0.0,0.3874679803848266,-0.8192611336708069
-0.1953287124633789,0.7214571833610535,-0.0518998093903064,-0.1209515333175659,-0.5869008302688599,0.0037337678950279,0.0,0.0,0.3567070960998535,-0.8313330411911011
-0.195836067199707,0.7192286849021912,-0.0521509163081646,-0.0984140411019325,-0.5852182507514954,0.0336518511176109,0.0,0.0,-0.0725903511047363,-0.8663341999053955
-0.196471020579338,0.7168733477592468,-0.0663908272981643,-0.1034052446484565,-0.5817905068397522,0.0685549080371856,0.0,0.0,0.4174369573593139,-0.7971287369728088
-0.1969542503356933,0.7149369120597839,-0.0525517091155052,-0.0842278003692627,-0.5768078565597534,0.0996526032686233,0.0,0.0,-0.3428679704666137,-0.8454899787902832
-0.1975508630275726,0.7128520607948303,-0.0649496689438819,-0.090382844209671,-0.5706024765968323,0.1241072565317154,0.0,0.0,0.2641477584838867,-0.7532404661178589
-0.1979084908962249,0.7112259864807129,-0.0423646382987499,-0.0694645792245864,-0.562880277633667,0.1544440239667892,0.0,0.0,-0.3123556971549988,-0.8846563696861267
-0.1983838975429535,0.7094764709472656,-0.0555775687098503,-0.0744084790349006,-0.5535182356834412,0.1872411668300628,0.0,0.0,0.145965576171875,-0.8704243302345276
