x_pos,y_pos,x_vel,y_vel,angle,ang_vel,leg_1,leg_2,main_booster,lat_booster
-0.0015518188010901,1.4034112691879272,-0.1573232859373092,-0.3337244987487793,0.0019171560415998,0.0378287658095359,0.0,0.0,-0.4933998198321558,0.9945606591592506
-0.0030478476546704,1.3957078456878662,-0.1494477689266204,-0.3423725068569183,0.0017735930159687,-0.002870725467801,0.0,0.0,-0.2211822171187083,-0.6832200427017202
-0.0046147345565259,1.3877856731414795,-0.1577347368001938,-0.3520965576171875,0.0028026886284351,0.020583726465702,0.0,0.0,-0.0674454477646044,0.4468945896158155
-0.0062113762833178,1.379650354385376,-0.1608164012432098,-0.3615739047527313,0.0039474386721849,0.0228972099721431,0.0,0.0,-0.1840018324961692,0.26489250000319
-0.0078379632905125,1.371301770210266,-0.1639325618743896,-0.371048629283905,0.005205565597862,0.0251646302640438,0.0,0.0,0.0997526856951314,-0.0427584857069585
-0.0094054220244288,1.3632830381393433,-0.1585738360881805,-0.3563913106918335,0.0070098894648253,0.0360896363854408,0.0,0.0,-0.9430963034371816,-0.1710541453767263
-0.0110036851838231,1.3550512790679932,-0.1617527604103088,-0.3658700585365295,0.0089194430038332,0.0381946414709091,0.0,0.0,0.0985871947933487,0.9118323670531618
-0.0124478340148925,1.3472568988800049,-0.1446507275104522,-0.3464219272136688,0.0091514904052019,0.0046415077522397,0.0,0.0,0.7062940844251298,0.6494027559728152
-0.0138935092836618,1.3405530452728271,-0.1435685157775879,-0.2979416251182556,0.0081614227965474,-0.019803088158369,0.0,0.0,-0.2039588136868801,-0.951207660450897
-0.0154457092285156,1.3336409330368042,-0.1562260836362838,-0.3072110116481781,0.0091513600200414,0.0198006946593523,0.0,0.0,-0.3157393699023729,-0.9852293517475668
-0.0170963294804096,1.326515555381775,-0.1678428649902343,-0.3166999816894531,0.011901375837624,0.0550054088234901,0.0,0.0,0.2306282651318592,-0.0610285108605676
-0.0187310222536325,1.3197684288024902,-0.1665864586830139,-0.2999046146869659,0.0149830151349306,0.061638344079256,0.0,0.0,-0.4716572583027552,-0.8452909609685534
-0.0204504020512104,1.312811255455017,-0.1764535903930664,-0.3092575967311859,0.0194556973874568,0.089461401104927,0.0,0.0,0.832523477359383,-0.5464771388445506
-0.022171402350068,1.3062281608581543,-0.178034171462059,-0.2926681339740753,0.025320840999484,0.1173138990998268,0.0,0.0,0.2823439759525068,-0.2146502127629541
-0.0238320343196392,1.300395965576172,-0.1725724637508392,-0.2593291401863098,0.0317669697105884,0.1289341747760772,0.0,0.0,0.5162808978813282,-0.5346232608809911
-0.0254680626094341,1.2947572469711304,-0.1715340167284011,-0.2508011758327484,0.0396144837141037,0.1569644510746002,0.0,0.0,-0.8950653799668686,-0.4411394272352732
-0.027137279510498,1.2889059782028198,-0.1749083399772644,-0.2602801918983459,0.0475145168602466,0.1580152809619903,0.0,0.0,0.2874245147014111,0.2459339692367506
-0.0287427902221679,1.283287763595581,-0.1691158711910247,-0.249980479478836,0.0559819675981998,0.1693643629550933,0.0,0.0,0.1883704968955695,0.4220059066525897
-0.0303445812314748,1.2783281803131104,-0.1690936833620071,-0.2207829058170318,0.0648159086704254,0.1766951382160186,0.0,0.0,-0.2649946577992954,0.8538282478798797
-0.0319216735661029,1.27316153049469,-0.1651795208454132,-0.2299714982509613,0.0722127184271812,0.1479495763778686,0.0,0.0,-0.8111274078271005,-0.4224781018399762
-0.0335325226187706,1.267782211303711,-0.1685856133699417,-0.2394478619098663,0.0796366706490516,0.1484927684068679,0.0,0.0,0.9368043458895404,-0.6311841537723851
-0.0352536216378212,1.2629586458206177,-0.180918663740158,-0.2148712575435638,0.0883762761950492,0.1748079359531402,0.0,0.0,0.7962291576553198,-0.5785166135923857
-0.0369563102722168,1.2588207721710205,-0.1806461215019226,-0.1845578402280807,0.0986874178051948,0.2062413394451141,0.0,0.0,0.1328366700343006,0.8295541355123094
-0.0385931022465229,1.2547988891601562,-0.1724385172128677,-0.1793509870767593,0.1073826625943183,0.1739205569028854,0.0,0.0,-0.960310777070279,-0.767649806339277
-0.0403392799198627,1.2505550384521484,-0.1852468252182006,-0.189411386847496,0.1179669648408889,0.2117049992084503,0.0,0.0,-0.1146637416884133,0.0004659227654131
-0.0421180725097656,1.2460782527923584,-0.1885171234607696,-0.1998431533575058,0.1285405606031417,0.2114717215299606,0.0,0.0,-0.6472324143894983,-0.2931667962629787
-0.0439313873648643,1.2413898706436155,-0.1919293403625488,-0.2093245238065719,0.139096662402153,0.2111223191022873,0.0,0.0,-0.8373154606954825,-0.7062583108910218
-0.0458473190665245,1.236483097076416,-0.2038643360137939,-0.2192718982696533,0.1513414531946182,0.2448957860469818,0.0,0.0,-0.2456154549209788,-0.5433049377614099
-0.0478500351309776,1.2313578128814695,-0.2138147801160812,-0.2292187958955764,0.1648726016283035,0.2706227600574493,0.0,0.0,-0.2908328608861297,-0.3644882446722817
-0.0498876571655273,1.2260218858718872,-0.2172317951917648,-0.2387056350708007,0.1783620417118072,0.2697888612747192,0.0,0.0,0.5976782385548562,0.2356491669338034
-0.0520877838134765,1.2216883897781372,-0.2334758937358856,-0.194271981716156,0.1918853819370269,0.2704666256904602,0.0,0.0,-0.9327957630157472,0.979720950126648
-0.0542560592293739,1.2171576023101809,-0.2285043746232986,-0.2029304653406143,0.2036419212818145,0.2351308763027191,0.0,0.0,-0.9329248070716858,0.9821853637695312
-0.0563951507210731,1.2124441862106323,-0.2238040715456009,-0.210876315832138,0.213622510433197,0.1996117234230041,0.0,0.0,-0.9340699911117554,0.9964702129364014
-0.0584993362426757,1.2075321674346924,-0.218449592590332,-0.2194979339838028,0.221743494272232,0.1624199748039245,0.0,0.0,-0.93884015083313,0.9693557024002076
-0.0605623237788677,1.2024351358413696,-0.2122545689344406,-0.2274365425109863,0.2277766019105911,0.120661936700344,0.0,0.0,-0.7926141619682312,0.9885191917419434
-0.0625833496451377,1.1971595287322998,-0.2059334218502044,-0.2350663244724273,0.2316624373197555,0.0777167826890945,0.0,0.0,-0.9671544432640076,0.9910205602645874
-0.0645660385489463,1.191691756248474,-0.2001150548458099,-0.2433163523674011,0.2335448861122131,0.0376487411558628,0.0,0.0,-0.99098140001297,0.9919592142105104
-0.0665040984749794,1.186046481132507,-0.1934617012739181,-0.2508401870727539,0.2331903576850891,-0.0070907734334468,0.0,0.0,-0.8691200017929077,0.7225552797317505
-0.068426989018917,1.1802141666412354,-0.1904778778553009,-0.258929580450058,0.2313564419746399,-0.0366783924400806,0.0,0.0,-0.9897215366363524,0.9827959537506104
-0.0703063979744911,1.1741976737976074,-0.1839671283960342,-0.2667833268642425,0.2273291200399398,-0.0805462375283241,0.0,0.0,-0.980771541595459,0.9746519327163696
-0.0721609145402908,1.1679973602294922,-0.1797456443309784,-0.2747019231319427,0.221554696559906,-0.115488514304161,0.0,0.0,-0.9129805564880372,0.9146487712860109
-0.0739657431840896,1.1616108417510986,-0.1724490076303482,-0.2826604545116424,0.2134311497211456,-0.1624710112810135,0.0,0.0,-0.919114112854004,0.5529577732086182
-0.0757557898759841,1.1550220251083374,-0.1695388853549957,-0.2915005981922149,0.2038826495409011,-0.1909703314304351,0.0,0.0,-0.941361129283905,0.6686856746673584
-0.0775210410356521,1.1482384204864502,-0.1653496176004409,-0.2999931573867798,0.1926258504390716,-0.2251355648040771,0.0,0.0,-0.930188000202179,0.6954367160797119
-0.0792707428336143,1.1412498950958252,-0.162324458360672,-0.3090111911296844,0.1799233108758926,-0.2540507912635803,0.0,0.0,-0.9593680500984192,0.9259172677993774
-0.0809775367379188,1.1340621709823608,-0.1558713763952255,-0.3177265226840973,0.1650734096765518,-0.2969979643821716,0.0,0.0,-0.9073396325111388,0.8891783952713013
-0.0826435089111328,1.126678705215454,-0.1496163159608841,-0.326362669467926,0.1481049358844757,-0.3393690884113312,0.0,0.0,-0.945807695388794,0.5058822631835938
-0.0843137726187706,1.11909818649292,-0.1490130424499511,-0.3352158367633819,0.1301454156637191,-0.3591906428337097,0.0,0.0,-0.8405657410621643,0.5654295682907104
-0.085985854268074,1.1113206148147583,-0.1480947136878967,-0.3441142141819,0.1111328452825546,-0.3802515566349029,0.0,0.0,-0.8268301486968994,0.0616888999938964
-0.0876938849687576,1.1033343076705933,-0.1514689624309539,-0.353614866733551,0.0919455364346504,-0.3837460875511169,0.0,0.0,-0.8682137727737427,0.1561264991760254
-0.0894376784563064,1.095139741897583,-0.1548375338315963,-0.3631164729595184,0.0725790187716484,-0.3873302340507507,0.0,0.0,-0.906204879283905,0.6120715141296387
-0.0911739319562912,1.086746096611023,-0.1527369916439056,-0.3721721470355987,0.051925640553236,-0.4130677282810211,0.0,0.0,-0.8798655867576599,0.4534313678741455
-0.092945672571659,1.078144907951355,-0.1560920774936676,-0.3816792368888855,0.0310848262161016,-0.416816383600235,0.0,0.0,-0.876999020576477,-0.6279608607292175
-0.0948026627302169,1.069339394569397,-0.1656507700681686,-0.3910585641860962,0.0112944366410374,-0.3958078324794769,0.0,0.0,-0.8402525186538696,0.4145853519439697
-0.0966950431466102,1.060326099395752,-0.1689905226230621,-0.4005634486675262,-0.0086909886449575,-0.3997087478637695,0.0,0.0,-0.923595666885376,0.386366605758667
-0.0986227020621299,1.05110502243042,-0.1723212152719497,-0.4100693762302398,-0.0288749542087316,-0.4036791324615478,0.0,0.0,-0.8969785571098328,0.6771804094314575
-0.1005233749747276,1.0416804552078247,-0.1678590029478073,-0.4194491505622864,-0.0508173182606697,-0.4388473033905029,0.0,0.0,-0.8827188014984131,0.7000095844268799
-0.1023908630013465,1.0320473909378052,-0.1626265197992324,-0.4291256368160248,-0.0746761560440063,-0.4771773815155029,0.0,0.0,-0.986629068851471,-0.0371598005294799
-0.1042930632829666,1.0222090482711792,-0.1659257560968399,-0.4386467933654785,-0.0987425968050956,-0.4813287854194641,0.0,0.0,-0.97475004196167,-0.3822464942932129
-0.1062295883893966,1.012165665626526,-0.1692125499248504,-0.4481692016124725,-0.1230194121599197,-0.4855362772941589,0.0,0.0,-0.9201368689537048,-0.9214020371437072
-0.1082672104239463,1.0019209384918213,-0.1808595210313797,-0.4573608040809631,-0.1458296477794647,-0.4562048017978668,0.0,0.0,-0.9922754764556884,-0.9026997685432434
-0.1104207038879394,0.9914926886558532,-0.194417342543602,-0.4656597673892975,-0.1667476147413253,-0.4183589816093445,0.0,0.0,-0.9781771302223206,-0.8588025569915771
-0.1126616448163986,0.980868399143219,-0.2043648213148117,-0.4745163917541504,-0.1865178495645523,-0.3954046368598938,0.0,0.0,-0.6535232663154602,-0.9018741250038148
-0.115003302693367,0.9700568914413452,-0.2160235196352005,-0.4829019010066986,-0.2047690600156784,-0.3650243878364563,0.0,0.0,-0.7224726676940918,0.3683085441589355
-0.117378331720829,0.9590372443199158,-0.2192187309265136,-0.4924053847789764,-0.2232432812452316,-0.3694846630096435,0.0,0.0,-0.5589775443077087,-0.1597571969032287
-0.1197866424918174,0.9478095769882202,-0.222390741109848,-0.5019097924232483,-0.2419425696134567,-0.3739857375621795,0.0,0.0,-0.7114760875701904,-0.059679090976715
-0.1222277656197547,0.9363738894462584,-0.2255373746156692,-0.5114151835441589,-0.2608688473701477,-0.3785255551338196,0.0,0.0,-0.1098713278770446,-0.374539852142334
-0.124701403081417,0.9247305393218994,-0.2286562472581863,-0.5209214687347412,-0.2800239622592926,-0.3831023275852203,0.0,0.0,-0.6365848779678345,-0.8523050546646118
-0.1272668838500976,0.9129155278205872,-0.2393361330032348,-0.5285171866416931,-0.2977487742900848,-0.3544959723949432,0.0,0.0,0.165973424911499,0.2550874948501587
-0.1298296898603439,0.9014005064964294,-0.2386394739151001,-0.5154914855957031,-0.3160131573677063,-0.3652878403663635,0.0,0.0,0.5869874954223633,-0.7802466750144958
-0.1323720961809158,0.890681803226471,-0.2378566265106201,-0.4800521731376648,-0.3330822587013244,-0.3413821756839752,0.0,0.0,-0.6139966249465942,-0.8245874643325806
-0.1350035667419433,0.8797861933708191,-0.2481457293033599,-0.487794280052185,-0.3487852811813354,-0.3140604794025421,0.0,0.0,-0.739859938621521,-0.0201785564422607
-0.1376657485961914,0.8686815500259399,-0.2510748505592346,-0.4972928464412689,-0.3647254407405853,-0.3188031017780304,0.0,0.0,-0.5682597160339355,-0.2284963726997375
-0.1403579711914062,0.8573680520057678,-0.2539562582969665,-0.5067921876907349,-0.3809041380882263,-0.3235737085342407,0.0,0.0,-0.200991690158844,-0.8502596616744995
-0.1431471854448318,0.8458787798881531,-0.2652333974838257,-0.5143550634384155,-0.3954802453517914,-0.2915229797363281,0.0,0.0,0.5263347625732422,-0.6145903468132019
-0.145832821726799,0.8345781564712524,-0.2560738325119018,-0.5057895183563232,-0.4088887870311737,-0.2681710124015808,0.0,0.0,0.7329113483428955,-0.3309249877929687
-0.1484360694885254,0.8235776424407959,-0.2475229799747467,-0.4926684200763702,-0.4226932227611542,-0.2760886549949646,0.0,0.0,0.7152308225631714,-0.9633479714393616
-0.1508046090602874,0.8135542273521423,-0.2257527410984039,-0.4488621950149536,-0.434741199016571,-0.2409591227769851,0.0,0.0,0.8615195751190186,-0.9463627338409424
-0.1527872085571289,0.8045629858970642,-0.1889408081769943,-0.402519553899765,-0.4448958039283752,-0.2030920088291168,0.0,0.0,0.977141261100769,-0.9212267398834229
-0.1545711457729339,0.7968359589576721,-0.1704249083995819,-0.3459876179695129,-0.4536250233650207,-0.1745843887329101,0.0,0.0,0.9228352308273317,-0.3364666104316711
-0.1563474684953689,0.7895168662071228,-0.1688298732042312,-0.3281812071800232,-0.4632979929447174,-0.1934597492218017,0.0,0.0,0.9431594610214232,-0.2798941135406494
-0.1576906144618988,0.7832028865814209,-0.1255393028259277,-0.283569186925888,-0.4729999601840973,-0.1940393149852752,0.0,0.0,0.9253511428833008,-0.6306140422821045
-0.1589086502790451,0.7776941657066345,-0.1137367263436317,-0.2476148456335067,-0.4819521009922027,-0.1790433824062347,0.0,0.0,0.8395544290542603,-0.7063080072402954
-0.159906193614006,0.7730645537376404,-0.0927125364542007,-0.2082382142543792,-0.4898131489753723,-0.1572208106517791,0.0,0.0,0.7419828176498413,-0.890426754951477
-0.1606510132551193,0.7692628502845764,-0.0689050555229187,-0.1709642559289932,-0.4960655868053436,-0.1250487715005874,0.0,0.0,0.5976283550262451,-0.68763667345047
-0.1611150801181793,0.7659648060798645,-0.0420710071921348,-0.1481537222862243,-0.5009407997131348,-0.0975043624639511,0.0,0.0,-0.3264021277427673,-0.8601292371749878
-0.1616582870483398,0.7624945044517517,-0.0512982979416847,-0.1553380638360977,-0.5043389201164246,-0.0679623037576675,0.0,0.0,0.5871304273605347,-0.8786332011222839
-0.1620078086853027,0.7592926025390625,-0.0334651246666908,-0.1428516507148742,-0.506019651889801,-0.0336147248744964,0.0,0.0,-0.3235090374946594,-0.9495292901992798
-0.1624235212802887,0.755919873714447,-0.0411949753761291,-0.1500386595726013,-0.5064403414726257,-0.0084142731502652,0.0,0.0,-0.1315699219703674,-0.9156488180160522
-0.162905216217041,0.7523695230484009,-0.048876978456974,-0.1575317829847335,-0.5056414008140564,0.0159785933792591,0.0,0.0,0.0547356605529785,-0.95839262008667
-0.1632355749607086,0.749300479888916,-0.0353261455893516,-0.1355521529912948,-0.5030622482299805,0.0515828803181648,0.0,0.0,0.1289671659469604,-0.9001772403717041
-0.1633661240339279,0.7467402815818787,-0.0168235562741756,-0.1124126389622688,-0.498830109834671,0.0846432968974113,0.0,0.0,0.1642239093780517,-0.8578170537948608
-0.1632513999938964,0.7445660829544067,0.0062970062717795,-0.0947618708014488,-0.4930106401443481,0.116389200091362,0.0,0.0,-0.4261378049850464,-0.9527454972267152
-0.163203626871109,0.742216169834137,-0.0016787480562925,-0.1021512374281883,-0.4857946932315826,0.1443186551332473,0.0,0.0,-0.2365021705627441,-0.8686867356300354
-0.1632295548915863,0.7397049069404602,-0.010608909651637,-0.1088119000196456,-0.4768558740615845,0.1787764877080917,0.0,0.0,-0.3565000295639038,-0.8488515615463257
-0.1633085310459137,0.7370314002037048,-0.0171261634677648,-0.1156792193651199,-0.4666310548782348,0.2044963389635086,0.0,0.0,-0.6151390671730042,-0.791885256767273
-0.1634490042924881,0.7341910004615784,-0.0246516149491071,-0.1227273195981979,-0.4549446105957031,0.2337291687726974,0.0,0.0,-0.628234326839447,-0.7440952062606812
-0.163652703166008,0.7311932444572449,-0.0325169563293457,-0.1293327957391739,-0.4416336417198181,0.2662196755409241,0.0,0.0,-0.6360443234443665,-0.3641210198402405
-0.1638567894697189,0.7279858589172363,-0.0323940329253673,-0.138827845454216,-0.4285850524902344,0.2609725892543793,0.0,0.0,-0.4652925729751587,-0.5170879364013672
-0.1640986502170562,0.7246000170707703,-0.0370901152491569,-0.1466199904680252,-0.4146232604980469,0.2792355418205261,0.0,0.0,-0.2484315633773803,-0.3299025297164917
-0.164337545633316,0.7210046648979187,-0.0366332158446311,-0.1561160385608673,-0.4009246826171875,0.2739717960357666,0.0,0.0,-0.2233498692512512,-0.0567108988761901
-0.1645719558000564,0.7171998023986816,-0.0360125824809074,-0.1656113564968109,-0.3874895572662353,0.2687027752399444,0.0,0.0,-0.4798201322555542,-0.3880850672721863
-0.1648003607988357,0.7131853699684143,-0.0352319851517677,-0.1751059591770172,-0.3743180334568023,0.2634304165840149,0.0,0.0,-0.7760109901428223,-0.174379825592041
-0.1650213301181793,0.7089611887931824,-0.034295879304409,-0.1845997869968414,-0.3614102005958557,0.2581568956375122,0.0,0.0,-0.8724678754806519,0.452606201171875
-0.1652332246303558,0.7045271992683411,-0.033209279179573,-0.1940928846597671,-0.3487659692764282,0.252884566783905,0.0,0.0,-0.9798907041549684,0.4440834522247314
-0.1654349267482757,0.6998831629753113,-0.0319776758551597,-0.2035852521657943,-0.3363851904869079,0.247616171836853,0.0,0.0,-0.9163677096366882,0.3353784084320068
-0.1656248122453689,0.6950291991233826,-0.0306069590151309,-0.2130768895149231,-0.3242675065994262,0.242354542016983,0.0,0.0,-0.7855994701385498,0.6044785976409912
-0.165757268667221,0.6899474263191223,-0.0235197506844997,-0.2235831916332245,-0.3135943710803985,0.2134626805782318,0.0,0.0,-0.9867216348648072,0.4371857643127441
-0.1658756285905838,0.6846553683280945,-0.0218884833157062,-0.2330712676048278,-0.3031831383705139,0.2082248032093048,0.0,0.0,-0.9854519963264464,0.6323950290679932
-0.1659253090620041,0.6791273355484009,-0.0133794248104095,-0.2439654022455215,-0.2944832444190979,0.1739977151155471,0.0,0.0,-0.9790793657302856,-0.0116659998893737
-0.1659585982561111,0.6733879446983337,-0.0115137035027146,-0.2534500360488891,-0.2860433459281921,0.1687977910041809,0.0,0.0,-0.9727604985237122,0.0995478630065918
-0.1659743338823318,0.6674373149871826,-0.0095410915091633,-0.262934148311615,-0.2778622210025787,0.1636226177215576,0.0,0.0,-0.842434823513031,-0.2015570402145385
-0.1659717559814453,0.6612753868103027,-0.0074679865501821,-0.2724177241325378,-0.2699383795261383,0.1584765613079071,0.0,0.0,-0.8474026918411255,0.0636550188064575
-0.1659498214721679,0.654901921749115,-0.0053006494417786,-0.2819008529186249,-0.2622701823711395,0.1533640474081039,0.0,0.0,-0.9763226509094238,-0.2812527418136596
-0.1659076660871505,0.6483169794082642,-0.0030451654456555,-0.2913834154605865,-0.2548556923866272,0.1482900977134704,0.0,0.0,-0.9130387902259828,-0.4745376110076904
-0.165844440460205,0.6415204405784607,-0.0007073987508192,-0.3008654713630676,-0.2476927191019058,0.1432598084211349,0.0,0.0,-0.7200081944465637,-0.4543516635894775
-0.1657593697309494,0.6345122456550598,0.0017070185858756,-0.3103469908237457,-0.2407787889242172,0.1382786780595779,0.0,0.0,-0.950912356376648,0.7949632406234741
-0.1655789315700531,0.6272578239440918,0.0134104415774345,-0.3216691017150879,-0.2360699027776718,0.094177633523941,0.0,0.0,-0.9698225259780884,-0.2094801664352417
-0.1653753221035003,0.6197912693023682,0.0159629378467798,-0.3311479389667511,-0.2316042482852935,0.0893132016062736,0.0,0.0,-0.950270175933838,-0.5482947826385498
-0.165187269449234,0.61213219165802,0.013576591387391,-0.339599996805191,-0.2263146936893463,0.1057914346456527,0.0,0.0,-0.979442298412323,-0.7105863690376282
