x_pos,y_pos,x_vel,y_vel,angle,ang_vel,leg_1,leg_2,main_booster,lat_booster
-0.0015542029868811,1.4034857749938965,-0.1574852764606475,-0.3304161131381988,0.0018489641370251,0.036479152739048,0.0,0.0,0.0537612438201904,0.8464765548706055
-0.0030345916748046,1.396373271942139,-0.1482466161251068,-0.316108375787735,0.0020497404038906,0.0040162103250622,0.0,0.0,-0.2404807806015014,0.4213908910751343
-0.0045460700057446,1.3891215324401855,-0.1514035165309906,-0.3223010301589966,0.0023072324693202,0.0051503959111869,0.0,0.0,-0.5662810802459717,0.7104966640472412
-0.0060437200590968,1.3817288875579834,-0.1489490270614624,-0.3285627663135528,0.0014932780759409,-0.0162805877625942,0.0,0.0,-0.1359489560127258,0.4633767604827881
-0.0075727463699877,1.374197483062744,-0.1521302759647369,-0.3347281813621521,0.0007373229018412,-0.0151204969733953,0.0,0.0,0.0430716276168823,0.6748709678649902
-0.0089815137907862,1.367040991783142,-0.1389269679784774,-0.3180698752403259,-0.0011860628146678,-0.0384715162217617,0.0,0.0,-0.0250911116600036,-0.0578253269195556
-0.0104216579347848,1.3597456216812134,-0.1421280801296234,-0.3242397308349609,-0.0030507498886436,-0.0372972413897514,0.0,0.0,-0.4645653963088989,0.4701161384582519
-0.0118933673948049,1.3523117303848269,-0.1453395187854766,-0.3304043114185333,-0.0048570362851023,-0.0361291356384754,0.0,0.0,0.1492687463760376,0.7004472017288208
-0.0133480075746774,1.3456194400787354,-0.1422919481992721,-0.297444075345993,-0.0080038821324706,-0.0629425793886184,0.0,0.0,-0.3105537891387939,0.089146614074707
-0.0148344039916992,1.3387885093688965,-0.1455165296792984,-0.3036177456378937,-0.0110906967893242,-0.0617420263588428,0.0,0.0,-0.4707925915718078,0.0072411298751831
-0.0163524635136127,1.3318190574645996,-0.1487490385770797,-0.3097813725471496,-0.014118205755949,-0.060555525124073,0.0,0.0,-0.3265969753265381,0.0035072565078735
-0.0179022792726755,1.3247109651565552,-0.1519882827997207,-0.3159470856189728,-0.0170858167111873,-0.0593574121594429,0.0,0.0,-0.5488227605819702,0.425839900970459
-0.0194840431213378,1.3174643516540527,-0.1552336513996124,-0.3221134841442108,-0.0199932679533958,-0.058153860270977,0.0,0.0,-0.5084536671638489,-0.2148274183273315
-0.0210975650697946,1.3100788593292236,-0.1584845632314682,-0.3282800316810608,-0.0228402838110923,-0.0569457523524761,0.0,0.0,-0.7032988667488098,0.614093542098999
-0.0226833336055278,1.3025593757629397,-0.1542332917451858,-0.3342784643173218,-0.0271293558180332,-0.0857894644141197,0.0,0.0,0.0778989791870117,0.4691355228424072
-0.0242241863161325,1.2951891422271729,-0.150152176618576,-0.3276442289352417,-0.0310203414410352,-0.0778266340494155,0.0,0.0,-0.4495531320571899,0.5926456451416016
-0.0257393829524517,1.287684440612793,-0.1461920291185379,-0.3336564302444458,-0.0362951792776584,-0.1055061593651771,0.0,0.0,-0.199343204498291,0.527511477470398
-0.0272352211177349,1.2800343036651611,-0.1430063545703888,-0.3401794135570526,-0.0428031273186206,-0.1301706880331039,0.0,0.0,-0.6022464036941528,0.1347633600234985
-0.0287629123777151,1.27224600315094,-0.146265372633934,-0.3463489115238189,-0.049248743802309,-0.1289241015911102,0.0,0.0,-0.515571653842926,0.604973554611206
-0.0302813537418842,1.2643159627914429,-0.1443407088518142,-0.3527019321918487,-0.0566737279295921,-0.1485130935907364,0.0,0.0,-0.7695966362953186,0.4502077102661133
-0.0318317413330078,1.256247878074646,-0.1476012915372848,-0.3588728010654449,-0.0640356913208961,-0.1472524106502533,0.0,0.0,-0.7656170129776001,-0.0628014802932739
-0.0334139838814735,1.2480418682098389,-0.1508637964725494,-0.3650437295436859,-0.0713350921869278,-0.1460010707378387,0.0,0.0,-0.6905162334442139,0.5769870281219482
-0.0349730476737022,1.2396910190582275,-0.1471913009881973,-0.3715807199478149,-0.0799674615263938,-0.1726627647876739,0.0,0.0,-0.8081778287887573,0.5772161483764648
-0.0365134254097938,1.2311899662017822,-0.1441133618354797,-0.3783787190914154,-0.0898204818367958,-0.197078138589859,0.0,0.0,-0.6230111718177795,0.2395797967910766
-0.038085650652647,1.2225514650344849,-0.1473711133003235,-0.3845540285110473,-0.099609687924385,-0.1958015859127044,0.0,0.0,-0.7786746025085449,0.4624674320220947
-0.0396912582218647,1.2137540578842163,-0.1507710367441177,-0.3916784226894378,-0.1093363463878631,-0.1945326626300811,0.0,0.0,-0.9392470717430116,0.2131890058517456
-0.0413290970027446,1.2048192024230957,-0.1540558040142059,-0.3978497385978699,-0.1190008744597435,-0.193290501832962,0.0,0.0,-0.9542896747589112,0.6118253469467163
-0.0429609306156635,1.1957465410232544,-0.152565598487854,-0.4041170477867126,-0.1295569539070129,-0.2111219465732574,0.0,0.0,-0.614059567451477,0.0129638910293579
-0.0446248054504394,1.186536431312561,-0.1558479368686676,-0.4102896153926849,-0.1400512754917144,-0.2098865061998367,0.0,0.0,-0.871912956237793,0.4738162755966186
-0.0463206283748149,1.1771888732910156,-0.1591282784938812,-0.4164620041847229,-0.150484025478363,-0.2086550742387771,0.0,0.0,-0.9397586584091188,0.3651739358901977
-0.0480485931038856,1.1677041053771973,-0.1624061912298202,-0.4226342737674713,-0.1608554422855377,-0.2074284851551056,0.0,0.0,-0.8502930402755737,0.4797819852828979
-0.0498084053397178,1.1580818891525269,-0.1656812131404876,-0.428806334733963,-0.1711657792329788,-0.2062071859836578,0.0,0.0,-0.7841141223907471,0.3187534809112549
-0.0516001693904399,1.1483222246170044,-0.1689528822898864,-0.4349782764911651,-0.1814153492450714,-0.2049909830093383,0.0,0.0,-0.7393256425857544,-0.2570326924324035
-0.0534237846732139,1.13842511177063,-0.1722206622362136,-0.4411500096321106,-0.1916043758392334,-0.2037808150053024,0.0,0.0,-0.6786825656890869,-0.4849382638931274
-0.0552793517708778,1.1283903121948242,-0.1754840314388275,-0.4473215639591217,-0.2017332315444946,-0.2025770395994186,0.0,0.0,-0.717431902885437,-0.4501473307609558
-0.0571666732430458,1.118218183517456,-0.1787424832582473,-0.4534930288791656,-0.2118022292852401,-0.2013804018497467,0.0,0.0,-0.8458900451660156,0.1011655330657959
-0.0590856559574604,1.1079083681106567,-0.1819953769445419,-0.4596643149852752,-0.2218118011951446,-0.2001915276050567,0.0,0.0,0.0857582092285156,-0.0832958221435546
-0.0609018318355083,1.0981848239898682,-0.1719092428684234,-0.4336525201797485,-0.23164664208889,-0.1966970711946487,0.0,0.0,-0.9118472933769226,-0.2607462406158447
-0.0627496689558029,1.0883235931396484,-0.175149068236351,-0.4398232996463775,-0.2414229214191436,-0.1955258548259735,0.0,0.0,-0.9812245965003968,-0.3841589689254761
-0.0646289810538292,1.0783246755599976,-0.178381398320198,-0.445993959903717,-0.2511411309242248,-0.1943646371364593,0.0,0.0,-0.919571042060852,-0.6216182112693787
-0.066594697535038,1.0682145357131958,-0.188560664653778,-0.4507344961166382,-0.2593182623386383,-0.1635428369045257,0.0,0.0,-0.719902515411377,-0.3641587495803833
-0.0685918778181076,1.0579663515090942,-0.1917747855186462,-0.4569026529788971,-0.2674385011196136,-0.1624045521020889,0.0,0.0,-0.7101269364356995,-0.5067865252494812
-0.0706537216901779,1.0475878715515137,-0.1991490721702575,-0.4625672698020935,-0.2746468484401703,-0.1441669166088104,0.0,0.0,-0.8963629603385925,-0.4171794652938843
-0.0727467536926269,1.0370712280273438,-0.2023418396711349,-0.4687342345714569,-0.2817995846271515,-0.1430549919605255,0.0,0.0,-0.8112242817878723,-0.7509867548942566
-0.0749334320425987,1.0264339447021484,-0.2133368551731109,-0.4738049805164337,-0.287279337644577,-0.1095952540636062,0.0,0.0,-0.475218653678894,-0.8127744197845459
-0.07720947265625,1.0156753063201904,-0.2238125056028366,-0.4789147078990936,-0.2911885976791382,-0.0781849771738052,0.0,0.0,0.7184066772460938,-0.0260819196701049
-0.079322338104248,1.0054184198379517,-0.2078258991241455,-0.4565532803535461,-0.2947511672973633,-0.071251206099987,0.0,0.0,0.6827936172485352,0.085444688796997
-0.081328772008419,0.9962915778160096,-0.1967303305864334,-0.4064292311668396,-0.2987910509109497,-0.0807978957891464,0.0,0.0,-0.2574124932289123,-0.010378360748291
-0.0833659172058105,0.9870263338088988,-0.1998506486415863,-0.4125933051109314,-0.3027796149253845,-0.0797714963555336,0.0,0.0,0.6196367740631104,0.3167258501052856
-0.0853045433759689,0.9783455729484558,-0.189970776438713,-0.3866347372531891,-0.3068139553070068,-0.0806867331266403,0.0,0.0,-0.3501478433609009,0.4271776676177978
-0.0872735977172851,0.9695258736610411,-0.1930530965328216,-0.3927988111972809,-0.3107991814613342,-0.0797045975923538,0.0,0.0,0.0909593105316162,-0.6825350522994995
-0.0892151817679405,0.9613110423088074,-0.1916671097278595,-0.3656396269798279,-0.3133839070796966,-0.0516942255198955,0.0,0.0,-0.0511300563812255,0.6510149240493774
-0.0911298766732215,0.9529260993003844,-0.1875078976154327,-0.3735271096229553,-0.3174939751625061,-0.0822014436125755,0.0,0.0,-0.2922337651252746,0.2699497938156128
-0.0930741280317306,0.944402515888214,-0.1905203014612198,-0.3796912431716919,-0.3215588927268982,-0.0812983959913253,0.0,0.0,-0.678016185760498,-0.4157490730285644
-0.0950478538870811,0.935740053653717,-0.1935053765773773,-0.3858554661273956,-0.3255801796913147,-0.0804255232214927,0.0,0.0,0.0754997730255127,0.1485613584518432
-0.0970114693045616,0.9274048805236816,-0.1922658830881118,-0.3713806271553039,-0.329847127199173,-0.0853396728634834,0.0,0.0,-0.6780183911323547,-0.696764349937439
-0.0990461334586143,0.9189595580101012,-0.2005791217088699,-0.3760138154029846,-0.3328650295734405,-0.0603582374751567,0.0,0.0,0.3600534200668335,-0.1493361592292785
-0.1008206382393837,0.9111067652702332,-0.1750903576612472,-0.3495546281337738,-0.3353188931941986,-0.0490773729979991,0.0,0.0,-0.1591850519180297,-0.1123555898666381
-0.1026231795549392,0.903115212917328,-0.1779414415359497,-0.3557181358337402,-0.3377360999584198,-0.0483441948890686,0.0,0.0,0.8653872013092041,-0.7993208169937134
-0.1043057441711425,0.8963250517845154,-0.167372852563858,-0.3019962608814239,-0.3386661112308502,-0.018599946051836,0.0,0.0,0.6800975799560547,-0.4575527310371399
-0.105841539800167,0.8899027705192566,-0.1529474556446075,-0.2855793833732605,-0.3393226861953735,-0.0131314452737569,0.0,0.0,0.8888983726501465,-0.2150488495826721
-0.107245348393917,0.8845333456993103,-0.139276772737503,-0.2389036267995834,-0.3404791355133056,-0.0231287274509668,0.0,0.0,0.8183881044387817,0.0080243349075317
-0.1083573326468467,0.8797618746757507,-0.1107234135270118,-0.2121825665235519,-0.3409785330295563,-0.009987773373723,0.0,0.0,0.5427663326263428,-0.0925825834274292
-0.1092830672860145,0.8756495714187622,-0.0922202169895172,-0.1828527003526687,-0.3413501977920532,-0.0074331210926175,0.0,0.0,0.8443779945373535,0.2837293148040771
-0.1100761443376541,0.8720266222953796,-0.0790122672915458,-0.1610903590917587,-0.3416578769683838,-0.0061533572152256,0.0,0.0,0.9117652177810668,0.1115435361862182
-0.1107997894287109,0.8693034052848816,-0.0714564025402069,-0.1212464869022369,-0.3426070213317871,-0.0189828854054212,0.0,0.0,0.8323788642883301,-0.5376794338226318
-0.111243151128292,0.8677968978881836,-0.0445721223950386,-0.0669019669294357,-0.3423583209514618,0.0049738329835236,0.0,0.0,0.1975467205047607,-0.8587701320648193
-0.1116400733590126,0.8664409518241882,-0.0416430458426475,-0.0598034523427486,-0.3403110206127167,0.0409456826746463,0.0,0.0,-0.2058606147766113,-0.5826273560523987
-0.1120993643999099,0.8649744987487793,-0.0489904209971427,-0.0644543021917343,-0.3371031582355499,0.0641570314764976,0.0,0.0,0.344795823097229,-0.5709079504013062
-0.1125748604536056,0.8639762997627258,-0.0515850856900215,-0.0434264093637466,-0.3328905701637268,0.0842509046196937,0.0,0.0,-0.1365554332733154,0.059093952178955
-0.1130714416503906,0.8628397583961487,-0.0537056922912597,-0.0495915636420249,-0.3286693096160888,0.084425039589405,0.0,0.0,0.2859339714050293,-0.095184326171875
-0.1134091392159462,0.8622406721115112,-0.0379396416246891,-0.0256831366568803,-0.3243311643600464,0.0867633521556854,0.0,0.0,-0.4616914987564087,-0.0917474627494812
-0.1137661933898925,0.8615032434463501,-0.039877064526081,-0.0318485274910926,-0.3199893236160278,0.0868369862437248,0.0,0.0,-0.0225545763969421,0.1223087310791015
-0.1141415610909462,0.8606273531913757,-0.0417157635092735,-0.0380139909684658,-0.3156462907791137,0.0868608802556991,0.0,0.0,-0.019352912902832,0.2775222063064575
-0.1145341843366622,0.8596129417419434,-0.0434510931372642,-0.0441795140504837,-0.3113044798374176,0.086835578083992,0.0,0.0,-0.4748911261558532,0.0339511632919311
-0.1149431243538856,0.8584599494934082,-0.0450785271823406,-0.0503451041877269,-0.3069663643836975,0.0867617279291153,0.0,0.0,0.5801692008972168,0.4575146436691284
-0.1152978911995887,0.8576467037200928,-0.0395290441811084,-0.0352994427084922,-0.3027741909027099,0.083843745291233,0.0,0.0,0.34926438331604,0.2099756002426147
-0.1154800429940223,0.857625424861908,-0.0222325567156076,-0.0001147535076597,-0.2986220717430115,0.0830423384904861,0.0,0.0,-0.3617585897445678,0.6379609107971191
-0.1156193763017654,0.8574466109275818,-0.0165237504988908,-0.0074180676601827,-0.2959443926811218,0.0535538792610168,0.0,0.0,-0.4916934967041015,0.5284371376037598
-0.1157367676496505,0.8571192622184753,-0.0134893702343106,-0.0141876209527254,-0.2941486239433288,0.0359161980450153,0.0,0.0,-0.6256312727928162,0.1567784547805786
-0.1158646568655967,0.85665363073349,-0.0145169915631413,-0.0203522387892007,-0.2923679947853088,0.0356132499873638,0.0,0.0,-0.3189253807067871,0.2912139892578125
-0.1160017028450965,0.8560492396354675,-0.0154151562601327,-0.02651690505445,-0.2906046509742737,0.0352677106857299,0.0,0.0,-0.7652682065963745,0.1369458436965942
-0.1161465644836425,0.8553063869476318,-0.0161816459149122,-0.0326816104352474,-0.2888606190681457,0.0348807722330093,0.0,0.0,-0.5291171073913574,-0.1401011943817138
-0.1162980049848556,0.8544248938560486,-0.0168147515505552,-0.0388463661074638,-0.2871379554271698,0.0344537533819675,0.0,0.0,-0.3717057108879089,-0.1232836842536926
-0.1164546012878418,0.8534048199653625,-0.0173132754862308,-0.0450111553072929,-0.2854385673999786,0.0339879281818866,0.0,0.0,-0.3738607168197632,0.0527218580245971
-0.1166151016950607,0.8522462248802185,-0.0176765564829111,-0.0511759743094444,-0.2837643027305603,0.0334846153855323,0.0,0.0,0.0294191837310791,-0.0966808199882507
-0.1167042702436447,0.8512500524520874,-0.0105810929089784,-0.0439534112811088,-0.2820487320423126,0.0343111790716648,0.0,0.0,-0.2509728670120239,-0.1108625531196594
-0.1167945861816406,0.8501152396202087,-0.0106741022318601,-0.0501183085143566,-0.280361920595169,0.0337367877364158,0.0,0.0,-0.1811227202415466,0.2724007368087768
-0.1168848052620887,0.8488419055938721,-0.0106331426650285,-0.056283239275217,-0.2787054777145386,0.0331288762390613,0.0,0.0,-0.7706193327903748,-0.2058420181274414
-0.1169735938310623,0.8474299907684326,-0.0104596801102161,-0.0624481923878192,-0.2770810425281524,0.0324887819588184,0.0,0.0,0.0577161312103271,-0.3061362504959106
-0.1169315353035926,0.846575140953064,0.0026700175367295,-0.0377088263630867,-0.2755069136619568,0.0314817316830158,0.0,0.0,-0.6072543263435364,0.4082263708114624
-0.1168854683637619,0.8455814719200134,0.0031021977774798,-0.0438738204538822,-0.2739678621292114,0.0307812876999378,0.0,0.0,-0.4576574563980102,-0.4029871821403503
-0.1168342605233192,0.844449520111084,0.0036597363650798,-0.0500388331711292,-0.2724652290344238,0.030052637681365,0.0,0.0,-0.0957283973693847,-0.0865842700004577
-0.1167765632271766,0.8431791067123413,0.0043394663371145,-0.0562038645148277,-0.2710003852844238,0.0292970947921276,0.0,0.0,-0.5110998749732971,-0.1678141355514526
-0.1167112365365028,0.8417698740959167,0.0051379045471549,-0.0623689070343971,-0.2695745825767517,0.0285159014165401,0.0,0.0,-0.5180233120918274,0.0780169963836669
-0.1166371330618858,0.8402223587036133,0.0060512963682413,-0.0685339644551277,-0.2681891024112701,0.0277103818953037,0.0,0.0,-0.2115707993507385,-0.4354097247123718
-0.116553209722042,0.8385362029075623,0.0070756650529801,-0.0746990367770195,-0.2668450176715851,0.026881730183959,0.0,0.0,-0.5883110761642456,-0.1727079153060913
-0.1164584159851074,0.836711585521698,0.0082068620249629,-0.0808641090989112,-0.2655434608459472,0.0260311905294656,0.0,0.0,-0.3647893667221069,-0.350685715675354
-0.1163517013192176,0.834748387336731,0.0094406092539429,-0.0870291963219642,-0.2642854750156402,0.0251598954200744,0.0,0.0,-0.343265175819397,-0.3922543525695801
-0.1162320151925087,0.8326466679573059,0.0107725383713841,-0.0931942835450172,-0.2630720138549804,0.0242690332233905,0.0,0.0,-0.2989468574523926,-0.0668378472328186
-0.1160986870527267,0.8304064869880676,0.0121982414275407,-0.099359393119812,-0.2619040310382843,0.023359665647149,0.0,0.0,-0.1482415795326233,-0.6363174319267273
-0.1160014122724533,0.8280461430549622,0.0073193102143704,-0.104479432106018,-0.2594433724880218,0.0492132529616355,0.0,0.0,-0.1735974550247192,0.1031427383422851
-0.1158885955810546,0.8255471587181091,0.0089191580191254,-0.1106449216604232,-0.2570298612117767,0.0482700876891613,0.0,0.0,-0.6636067628860474,-0.286449670791626
-0.1157594695687294,0.8229098916053772,0.0105996103957295,-0.1168104037642479,-0.2546643018722534,0.047311432659626,0.0,0.0,-0.8879667520523071,-0.4100303649902344
-0.1156131774187088,0.8201341032981873,0.0123563911765813,-0.1229758709669113,-0.2523473799228668,0.0463383421301841,0.0,0.0,-0.7514098286628723,0.0903767347335815
-0.1154491454362869,0.8172199130058289,0.0141853168606758,-0.1291413456201553,-0.2500797808170318,0.0453516580164432,0.0,0.0,-0.325690746307373,-0.145338773727417
-0.1152665168046951,0.8141672015190125,0.0160823129117488,-0.1353068053722381,-0.247862160205841,0.044352289289236,0.0,0.0,-0.8905934691429138,-0.6703391075134277
-0.115117073059082,0.811001718044281,0.0114337708801031,-0.1401014775037765,-0.2442846894264221,0.0715493410825729,0.0,0.0,-0.9687433242797852,0.7828354835510254
-0.1148721724748611,0.8076788187026978,0.0229340773075819,-0.1474264711141586,-0.2427060604095459,0.0315729305148124,0.0,0.0,-0.9324117302894592,0.4030392169952392
-0.1146069541573524,0.8042173981666565,0.025012195110321,-0.1535917073488235,-0.2411790490150451,0.0305403284728527,0.0,0.0,-0.9865438938140868,-0.3720089197158813
-0.1143210381269455,0.800617516040802,0.0271434094756841,-0.1597569435834884,-0.2397041320800781,0.0294981785118579,0.0,0.0,-0.9930539727211,-0.1139640808105468
-0.1140137687325477,0.7968791723251343,0.0293243341147899,-0.1659221649169922,-0.2382817566394806,0.0284472107887268,0.0,0.0,-0.9981837272644044,-0.4657735824584961
-0.1136848479509353,0.7930023074150085,0.0315517336130142,-0.1720873862504959,-0.2369123697280883,0.0273880846798419,0.0,0.0,-0.7864905595779419,-0.6154561042785645
-0.113390251994133,0.7890084981918335,0.0266893915832042,-0.1770563125610351,-0.2341016083955764,0.0562158823013305,0.0,0.0,-0.9999572038650512,-0.505902111530304
-0.11312036216259,0.7848920226097107,0.0230501107871532,-0.1823367774486541,-0.2301077991724014,0.0798762217164039,0.0,0.0,-0.9800043702125548,0.8479033708572388
-0.1127647385001182,0.7806143760681152,0.033298410475254,-0.1897591054439544,-0.227816641330719,0.0458235740661621,0.0,0.0,-0.9491015076637268,-0.6755480170249939
-0.1124356240034103,0.7762145400047302,0.0294087883085012,-0.1950118541717529,-0.2242780476808548,0.0707721561193466,0.0,0.0,-0.9999898076057434,0.5753105878829956
-0.1120299324393272,0.7716528177261353,0.0385270491242408,-0.2024365812540054,-0.2222085148096084,0.0413905903697013,0.0,0.0,-0.9972834587097168,0.1162958145141601
-0.1116003021597862,0.7669525742530823,0.0409732721745967,-0.2086019515991211,-0.2201938033103943,0.04029406234622,0.0,0.0,-0.997705578804016,0.140099287033081
-0.1111464500427246,0.7621137499809265,0.0434472188353538,,-0.2182341665029525,0.0391931608319282,0.0,0.0,-0.997700333595276,-0.9298644065856934
