x_pos,y_pos,x_vel,y_vel,angle,ang_vel,leg_1,leg_2,main_booster,lat_booster
-0.0015912055969238,1.4035046100616455,-0.1604263484477996,-0.3295799195766449,0.0011625608894973,0.0228884331881999,0.0,0.0,0.7052569134725548,0.7319960519351609
-0.0031363486777991,1.396703004837036,-0.1536768823862075,-0.3022891581058502,0.0003280795062892,-0.0166904106736183,0.0,0.0,0.4214361409806824,-0.7836845654186879
-0.0046852109953761,1.3902966976165771,-0.1551608145236969,-0.2847275733947754,0.0006008412456139,0.0054558245465159,0.0,0.0,0.2140711369516212,-0.926073432743268
-0.0064805983565747,1.3843178749084473,-0.1809473931789398,-0.2657266855239868,0.0019937134347856,0.0278598461300134,0.0,0.0,-0.9912947336968632,0.6086413729281945
-0.0082904817536473,1.3782211542129517,-0.1802559643983841,-0.2709640860557556,0.0012728667352348,-0.0144180404022336,0.0,0.0,0.1328339532157558,0.7236490370422008
-0.0100100515410304,1.3725624084472656,-0.1692594587802887,-0.2514961361885071,-0.001406421768479,-0.053590752184391,0.0,0.0,-0.9453234535398584,-0.871072791483098
-0.011875057592988,1.366783857345581,-0.1849365383386612,-0.256822258234024,-0.0029478152282536,-0.0308306273072958,0.0,0.0,-0.6616996807395379,0.9941408302667456
-0.0137172695249319,1.3608883619308472,-0.179520696401596,-0.2620452046394348,-0.0075967330485582,-0.0929871723055839,0.0,0.0,-0.6642478909510208,0.7250206279763031
-0.015578937716782,1.3548805713653564,-0.1793885976076126,-0.2670618295669555,-0.0143012125045061,-0.1341017186641693,0.0,0.0,0.2927029450776628,-0.793553723382444
-0.0175716392695903,1.3496122360229492,-0.1934284269809723,-0.2342130839824676,-0.0200832765549421,-0.1156518906354904,0.0,0.0,-0.6406034493761732,0.6873738568523557
-0.0195792205631732,1.3442234992980957,-0.1926716268062591,-0.2396351844072342,-0.0280718095600605,-0.1597853899002075,0.0,0.0,-0.1361407810124786,-0.6589821064789327
-0.021709632128477,1.3387162685394287,-0.2054758071899414,-0.2449202835559845,-0.0355540551245212,-0.1496583670377731,0.0,0.0,0.1781396232097958,0.9307069565365336
-0.0237176902592182,1.3338333368301392,-0.1907617598772049,-0.2172869145870208,-0.0454889349639415,-0.1987158209085464,0.0,0.0,0.4244372011149957,-0.754262988971717
-0.0257830619812011,1.3292832374572754,-0.1974637806415558,-0.2025238424539566,-0.0544640310108661,-0.1795182675123214,0.0,0.0,-0.5921522340082277,-0.9492030798297224
-0.0279835704714059,1.3246291875839231,-0.2117936611175537,-0.2071663588285446,-0.0626402720808982,-0.1635398119688034,0.0,0.0,0.7340788632294775,-0.806004281172387
-0.0301806442439556,1.3203083276748655,-0.2126732170581817,-0.1923482120037078,-0.0696126222610473,-0.1394595503807068,0.0,0.0,-0.0830496250971504,-0.9544571979017784
-0.0325141921639442,1.3158857822418213,-0.2271490097045898,-0.1968584209680557,-0.0757637768983841,-0.1230343356728553,0.0,0.0,0.2905127445800217,0.8843064390144063
-0.0347082130610942,1.311752438545227,-0.2108863890171051,-0.1841527968645095,-0.0842118114233017,-0.1689758598804474,0.0,0.0,0.5581569366893171,-0.8525913714328589
-0.0368825905025005,1.308635950088501,-0.2101410627365112,-0.1389394253492355,-0.0914467871189117,-0.1447129547595977,0.0,0.0,-0.3692752545587858,0.7818009889432536
-0.0390833839774131,1.3053932189941406,-0.2107926160097122,-0.1447116583585739,-0.1006714105606079,-0.1845088452100753,0.0,0.0,0.9126347002246404,0.9029890554582628
-0.0410429947078228,1.3033032417297363,-0.1845491975545883,-0.0936932489275932,-0.1120218262076377,-0.2270290553569793,0.0,0.0,-0.640885596539621,-0.8819757654384403
-0.0431508049368858,1.3011019229888916,-0.2004748880863189,-0.0986326858401298,-0.1222876235842704,-0.2053343504667282,0.0,0.0,-0.0567741109018533,-0.7588616008504137
-0.0453856475651264,1.2987908124923706,-0.2137302160263061,-0.1035406067967414,-0.1320031881332397,-0.1943282485008239,0.0,0.0,0.8542855129760787,-0.6681190216423074
-0.0476238243281841,1.2968693971633911,-0.2149872034788131,-0.0862019807100296,-0.1408136785030365,-0.1762257516384124,0.0,0.0,-0.653144336656253,0.6822718684566099
-0.0499013885855674,1.294823408126831,-0.2172650396823883,-0.0919530838727951,-0.1512991487979889,-0.2097282111644745,0.0,0.0,-0.505054486680431,-0.956351995971432
-0.0523541457951068,1.2926652431488037,-0.236518457531929,-0.0968356505036354,-0.1600375026464462,-0.1747668236494064,0.0,0.0,0.6050815428690002,0.8574667347254812
-0.0547036156058311,1.291422963142395,-0.2238726913928985,-0.056441880762577,-0.1711149513721466,-0.2215491533279419,0.0,0.0,0.5671661279152427,-0.7154846732481333
-0.057189654558897,1.291277527809143,-0.2381009608507156,-0.0077131022699177,-0.1816471368074417,-0.21064393222332,0.0,0.0,0.8337686970748097,0.7326592314553484
-0.0596983917057514,1.2923167943954468,-0.2379575073719024,0.0445548333227634,-0.1946257352828979,-0.2595720291137695,0.0,0.0,-0.4151158838330555,0.6178096258475845
-0.0622422210872173,1.2932244539260864,-0.2396778315305709,0.0383380018174648,-0.2094310522079467,-0.2961063385009765,0.0,0.0,-0.1087481573624169,-0.6371740397098989
-0.0649134665727615,1.2940387725830078,-0.2530867159366607,0.0341437347233295,-0.2236153781414032,-0.2836868464946747,0.0,0.0,-0.4609892126662207,-0.837203084649502
-0.0677391067147255,1.2947574853897097,-0.269830971956253,0.0299643017351627,-0.2365234792232513,-0.2581617534160614,0.0,0.0,-0.1630672163419293,0.6302867664264047
-0.0706029906868934,1.295351505279541,-0.2720082402229309,0.0240226704627275,-0.2511462271213531,-0.2924550175666809,0.0,0.0,-0.0597860728541532,-0.6412175828391016
-0.073602870106697,1.2958455085754397,-0.286454439163208,0.0195807013660669,-0.2649610638618469,-0.2762965559959411,0.0,0.0,-0.001037146307576,0.7483320712612175
-0.0766248703002929,1.2962024211883545,-0.2865895628929138,0.0129579743370413,-0.2809482216835022,-0.3197434544563293,0.0,0.0,-0.0390799903464387,-0.750338658332736
-0.0797814354300499,1.2964740991592407,-0.3009677529335022,0.0091718006879091,-0.2960685789585113,-0.3024076521396637,0.0,0.0,-0.0836029082931315,0.7126049228110007
-0.0829678550362587,1.2966046333312988,-0.3020987510681152,0.0023384529631584,-0.3131907284259796,-0.3424429297447204,0.0,0.0,0.5598713756707754,-0.6242135694866484
-0.0860219970345497,1.2976560592651367,-0.2896653711795807,0.0432460755109787,-0.3295585215091705,-0.3273557722568512,0.0,0.0,0.4622731805720876,-0.9424412643361538
-0.0890204459428787,1.2997169494628906,-0.2854247689247131,0.0882316306233406,-0.3446296453475952,-0.3014221787452698,0.0,0.0,-0.0749995278454027,-0.8418438719014868
-0.0921583175659179,1.3016961812973022,-0.3004436492919922,0.084709420800209,-0.3586578071117401,-0.2805638313293457,0.0,0.0,-0.6052389867806649,-0.8801460456109153
-0.0954509750008583,1.3036103248596191,-0.3174494206905365,0.0820672065019607,-0.3711473345756531,-0.2497905939817428,0.0,0.0,-0.5033721327781677,-0.7414366602897644
-0.0988676100969314,1.3054327964782717,-0.3304814100265503,0.078056126832962,-0.383019208908081,-0.2374374568462371,0.0,0.0,-0.7024627327919006,-0.6351721882820129
-0.1024051681160926,1.307157039642334,-0.3430944085121155,0.0737282261252403,-0.3943897187709808,-0.2274097204208374,0.0,0.0,-0.8507142066955566,-0.6872690916061401
-0.1060647964477539,1.3087905645370483,-0.3559204638004303,0.0697751939296722,-0.4051587879657745,-0.2153811454772949,0.0,0.0,-0.4246715903282165,-0.8193040490150452
-0.1098705306649208,1.310340166091919,-0.3716815114021301,0.0663065537810325,-0.4147064983844757,-0.1909539699554443,0.0,0.0,-0.606206476688385,-0.7944442629814148
-0.1138111129403114,1.3118014335632324,-0.3860842585563659,0.0625820532441139,-0.4233129024505615,-0.1721287667751312,0.0,0.0,-0.4837825894355774,-0.5032063722610474
-0.1178646087646484,1.3131661415100098,-0.3977598547935486,0.0583486519753932,-0.4315461218357086,-0.1646644175052642,0.0,0.0,-0.25502610206604,-0.6230015158653259
-0.1220484748482704,1.3144570589065552,-0.4117428660392761,0.0553159900009632,-0.4387864172458648,-0.1448056399822235,0.0,0.0,-0.5148219466209412,-0.6522250175476074
-0.1263668090105056,1.3156766891479492,-0.4262262880802154,0.0524377673864364,-0.4449059069156647,-0.1223898530006408,0.0,0.0,-0.6661316156387329,-0.3416241407394409
-0.1307644844055175,1.3167799711227417,-0.433697372674942,0.0470878817141056,-0.4515611529350281,-0.1331049054861068,0.0,0.0,-0.3713462352752685,-0.1594393253326416
-0.1352414190769195,1.3177671432495115,-0.4411566853523254,0.0417376086115837,-0.458741545677185,-0.1436075866222381,0.0,0.0,-0.1459064483642578,-0.2380354404449463
-0.1397971212863922,1.3186378479003906,-0.4486029744148254,0.0363869480788707,-0.4664354920387268,-0.1538789272308349,0.0,0.0,-0.6902893781661987,-0.6542354822158813
-0.1444701254367828,1.3194177150726318,-0.4608987271785736,0.0324871838092803,-0.4735139906406402,-0.1415697038173675,0.0,0.0,0.067798376083374,-0.6223008036613464
-0.1490257233381271,1.3208057880401611,-0.449930340051651,0.0597639866173267,-0.4797631502151489,-0.124983474612236,0.0,0.0,-0.2575225234031677,-0.3189688920974731
-0.1536592543125152,1.322077751159668,-0.4573263525962829,0.0544150806963443,-0.4864847362041473,-0.1344318389892578,0.0,0.0,-0.295737087726593,-0.6442679166793823
-0.1584229469299316,1.3232712745666504,-0.4713534712791443,0.0512668006122112,-0.4920966327190399,-0.1122387051582336,0.0,0.0,-0.4722569584846496,-0.379389226436615
-0.1632639914751052,1.324348211288452,-0.4787072241306305,0.0459193624556064,-0.4981474280357361,-0.1210158020257949,0.0,0.0,-0.4770176410675049,-0.0199016332626342
-0.1681818962097168,1.3253082036972046,-0.4860371947288513,0.0405721180140972,-0.5046182870864868,-0.1294166296720504,0.0,0.0,-0.3811203837394714,-0.5679664611816406
-0.1732081472873687,1.3261847496032717,-0.4974843859672546,0.0370477028191089,-0.5104295611381531,-0.1162250861525535,0.0,0.0,0.5712095499038696,-0.3299539089202881
-0.1780084669589996,1.3279753923416138,-0.4742714762687683,0.0774194225668907,-0.5169538855552673,-0.1304869949817657,0.0,0.0,-0.4275416135787964,0.1843509674072265
-0.1828841269016266,1.3296489715576172,-0.4815157949924469,0.0720738843083381,-0.523833155632019,-0.1375852972269058,0.0,0.0,-0.3576714992523193,-0.0177890658378601
-0.1878344565629959,1.3312056064605713,-0.4887260794639587,0.0667288675904274,-0.5310425758361816,-0.1441895067691803,0.0,0.0,0.0342670679092407,0.108080506324768
-0.1926283836364746,1.3330049514770508,-0.4731473922729492,0.0775073915719986,-0.5381984114646912,-0.1431163102388382,0.0,0.0,0.2055944204330444,0.4508099555969238
-0.1972516030073166,1.335249662399292,-0.4559443593025207,0.0972067192196846,-0.5455509424209595,-0.1470508873462677,0.0,0.0,-0.2382729649543762,0.4693456888198852
-0.2019475996494293,1.337376832962036,-0.4630329012870788,0.0918643549084663,-0.5531505942344666,-0.1519934833049774,0.0,0.0,-0.5075341463088989,0.0918737649917602
-0.2067155838012695,1.3393864631652832,-0.4700733721256256,0.086522951722145,-0.5609668493270874,-0.1563252359628677,0.0,0.0,-0.3254969120025635,-0.1592142581939697
-0.2115546762943267,1.3412781953811646,-0.4770614504814148,0.0811826288700103,-0.568967878818512,-0.1600203663110733,0.0,0.0,0.2186235189437866,-0.1517335176467895
-0.216296762228012,1.343275547027588,-0.467508465051651,0.0858855247497558,-0.5768405795097351,-0.1574540585279464,0.0,0.0,-0.2340695858001709,0.3932031393051147
-0.2211081981658935,1.3451544046401978,-0.4743770062923431,0.0805480405688285,-0.5848309993743896,-0.1598082780838012,0.0,0.0,-0.1201375126838684,-0.1128293275833129
-0.2259880006313324,1.3469150066375732,-0.4811778664588928,0.0752119943499565,-0.5929042100906372,-0.1614642441272735,0.0,0.0,-0.4146909713745117,0.1870948076248169
-0.2309350967407226,1.348556637763977,-0.4879050850868225,0.0698775053024292,-0.6010246276855469,-0.1624083667993545,0.0,0.0,0.2982802391052246,0.0629289150238037
-0.2356518805027008,1.350663661956787,-0.4649950861930847,0.0905655920505523,-0.6090443134307861,-0.1603943258523941,0.0,0.0,-0.1263542175292968,-0.4079704284667969
-0.2404336482286453,1.3526513576507568,-0.4715553820133209,0.0852346271276474,-0.6170388460159302,-0.159890204668045,0.0,0.0,-0.2945448160171509,0.1188042163848877
-0.2452792674303054,1.354519248008728,-0.4780214428901672,0.0799054950475692,-0.6249717473983765,-0.158658429980278,0.0,0.0,0.3979896306991577,0.0009025335311889
-0.250016838312149,1.3566949367523191,-0.4672280848026275,0.0935303270816803,-0.6329388618469238,-0.1593417674303054,0.0,0.0,-0.3135190010070801,-0.2993780374526977
-0.2548154890537262,1.358750343322754,-0.4734820425510406,0.0882049053907394,-0.6407723426818848,-0.1566701233386993,0.0,0.0,-0.2139217257499694,-0.1116101741790771
-0.2596737444400787,1.360685110092163,-0.4796168804168701,0.0828814879059791,-0.6484370827674866,-0.1532949209213256,0.0,0.0,-0.3863215446472168,0.0836433172225952
-0.2645901143550873,1.3624989986419678,-0.4856234490871429,0.0775601044297218,-0.6558986902236938,-0.1492324471473693,0.0,0.0,-0.2864644527435303,-0.0516620278358459
-0.2695629000663757,1.3641915321350098,-0.4914918839931488,0.0722407400608062,-0.6631238460540771,-0.1445026248693466,0.0,0.0,0.192813754081726,-0.455071210861206
-0.2742910385131836,1.366535186767578,-0.466970682144165,0.1010945960879325,-0.6704549789428711,-0.1466225683689117,0.0,0.0,-0.4233936667442322,0.1069700717926025
-0.279072105884552,1.368756890296936,-0.4725324511528015,0.0957789197564125,-0.6774864792823792,-0.1406298130750656,0.0,0.0,-0.0616290569305419,0.459735631942749
-0.2839041352272033,1.3708564043045044,-0.4779244065284729,0.0904652252793312,-0.6841887831687927,-0.1340465247631073,0.0,0.0,-0.2119698524475097,-0.010417103767395
-0.2887852191925049,1.372833490371704,-0.483135312795639,0.0851534828543663,-0.6905338764190674,-0.1269022524356842,0.0,0.0,-0.1265533566474914,0.4376068115234375
-0.2937131822109222,1.374687910079956,-0.4881537854671478,0.0798436254262924,-0.6964951753616333,-0.119227722287178,0.0,0.0,-0.1758550405502319,0.079929232597351
-0.2986859381198883,1.3764190673828125,-0.4929681718349457,0.0745355710387229,-0.7020478844642639,-0.1110544428229332,0.0,0.0,-0.0441065430641174,0.4038302898406982
-0.303701102733612,1.378027319908142,-0.4975667893886566,0.069229245185852,-0.7071685791015625,-0.1024140268564224,0.0,0.0,0.1467498540878296,0.2405458688735962
-0.3085895180702209,1.3797667026519775,-0.4853092133998871,0.0752863362431526,-0.7117593288421631,-0.0918158367276191,0.0,0.0,0.4212567806243896,0.4277633428573608
-0.3132287859916687,1.3816975355148315,-0.4610567688941955,0.0841560140252113,-0.7155069708824158,-0.0749523490667343,0.0,0.0,0.1756595373153686,-0.0567255616188049
-0.3175574243068695,1.3838611841201782,-0.4307490289211273,0.0949365645647049,-0.7182775735855103,-0.0554117150604724,0.0,0.0,0.5623495578765869,-0.0291510820388793
-0.3215736746788025,1.3861918449401855,-0.4003645479679107,0.1028443872928619,-0.7199283838272095,-0.0330158248543739,0.0,0.0,0.401218056678772,-0.2025848627090454
-0.3252028822898865,1.3891210556030271,-0.3620471358299255,0.1296830773353576,-0.7210754752159119,-0.0229423176497221,0.0,0.0,0.0833148956298828,0.1808960437774658
-0.3285150527954101,1.3924660682678225,-0.3308258950710296,0.1484389752149582,-0.7215883135795593,-0.0102568538859486,0.0,0.0,0.3094412088394165,0.3802486658096313
-0.3314274251461029,1.396183967590332,-0.2916166484355926,0.1654596924781799,-0.7210909128189087,0.0099477833136916,0.0,0.0,0.0955411195755004,0.5303449630737305
-0.3341338038444519,1.3999032974243164,-0.2706340849399566,0.1652954667806625,-0.7211017608642578,-0.0002168413775507,0.0,0.0,-0.0790642499923706,0.3621046543121338
-0.3368576467037201,1.4034976959228516,-0.2728132605552673,0.1599996387958526,-0.7205359935760498,0.0113157583400607,0.0,0.0,0.231035828590393,0.6959004402160645
-0.3390743732452392,1.4075746536254885,-0.2214437276124954,0.1810673028230667,-0.7208372354507446,-0.0060247927904129,0.0,0.0,-0.6087574362754822,0.6333832740783691
-0.3412669599056244,1.411479949951172,-0.2184532135725021,0.173097088932991,-0.721893846988678,-0.0211316812783479,0.0,0.0,-0.3593842387199402,0.4658868312835693
-0.3434672951698303,1.4152600765228271,-0.219690516591072,0.1678027063608169,-0.7223470211029053,-0.0090636909008026,0.0,0.0,-0.3838967084884643,0.4558305740356445
-0.3456721901893616,1.4189149141311646,-0.2206080257892608,0.1625088006258011,-0.7221896052360535,0.0031480696052312,0.0,0.0,-0.2634679079055786,0.6473531723022461
-0.347842127084732,1.4224026203155518,-0.2165919095277786,0.1547835171222686,-0.7227152585983276,-0.0105135524645447,0.0,0.0,-0.2965699434280395,0.5195670127868652
-0.3499824404716491,1.4257336854934692,-0.2133578807115554,0.1476468294858932,-0.7236059308052063,-0.0178135503083467,0.0,0.0,0.0260061025619506,0.3583792448043823
-0.3519244194030761,1.429302453994751,-0.1939451694488525,0.1584539264440536,-0.7239401936531067,-0.0066847628913819,0.0,0.0,-0.3713084459304809,0.3158544301986694
-0.3538580536842346,1.4327454566955566,-0.1935905516147613,0.153161272406578,-0.7236419916152954,0.0059636398218572,0.0,0.0,-0.2235100865364074,0.4747685194015503
-0.3557802736759186,1.4360631704330444,-0.1929260194301605,0.1478688567876815,-0.7227073311805725,0.0186926331371068,0.0,0.0,-0.459553599357605,0.6283379793167114
-0.3576434552669525,1.439201593399048,-0.1862752586603164,0.1394561976194381,-0.7227653861045837,-0.0011610258370637,0.0,0.0,-0.0907873511314392,0.6442338228225708
-0.3594505786895752,1.442155838012695,-0.1799541264772415,0.1308585405349731,-0.7237654328346252,-0.0200005676597356,0.0,0.0,-0.2536640167236328,0.0587090253829956
-0.3612372279167175,1.4449846744537354,-0.1783974468708038,0.1255665868520736,-0.7241194844245911,-0.0070808380842208,0.0,0.0,-0.5517953038215637,0.2954421043395996
-0.3630006313323974,1.4476878643035889,-0.1765588074922561,0.1202748492360115,-0.7238250970840454,0.0058879284188151,0.0,0.0,-0.2705389261245727,0.5767029523849487
-0.3646936416625976,1.4502159357070925,-0.1688297986984253,0.1120702847838401,-0.7244512438774109,-0.0125234993174672,0.0,0.0,-0.362037181854248,0.1816315650939941
-0.3663579821586609,1.45261812210083,-0.1664549559354782,0.1067787632346153,-0.7244248986244202,0.0005263647180981,0.0,0.0,-0.4015370607376098,0.4180868864059448
-0.3679911196231842,1.454894781112671,-0.1638267934322357,0.1014873683452606,-0.7237444519996643,0.0136093851178884,0.0,0.0,-0.5036208033561707,0.4063926935195923
-0.3695905208587646,1.4570457935333252,-0.1609556674957275,0.0961959883570671,-0.7224084138870239,0.0267210993915796,0.0,0.0,-0.122834026813507,0.2186449766159057
-0.3711538910865783,1.4590710401535034,-0.1578521877527237,0.0909045413136482,-0.7204155325889587,0.0398575142025947,0.0,0.0,-0.2869471311569214,0.13522469997406
-0.3726789355278015,1.4609708786010742,-0.1545271277427673,0.0856129229068756,-0.7177647948265076,0.0530150048434734,0.0,0.0,-0.0387977957725524,0.0362045764923095
-0.3741635680198669,0.0,-0.1509912312030792,0.0803210660815239,-0.7144553065299988,0.0661902949213981,0.0,0.0,-0.1155785322189331,0.0519864559173584
-0.3756057322025299,0.0,-0.1472552120685577,0.0750288590788841,-0.7104862928390503,0.0793803483247757,0.0,0.0,-0.0538783073425293,0.3641136884689331
-0.3770033717155456,1.4659171104431152,-0.1433296054601669,0.0697362050414085,-0.7058571577072144,0.092582419514656,0.0,0.0,-0.1224444508552551,0.5409374237060547
-0.3783183097839355,1.4672619104385376,-0.1344491392374038,0.0614409111440181,-0.7020310163497925,0.0765228345990181,0.0,0.0,0.0009640455245971,0.1992889642715454
-0.3792726397514343,1.4688986539840698,-0.0991230756044387,0.0748116746544838,-0.6972706913948059,0.0952056273818016,0.0,0.0,-0.3894076347351074,0.5524048805236816
-0.3801409602165222,1.470371127128601,-0.0900705456733703,0.0672466531395912,-0.6931087970733643,0.0832379311323165,0.0,0.0,-0.4798183441162109,0.3607205152511596
