x_pos,y_pos,x_vel,y_vel,angle,ang_vel,leg_1,leg_2,main_booster,lat_booster
-0.0015244483947753,1.4031386375427246,-0.1546207815408706,-0.3458441197872162,0.0019517354667186,0.0385137423872947,0.0,0.0,0.939326170559734,-0.8049084058982279
-0.0030476569663733,1.3957029581069946,-0.1562232226133346,-0.33048877120018,0.005812173243612,0.0772167444229126,0.0,0.0,0.7813720624203391,-0.610132363800223
-0.0044673918746411,1.3884308338165283,-0.1477763950824737,-0.3232362568378448,0.0115421582013368,0.1146104708313942,0.0,0.0,-0.9855293832147144,-0.7046217502888309
-0.0059542655944824,1.3806700706481934,-0.1564387381076812,-0.3450040817260742,0.0192092489451169,0.1533560305833816,0.0,0.0,0.2868967433039975,-0.7899064957294717
-0.0073999403975903,1.3731902837753296,-0.1543535739183426,-0.3325887024402618,0.0288826879113912,0.1934868246316909,0.0,0.0,-0.9016321399667852,0.6446118612241375
-0.0087840082123875,1.3652276992797852,-0.1469345241785049,-0.3540866672992706,0.0373129248619079,0.1686204373836517,0.0,0.0,-0.958066314087786,-0.8295751943950093
-0.0102362632751464,1.3567765951156616,-0.1558205187320709,-0.3758946657180786,0.0477977059781551,0.2097150981426239,0.0,0.0,-0.0644871135393423,-0.8477494708706053
-0.0117392539978027,1.347840666770935,-0.1625303477048874,-0.3975889980792999,0.0599179193377494,0.2424263656139373,0.0,0.0,0.4814311218129297,-0.6929165726160312
-0.0133540155366063,1.33954656124115,-0.175467312335968,-0.3692470192909241,0.0737815722823143,0.2772985398769378,0.0,0.0,-0.6680170660660378,0.8872506439113783
-0.0148996356874704,1.330782175064087,-0.167180985212326,-0.390191376209259,0.0863024815917015,0.2504411339759826,0.0,0.0,0.4369313669146835,-0.798523405703365
-0.0164686199277639,1.322311282157898,-0.1716797053813934,-0.377408504486084,0.1009759679436683,0.2934965193271637,0.0,0.0,0.711392706440779,0.7992723747700252
-0.0179494861513376,1.3141942024230957,-0.1618663966655731,-0.3617461025714874,0.1146766021847724,0.2740378975868225,0.0,0.0,0.8348129382374785,-0.9272317159728604
-0.0194320678710937,1.306772232055664,-0.1646354645490646,-0.3312024474143982,0.1309795528650283,0.3260891437530517,0.0,0.0,0.7332892889766178,-0.8388165811053319
-0.0209482200443744,1.2994182109832764,-0.1702617108821869,-0.3285863995552063,0.1495952308177948,0.3723474144935608,0.0,0.0,0.9514490634749692,-0.6094227907666208
-0.0224807746708393,1.2930643558502195,-0.1740771681070327,-0.2846290469169616,0.170427069067955,0.416675329208374,0.0,0.0,-0.4297962413146809,0.979632817858944
-0.0239212028682231,1.2862423658370972,-0.1629944145679474,-0.3054847717285156,0.1894676834344864,0.3808468282222748,0.0,0.0,0.3974661268240136,-0.6663608245030257
-0.0254227630794048,1.280036211013794,-0.1711256802082061,-0.2786437571048736,0.2106114327907562,0.4229135513305664,0.0,0.0,0.8684633735877849,0.6288148258842906
-0.026793098077178,1.27403724193573,-0.1576493829488754,-0.2696903645992279,0.2314930707216262,0.4176705479621887,0.0,0.0,0.5936068702410873,0.8932882631359325
-0.0281697269529104,1.2687585353851318,-0.1570882201194763,-0.2377898246049881,0.2512703239917755,0.3955816030502319,0.0,0.0,0.560873117597861,-0.6499521544107012
-0.0298066139221191,1.2637274265289309,-0.1846832185983657,-0.2273395210504531,0.2727415263652801,0.4294625222682953,0.0,0.0,-0.962003297716171,0.8084183486459962
-0.0313676819205284,1.2582547664642334,-0.1755857467651367,-0.2469952702522277,0.2927935719490051,0.4010775685310364,0.0,0.0,-0.9206111099797356,-0.7905463101935002
-0.0329828262329101,1.2522732019424438,-0.1829681545495987,-0.2703117132186889,0.3150039613246918,0.4442476332187652,0.0,0.0,0.2584020621704455,-0.9541099630545924
-0.0346848480403423,1.246423840522766,-0.1939461082220077,-0.2653279602527618,0.3397853076457977,0.4956716001033783,0.0,0.0,0.1597897167103512,0.9592652798149052
-0.0363280288875103,1.2404645681381226,-0.186576098203659,-0.2702778875827789,0.3632066547870636,0.4684689939022064,0.0,0.0,-0.6493694157626102,-0.7863132381168072
-0.0380389206111431,1.2339907884597778,-0.1955815702676773,-0.2941441237926483,0.3892210721969604,0.52033531665802,0.0,0.0,-0.2190769733861197,0.7001774157574399
-0.0397019386291503,1.227049708366394,-0.1901171803474426,-0.3152218461036682,0.414739578962326,0.5103702545166016,0.0,0.0,0.0885866258233842,0.7702519223856754
-0.0414956100285053,1.2203333377838137,-0.2019881755113601,-0.3053490817546844,0.4392672181129455,0.4905527234077453,0.0,0.0,0.0761609690491436,0.8590484139487087
-0.043543241918087,1.2138584852218628,-0.2260471880435943,-0.2946175336837768,0.462603211402893,0.4667201042175293,0.0,0.0,0.132321145043168,0.783137094407931
-0.0458592399954795,1.207598328590393,-0.2516822218894958,-0.2850649654865265,0.4848523736000061,0.4449834823608398,0.0,0.0,-0.9897286074569918,0.6264319093433175
-0.0481246002018451,1.2008929252624512,-0.2457955181598663,-0.3049431443214416,0.5064579844474792,0.4321122169494629,0.0,0.0,-0.3685490817072834,0.8109398416362297
-0.0503267273306846,1.1937662363052368,-0.2382417172193527,-0.3235498070716858,0.5269109010696411,0.409058153629303,0.0,0.0,0.0564692077790334,-0.945935680121826
-0.0527730956673622,1.1864218711853027,-0.2647711634635925,-0.3344140648841858,0.5500392317771912,0.4625667631626129,0.0,0.0,-0.7806018285440766,0.9934270801245384
-0.0551557540893554,1.1786620616912842,-0.2570692002773285,-0.3527463972568512,0.5719577074050903,0.4383692741394043,0.0,0.0,0.9351849194042372,-0.9421330425174612
-0.0578837394714355,1.1708261966705322,-0.2934837937355041,-0.3573482632637024,0.5964130163192749,0.4891057014465332,0.0,0.0,0.4181285486913362,0.8319584618232085
-0.0608366951346397,1.1632530689239502,-0.3147048652172088,-0.345569908618927,0.6197264790534973,0.4662696719169616,0.0,0.0,0.5027767757769317,0.8376484955511353
-0.0641113296151161,1.1561223268508911,-0.3455885648727417,-0.3257306218147278,0.6418761014938354,0.4429919123649597,0.0,0.0,0.0295035706040667,-0.6918102653511051
-0.067598819732666,1.148789882659912,-0.3683019280433655,-0.3358543813228607,0.6661694645881653,0.4858676493167877,0.0,0.0,-0.7823459137361477,-0.8820301102555914
-0.0711258873343467,1.1409295797348022,-0.373802900314331,-0.3606699109077453,0.6929027438163757,0.5346657633781433,0.0,0.0,-0.4507128043575878,-0.6628502389680204
-0.0746846199035644,1.1325503587722778,-0.3781670033931732,-0.3850846886634826,0.7218225598335266,0.5783969163894653,0.0,0.0,0.3378215555773476,-0.6004591570617983
-0.0785712227225303,1.1242334842681885,-0.4118902683258056,-0.3836581408977508,0.7527610659599304,0.618770956993103,0.0,0.0,0.9916435615140244,0.7939403097252046
-0.0831454247236251,1.116397500038147,-0.4789754748344421,-0.3620862364768982,0.7822781801223755,0.59034264087677,0.0,0.0,-0.9872978925704956,0.98876953125
-0.0876379013061523,1.108184814453125,-0.4687578678131103,-0.3782618343830108,0.8097655177116394,0.5497462153434753,0.0,0.0,-0.9570229053497314,0.9588608741760254
-0.0920491218566894,1.0995843410491943,-0.4588022828102112,-0.3949070274829864,0.8353984951972961,0.5126600861549377,0.0,0.0,-0.9976226091384888,0.9847033023834229
-0.0963814705610275,1.090606689453125,-0.449139654636383,-0.4109855592250824,0.8590714335441589,0.4734586775302887,0.0,0.0,-0.9792911410331726,0.9693375825881958
-0.1006426811218261,1.0812255144119265,-0.4406815469264984,-0.4284364283084869,0.8813449144363403,0.4454701542854309,0.0,0.0,-0.958044707775116,0.9140928983688354
-0.1048295050859451,1.0714502334594729,-0.4318659901618957,-0.445316731929779,0.9020212888717652,0.4135288298130035,0.0,0.0,-0.9127779006958008,0.9411616325378418
-0.108941838145256,1.061288833618164,-0.4229881167411804,-0.4617110192775726,0.9209615588188172,0.3788057565689087,0.0,0.0,-0.9901494383811952,0.9405779838562012
-0.1129999160766601,1.0507270097732544,-0.4166030287742615,-0.4790427088737488,0.9387599229812622,0.3559672832489013,0.0,0.0,-0.9612871408462524,0.9452059268951416
-0.117003820836544,1.0397614240646362,-0.410300076007843,-0.4965212941169739,0.9554786086082458,0.3343737423419952,0.0,0.0,-0.974912166595459,0.9722621440887452
-0.120938204228878,1.028404712677002,-0.4022343754768371,-0.5131502747535706,0.9706605672836304,0.3036389350891113,0.0,0.0,-0.9555639028549194,0.861004114151001
-0.1247985810041427,1.0166711807250977,-0.3936014771461487,-0.5289535522460938,0.9839942455291748,0.2666738629341125,0.0,0.0,-0.9934706091880798,0.8788900375366211
-0.1285993605852127,1.004538893699646,-0.3868211209774017,-0.5460525155067444,0.996101140975952,0.2421374768018722,0.0,0.0,-0.9987406730651855,0.9670159816741944
-0.1323193609714508,0.9920350909233092,-0.3775085210800171,-0.5614494681358337,1.0061750411987305,0.2014785706996917,0.0,0.0,-0.9795650243759156,0.9050412178039552
-0.1359753608703613,0.979145050048828,-0.370206743478775,-0.5777801871299744,1.0147380828857422,0.1712614297866821,0.0,0.0,-0.8864827752113342,0.700312614440918
-0.1395617425441742,0.9658603072166444,-0.3624449968338012,-0.5945486426353455,1.02189040184021,0.1430471539497375,0.0,0.0,-0.988053560256958,0.9252408742904664
-0.1430809050798416,0.9521707892417908,-0.3550499081611633,-0.611868143081665,1.027856945991516,0.1193317770957946,0.0,0.0,-0.992300271987915,0.8360252380371094
-0.1465313881635666,0.938100814819336,-0.3473009467124939,-0.6278257369995117,1.0321696996688845,0.0862561389803886,0.0,0.0,-0.9965828657150269,0.832841157913208
-0.1499078720808029,0.9236542582511902,-0.3389568924903869,-0.6435418725013733,1.0346975326538086,0.0505577623844146,0.0,0.0,-0.9865576028823853,0.8703627586364746
-0.1532144546508789,0.908829152584076,-0.3310942053794861,-0.6593809723854065,1.035537838935852,0.0168058313429355,0.0,0.0,-0.9801422357559204,0.6844155788421631
-0.1564633399248123,0.8935868740081787,-0.3249145150184631,-0.6774627566337585,1.0355992317199707,0.0012277617352083,0.0,0.0,-0.9912472367286682,0.8485724925994873
-0.1596332490444183,0.8779528141021729,-0.3162404894828796,-0.6940008997917175,1.0341346263885498,-0.0292909480631351,0.0,0.0,-0.981082320213318,0.7807185649871826
-0.1627405136823654,0.8619057536125183,-0.3095003068447113,-0.7118266820907593,1.031767725944519,-0.0473387241363525,0.0,0.0,-0.9445117712020874,0.7416107654571533
-0.1657713949680328,0.8454666137695312,-0.3010802567005157,-0.7284062504768372,1.027930498123169,-0.0767457261681556,0.0,0.0,-0.9810828566551208,0.7030973434448242
-0.1687328368425369,0.8286207914352417,-0.2935571372509002,-0.7458598613739014,1.0230062007904053,-0.09848652780056,0.0,0.0,-0.9807349443435668,0.8695652484893799
-0.1716137826442718,0.8113789558410645,-0.284719169139862,-0.7626467943191528,1.016651272773743,-0.1270995140075683,0.0,0.0,-0.8139894008636475,0.9507437944412231
-0.1744220703840255,0.7937321662902832,-0.2768126726150512,-0.7800016403198242,1.0091533660888672,-0.1499578356742859,0.0,0.0,-0.9285988211631776,0.9694411754608154
-0.1771529167890548,0.7757097482681274,-0.2680695652961731,-0.7957203984260559,0.9999081492424012,-0.1849048733711242,0.0,0.0,-0.9440482258796692,0.9188230037689208
-0.17979097366333,0.7573036551475525,-0.2577095627784729,-0.8117835521697998,0.9888607263565063,-0.2209487408399582,0.0,0.0,-0.9102133512496948,0.9559264183044434
-0.182349294424057,0.738521158695221,-0.2486607283353805,-0.8276047110557556,0.9760851860046388,-0.2555106282234192,0.0,0.0,-0.81512451171875,0.8739652633666992
-0.1848294287919998,0.7193287014961243,-0.2400752007961273,-0.8452824354171753,0.962225377559662,-0.2771963477134704,0.0,0.0,-0.6363855004310608,0.9049288034439088
-0.1872331649065017,0.6997325420379639,-0.2315903902053833,-0.8626466989517212,0.947202444076538,-0.3004580736160278,0.0,0.0,-0.7591087818145752,0.8308573961257935
-0.1895533502101898,0.6797414422035217,-0.222210019826889,-0.8795384764671326,0.9307757019996644,-0.3285351991653442,0.0,0.0,-0.7663149833679199,0.9256246089935304
-0.1918003112077713,0.6593462228775024,-0.2139913737773895,-0.8970301747322083,0.9132739305496216,-0.3500348925590515,0.0,0.0,-0.517790675163269,0.9314651489257812
-0.1939523667097091,0.6385690569877625,-0.2031292617321014,-0.9131805300712584,0.8939834237098694,-0.3858096003532409,0.0,0.0,-0.3673148155212402,0.9595935344696044
-0.196010872721672,0.6173923015594482,-0.1925357282161712,-0.930348575115204,0.873246967792511,-0.4147298336029053,0.0,0.0,0.0488961935043334,0.8478071689605713
-0.1981021910905838,0.5960659384727478,-0.1946101635694503,-0.9365144371986388,0.8511874675750732,-0.441190242767334,0.0,0.0,-0.2598124146461487,0.90658700466156
-0.2000987976789474,0.5743330121040344,-0.1838659942150116,-0.95414537191391,0.8278068900108337,-0.4676118493080139,0.0,0.0,0.0871158838272094,0.8813724517822266
-0.2023955881595611,0.5527278780937195,-0.2124923765659332,-0.948031485080719,0.8030336499214172,-0.4954648911952972,0.0,0.0,-0.1564342975616455,0.859142541885376
-0.2045976221561432,0.530735433101654,-0.2014275044202804,-0.9647783637046814,0.7766646146774292,-0.5273808240890503,0.0,0.0,0.2672977447509765,0.9447965621948242
-0.2072158306837082,0.5089189410209656,-0.2414192855358123,-0.9565879106521606,0.7487698793411255,-0.557894229888916,0.0,0.0,-0.1968790292739868,0.886864185333252
-0.2097432613372802,0.4866781830787658,-0.2311042100191116,-0.9754132628440856,0.7199506759643555,-0.5763843059539795,0.0,0.0,0.3680050373077392,0.5968918800354004
-0.212595134973526,0.4647892713546753,-0.2624766230583191,-0.959915816783905,0.6904735565185547,-0.5895422101020813,0.0,0.0,0.2891334295272827,0.6778571605682373
-0.2157125473022461,0.4429141879081726,-0.2876712083816528,-0.9593330025672911,0.6599944829940796,-0.6095818281173706,0.0,0.0,0.1593228578567505,0.3430380821228027
-0.2191037237644195,0.4210960865020752,-0.3148146271705627,-0.9574647545814514,0.6299379467964172,-0.6011303067207336,0.0,0.0,0.3384989500045776,0.250596284866333
-0.2227875739336013,0.399484634399414,-0.3439996242523193,-0.9489896297454834,0.6004317998886108,-0.5901225209236145,0.0,0.0,0.4103646278381347,-0.2223711013793945
-0.2266410291194915,0.3780786991119385,-0.3612549901008606,-0.9406768083572388,0.5718594789505005,-0.5714468359947205,0.0,0.0,0.7386689186096191,-0.5815433263778687
-0.2306525260210037,0.3566343188285827,-0.3782539665699005,-0.9435197114944458,0.5451924204826355,-0.5333409309387207,0.0,0.0,0.6762796640396118,-0.8177486062049866
-0.2347879409790039,0.3352655470371246,-0.3924722671508789,-0.9414058923721312,0.5210205316543579,-0.4834374785423279,0.0,0.0,0.6575746536254883,-0.9124317169189452
-0.2390749901533126,0.314236044883728,-0.4097467362880707,-0.9275526404380798,0.4995622336864471,-0.4291662275791168,0.0,0.0,0.7625916004180908,-0.9579944014549256
-0.2434281855821609,0.293342113494873,-0.4186676144599914,-0.9226765036582948,0.4809177219867706,-0.3728903234004974,0.0,0.0,0.6333165168762207,-0.9721652865409852
-0.2481467723846435,0.2729062736034393,-0.4573753774166107,-0.9033123254776,0.4648524820804596,-0.3213047385215759,0.0,0.0,0.6640841960906982,-0.9798307418823242
-0.2531934380531311,0.2529934644699096,-0.4924577176570892,-0.8809910416603088,0.4514122903347015,-0.2688038647174835,0.0,0.0,0.4929548501968384,-0.9826586842536926
-0.2584035396575928,0.2334504723548889,-0.5111831426620483,-0.8654412031173706,0.440650999546051,-0.2152256965637207,0.0,0.0,-0.4019439220428467,-0.977076768875122
-0.2636139392852783,0.2133756726980209,-0.5132080316543579,-0.8897742033004761,0.4321253597736358,-0.1705126762390136,0.0,0.0,-0.0729402303695678,-0.9799519181251526
-0.2688447535037994,0.1927637159824371,-0.5177481770515442,-0.9144605994224548,0.4263356924057007,-0.1157936230301857,0.0,0.0,-0.4776084423065185,-0.9669370651245116
-0.2740836143493652,0.1716389954090118,-0.5205864310264587,-0.937881886959076,0.4227609038352966,-0.0714955478906631,0.0,0.0,-0.0558819770812988,-0.9720900058746338
-0.2793400287628174,0.1499821990728378,-0.5247321128845215,-0.9622511267662048,0.4217747449874878,-0.0197232607752084,0.0,0.0,0.1762688159942627,-0.9755138754844666
-0.2849414944648742,0.128514364361763,-0.561542809009552,-0.9545462131500244,0.4232886135578155,0.0302774813026189,0.0,0.0,0.3862875699996948,-0.9483668208122252
-0.290721982717514,0.1073743402957916,-0.5817383527755737,-0.9406703114509584,0.4272816777229309,0.0798610150814056,0.0,1.0,0.9933784008026124,0.9999854564666748
-0.2944250702857971,0.0934281423687934,-0.3700233101844787,-0.6199151873588562,0.4292943477630615,0.0430463813245296,0.0,1.0,0.9990637302398682,0.9998836517333984
-0.2990255951881408,0.0805307924747467,-0.4405686855316162,-0.5674246549606323,0.4082436561584472,-0.4210087358951568,0.0,1.0,0.9989995956420898,0.9997429847717284
-0.3034574091434479,0.0690681040287017,-0.4103286862373352,-0.5003129839897156,0.3695201277732849,-0.7789864540100098,0.0,1.0,0.9975414276123048,0.981717586517334
-0.307317167520523,0.0611146055161953,-0.2856947183609009,-0.3314991593360901,0.264010488986969,-2.1117711067199707,0.0,1.0,0.9876813888549804,-0.9983104467391968
-0.3116548955440521,0.0536331050097942,-0.3306012749671936,-0.3175791501998901,0.1596696674823761,-2.086925745010376,0.0,0.0,0.990736961364746,-0.9985849857330322
-0.3160262107849121,0.0471189133822917,-0.3351066708564758,-0.2819480895996094,0.0582219250500202,-2.0290637016296387,0.0,0.0,0.9821627140045166,-0.9996787309646606
-0.3203683793544769,0.0409167855978012,-0.3342658281326294,-0.2749365270137787,-0.0405479855835437,-1.975488305091858,0.0,0.0,0.9783027172088624,-0.9996514320373536
-0.324498176574707,0.0357335433363914,-0.3163155317306518,-0.2359627932310104,-0.1364193856716156,-1.917514085769653,1.0,0.0,0.9957751035690308,-0.9999704957008362
-0.328298956155777,0.0320732928812503,-0.3059920966625213,-0.1713680475950241,-0.209920659661293,-1.4690548181533811,1.0,0.0,0.9973554611206056,-0.9971036314964294
-0.3314055502414703,0.0299081429839134,-0.2609623670578003,-0.1041709035634994,-0.2602781355381012,-1.0070397853851318,1.0,0.0,0.8867714405059814,-0.4943302869796753
-0.3339101672172546,0.0286125279963016,-0.221445232629776,-0.0630434229969978,-0.2900271415710449,-0.5949524641036987,1.0,0.0,0.7152391672134399,-0.3679788112640381
-0.3358359336853027,0.0284564588218927,-0.1832665205001831,-0.0088204266503453,-0.2996285855770111,-0.1920284330844879,1.0,0.0,0.8408818244934082,-0.6800020933151245
-0.3371874392032623,0.0294091794639825,-0.1441370546817779,0.0441630110144615,-0.2903418838977813,0.1857559978961944,1.0,0.0,0.4052983522415161,-0.764091432094574
-0.338282972574234,0.0305781215429306,-0.1274665296077728,0.0553975738584995,-0.27189701795578,0.3689495027065277,1.0,0.0,0.4289960861206054,-0.4896073937416076
-0.3393517136573791,0.0320626348257064,-0.1235854029655456,0.0689752027392387,-0.2547821402549743,0.3423374891281128,1.0,0.0,0.1254569292068481,-0.4022541046142578
-0.3404220044612884,0.0336001478135585,-0.1231488436460495,0.071038119494915,-0.2383504062891006,0.3286654055118561,0.0,0.0,-0.0908183455467224,0.3483561277389526
-0.3414382934570312,0.0346545800566673,-0.1182207316160202,0.0494541972875595,-0.2215046286582946,0.3369472622871399,0.0,0.0,-0.0248189568519592,0.9810529947280884
-0.342257022857666,0.0356751047074794,-0.0886728838086128,0.0463565848767757,-0.2146205902099609,0.1376940906047821,0.0,0.0,-0.0248189568519592,0.9810529947280884
