x_pos,y_pos,x_vel,y_vel,angle,ang_vel,leg_1,leg_2,main_booster,lat_booster
-0.0015863418811932,1.4034876823425293,-0.1604269444942474,-0.3303281366825104,0.0016043978976085,0.0316367223858833,0.0,0.0,-0.6836353540420532,0.8685200214385986
-0.0031633377075195,1.39593768119812,-0.1571848541498184,-0.3355555534362793,0.0010924604721367,-0.0102389389649033,0.0,0.0,0.0612996816635131,0.1996158361434936
-0.0047208787873387,1.3886398077011108,-0.1554376780986786,-0.3243490159511566,0.0007811086834408,-0.0062277768738567,0.0,0.0,-0.0309304594993591,0.7033514976501465
-0.0063014030456542,1.3812029361724854,-0.1563904285430908,-0.3305321633815765,-0.0008607224444858,-0.0328398048877716,0.0,0.0,-0.1481662392616272,-0.2655896544456482
-0.0079504968598485,1.3736292123794556,-0.1630331724882125,-0.3366080820560455,-0.0027157159056514,-0.037103347480297,0.0,0.0,-0.2885521650314331,0.4801557064056396
-0.0096693988889455,1.3659188747406006,-0.1697923243045807,-0.3426850140094757,-0.0047855931334197,-0.0414014644920825,0.0,0.0,-0.2155307531356811,0.8322346210479736
-0.0113961221650242,1.3580715656280518,-0.1687496751546859,-0.3487879633903503,-0.0086566628888249,-0.0774288326501846,0.0,0.0,-0.3204599618911743,-0.0259900093078613
-0.0131945610046386,1.3500875234603882,-0.1757114380598068,-0.3548664450645447,-0.0127427000552415,-0.0817280784249305,0.0,0.0,-0.4283232688903808,0.6048437356948853
-0.0150189399719238,1.3419729471206665,-0.176905483007431,-0.3607031106948852,-0.0182188637554645,-0.1095332950353622,0.0,0.0,-0.2581737041473388,-0.0967345833778381
-0.0169169418513774,1.3337222337722778,-0.1840421706438064,-0.3667831122875213,-0.0239107105880975,-0.1138471364974975,0.0,0.0,-0.2814926505088806,0.5026576519012451
-0.0188440326601266,1.325334072113037,-0.185580775141716,-0.3729380965232849,-0.0309576969593763,-0.1409526169300079,0.0,0.0,-0.5685686469078064,0.6307404041290283
-0.0207905769348144,1.316806077957153,-0.185904398560524,-0.3792216181755066,-0.0396177284419536,-0.1732169091701507,0.0,0.0,-0.7749170064926147,0.7538728713989258
-0.0227404590696096,1.3081424236297607,-0.1841824650764465,-0.3853738009929657,-0.0503112412989139,-0.2138896733522415,0.0,0.0,-0.7416389584541321,0.4515441656112671
-0.0247664451599121,1.2993435859680176,-0.1915867775678634,-0.3914613127708435,-0.0612201169133186,-0.2181972712278366,0.0,0.0,-0.5720126628875732,0.2725846767425537
-0.0268692020326852,1.2904099225997925,-0.199047178030014,-0.3975496888160705,-0.0723451226949691,-0.2225203961133957,0.0,0.0,-0.6388604640960693,-0.4411288499832153
-0.0290491096675395,1.2813411951065063,-0.206558346748352,-0.4036386907100677,-0.0836858227849006,-0.226834625005722,0.0,0.0,-0.4909932613372803,0.6455426216125488
-0.0312439911067485,1.2721378803253174,-0.2062469273805618,-0.4098340272903442,-0.0968165695667266,-0.2626389861106872,0.0,0.0,-0.6802298426628113,0.1118867397308349
-0.0335166938602924,1.2628003358840942,-0.21383997797966,-0.4159286916255951,-0.1101616844534874,-0.2669267654418945,0.0,0.0,-0.5962089896202087,-0.2635013461112976
-0.0358675941824913,1.253328561782837,-0.2214700877666473,-0.4220245480537414,-0.1237219348549842,-0.2712294459342956,0.0,0.0,-0.7591046094894409,0.2443516254425048
-0.0382970795035362,1.243722915649414,-0.2291325032711029,-0.4281210005283355,-0.1374967694282531,-0.2755217254161834,0.0,0.0,-0.4680637717247009,0.1712245941162109
-0.0408054366707801,1.2339833974838257,-0.2368229627609253,-0.4342189133167267,-0.1514859497547149,-0.279808908700943,0.0,0.0,-0.8762239217758179,-0.5080584287643433
-0.0434318557381629,1.224115967750549,-0.2494510114192962,-0.4399479329586029,-0.1646950095891952,-0.264204740524292,0.0,0.0,-0.8246769905090332,-0.903954803943634
-0.0461929328739643,1.2141268253326416,-0.2641427218914032,-0.4453323185443878,-0.1766998320817947,-0.2401178330183029,0.0,0.0,-0.357715368270874,-0.923314094543457
-0.0490981116890907,1.2040098905563354,-0.2799938917160034,-0.4509288072586059,-0.1872896701097488,-0.2118152678012848,0.0,0.0,-0.715800404548645,-0.3377330899238586
-0.0520831122994422,1.193758249282837,-0.2877675592899322,-0.4570228457450866,-0.1980937421321869,-0.2161008566617965,0.0,0.0,-0.288009762763977,-0.8267167806625366
-0.0552296638488769,1.1833786964416504,-0.3057717084884643,-0.4625237882137298,-0.2070462256669998,-0.1790491342544555,0.0,0.0,-0.5856883525848389,0.8429667949676514
-0.0583900436758995,1.1728490591049194,-0.3052700459957123,-0.469535619020462,-0.2179161310195922,-0.2173986434936523,0.0,0.0,-0.8315011858940125,0.2965073585510254
-0.0616304390132427,1.162184715270996,-0.3130892515182495,-0.4756249189376831,-0.2290018200874328,-0.2217141836881637,0.0,0.0,-0.8885107636451721,-0.5431978702545166
-0.0650010108947753,1.1514079570770264,-0.3272329568862915,-0.4805270731449127,-0.2389679253101349,-0.1993222087621688,0.0,0.0,-0.5348066091537476,-0.7604789137840271
-0.0685125365853309,1.1405155658721924,-0.3426856994628906,-0.48550546169281,-0.2475647181272506,-0.1719359457492828,0.0,0.0,-0.4992522001266479,-0.5764939785003662
-0.0721454620361328,1.129510521888733,-0.355763167142868,-0.4904050230979919,-0.2552443146705627,-0.1535917520523071,0.0,0.0,0.1392420530319214,0.4481091499328613
-0.0758338943123817,1.1188292503356934,-0.3608717918395996,-0.4761363863945007,-0.2633890807628631,-0.1628952622413635,0.0,0.0,-0.8329260945320129,-0.4230021834373474
-0.0796021446585655,1.1080127954483032,-0.368648886680603,-0.4822221994400024,-0.2717511057853699,-0.1672413051128387,0.0,0.0,-0.6828950643539429,0.4017314910888672
-0.083449937403202,1.0970613956451416,-0.3764078915119171,-0.4883084893226623,-0.2803307473659515,-0.1715928018093109,0.0,0.0,0.0327688455581665,-0.1181653141975402
-0.0872587189078331,1.086536169052124,-0.37236487865448,-0.4694555699825287,-0.2890812158584595,-0.1750095635652542,0.0,0.0,-0.6121333837509155,-0.265459656715393
-0.0911465659737587,1.075875759124756,-0.380077451467514,-0.4755426347255707,-0.2980498373508453,-0.1793721914291381,0.0,0.0,-0.7144859433174133,-0.59348464012146
-0.0951602905988693,1.0650992393493652,-0.3937028050422668,-0.4805547595024109,-0.3059802651405334,-0.1586088687181472,0.0,0.0,-0.4220831394195556,0.1864064931869506
-0.0992524176836013,1.054187536239624,-0.4013546109199524,-0.486640989780426,-0.3141293823719024,-0.162982553243637,0.0,0.0,-0.6186551451683044,0.6962792873382568
-0.1033721938729286,1.043124794960022,-0.4026629030704498,-0.4937325417995453,-0.3238160610198974,-0.1937337815761566,0.0,0.0,-0.8176411986351013,0.1091456413269043
-0.1075695976614952,1.0319273471832275,-0.4102417826652527,-0.4998216032981872,-0.3337219357490539,-0.1981177181005478,0.0,0.0,-0.7684860229492188,-0.0381728410720825
-0.1118441596627235,1.0205955505371094,-0.4177784323692322,-0.5059111714363098,-0.3438473045825958,-0.2025072574615478,0.0,0.0,-0.7114353775978088,-0.0746399164199829
-0.116195298731327,1.0091291666030884,-0.4252694249153137,-0.5120012164115906,-0.3541924059391022,-0.206902265548706,0.0,0.0,-0.6798050999641418,0.0885120630264282
-0.1206226348876953,0.9975282549858092,-0.4327110350131988,-0.5180917382240295,-0.3647575676441192,-0.2113027572631836,0.0,0.0,-0.7281202673912048,0.6629575490951538
-0.1250690519809723,0.9857599139213562,-0.4329615533351898,-0.526064395904541,-0.3771320879459381,-0.2474897652864456,0.0,0.0,-0.6038433313369751,0.1540106534957885
-0.1295903176069259,0.9738577604293824,-0.4402948319911957,-0.5321589112281799,-0.3897271156311035,-0.25190070271492,0.0,0.0,-0.1423156261444091,0.0578353404998779
-0.134185791015625,0.9618221521377563,-0.4475675225257873,-0.5382540822029114,-0.4025429785251617,-0.2563173472881317,0.0,0.0,-0.4950884580612182,-0.2862832546234131
-0.1388547867536544,0.949652910232544,-0.4547757506370544,-0.5443497896194458,-0.4155799448490143,-0.2607395052909851,0.0,0.0,-0.4030060172080993,0.4437669515609741
-0.1435963660478592,0.9373502135276794,-0.4619156420230865,-0.550446093082428,-0.428838312625885,-0.2651669681072235,0.0,0.0,0.0680930614471435,-0.2554649114608764
-0.1482761353254318,0.9256629347801208,-0.4552295804023742,-0.5233843922615051,-0.442715048789978,-0.2775343060493469,0.0,0.0,-0.485666275024414,-0.1119477152824401
-0.1530268639326095,0.9138426184654236,-0.46222123503685,-0.5294827222824097,-0.456813633441925,-0.281971275806427,0.0,0.0,-0.2844568490982055,-0.5862106680870056
-0.15787935256958,0.9019121527671814,-0.4731215834617615,-0.534282386302948,-0.470200777053833,-0.2677428722381592,0.0,0.0,0.1019346714019775,-0.2257726192474365
-0.1626129150390625,0.0,-0.4609466195106506,-0.5100724697113037,-0.483987808227539,-0.2757409214973449,0.0,0.0,0.2047736644744873,-0.2351641654968261
-0.1671935021877288,0.8793926239013672,-0.4458712935447693,-0.4993980228900909,-0.4976285099983215,-0.2728140950202942,0.0,0.0,0.2383015155792236,0.3010883331298828
-0.1715540885925293,0.8689071536064148,-0.4237721562385559,-0.4705451726913452,-0.5114806890487671,-0.2770430445671081,0.0,0.0,-0.4645209312438965,-0.8752266764640808
-0.1760271042585373,0.8583230376243591,-0.4361366331577301,-0.4746346175670624,-0.5241677165031433,-0.2537409961223602,0.0,0.0,-0.1828053593635559,-0.3597368001937866
-0.180565744638443,0.8476056456565857,-0.4425778985023498,-0.4807314276695251,-0.5370773673057556,-0.2581927180290222,0.0,0.0,0.1306115388870239,-0.893016517162323
-0.1848820745944976,0.8374603390693665,-0.4218994975090027,-0.4548090100288391,-0.5482966303825378,-0.2243835031986236,0.0,0.0,-0.2857458591461181,-0.523909866809845
-0.1892881393432617,0.8272075653076172,-0.431475967168808,-0.4594267010688782,-0.5588739514350891,-0.2115466594696045,0.0,0.0,0.5583356618881226,-0.2327130436897277
-0.1932849884033203,0.8177525997161865,-0.3907069563865661,-0.4240002036094665,-0.5693473815917969,-0.2094684392213821,0.0,0.0,0.2291840314865112,-0.6636692881584167
-0.1971224844455719,0.8089997172355652,-0.3757816553115845,-0.3924363851547241,-0.5786941647529602,-0.1869353950023651,0.0,0.0,0.580872654914856,-0.1046152710914611
-0.2007850706577301,0.8005176782608032,-0.3583534359931946,-0.3804548680782318,-0.588035523891449,-0.1868272125720977,0.0,0.0,0.9514539241790771,-0.3819121718406677
-0.2041452825069427,0.7930339574813843,-0.3275185227394104,-0.3364167213439941,-0.5981453061103821,-0.202195256948471,0.0,0.0,0.9370557069778442,-0.6804753541946411
-0.2071370184421539,0.7860796451568604,-0.2920811176300049,-0.3123292326927185,-0.6066420674324036,-0.1699348390102386,0.0,0.0,0.9477829933166504,-0.6769201159477234
-0.2097911834716797,0.7799016833305359,-0.2594506740570068,-0.2773516476154327,-0.6138228178024292,-0.143614649772644,0.0,0.0,0.9784382581710817,-0.8021270632743835
-0.2122685462236404,0.7742181420326233,-0.2430630475282669,-0.2548160851001739,-0.6194754838943481,-0.1130537167191505,0.0,0.0,0.9861468076705932,-0.1938329339027404
-0.2145079672336578,0.7693971991539001,-0.2185382544994354,-0.2168493270874023,-0.6260328888893127,-0.1311476528644561,0.0,0.0,0.9912917613983154,-0.9479699730873108
-0.2162268161773681,0.7657436728477478,-0.1680765300989151,-0.1642254143953323,-0.6306833624839783,-0.0930110365152359,0.0,0.0,0.9071311950683594,-0.4395558834075928
-0.217720553278923,0.7622804045677185,-0.1457588821649551,-0.1556881815195083,-0.6351085901260376,-0.0885049477219581,0.0,0.0,0.687375545501709,-0.7045607566833496
-0.2187623977661132,0.7597634196281433,-0.1017141118645668,-0.1130844205617904,-0.6381402611732483,-0.0606334097683429,0.0,0.0,0.3146605491638183,-0.8767950534820557
-0.2197520732879638,0.7576993107795715,-0.0978394821286201,-0.0922974497079849,-0.6395282745361328,-0.0277607105672359,0.0,0.0,-0.4622737169265747,-0.9568662047386168
-0.2208544760942459,0.7555797100067139,-0.1109050512313842,-0.093873843550682,-0.6387158036231995,0.0162491612136364,0.0,0.0,0.6138321161270142,-0.8315584063529968
-0.2216629981994629,0.7540862560272217,-0.0828619226813316,-0.0653831139206886,-0.636247992515564,0.0493563711643219,0.0,0.0,0.1558430194854736,-0.7975736260414124
-0.2222921401262283,0.7533249258995056,-0.0661565959453582,-0.0322484225034713,-0.6322761178016663,0.0794370248913765,0.0,0.0,-0.1753717064857483,-0.6479619741439819
-0.2229976654052734,0.7524678111076355,-0.0746558681130409,-0.0361042395234108,-0.6272643804550171,0.1002351269125938,0.0,0.0,-0.0627588629722595,-0.8146169185638428
-0.2237988412380218,0.7515293955802917,-0.0856024473905563,-0.0390707664191722,-0.6205888390541077,0.1335105746984481,0.0,0.0,0.0541093349456787,-0.6689204573631287
-0.224521592259407,0.750706136226654,-0.0788565129041671,-0.0334806926548481,-0.6126264333724976,0.159247875213623,0.0,0.0,0.3597129583358764,-0.6360831260681152
-0.2251854389905929,0.7501532435417175,-0.07394989579916,-0.0210604909807443,-0.6035297513008118,0.1819349825382232,0.0,0.0,0.0197157859802246,-0.5670465230941772
-0.2256440669298172,0.7501170039176941,-0.0543561689555645,0.0022597906645387,-0.593384325504303,0.2029080390930175,0.0,0.0,-0.2842499017715454,-0.6152082681655884
-0.2261665761470794,0.7499864101409912,-0.0616332292556762,-0.0016256944509223,-0.5822510123252869,0.222666710615158,0.0,0.0,-0.2415893673896789,-0.4394207000732422
-0.2267192304134369,0.7497217655181885,-0.0645722597837448,-0.0077176433987915,-0.5712820887565613,0.2193782031536102,0.0,0.0,-0.247718334197998,-0.6915113925933838
-0.2273577749729156,0.7493701577186584,-0.0746313482522964,-0.0110635254532098,-0.5586826801300049,0.25198894739151,0.0,0.0,0.2897669076919555,-0.6955325603485107
-0.227709487080574,0.7496901750564575,-0.0472381114959716,0.0191826801747083,-0.5446911454200745,0.2798306345939636,0.0,0.0,-0.4806925058364868,-0.2448446154594421
-0.2280859053134918,0.7498766779899597,-0.0496861338615417,0.0130868172273039,-0.5308416485786438,0.2769904732704162,0.0,0.0,0.1096524000167846,-0.5984418988227844
-0.2283295691013336,0.750587522983551,-0.0374649539589881,0.0366374403238296,-0.515905499458313,0.2987225651741028,0.0,0.0,-0.5909118056297302,-0.4736987352371216
-0.2285944521427154,0.7511650323867798,-0.0395922474563121,0.0305403843522071,-0.5010937452316284,0.2962356209754944,0.0,0.0,-0.6981467604637146,-0.6105973124504089
-0.2289146482944488,0.751638650894165,-0.0461124964058399,0.0261113215237855,-0.4852947294712066,0.3159801959991455,0.0,0.0,-0.3789169788360595,-0.0972489714622497
-0.229252815246582,0.7519792914390564,-0.0479286089539527,0.0200130809098482,-0.4696002900600433,0.3138886392116546,0.0,0.0,-0.4302810430526733,-0.0656671524047851
-0.2296072989702224,0.7521867156028748,-0.0495925769209861,0.0139154605567455,-0.453999787569046,0.312010109424591,0.0,0.0,-0.5940638780593872,0.2594149112701416
-0.2299766093492508,0.7522606253623962,-0.0511078163981437,0.0078184315934777,-0.4384821057319641,0.3103535771369934,0.0,0.0,-0.3700537085533142,0.6154367923736572
-0.2303070127964019,0.7521588206291199,-0.0457888394594192,-0.0006009513163007,-0.4246214032173157,0.2772149443626404,0.0,0.0,-0.2573407292366028,0.2936068773269653
-0.2306494265794754,0.7519230246543884,-0.0470155514776706,-0.006693354807794,-0.4108200371265411,0.2760274410247803,0.0,0.0,-0.6432039737701416,0.6370431184768677
-0.2309529781341552,0.7515256404876709,-0.0418735593557357,-0.0143606970086693,-0.3984476029872894,0.2474487721920013,0.0,0.0,-0.1184630990028381,0.1589022874832153
-0.2312657386064529,0.7509937882423401,-0.0428294502198696,-0.0204493477940559,-0.3861098885536194,0.2467543333768844,0.0,0.0,-0.2774710655212402,0.1638464927673339
-0.2315865010023117,0.7503271698951721,-0.0436577498912811,-0.0265375636518001,-0.373794287443161,0.2463120967149734,0.0,0.0,0.0476813316345214,0.411643385887146
-0.2318268716335296,0.7499948740005493,-0.0355272926390171,-0.0118106044828891,-0.3616422116756439,0.2430417537689209,0.0,0.0,-0.2514532804489136,0.0247145891189575
-0.2320725917816162,0.749527633190155,-0.0361148864030838,-0.0178977865725755,-0.349486768245697,0.2431093752384185,0.0,0.0,0.0878121852874755,0.5397491455078125
-0.2321702986955642,0.7494403719902039,-0.0202917922288179,-0.0013637485681101,-0.3384502232074737,0.2207308709621429,0.0,0.0,-0.57710862159729,0.3191999197006225
-0.2322709560394287,0.749217689037323,-0.0206583943217992,-0.0074482886120676,-0.327384889125824,0.2213065326213836,0.0,0.0,-0.6503293514251709,-0.0442559123039245
-0.2323735207319259,0.7488597631454468,-0.0209231842309236,-0.0135326078161597,-0.3162783086299896,0.222131535410881,0.0,0.0,-0.2623612284660339,0.3772108554840088
-0.2324768006801605,0.7483663558959961,-0.0210917107760906,-0.0196167510002851,-0.305118203163147,0.2232013642787933,0.0,0.0,-0.0404918193817138,0.4450562000274658
-0.2325799018144607,0.7477376461029053,-0.0211696065962314,-0.0257007740437984,-0.2938926517963409,0.2245102673768997,0.0,0.0,-0.3877080678939819,0.4305198192596435
-0.2326817959547042,0.7469736337661743,-0.0211626049131155,-0.0317847244441509,-0.2825900912284851,0.2260514497756958,0.0,0.0,-0.2392029166221618,0.7307486534118652
-0.2327368706464767,0.7460553646087646,-0.015441452153027,-0.038925539702177,-0.2723942995071411,0.2039159536361694,0.0,0.0,-0.7256481647491455,0.3258013725280761
-0.2327891290187835,0.745001494884491,-0.0152812181040644,-0.0450074151158332,-0.2620993554592132,0.2058988064527511,0.0,0.0,-0.6136849522590637,0.0539692640304565
-0.2328377664089203,0.7438117861747742,-0.0150536922737956,-0.0510893315076828,-0.2516948878765106,0.2080892026424408,0.0,0.0,-0.7681097984313965,0.2719544172286987
-0.2328820675611496,0.7424864172935486,-0.0147648155689239,-0.0571713484823703,-0.2411709874868393,0.2104779034852981,0.0,0.0,-0.8484044671058655,0.1437819004058838
-0.2329214066267013,0.7410253882408142,-0.0144205670803785,-0.0632535070180893,-0.2305182218551635,0.213055282831192,0.0,0.0,-0.7252447009086609,0.264430284500122
-0.2329551726579666,0.739428699016571,-0.0140269380062818,-0.0693358480930328,-0.2197276353836059,0.2158116996288299,0.0,0.0,-0.5583548545837402,0.5594247579574585
-0.2329285591840744,0.7376846075057983,-0.006787865422666,-0.0761354342103004,-0.2101791352033615,0.190969780087471,0.0,0.0,-0.9349521398544312,0.4999853372573852
-0.2328954637050628,0.7358047366142273,-0.0063127451576292,-0.0822159424424171,-0.2004763334989547,0.1940560191869735,0.0,0.0,-0.9390443563461304,0.8204278945922852
-0.2327916175127029,0.7337775826454163,0.0021923978347331,-0.0890076383948326,-0.1922348290681839,0.1648301929235458,0.0,0.0,-0.8986262679100037,0.3695552349090576
-0.2326807081699371,0.7316142320632935,0.0027248894330114,-0.0950862541794776,-0.1838243901729583,0.1682087928056717,0.0,0.0,-0.9568803310394288,0.7470829486846924
-0.2324970662593841,0.7292925119400024,0.0115028386935591,-0.1023531332612037,-0.1769401580095291,0.1376848667860031,0.0,0.0,-0.859044075012207,0.7393821477890015
-0.2322599440813064,0.7268231511116028,0.0178441070020198,-0.1090614572167396,-0.1710546612739563,0.1177099347114563,0.0,0.0,-0.924970805644989,0.7866847515106201
-0.2319671660661697,0.7242024540901184,0.024452518671751,-0.115925595164299,-0.1662232130765915,0.0966290310025215,0.0,0.0,-0.773644208908081,0.5218172073364258
-0.2316274642944336,0.7214347124099731,0.0299530327320098,-0.1225650012493133,-0.1622067242860794,0.0803297087550163,0.0,0.0,-0.976102888584137,0.3229460716247558
-0.2312800884246826,0.7185301780700684,0.0305243488401174,-0.1286393851041793,-0.1579921096563339,0.0842924267053604,0.0,0.0,-0.98441880941391,0.4473166465759277
-0.2309250384569168,0.715488612651825,0.0310856066644191,-0.1347138881683349,-0.153574600815773,0.0883500427007675,0.0,0.0,-0.9634926319122314,0.7503180503845215
-0.2304939776659011,0.7122977375984192,0.0402210094034671,-0.1415246874094009,-0.1506923139095306,0.0576460249722003,0.0,0.0,-0.9482138156890868,0.6794512271881104
-0.2299994975328445,0.7089635133743286,0.0477594062685966,-0.1480151563882827,-0.1490108668804168,0.0336290523409843,0.0,0.0,-0.7079439759254456,0.7776219844818115
