x_pos,y_pos,x_vel,y_vel,angle,ang_vel,leg_1,leg_2,main_booster,lat_booster
-0.0015028953785076,1.4031459093093872,-0.1522591859102249,-0.3455233871936798,0.0017693167319521,0.0349016860127449,0.0,0.0,0.9293663050583992,-0.8520781907788261
-0.0029876709450036,1.39572012424469,-0.1520831435918808,-0.3300431966781616,0.0053367824293673,0.0713569670915603,0.0,0.0,0.7615276129145483,-0.877053681849932
-0.0043676374480128,1.388455867767334,-0.1436754763126373,-0.3228901028633117,0.0109490929171442,0.1122564673423767,0.0,0.0,0.9248380776741364,-0.9051505383366908
-0.005961132235825,1.381579875946045,-0.1665288507938385,-0.3056714236736297,0.0180503372102975,0.1420380771160125,0.0,0.0,0.7817262941987222,-0.873624284859607
-0.0074668885208666,1.3752857446670532,-0.1598151177167892,-0.279876708984375,0.0271889436990022,0.1827889084815979,0.0,0.0,-0.7890007783211386,-0.9628133500783144
-0.0090173725038766,1.368510365486145,-0.1657849699258804,-0.3013553321361542,0.0378117971122264,0.2124765813350677,0.0,0.0,0.166476506599686,-0.8925054922208744
-0.0106598855927586,1.3618643283843994,-0.1767740398645401,-0.2957382500171661,0.050204824656248,0.247883602976799,0.0,0.0,-0.1725466027862099,-0.933052986779162
-0.0123474122956395,1.3547403812408447,-0.1826774626970291,-0.3171390295028686,0.0640014559030532,0.2759577929973602,0.0,0.0,-0.8322289767927205,-0.8657177712063914
-0.0140960691496729,1.3471438884735107,-0.1905692368745803,-0.3383786976337433,0.0795604735612869,0.3112087547779083,0.0,0.0,-0.1498637125651025,-0.9200089583390726
-0.0159108154475688,1.339069366455078,-0.1990030705928802,-0.3598985373973846,0.0969600304961204,0.3480230867862701,0.0,0.0,0.4590713331031761,0.7461094290213331
-0.0176289565861225,1.3313249349594116,-0.1879980266094207,-0.3453245162963867,0.113041304051876,0.3216553926467895,0.0,0.0,-0.3177746980407347,0.9004000409496228
-0.0192652698606252,1.323116421699524,-0.1777950674295425,-0.3659591972827911,0.1271401941776275,0.28200364112854,0.0,0.0,-0.2854958067721218,0.6301590414544883
-0.0208409316837787,1.314446210861206,-0.1701814830303192,-0.3864639699459076,0.1397306621074676,0.2518327236175537,0.0,0.0,0.9006276733805576,0.8595637115461428
-0.0223197937011718,1.305930495262146,-0.1589800417423248,-0.3795494735240936,0.1508101671934127,0.2216107547283172,0.0,0.0,-0.126702480954864,0.8555961482176828
-0.0237197875976562,1.2969648838043213,-0.1489817053079605,-0.3994036614894867,0.1597992926836013,0.1797990500926971,0.0,0.0,-0.1479799031424338,0.7652767251414487
-0.0250525474548339,1.2875298261642456,-0.1404735594987869,-0.42012819647789,0.1670101732015609,0.1442303508520126,0.0,0.0,0.233481797163336,-0.8968787520010664
-0.0264509208500385,1.2785840034484863,-0.1489042043685913,-0.3986370265483856,0.1761049628257751,0.1819126158952713,0.0,0.0,-0.8954651573198937,0.7547542143756715
-0.027783965691924,1.2691731452941897,-0.1405191570520401,-0.4191283285617828,0.1833598166704177,0.1451100409030914,0.0,0.0,0.0185209157749237,-0.6000908427651401
-0.0291975028812885,1.2600255012512207,-0.1498702764511108,-0.4076308310031891,0.1919267326593399,0.1713538318872451,0.0,0.0,-0.2709973534489336,0.8986957130857796
-0.0305619239807128,1.2504171133041382,-0.1434268057346344,-0.4279566407203674,0.198959082365036,0.1406599879264831,0.0,0.0,-0.7841336054406542,-0.6300067413136283
-0.0319782271981239,1.240323781967163,-0.1496149450540542,-0.4496825933456421,0.2070141583681106,0.1611158847808838,0.0,0.0,-0.725581931724711,-0.6236115287962615
-0.0334557518362998,1.2297346591949463,-0.1569644659757614,-0.4719494879245758,0.2163288593292236,0.186310738325119,0.0,0.0,-0.3381894296568788,0.6155218179270416
-0.0348915085196495,1.218685746192932,-0.1513164341449737,-0.4922085702419281,0.2241690307855606,0.1568174213171005,0.0,0.0,0.7937421421257058,-0.6587967794777254
-0.0363896377384662,1.207657814025879,-0.1590850353240966,-0.4915643036365509,0.2335721105337143,0.1880788952112198,0.0,0.0,0.8454623449660368,0.7524382859170323
-0.0381835922598838,1.1971638202667236,-0.1868064254522323,-0.4675900638103485,0.2411095798015594,0.1507628113031387,0.0,0.0,-0.8935668765757183,-0.9619848072644877
-0.0400864593684673,1.1861428022384644,-0.2000881880521774,-0.4914693236351013,0.2510895729064941,0.199599415063858,0.0,0.0,0.4652015963915599,-0.7868244970610025
-0.0422277450561523,1.1755636930465698,-0.2255031764507293,-0.4721670150756836,0.2626961171627044,0.2321306765079498,0.0,0.0,-0.1918978620385849,-0.7489592481861371
-0.0444623008370399,1.1644877195358276,-0.2366114854812622,-0.4946836829185486,0.2761761844158172,0.2696015238761902,0.0,0.0,-0.0372032810449252,-0.6009476469889179
-0.0467765815556049,1.1529171466827393,-0.2460239380598068,-0.5170785784721375,0.2911704182624817,0.2998847365379333,0.0,0.0,-0.5426129263496877,0.9806233237667548
-0.0490433685481548,1.1408991813659668,-0.2393773794174194,-0.5367266535758972,0.3042820990085602,0.2622336745262146,0.0,0.0,-0.4592083041788803,-0.8584283677536032
-0.0513999946415424,1.1283848285675049,-0.2499769181013107,-0.5592525005340576,0.3191143870353699,0.2966457307338714,0.0,0.0,-0.8252318078197822,-0.6317592755284205
-0.053835678845644,1.1153653860092163,-0.259236067533493,-0.5821804404258728,0.3354439437389374,0.3265917897224426,0.0,0.0,0.3689743955826043,-0.7752101830832049
-0.0566491112112998,1.1027506589889526,-0.2983681857585907,-0.5647070407867432,0.3532900214195251,0.3569214046001434,0.0,0.0,-0.1408498919846423,-0.9158246902539604
-0.0595636367797851,1.0896131992340088,-0.31037038564682,-0.5886732935905457,0.3732618689537048,0.3994369208812713,0.0,0.0,-0.2038786938352836,-0.9723947373663832
-0.0625772476196289,1.075964093208313,-0.3219866752624511,-0.6121789216995239,0.3952171206474304,0.439105212688446,0.0,0.0,-0.3274445409115163,0.7165149968983195
-0.0655689239501953,1.0618802309036257,-0.318220317363739,-0.6313851475715637,0.4156783521175384,0.4092245101928711,0.0,0.0,0.573568673632747,-0.6172275105043612
-0.068834587931633,1.04787015914917,-0.346608430147171,-0.6287350058555603,0.4374029040336609,0.4344908595085144,0.0,0.0,0.1821168407277025,-0.7307259476342883
-0.0723880752921104,1.0341157913208008,-0.3766211569309234,-0.6181138157844543,0.4607099592685699,0.4661411643028259,0.0,0.0,0.4373790621608235,0.9811330425072664
-0.0762691497802734,1.0209087133407593,-0.407302051782608,-0.5934810638427734,0.4819622933864593,0.4250466823577881,0.0,0.0,-0.976601402684288,0.9386415799876612
-0.0801148414611816,1.0072826147079468,-0.4017415642738342,-0.6117208003997803,0.501186192035675,0.3844776749610901,0.0,0.0,-0.88527239546856,-0.6626035168597432
-0.0840483680367469,0.993143916130066,-0.4118277430534363,-0.635287880897522,0.5220862030982971,0.4180005192756653,0.0,0.0,-0.7889893651008606,0.9946444034576416
-0.0879331603646278,0.9785993099212646,-0.4045565128326416,-0.6527163982391357,0.5404880046844482,0.3680377602577209,0.0,0.0,-0.8309094309806824,0.9895203113555908
-0.0917701721191406,0.9636396169662476,-0.3975551724433899,-0.6705101728439331,0.5565006732940674,0.3202532827854156,0.0,0.0,-0.8718212246894836,0.9616342782974244
-0.0955655127763748,0.9482714533805848,-0.391232281923294,-0.6879516839981079,0.5701630115509033,0.2732483148574829,0.0,0.0,-0.8151549100875854,0.9878559112548828
-0.0993290916085243,0.9324749112129213,-0.3863377869129181,-0.7063791155815125,0.581910252571106,0.2349445074796676,0.0,0.0,-0.84615159034729,0.9677493572235109
-0.1030542403459549,0.916260063648224,-0.3805883228778839,-0.7242317199707031,0.5914756059646606,0.1913066357374191,0.0,0.0,-0.898328959941864,0.9728736877441406
-0.1067412346601486,0.8996331095695496,-0.3748354315757751,-0.741745114326477,0.5987823605537415,0.1461357027292251,0.0,0.0,-0.7027578353881836,0.9335711002349854
-0.1104165092110633,0.8825862407684326,-0.3722862899303436,-0.7598138451576233,0.6044735908508301,0.113824151456356,0.0,0.0,-0.8467794060707092,0.838883638381958
-0.1140862479805946,0.8651106953620911,-0.3705479502677917,-0.7783516049385071,0.6087785363197327,0.0860993191599845,0.0,0.0,-0.8681012392044067,0.7428908348083496
-0.1177427321672439,0.8472028374671936,-0.367971271276474,-0.7969847917556763,0.611576497554779,0.0559585876762867,0.0,0.0,-0.8904334902763367,0.7592086791992188
-0.1213727965950965,0.8288794159889221,-0.363676905632019,-0.814685046672821,0.6123802661895752,0.0160748213529586,0.0,0.0,-0.8103231191635132,0.312566876411438
-0.1250365227460861,0.8100777864456177,-0.3670646548271179,-0.8359583020210266,0.6132217645645142,0.0168299078941345,0.0,0.0,-0.741870105266571,0.5895607471466064
-0.1286884248256683,0.790841817855835,-0.3646709024906158,-0.8546913862228394,0.6125998497009277,-0.012438578531146,0.0,0.0,-0.8308865427970886,0.6777045726776123
-0.132333368062973,0.7711781859397888,-0.3627749383449554,-0.8731375336647034,0.6105312705039978,-0.0413712672889232,0.0,0.0,-0.6591388583183289,0.4348554611206054
-0.1360122710466385,0.7510361075401306,-0.3661982417106628,-0.8944109678268433,0.6084999442100525,-0.0406266152858734,0.0,0.0,-0.7070868015289307,0.3181828260421753
-0.1397252082824707,0.7304158806800842,-0.3696313500404358,-0.9156843423843384,0.6065056324005127,-0.0398862436413764,0.0,0.0,-0.1057467460632324,0.2800319194793701
-0.143472284078598,0.7093173861503601,-0.3730733692646026,-0.9369576573371888,0.6045480966567993,-0.0391508117318153,0.0,0.0,-0.1393471360206604,0.7109193801879883
-0.1471988707780838,0.6878008246421814,-0.3694777488708496,-0.9548299908638,0.6007359027862549,-0.076244443655014,0.0,0.0,-0.2736099362373352,0.6342267990112305
-0.1509167701005935,0.6658584475517273,-0.3673269748687744,-0.9731904864311218,0.5954112410545349,-0.1064928770065307,0.0,0.0,0.0033119916915893,0.7240643501281738
-0.1549367904663086,0.6440383195877075,-0.3962253034114837,-0.9671882390975952,0.5885354280471802,-0.1375158131122589,0.0,0.0,0.2109875679016113,0.4330251216888428
-0.1591109335422516,0.6221104264259338,-0.4117845892906189,-0.9720895290374756,0.5818688273429871,-0.1333320885896682,0.0,0.0,-0.5442938804626465,0.0647354125976562
-0.163319781422615,0.5997046232223511,-0.4152563512325287,-0.9933655858039856,0.575237512588501,-0.1326261311769485,0.0,0.0,-0.2519122362136841,0.2492772340774536
-0.1675632447004318,0.5768207907676697,-0.4187327027320862,-1.014641523361206,0.5686411261558533,-0.1319276988506317,0.0,0.0,-0.4603370428085327,0.1735140085220337
-0.1718415319919586,0.5534592270851135,-0.4222130179405212,-1.0359175205230713,0.5620792508125305,-0.1312375366687774,0.0,0.0,-0.700175404548645,-0.6026262640953064
-0.1761920899152755,0.5295789241790771,-0.4305458962917328,-1.0594638586044312,0.5568304061889648,-0.1049774065613746,0.0,0.0,-0.2259318828582763,-0.6225713491439819
-0.1806270629167556,0.5051745772361755,-0.4403844475746155,-1.0833560228347778,0.5532172918319702,-0.0722623616456985,0.0,0.0,-0.573735237121582,-0.7628943920135498
-0.1851486265659332,0.4802541136741638,-0.4504121840000152,-1.106856107711792,0.5511925220489502,-0.0404958203434944,0.0,0.0,-0.6235906481742859,-0.8861757516860962
-0.1897518187761306,0.4547996520996094,-0.4600241184234619,-1.131188988685608,0.5508496165275574,-0.0068579339422285,0.0,0.0,-0.7875062823295593,-0.9101290702819824
-0.1944511383771896,0.4288225173950195,-0.4712527692317962,-1.1550794839859009,0.5523751974105835,0.030511874705553,0.0,0.0,-0.8733978867530823,-0.9154500365257264
-0.1992539465427398,0.4022988080978393,-0.4835732877254486,-1.180187463760376,0.5561965107917786,0.0764256864786148,0.0,0.0,-0.9397611021995544,-0.9147126078605652
-0.2041626870632171,0.3752352595329284,-0.4961087107658386,-1.2050079107284546,0.5622926950454712,0.1219225898385047,0.0,0.0,-0.9816007018089294,-0.9331762194633484
-0.2091652899980545,0.3476402759552002,-0.5071176290512085,-1.2293479442596436,0.5703085064888,0.1603167057037353,0.0,0.0,-0.9943545460700988,-0.8825307488441467
-0.2142768800258636,0.3195085525512695,-0.5199342370033264,-1.2540911436080933,0.5806310772895813,0.2064515352249145,0.0,0.0,-0.9936503767967224,-0.7236430048942566
-0.2194650620222091,0.290859043598175,-0.5287073850631714,-1.277683138847351,0.5923450589179993,0.2342793196439743,0.0,0.0,-0.9935054779052734,-0.7075715661048889
-0.2247347831726074,0.2616798281669616,-0.5381549000740051,-1.3019368648529053,0.6057029962539673,0.2671592235565185,0.0,0.0,-0.9907145500183104,-0.4002013802528381
-0.2300400733947754,0.2320241034030914,-0.541634202003479,-1.3232218027114868,0.6190862059593201,0.2676647305488586,0.0,0.0,-0.970506191253662,-0.4778918027877807
-0.235381081700325,0.2018920332193374,-0.5451110005378723,-1.344506859779358,0.6324936151504517,0.2681487798690796,0.0,0.0,-0.9487387537956238,-0.3102436065673828
-0.2407576590776443,0.1712833791971206,-0.5485848188400269,-1.3657915592193604,0.6459241509437561,0.2686110138893127,0.0,0.0,-0.906674861907959,0.2048473358154297
-0.2461698502302169,0.1401982903480529,-0.5520551204681396,-1.3870761394500732,0.6593766808509827,0.2690511345863342,0.0,0.0,-0.8677148222923279,0.6830859184265137
-0.2515864968299866,0.1086812615394592,-0.5514274835586548,-1.405859112739563,0.6716229915618896,0.2449267655611038,0.0,0.0,-0.7688571810722351,0.8292522430419922
-0.2493908852338791,0.1022654846310615,0.1151182875037193,-0.3659981787204742,0.7807692289352417,2.1216299533843994,0.0,1.0,-0.9758679270744324,-0.9664791822433472
-0.245752140879631,0.1052710637450218,0.281770795583725,0.0724399611353874,0.9010199904441832,2.403348445892334,0.0,1.0,-0.9999284744262696,-0.978652834892273
-0.2425443232059478,0.1079145073890686,0.2570037245750427,0.058067712932825,1.0103189945220947,2.187365293502808,0.0,1.0,-0.999967098236084,-0.9367182850837708
-0.2394250929355621,0.110058769583702,0.2558228075504303,0.0280817169696092,1.1243945360183716,2.281696557998657,0.0,0.0,-0.9999762177467346,0.1090049743652343
-0.2364485263824463,0.1117957681417465,0.2534042596817016,0.0061949831433594,1.2384055852890017,2.280393362045288,0.0,0.0,-0.9999834895133972,0.1038006544113159
-0.2336201667785644,0.1131061166524887,0.2510147392749786,-0.0155826807022094,1.3523025512695312,2.278114557266236,0.0,0.0,-0.999958634376526,0.1156791448593139
-0.2309426367282867,0.1139701455831527,0.24872986972332,-0.0372785441577434,1.466087818145752,2.275878667831421,0.0,0.0,-0.9999828934669496,-0.0916983485221862
-0.2284172028303146,0.1143676862120628,0.2465269863605499,-0.0588827058672905,1.579758644104004,2.273590564727783,0.0,0.0,-0.999950110912323,0.0062824487686157
-0.2260435074567794,0.1142787039279937,0.244389921426773,-0.080389104783535,1.6933122873306274,2.2712481021881104,0.0,0.0,-0.9999492168426514,-0.0747767686843872
-0.2238198816776275,0.1136834695935249,0.2423021048307418,-0.1017933562397956,1.8067461252212524,2.2688512802124023,0.0,0.0,-0.9999613165855408,0.1292500495910644
-0.2217429131269455,0.1125625222921371,0.2402463406324386,-0.1230923011898994,1.9200575351715088,2.2664012908935547,0.0,0.0,-0.9999574422836304,0.0006605386734008
-0.2198080122470855,0.1108972653746604,0.2382047921419143,-0.1442842036485672,2.0332436561584477,2.2638957500457764,0.0,0.0,-0.9999263286590576,-0.1362014412879943
-0.2180089503526687,0.108670100569725,0.2361594438552856,-0.1653689295053482,2.1463019847869877,2.261337995529175,0.0,0.0,-0.9999199509620668,-0.2605630159378052
-0.2163383513689041,0.105864867568016,0.23409204185009,-0.1863477230072021,2.259230375289917,2.258732318878174,0.0,0.0,-0.999900221824646,-0.4870791435241699
-0.214787870645523,0.1024664044380188,0.2319853603839874,-0.2072238475084304,2.372025728225708,2.25607967376709,0.0,0.0,-0.9998034238815308,-0.6555219292640686
-0.2133214920759201,0.0984091833233833,0.233466699719429,-0.2308489680290222,2.485961437225342,2.27888822555542,0.0,0.0,-0.999875545501709,-0.7971139550209045
-0.2119070589542389,0.0936696156859397,0.2377646416425705,-0.2548528909683227,2.60155987739563,2.3121447563171387,0.0,0.0,-0.99969881772995,-0.8546226620674133
-0.2105193585157394,0.0882216542959213,0.2439817637205124,-0.2792216837406158,2.719212293624878,2.353224277496338,0.0,0.0,-0.9993123412132264,-0.909523904323578
-0.2091582715511322,0.0820780396461486,0.2485295534133911,-0.3019645810127258,2.838327407836914,2.3824830055236816,0.0,0.0,-0.9990924000740052,-0.9497345089912416
-0.2077883183956146,0.0752249583601951,0.2556968331336975,-0.3246459364891052,2.959388494491577,2.4214038848876958,0.0,0.0,-0.997253954410553,-0.9731258749961852
-0.2063858956098556,0.0676634907722473,0.2637896537780761,-0.3465242087841034,3.0825002193450928,2.4624202251434326,0.0,0.0,-0.9977399706840516,-0.9857320189476012
-0.2049381732940673,0.0594121553003788,0.2711906135082245,-0.3669324517250061,3.2074732780456543,2.499650239944458,0.0,0.0,-0.996109902858734,-0.9937552213668824
-0.2034144401550293,0.0504776090383529,0.2799768447875976,-0.386538416147232,3.3345892429351807,2.543120145797729,0.0,0.0,-0.9937006831169128,-0.9972354769706726
-0.201792761683464,0.0408815965056419,0.2889138162136078,-0.4048711359500885,3.463949680328369,2.5892882347106934,0.0,0.0,-0.9850735664367676,-0.9986305236816406
-0.2000872194766998,0.0306194648146629,0.2933743596076965,-0.423353761434555,3.5947697162628174,2.618713617324829,0.0,0.0,-0.9882766604423524,-0.9993416666984558
-0.1982801407575607,0.0197276920080184,0.2974777519702911,-0.4403565526008606,3.7272655963897705,2.652325391769409,0.0,0.0,-0.9654140472412108,-0.9997034072875975
-0.1954032927751541,0.0173167083412408,0.3680037558078766,0.0446762479841709,3.8570261001586914,2.2870144844055176,0.0,0.0,-0.9654140472412108,-0.9997034072875975
