x_pos,y_pos,x_vel,y_vel,angle,ang_vel,leg_1,leg_2,main_booster,lat_booster
-0.0015293121105059,1.4032536745071411,-0.1544736325740814,-0.3407292068004608,0.0013806101633235,0.0272052995860576,0.0,0.0,-0.5538628103368157,-0.729162763525641
-0.0031170845031738,1.395235896110535,-0.1610521376132965,-0.3563438951969147,0.0036440314725041,0.0452732518315315,0.0,0.0,0.5642384768439306,-0.5233461848855037
-0.0046175955794751,1.387417554855347,-0.1533589363098144,-0.3474954962730407,0.0069164116866886,0.0654535666108131,0.0,0.0,-0.0813448047664928,0.6318833824127865
-0.0060841562226414,1.379226803779602,-0.148535743355751,-0.3640516102313995,0.0087772514671087,0.037220399826765,0.0,0.0,0.1482805176227881,-0.5198478708115468
-0.0075030326843261,1.371347427368164,-0.1446114331483841,-0.3502150774002075,0.0114657245576381,0.0537742972373962,0.0,0.0,-0.6491133637511302,0.5693127003607008
-0.0088729858398437,1.3630971908569336,-0.13788902759552,-0.3666834235191345,0.0123556340113282,0.0177999511361122,0.0,0.0,0.7621054153501499,0.9421268546834132
-0.0102089885622262,1.3554009199142456,-0.1321515589952469,-0.3420461118221283,0.0109184589236974,-0.0287459846585989,0.0,0.0,0.1854690207361822,-0.5762373908182474
-0.011482810601592,1.3480327129364014,-0.1268858611583709,-0.3274678885936737,0.0104310614988207,-0.0097491070628166,0.0,0.0,-0.5749690710680606,0.7449807726239777
-0.0127049442380666,1.34030282497406,-0.1198261603713035,-0.3435385525226593,0.0080731250345706,-0.0471630543470382,0.0,0.0,0.286848556436996,-0.7184165230548103
-0.0139945987612009,1.333054542541504,-0.1275835931301117,-0.322135865688324,0.0067130988463759,-0.0272030588239431,0.0,0.0,-0.9174175325033154,0.6344566440724415
-0.0152325630187988,1.3254365921020508,-0.1205421462655067,-0.3385694921016693,0.0034879080485552,-0.0645100325345993,0.0,0.0,-0.8592220385802207,0.705957851347381
-0.0164138786494731,1.3174469470977783,-0.1128520518541336,-0.3550922572612762,-0.0017287966329604,-0.104343369603157,0.0,0.0,-0.6600145506867916,0.7152780471280543
-0.0175318717956542,1.3090906143188477,-0.1043398156762123,-0.3714205622673034,-0.0091001531109213,-0.1474405825138092,0.0,0.0,0.5649564822697692,-0.9917345333051326
-0.018655776977539,1.300859451293945,-0.1065690517425537,-0.3658736050128937,-0.0148533247411251,-0.1150741353631019,0.0,0.0,-0.6136112241535425,-0.539543758126664
-0.0198171623051166,1.2922642230987549,-0.1107164472341537,-0.3820711672306061,-0.0202215202152729,-0.1073737144470214,0.0,0.0,-0.9120089029837912,0.9242181394187968
-0.0208973884582519,1.2832858562469482,-0.0999675542116165,-0.3991789817810058,-0.0281928591430187,-0.1594409793615341,0.0,0.0,-0.7397163231530743,-0.5808881939057808
-0.0220176689326763,1.2739455699920654,-0.1044137254357338,-0.4152800738811493,-0.0357091538608074,-0.1503394544124603,0.0,0.0,-0.1184091071293131,-0.7086471895003563
-0.0231851581484079,1.26423180103302,-0.1097931489348411,-0.4319051504135132,-0.0425898358225822,-0.1376264244318008,0.0,0.0,0.3145941076327132,-0.8179333530819803
-0.0243063922971487,1.2551114559173584,-0.1064767017960548,-0.4055190682411194,-0.0481836125254631,-0.1118857711553573,0.0,0.0,0.0310836432078853,0.937082707659866
-0.025401210412383,1.246148705482483,-0.101506158709526,-0.3986139297485351,-0.0560659654438495,-0.1576613485813141,0.0,0.0,0.7509018816313449,0.907154789219776
-0.0262330062687397,1.2379980087280271,-0.0732162967324256,-0.362656682729721,-0.0659404844045639,-0.1975082755088806,0.0,0.0,-0.8021023199779385,-0.830729429021734
-0.0271329879760742,1.2294793128967283,-0.0812197774648666,-0.3790079653263092,-0.0746366828680038,-0.1739397644996643,0.0,0.0,-0.2378434023896771,-0.8460679928052116
-0.0280887596309185,1.220596194267273,-0.0876944661140441,-0.3952171504497528,-0.0824547931551933,-0.1563761532306671,0.0,0.0,0.7997922435397775,-0.8143263888910279
-0.029001235961914,1.2118405103683472,-0.0847146287560463,-0.3895184695720672,-0.088931456208229,-0.1295447647571563,0.0,0.0,0.548798190602559,0.8227586269731824
-0.0299460403621196,1.203629970550537,-0.0856283456087112,-0.3654629290103912,-0.0977212786674499,-0.1758123040199279,0.0,0.0,-0.3763539654682841,0.9787263516705208
-0.0308362953364849,1.1950256824493408,-0.0782331079244613,-0.3831540048122406,-0.1084315478801727,-0.2142052948474884,0.0,0.0,0.4128291408338664,-0.9513639126794108
-0.0317326560616493,1.186996340751648,-0.0803201645612716,-0.3575556576251983,-0.1176841408014297,-0.185051828622818,0.0,0.0,-0.7533642099844051,-0.5158195466159627
-0.0326803214848041,1.178612470626831,-0.0862755700945854,-0.3733198344707489,-0.1261274814605713,-0.1688667237758636,0.0,0.0,0.7500579431354668,-0.6868607860583167
-0.033729076385498,1.1711242198944092,-0.0969886258244514,-0.3334909379482269,-0.1339851915836334,-0.1571545004844665,0.0,0.0,0.6409021506465196,-0.6146725430843007
-0.0347859375178813,1.16399884223938,-0.0985239446163177,-0.3173457086086273,-0.1411162614822387,-0.1426213532686233,0.0,0.0,0.2144022665935665,0.6275603800174071
-0.0356919281184673,1.1574218273162842,-0.0817712470889091,-0.2931709289550781,-0.14992056787014,-0.1760860979557037,0.0,0.0,-0.99705308675766,-0.9398268461227416
-0.0366827957332134,1.150489330291748,-0.0919479355216026,-0.3088517189025879,-0.1570522487163543,-0.1426335573196411,0.0,0.0,-0.551397442817688,-0.8159590363502502
-0.0377464294433593,1.1432123184204102,-0.1006434112787246,-0.3240416944026947,-0.1627701222896576,-0.1143573373556137,0.0,0.0,-0.9432265758514404,-0.4230775237083435
-0.0388108268380165,1.1355658769607544,-0.1002898663282394,-0.3405275344848633,-0.1689355075359344,-0.1233077868819236,0.0,0.0,-0.8676161766052246,-0.6171574592590332
-0.0399226173758506,1.1275634765625,-0.1057731658220291,-0.3562893271446228,-0.1743447631597519,-0.1081850305199623,0.0,0.0,-0.9402157068252563,0.0018045902252197
-0.0410346016287803,1.1191918849945068,-0.105364441871643,-0.3727752864360809,-0.1802016794681549,-0.1171379089355468,0.0,0.0,-0.6042417883872986,-0.5923175811767578
-0.0421951301395893,1.1104609966278076,-0.1110036000609397,-0.3886610567569732,-0.1852685213088989,-0.1013372763991355,0.0,0.0,-0.8858017921447754,-0.676514208316803
-0.0434040054678916,1.101379632949829,-0.1166621595621109,-0.4041467308998108,-0.1895080059766769,-0.0847898125648498,0.0,0.0,-0.8624700307846069,-0.043474793434143
-0.0446123108267784,1.0919288396835327,-0.1161702275276184,-0.4206323325634002,-0.194194883108139,-0.0937376469373703,0.0,0.0,-0.6794880032539368,0.5089254379272461
-0.045778464525938,1.0820976495742798,-0.1104500889778137,-0.4377709627151489,-0.2003984749317169,-0.1240719184279441,0.0,0.0,-0.6402533054351807,-0.4947008490562439
-0.046943474560976,1.071897268295288,-0.109903946518898,-0.4542586505413055,-0.2070489674806594,-0.1330098062753677,0.0,0.0,-0.9856978058815002,-0.6917117834091187
-0.0481497757136821,1.0613396167755127,-0.1146976500749588,-0.4700666069984436,-0.2130413800477981,-0.1198479980230331,0.0,0.0,-0.904695212841034,-0.5143778324127197
-0.0493885986506938,1.0504183769226074,-0.1183652430772781,-0.4861977398395538,-0.2186161875724792,-0.1114965304732322,0.0,0.0,-0.223914623260498,-0.7429214119911194
-0.050673484802246,1.039142370223999,-0.1237764582037925,-0.501860499382019,-0.2233887612819671,-0.0954513624310493,0.0,0.0,-0.7395625114440918,-0.7256690263748169
-0.0520172119140625,1.0275092124938965,-0.1307533979415893,-0.5175844430923462,-0.2270527333021164,-0.0732795596122741,0.0,0.0,-0.5311452150344849,-0.1441728472709655
-0.0533584579825401,1.0155067443847656,-0.1300753057003021,-0.5340710282325745,-0.2311611622571945,-0.0821686908602714,0.0,0.0,-0.8486624360084534,-0.8925454020500183
-0.0547595024108886,1.0031521320343018,-0.1372019052505493,-0.5495525002479553,-0.2341000139713287,-0.0587772615253925,0.0,0.0,-0.8926169872283936,-0.96871417760849
-0.0562440864741802,0.9904698729515076,-0.1474208533763885,-0.5638232827186584,-0.2351548969745636,-0.021097270771861,0.0,0.0,-0.7443666458129883,-0.953108251094818
-0.0578133575618267,0.9774584770202636,-0.1577742546796798,-0.5781508088111877,-0.234298750758171,0.0171232111752033,0.0,0.0,-0.3518390655517578,-0.7776692509651184
-0.0594414696097373,0.9640976786613464,-0.1648115813732147,-0.5934960246086121,-0.2322616726160049,0.0407415851950645,0.0,0.0,-0.9444593191146852,-0.455920398235321
-0.0610657706856727,0.9503674507141112,-0.1640146374702453,-0.6099817752838135,-0.2306642085313797,0.0319492742419242,0.0,0.0,-0.0691096186637878,-0.4818372726440429
-0.0626862496137619,0.936267912387848,-0.1631959527730941,-0.6264674663543701,-0.2295050472021103,0.0231831613928079,0.0,0.0,-0.1898654103279113,-0.6786583662033081
-0.0643460303544998,0.9218103289604188,-0.1677858084440231,-0.6422799229621887,-0.2276661247014999,0.0367781110107898,0.0,0.0,-0.8330368995666504,-0.7053554654121399
-0.0660543441772461,0.9070083498954772,-0.17361781001091,-0.6574350595474243,-0.224843367934227,0.0564550161361694,0.0,0.0,-0.9365697503089904,-0.7576209902763367
-0.0678024291992187,0.8918492197990417,-0.1783018261194229,-0.6732028126716614,-0.2213077098131179,0.0707130655646324,0.0,0.0,-0.1414618492126464,-0.1784823536872863
-0.0695457458496093,0.876321017742157,-0.177404910326004,-0.6896888613700867,-0.2182036489248275,0.06208136677742,0.0,0.0,-0.688045084476471,0.2025949954986572
-0.0712841004133224,0.86042320728302,-0.1764905154705047,-0.7061744928359985,-0.215529054403305,0.0534919127821922,0.0,0.0,-0.2704505920410156,-0.1205474138259887
-0.0730175003409385,0.8441561460494995,-0.1755595952272415,-0.722659707069397,-0.2132816016674041,0.0449486710131168,0.0,0.0,-0.5468445420265198,-0.1757456660270691
-0.0747456550598144,0.8275195956230164,-0.1746131479740142,-0.7391446232795715,-0.2114588022232055,0.0364559106528759,0.0,0.0,-0.5379194021224976,-0.4281331300735473
-0.0764682739973068,0.8105134963989258,-0.1736522018909454,-0.7556294202804565,-0.2100578695535659,0.0280182715505361,0.0,0.0,0.7692210674285889,-0.4262058734893799
-0.0780490860342979,0.7937023043632507,-0.1592972874641418,-0.7469845414161682,-0.2088222503662109,0.0247127395123243,0.0,0.0,-0.2057321667671203,0.3083734512329101
-0.0796240791678428,0.7765216827392578,-0.1583105474710464,-0.7634689211845398,-0.2080022096633911,0.0164006147533655,0.0,0.0,-0.3970898389816284,-0.6781171560287476
-0.0812350288033485,0.7589830756187439,-0.1625742614269256,-0.7792907357215881,-0.2065115571022033,0.0298134237527847,0.0,0.0,-0.5416391491889954,0.2214095592498779
-0.0828398689627647,0.7410746216773987,-0.1615660637617111,-0.7957750558853149,-0.2054290473461151,0.0216497555375099,0.0,0.0,0.5965468883514404,-0.4607701301574707
-0.0843522101640701,0.7233633399009705,-0.1519405543804168,-0.7870758175849915,-0.2047155946493148,0.014269495382905,0.0,0.0,0.3807185888290405,-0.6404051780700684
-0.0859188064932823,0.706058144569397,-0.1580307185649871,-0.7689275741577148,-0.2033278495073318,0.027754807844758,0.0,0.0,0.02548348903656,-0.3453443050384521
-0.087358571588993,0.689159631729126,-0.1450267732143402,-0.7508989572525024,-0.2022729814052581,0.0210972260683774,0.0,0.0,0.4536471366882324,-0.688683271408081
-0.0887165069580078,0.6722540259361267,-0.137972354888916,-0.7510674595832825,-0.2000837326049804,0.0437856689095497,0.0,0.0,0.4110949039459228,-0.406333327293396
-0.0899002999067306,0.6560437083244324,-0.1202801614999771,-0.72020423412323,-0.1981710940599441,0.0382527448236942,0.0,0.0,-0.6657251119613647,-0.7254967093467712
-0.0911428481340408,0.6394801139831543,-0.1274452209472656,-0.7357323169708252,-0.1949527561664581,0.06436687707901,0.0,0.0,0.230899691581726,0.0073517560958862
-0.0923479050397872,0.6233091950416565,-0.1230217814445495,-0.7183794379234314,-0.1924214661121368,0.0506253764033317,0.0,0.0,-0.3434476256370544,0.0971467494964599
-0.0935461074113845,0.6067685484886169,-0.121974766254425,-0.7348629832267761,-0.1902536302804947,0.0433566384017467,0.0,0.0,0.8373167514801025,-0.4456675052642822
-0.0947004333138465,0.591282069683075,-0.1165728792548179,-0.6881418824195862,-0.1891042292118072,0.0229881852865219,0.0,0.0,-0.9285012483596802,-0.0191202759742736
-0.0958477035164833,0.5754256844520569,-0.1155286282300949,-0.7046244740486145,-0.1883023083209991,0.0160383712500333,0.0,0.0,0.6800105571746826,-0.5237136483192444
-0.0969906821846962,0.5598033666610718,-0.1156984567642211,-0.6941484808921814,-0.1868904680013656,0.0282370001077651,0.0,0.0,0.0363978147506713,0.0044512748718261
-0.0980466827750206,0.544099748134613,-0.1068778857588768,-0.6977768540382385,-0.1856105476617813,0.0255984514951705,0.0,0.0,0.8604254722595215,-0.5470337867736816
-0.099105454981327,0.5286068320274353,-0.1078130602836608,-0.6883330941200256,-0.183662861585617,0.0389536991715431,0.0,0.0,0.3962657451629638,-0.5085760951042175
-0.1000808700919151,0.5137501955032349,-0.1001881808042526,-0.6599705815315247,-0.1810190677642822,0.0528758466243743,0.0,0.0,-0.2605711221694946,-0.6707330942153931
-0.1010936722159385,0.4985426962375641,-0.1047770231962204,-0.6754667162895203,-0.1775019019842147,0.0703434497117996,0.0,0.0,0.741121768951416,0.421932578086853
-0.1020634621381759,0.4842682778835296,-0.0996581614017486,-0.6341009736061096,-0.1748171001672744,0.0536961033940315,0.0,0.0,-0.2312699556350708,0.4529775381088257
-0.1030261069536209,0.4696237742900848,-0.0986682325601577,-0.6505826115608215,-0.1724050343036651,0.0482412315905094,0.0,0.0,0.9381176233291626,0.3692696094512939
-0.1037756949663162,0.4559674561023712,-0.0773365050554275,-0.6066744923591614,-0.1700335890054702,0.0474292859435081,0.0,0.0,0.0379940271377563,-0.3990161418914795
-0.1045198440551757,0.4424917697906494,-0.0762362331151962,-0.5987136960029602,-0.1682022213935852,0.0366273708641529,0.0,0.0,0.0589876174926757,0.0242891311645507
-0.1052186042070388,0.4292971491813659,-0.071319043636322,-0.5862647891044617,-0.1667645275592804,0.0287539400160312,0.0,0.0,0.338289737701416,-0.4703990221023559
-0.1058259010314941,0.4165725409984588,-0.0618997886776924,-0.5654047131538391,-0.1655876785516739,0.0235367603600025,0.0,0.0,0.4348576068878174,-0.7319939136505127
-0.1063167601823806,0.4042190015316009,-0.0516745634377002,-0.5487641096115112,-0.1630070805549621,0.0516118705272674,0.0,0.0,-0.0075040459632873,-0.8367047905921936
-0.1068643555045127,0.3915025293827057,-0.0587560012936592,-0.5647423267364502,-0.1590060144662857,0.0800212323665618,0.0,0.0,0.4553864002227783,-0.0427791476249694
-0.1072680503129959,0.3789218366146087,-0.0445879697799682,-0.5586972832679749,-0.1547944247722625,0.0842317193746566,0.0,0.0,0.5311233997344971,0.0811367034912109
-0.1074485778808593,0.3667237162590027,-0.0227513499557971,-0.5416542887687683,-0.1501024812459945,0.0938388034701347,0.0,0.0,0.0151875019073486,0.4298161268234253
-0.1075014099478721,0.3544957041740417,-0.0102462451905012,-0.5429744124412537,-0.1451471149921417,0.0991073176264762,0.0,0.0,0.6280343532562256,0.4133322238922119
-0.1074459105730056,0.3429975509643554,0.0007158664520829,-0.5105690956115723,-0.1403326094150543,0.0962900072336196,0.0,0.0,0.0344632863998413,-0.4584448337554931
-0.1072983741760253,0.3318304717540741,0.0099375788122415,-0.4958690702915191,-0.1355253905057907,0.0961442440748214,0.0,0.0,0.3335568904876709,-0.0807392597198486
-0.1069719344377517,0.3210729360580444,0.0274239443242549,-0.4776453077793121,-0.1303318291902542,0.1038715243339538,0.0,0.0,0.0343365669250488,0.0040639638900756
-0.1065501198172569,0.3102369010448456,0.0367297306656837,-0.4811376929283142,-0.1249064058065414,0.108508363366127,0.0,0.0,-0.0255979895591735,0.0896130800247192
-0.1061222106218338,0.2990304827690124,0.0373756140470504,-0.4976176917552948,-0.1195227727293968,0.1076727285981178,0.0,0.0,0.2755297422409057,0.0678873062133789
-0.1055441871285438,0.2884341776371002,0.0521123483777046,-0.4705020487308502,-0.1138601899147033,0.1132515519857406,0.0,0.0,-0.131543755531311,-0.1034671664237976
-0.1049604415893554,0.2774676084518432,0.0526808723807334,-0.4869818687438965,-0.1082026362419128,0.1131511330604553,0.0,0.0,0.8030256032943726,0.1665201187133789
-0.1044124588370323,0.2674472332000732,0.0497179850935936,-0.4449909031391144,-0.1031601354479789,0.1008501201868057,0.0,0.0,-0.2777866125106811,0.1975331306457519
-0.1038593277335167,0.2570564150810241,0.0502020604908466,-0.4614697992801666,-0.0980865359306335,0.1014719754457473,0.0,0.0,-0.0581500530242919,0.3941031694412231
-0.1033012419939041,0.2462951093912124,0.0506411902606487,-0.4779486060142517,-0.092964194715023,0.1024467796087265,0.0,0.0,0.4124708175659179,0.6349252462387085
-0.1027060523629188,0.2361277490854263,0.0557096004486084,-0.4516513049602508,-0.0891931131482124,0.0754216983914375,0.0,0.0,0.1076101064682006,-0.468730092048645
-0.1020935028791427,0.2260906994342804,0.0574454776942729,-0.4458667039871216,-0.085416205227375,0.075538232922554,0.0,0.0,0.0466474294662475,0.2752522230148315
-0.1015180572867393,0.2162618786096573,0.0539723634719848,-0.4366365671157837,-0.0818817541003227,0.0706889480352401,0.0,0.0,0.1577570438385009,-0.1250715851783752
-0.1010142341256141,0.2066239416599273,0.0472006425261497,-0.4281794428825378,-0.078719675540924,0.0632414445281028,0.0,0.0,0.0763976573944091,0.2653862237930298
-0.1004014015197753,0.1973073035478592,0.0576306357979774,-0.4138852953910827,-0.0751075074076652,0.0722435563802719,0.0,0.0,-0.2070637941360473,0.31416916847229
-0.0997858047485351,0.1876200288534164,0.0577649697661399,-0.4303625524044037,-0.0713495165109634,0.0751595944166183,0.0,0.0,0.2291316986083984,0.4154098033905029
-0.0990196242928505,0.1783996671438217,0.0721509084105491,-0.4095858931541443,-0.0669321790337562,0.0883468836545944,0.0,0.0,-0.2550857067108154,0.0344221591949462
-0.0982514396309852,0.1688087284564972,0.0721715241670608,-0.4260636270046234,-0.0623408630490303,0.0918264389038086,0.0,0.0,0.627777099609375,-0.4757064580917358
-0.0972889885306358,0.1600944846868515,0.0907549783587455,-0.3870801925659179,-0.056912001222372,0.1085769981145858,0.0,0.0,-0.3404066562652588,-0.6519169807434082
-0.0963705033063888,0.1510138809680938,0.0850133076310157,-0.4033418595790863,-0.0501502566039562,0.1352349072694778,0.0,0.0,0.1896262168884277,-0.0050110220909118
-0.0954271331429481,0.1424440443515777,0.0873092114925384,-0.3806609213352203,-0.0432006418704986,0.1389923393726349,0.0,0.0,-0.2488769292831421,0.2776410579681396
-0.0944835692644119,0.1335039883852005,0.0870886072516441,-0.3971411883831024,-0.0360276587307453,0.1434594988822937,0.0,0.0,0.4791212081909179,-0.0042766332626342
-0.0934536010026931,0.1248052716255188,0.0951566994190216,-0.3864401578903198,-0.0282867178320884,0.1548188626766204,0.0,0.0,0.7435615062713623,0.6496820449829102
-0.0924942046403884,0.1167197301983833,0.0895007699728012,-0.3592530190944671,-0.0219279155135154,0.1271761208772659,0.0,0.0,0.1185081005096435,0.7410976886749268
-0.0915694236755371,0.108785755932331,0.0873617008328437,-0.3525555729866028,-0.0168765988200902,0.1010265126824379,0.0,0.0,0.2636559009552002,-0.2892246842384338
-0.0906558036804199,0.1011283695697784,0.0860479995608329,-0.3402760624885559,-0.0116377668455243,0.1047765463590622,0.0,0.0,-0.3010190725326538,0.4549765586853027
-0.0897448509931564,0.0931006297469139,0.0855112671852111,-0.3567551076412201,-0.0061265109106898,0.1102251559495925,0.0,0.0,0.8836766481399536,0.8100910186767578
-0.0886076912283897,0.0853079855442047,0.1091404780745506,-0.346328854560852,-0.0016062645008787,0.0904050320386886,0.0,0.0,0.8268134593963623,0.9063725471496582
-0.0872818008065223,0.0782824605703353,0.1293299496173858,-0.3122457861900329,0.0016068342374637,0.0642618834972381,0.0,0.0,0.0867589712142944,-0.7086827754974365
-0.0859983414411544,0.0716890171170234,0.1233459934592247,-0.2930537462234497,0.0065424358472228,0.0987118780612945,0.0,0.0,0.0476980209350585,0.7015750408172607
