x_pos,y_pos,x_vel,y_vel,angle,ang_vel,leg_1,leg_2,main_booster,lat_booster
-0.0015281677478924,1.4032111167907717,-0.1545566618442535,-0.3426216542720794,0.0015526971546933,0.0306131895631551,0.0,0.0,-0.0953692197799682,0.8157343864440918
-0.0029923438560217,1.3951082229614258,-0.1459628045558929,-0.3601326048374176,0.0010984147666022,-0.0090856729075312,0.0,0.0,0.1639609336853027,0.3819198608398437
-0.0043689729645848,1.3870183229446411,-0.1374461352825164,-0.3595453798770904,0.0008873370825313,-0.0042219604365527,0.0,0.0,-0.1482366323471069,-0.0967188477516174
-0.0057524680159986,1.378515124320984,-0.1379269659519195,-0.3779236376285553,0.0004736089613288,-0.0082753570750355,0.0,0.0,0.3033429384231567,0.7519335746765137
-0.0069700242020189,1.370372653007507,-0.1198111027479171,-0.3618869483470917,-0.0014528880128636,-0.0385335311293602,0.0,0.0,0.2141368389129638,0.599794864654541
-0.0080361366271972,1.3624142408370972,-0.103490725159645,-0.3537114262580871,-0.0045402166433632,-0.0617523677647113,0.0,0.0,-0.4258251786231994,0.2279868125915527
-0.0091105457395315,1.354042649269104,-0.1041425690054893,-0.3720851242542267,-0.0078056594356894,-0.0653145313262939,0.0,0.0,-0.2422940135002136,0.2439562082290649
-0.0101936338469386,1.3452578783035278,-0.1048384085297584,-0.3904552757740021,-0.0112406928092241,-0.06870698928833,0.0,0.0,-0.7654030323028564,-0.4684442281723022
-0.0112856868654489,1.3360599279403689,-0.1055703312158584,-0.4088265299797058,-0.0148360803723335,-0.0719143524765968,0.0,0.0,-0.1202993392944336,-0.4489457607269287
-0.0123868938535451,1.326448917388916,-0.106330469250679,-0.4271988868713379,-0.0185822825878858,-0.0749306976795196,0.0,0.0,0.3637433052062988,0.5058245658874512
-0.013371467590332,1.317157745361328,-0.0937104150652885,-0.4130027890205383,-0.0232775025069713,-0.0939128249883651,0.0,0.0,-0.3134714365005493,-0.2154955863952636
-0.0143651962280273,1.3074536323547363,-0.0945024639368057,-0.4313821196556091,-0.0281027741730213,-0.0965140983462333,0.0,0.0,-0.7675068974494934,0.470396876335144
-0.0153681756928563,1.297336459159851,-0.0953000485897064,-0.4497533440589905,-0.0330476202070713,-0.098905935883522,0.0,0.0,-0.4929649829864502,0.2830455303192138
-0.0163801200687885,1.286806344985962,-0.0960958153009414,-0.4681260883808136,-0.0381006747484207,-0.1010702848434448,0.0,0.0,-0.3541018962860107,-0.2144336700439453
-0.0174010284245014,1.2758631706237793,-0.0968822091817855,-0.4864999055862427,-0.0432502515614032,-0.1030007153749466,0.0,0.0,-0.2347697019577026,0.0880398750305175
-0.0184304229915142,1.2645071744918823,-0.0976519957184791,-0.5048739314079285,-0.0484842546284198,-0.1046897396445274,0.0,0.0,0.0404610633850097,-0.4859659075736999
-0.0193552020937204,1.2535390853881836,-0.0875285863876342,-0.4876421391963959,-0.0533827319741249,-0.0979784503579139,0.0,0.0,-0.7514908909797668,-0.616383969783783
-0.0203249938786029,1.2421554327011108,-0.0929202362895011,-0.5060891509056091,-0.0574066899716854,-0.0804862529039383,0.0,0.0,-0.6854422688484192,-0.7280730605125427
-0.0213500969111919,1.2303698062896729,-0.0996163263916969,-0.5239229798316956,-0.0602619647979736,-0.0571106597781181,0.0,0.0,-0.7499796748161316,-0.5928855538368225
-0.0224348064512014,1.218175172805786,-0.1069075837731361,-0.542041003704071,-0.0618140809237957,-0.0310452990233898,0.0,0.0,-0.5170708298683167,-0.7166157364845276
-0.0235700607299804,1.2055766582489014,-0.1130675226449966,-0.5599501132965088,-0.0622611977159976,-0.0089430725201964,0.0,0.0,0.4559170007705688,0.3374102115631103
-0.0246760360896587,1.1931475400924685,-0.1101943626999855,-0.5524192452430725,-0.0626653879880905,-0.008084905333817,0.0,0.0,-0.6696524620056152,0.5506751537322998
-0.0257339477539062,1.1802994012832642,-0.1040412634611129,-0.5711061954498291,-0.0643916502594947,-0.0345284603536129,0.0,0.0,-0.0944346785545349,-0.2710784673690796
-0.0267955772578716,1.167037844657898,-0.1044362783432006,-0.5894758701324463,-0.0660929307341575,-0.0340288914740085,0.0,0.0,-0.5157496929168701,-0.8758698105812073
-0.0279452316462993,1.1533737182617188,-0.1154650226235389,-0.6072670817375183,-0.0655999332666397,0.009860960766673,0.0,0.0,-0.4159942865371704,-0.3998098969459533
-0.0290976520627737,1.1392749547958374,-0.1157989129424095,-0.6265900731086731,-0.0650531351566314,0.0109360516071319,0.0,0.0,-0.6759551167488098,-0.4162127375602722
-0.0302508361637592,1.124762773513794,-0.1159477084875106,-0.6449592113494873,-0.0644368156790733,0.0123265217989683,0.0,0.0,0.0012091398239135,0.293906569480896
-0.0314506515860557,1.110593557357788,-0.1203114762902259,-0.6297311782836914,-0.064101904630661,0.0066982307471334,0.0,0.0,-0.0976091623306274,0.6333127021789551
-0.0326094627380371,1.0960123538970947,-0.1153251975774765,-0.6480785012245178,-0.0646529346704483,-0.0110207553952932,0.0,0.0,0.272639513015747,-0.4723788499832153
-0.0337573997676372,1.0815813541412354,-0.1142817363142967,-0.6413944959640503,-0.0651628375053405,-0.0101980688050389,0.0,0.0,-0.7826264500617981,-0.656200647354126
-0.0349513068795204,1.0667494535446167,-0.1202833503484726,-0.6591610312461853,-0.0642737671732902,0.0177810378372669,0.0,0.0,-0.5947568416595459,-0.7479107975959778
-0.0362067222595214,1.0515061616897583,-0.1282876133918762,-0.6773642897605896,-0.0615575090050697,0.0543252602219581,0.0,0.0,-0.8873486518859863,-0.0874940156936645
-0.0374554619193077,1.035849690437317,-0.1277837753295898,-0.6957334876060486,-0.0586787350475788,0.0575754567980766,0.0,0.0,-0.6792298555374146,0.3883719444274902
-0.0386960990726947,1.0197795629501345,-0.1271544396877288,-0.7141028642654419,-0.055622112005949,0.0611325576901435,0.0,0.0,-0.6615933775901794,-0.3058575391769409
-0.0399271957576274,1.0032962560653689,-0.1263955235481262,-0.7324721813201904,-0.052372433245182,0.0649933964014053,0.0,0.0,-0.1246607899665832,0.7397921085357666
-0.04108677059412,0.9864004850387572,-0.1179263815283775,-0.7508596181869507,-0.0504303574562072,0.0388417392969131,0.0,0.0,-0.4493062496185303,-0.377273678779602
-0.0422338470816612,0.9690911173820496,-0.1168971210718154,-0.7692285180091858,-0.0482654571533203,0.0432979725301265,0.0,0.0,0.1488299369812011,-0.8005761504173279
-0.0433739647269248,0.952170193195343,-0.1180705651640892,-0.7519194483757019,-0.0442475229501724,0.0803586766123771,0.0,0.0,0.3643707036972046,0.3990721702575683
-0.0444999709725379,0.9358808398246764,-0.1167724877595901,-0.7238542437553406,-0.040128406137228,0.0823824182152748,0.0,0.0,-0.448245644569397,0.5179669857025146
-0.0455657951533794,0.9191762804985046,-0.1099324375391006,-0.7423390746116638,-0.036822609603405,0.066115990281105,0.0,0.0,0.2132254838943481,0.5154871940612793
-0.0466363914310932,0.90292227268219,-0.1094693392515182,-0.722343385219574,-0.0344436652958393,0.0475787818431854,0.0,0.0,0.4411356449127197,0.1567583084106445
-0.0475631728768348,0.8869338631629944,-0.0958843529224395,-0.7105234265327454,-0.0312746427953243,0.0633804500102996,0.0,0.0,-0.2134127616882324,0.2155076265335083
-0.0484677329659462,0.870532214641571,-0.0939774364233017,-0.728892982006073,-0.0278008095920085,0.0694767758250236,0.0,0.0,0.0009632110595703,0.8157272338867188
-0.0492042526602745,0.8541901707649231,-0.075866587460041,-0.726274847984314,-0.0256217159330844,0.0435819253325462,0.0,0.0,-0.7975364327430725,0.5894366502761841
-0.0498720183968544,0.8374260067939758,-0.0682093277573585,-0.7450478076934814,-0.024207454174757,0.0282853208482265,0.0,0.0,0.1838734149932861,-0.1120897531509399
-0.0504739768803119,0.8206063508987427,-0.0621250160038471,-0.7475091218948364,-0.0223004501312971,0.0381404682993888,0.0,0.0,0.5416346788406372,-0.0599324107170105
-0.0509808547794818,0.8039968013763428,-0.0532481297850608,-0.7381659746170044,-0.0197786390781402,0.0504362694919109,0.0,0.0,-0.4003486633300781,0.2603416442871094
-0.051457405090332,0.7869740128517151,-0.0505725853145122,-0.7565353512763977,-0.016894843429327,0.0576761476695537,0.0,0.0,-0.5398256778717041,-0.1164144277572631
-0.0519018173217773,0.7695379257202148,-0.0477433241903781,-0.7749049663543701,-0.0136389676481485,0.0651173740625381,0.0,0.0,-0.2329015731811523,0.7262592315673828
-0.0522570610046386,0.7516853213310242,-0.0378054976463317,-0.7934313416481018,-0.0113950781524181,0.0448778197169303,0.0,0.0,0.1985076665878296,0.5720093250274658
-0.0524123199284076,0.7340378165245056,-0.0172481350600719,-0.7843213677406311,-0.0096874767914414,0.034152016043663,0.0,0.0,0.1367545127868652,0.4899989366531372
-0.0525652877986431,0.7167377471923828,-0.0172468964010477,-0.7688755393028259,-0.0077636367641389,0.0384768918156623,0.0,0.0,0.4538477659225464,0.3054870367050171
-0.0525805465877056,0.6996102333068848,-0.0043397592380642,-0.7612124085426331,-0.0049870265647768,0.055532269179821,0.0,0.0,0.062068223953247,0.8971266746520996
-0.0524797439575195,0.6828462481498718,0.0086515406146645,-0.7450592517852783,-0.0035787110682576,0.028166264295578,0.0,0.0,-0.2068400382995605,0.732306718826294
-0.0522651672363281,0.6656658053398132,0.0214456599205732,-0.7635729908943176,-0.0035640301648527,0.0002936765085905,0.0,0.0,-0.4530006647109985,0.404265284538269
-0.0520074851810932,0.6480720639228821,0.0253113955259323,-0.7819423675537109,-0.0031193981412798,0.0088926767930388,0.0,0.0,0.179398775100708,0.5132694244384766
-0.0515894889831543,0.6309226751327515,0.0417857058346271,-0.7621982097625732,-0.0031077582389116,0.0002327592374058,0.0,0.0,0.1539713144302368,0.3780094385147095
-0.0510276779532432,0.6140660643577576,0.0552615448832511,-0.7491814494132996,-0.0022075115703046,0.0180051382631063,0.0,0.0,-0.4860332012176513,-0.3229974508285522
-0.0504186637699604,0.5967962145805359,0.059534091502428,-0.7675508856773376,-0.0008587188785895,0.0269758496433496,0.0,0.0,-0.4207601547241211,0.2874419689178467
-0.0497611053287982,0.5791130661964417,0.0639353320002555,-0.7859205007553101,0.0009440660942345,0.0360558442771434,0.0,0.0,0.0043574571609497,-0.0685040950775146
-0.0490225777029991,0.5613543391227722,0.0714072212576866,-0.7892805933952332,0.0033499305136501,0.0481174252927303,0.0,0.0,0.2639062404632568,0.140252947807312
-0.048311423510313,0.5439868569374084,0.0685644596815109,-0.7718936800956726,0.0058648632839322,0.0502986386418342,0.0,0.0,0.2948137521743774,0.3263670206069946
-0.0474535003304481,0.5268151164054871,0.0823177322745323,-0.7632068991661072,0.0092959823086857,0.0686225518584251,0.0,0.0,0.4213132858276367,0.0658549070358276
-0.0465266220271587,0.5100215077400208,0.0886372849345207,-0.7464131712913513,0.0132935047149658,0.0799504593014717,0.0,0.0,0.5012996196746826,0.0320918560028076
-0.0455428138375282,0.4933613836765289,0.0938149839639663,-0.7404969334602356,0.0178004410117864,0.0901386886835098,0.0,0.0,0.4130114316940307,0.357372522354126
-0.0446182265877723,0.4770436286926269,0.0879132375121116,-0.7252952456474304,0.0222978275269269,0.0899476110935211,0.0,0.0,-0.202449083328247,0.296550989151001
-0.0436367988586425,0.460312932729721,0.0930973514914512,-0.7436674237251282,0.027278833091259,0.0996199399232864,0.0,0.0,0.7086167335510254,0.5340782403945923
-0.0424728393554687,0.4436220824718475,0.1116742044687271,-0.7419112920761108,0.0319328866899013,0.0930815488100051,0.0,0.0,0.9319411516189576,-0.2795064449310303
-0.0412507057189941,0.4280165433883667,0.1168663054704666,-0.6937028765678406,0.0372229553759098,0.1058011874556541,0.0,0.0,0.5312873125076294,0.2990269660949707
-0.0400725379586219,0.4126510620117187,0.1123742461204528,-0.6830539703369141,0.0426020473241806,0.1075816303491592,0.0,0.0,0.680994987487793,0.6320102214813232
-0.038914393633604,0.3979047834873199,0.1113759875297546,-0.655523955821991,0.0469779334962368,0.0875176936388015,0.0,0.0,0.1203646659851074,0.4373769760131836
-0.0376943573355674,0.383379578590393,0.1169773489236831,-0.6457298994064331,0.0519478023052215,0.0993975847959518,0.0,0.0,0.4111888408660888,0.254361629486084
-0.0365599617362022,0.3695137798786163,0.1084219813346862,-0.6164403557777405,0.056908406317234,0.0992119908332824,0.0,0.0,-0.4694961309432983,0.5462257862091064
-0.0353148467838764,0.3552395105361938,0.1202196478843689,-0.6345835328102112,0.0611509829759597,0.0848515853285789,0.0,0.0,0.1992624998092651,0.6135199069976807
-0.0340026840567588,0.3409746587276459,0.1276929229497909,-0.6341400146484375,0.06463223695755,0.06962501257658,0.0,0.0,0.3346455097198486,0.395965576171875
-0.0325894355773925,0.3266955614089966,0.1370470374822616,-0.6348178386688232,0.0688730925321579,0.0848167613148689,0.0,0.0,0.7249319553375244,-0.0396451354026794
-0.0311696045100688,0.3125308752059936,0.1373387426137924,-0.6297663450241089,0.0734684020280838,0.0919062122702598,0.0,0.0,0.7791199684143066,0.5994843244552612
-0.0297108646482229,0.2992408275604248,0.1419461965560913,-0.5908648371696472,0.0773519501090049,0.0776711553335189,0.0,0.0,-0.206013798713684,-0.4493341445922851
-0.0281877517700195,0.2855382561683655,0.1478788554668426,-0.609238862991333,0.0817455500364303,0.0878719240427017,0.0,0.0,0.644829273223877,0.0840481519699096
-0.0267776492983102,0.2726259529590606,0.1365803778171539,-0.5741262435913086,0.0861336886882782,0.0877626165747642,0.0,0.0,0.5816833972930908,0.2583898305892944
-0.0254533775150775,0.2597591578960418,0.1280642449855804,-0.5721164345741272,0.090461365878582,0.0865536704659462,0.0,0.0,0.4818981885910034,0.790677547454834
-0.0240260120481252,0.2475600391626358,0.1393815279006958,-0.5423901677131653,0.0937864556908607,0.0665017515420913,0.0,0.0,0.4232881069183349,-0.2726625800132751
-0.0226668361574411,0.2356765568256378,0.1324446946382522,-0.5283765196800232,0.0972224026918411,0.0687188804149627,0.0,0.0,0.4954055547714233,-0.270127534866333
-0.0213516242802143,0.2242892533540725,0.1277698576450348,-0.5063491463661194,0.1009443998336792,0.0744400471448898,0.0,0.0,0.6284406185150146,-0.2155203223228454
-0.0200526230037212,0.2135163694620132,0.1256844103336334,-0.4790840446949005,0.1051282808184623,0.0836776047945022,0.0,0.0,0.6632808446884155,-0.6624848246574402
-0.0187075622379779,0.2032120376825332,0.128225177526474,-0.4584294855594635,0.1113652512431144,0.1247392892837524,0.0,0.0,-0.0122566819190979,-0.374727725982666
-0.0172979347407817,0.1924955695867538,0.1341613829135894,-0.4768070876598358,0.1181201040744781,0.1350969672203064,0.0,0.0,0.5809447765350342,0.3009511232376098
-0.0157814025878906,0.1819569170475006,0.1439296305179596,-0.4690133333206177,0.1258041262626648,0.1536800116300583,0.0,0.0,0.4763939380645752,0.445597767829895
-0.0141345020383596,0.1717909127473831,0.1558285057544708,-0.4525934159755707,0.1346153765916824,0.176225334405899,0.0,0.0,0.2529933452606201,0.3957657814025879
-0.0123597141355276,0.1616795659065246,0.1676230877637863,-0.4503132104873657,0.1444352567195892,0.1963979601860046,0.0,0.0,0.0403664112091064,0.6019946336746216
-0.0105476379394531,0.1518730521202087,0.1720666587352752,-0.4367581903934479,0.1535640209913253,0.1825751513242721,0.0,0.0,-0.1043866276741027,0.2037270069122314
-0.0086733819916844,0.1416554003953933,0.1777742803096771,-0.4551413357257843,0.163213163614273,0.1929829567670822,0.0,0.0,0.7159829139709473,-0.4223320484161377
-0.0067225457169115,0.1320839971303939,0.1843224614858627,-0.4266137480735779,0.1739813685417175,0.2153641432523727,0.0,0.0,0.3684216737747192,-0.2118843793869018
-0.0046757697127759,0.1225232481956482,0.1930465996265411,-0.4263282716274261,0.1856569200754165,0.2335110604763031,0.0,0.0,0.5045633316040039,-0.0362094640731811
-0.0027018547989428,0.1132227778434753,0.1854815036058426,-0.414892703294754,0.1976321935653686,0.2395055592060089,0.0,0.0,0.6447356939315796,-0.2438346147537231
-0.0007553100585937,0.1048004925251007,0.1818768084049224,-0.3760843575000763,0.2105184346437454,0.2577249109745025,0.0,0.0,0.5880734920501709,0.0001109838485717
0.001112651778385,0.0967640280723571,0.1736378967761993,-0.359108030796051,0.223822221159935,0.2660756707191467,0.0,0.0,0.0399619340896606,0.4063137769699096
0.0028495788574218,0.0890243127942085,0.1604141891002655,-0.3460559546947479,0.237284854054451,0.2692527770996094,0.0,0.0,0.3947389125823974,0.0251215696334838
0.0045746802352368,0.0817603915929794,0.1584234535694122,-0.3251780271530151,0.2516084611415863,0.286471962928772,0.0,0.0,0.3597054481506347,0.0567033290863037
0.0061571123078465,0.0749681070446968,0.1439041942358017,-0.304403007030487,0.2662491202354431,0.292813241481781,0.0,0.0,0.0877195596694946,0.0219912528991699
0.0076096532866358,0.0684591382741928,0.1307056099176406,-0.2920040488243103,0.2811584174633026,0.2981852889060974,0.0,0.0,-0.0027069449424743,-0.0100386142730712
0.0091129299253225,0.0615416131913661,0.1353363543748855,-0.3104035556316376,0.2965877950191498,0.3085881471633911,0.0,0.0,0.3808407783508301,0.4590046405792236
0.0104251857846975,0.0548942424356937,0.116232082247734,-0.2985686361789703,0.3120857775211334,0.3099599480628967,0.0,0.0,0.3698697090148926,0.4475221633911133
0.0115325925871729,0.0484011508524417,0.0958852618932724,-0.2918518781661987,0.3275256156921386,0.3087970018386841,0.0,0.0,0.5782623291015625,0.4517199993133545
0.0125603675842285,0.0425240360200405,0.0870599374175071,-0.2648526430130005,0.3439517319202423,0.3285226225852966,0.0,0.0,0.6515206098556519,0.3251430988311767
0.0135648725554347,0.0367913357913494,0.0840631276369094,-0.2587948143482208,0.3611787259578705,0.3445404767990112,0.0,1.0,0.9977952241897584,0.9991648197174072
0.0144913671538233,0.0330527648329734,0.0915808230638504,-0.1667867600917816,0.3612386286258697,-0.0003951517865061,0.0,1.0,0.9895848035812378,0.9436733722686768
0.0150175094604492,0.0311370231211185,0.0720105916261673,-0.0804263278841972,0.3407821655273437,-0.4092267453670501,0.0,1.0,0.7281694412231445,0.3340146541595459
0.0153202060610055,0.0306844804435968,0.0599941425025463,-0.0134076867252588,0.3097591996192932,-0.6205259561538696,0.0,1.0,0.3279098272323608,-0.0258571505546569
0.0155164720490574,0.0305996518582105,0.0513196475803852,0.0026418687775731,0.2770126760005951,-0.6549919843673706,0.0,1.0,-0.1376094818115234,-0.1136338114738464
0.0157527923583984,0.0300749391317367,0.0536278188228607,-0.0179331135004758,0.2463481575250625,-0.6132906079292297,0.0,1.0,0.3324545621871948,-0.3174510598182678
0.0158798210322856,0.0300907474011182,0.0426937118172645,0.0054463511332869,0.2159110903739929,-0.6087414026260376,0.0,0.0,-0.9989081621170044,0.5816885232925415
0.0160984992980957,0.0297211036086082,0.0528843514621257,-0.0121984025463461,0.1846657991409301,-0.6249061226844788,0.0,0.0,-0.9987105131149292,-0.056226372718811
0.0163559913635253,0.0289519168436527,0.0564210601150989,-0.0306563917547464,0.1539362221956253,-0.6145917177200317,0.0,0.0,-0.9946689009666444,-0.1735159754753112
0.0166501048952341,0.0277826879173517,0.0597318783402442,-0.0491108782589435,0.1237207204103469,-0.6043106913566589,0.0,0.0,-0.990917444229126,-0.6525422930717468
0.0169261936098337,0.0262021161615848,0.0561486668884754,-0.0681308656930923,0.0953670069575309,-0.5670746564865112,0.0,0.0,-0.9502905011177064,-0.8308609127998352
0.0171724315732717,0.0242081973701715,0.0511264316737651,-0.0871410444378852,0.0691083818674087,-0.5251721143722534,0.0,0.0,-0.6375078558921814,-0.6058000326156616
0.0174118038266897,0.0218005757778882,0.0490228086709976,-0.1060336753726005,0.0443029701709747,-0.4961082339286804,0.0,0.0,0.0983819961547851,-0.9051540493965148
0.0176635738462209,0.019672904163599,0.0479487441480159,-0.0940417796373367,0.0218098312616348,-0.4498628079891205,0.0,0.0,0.2512187957763672,-0.9054789543151855
0.0178773887455463,0.0180613622069358,0.0418298691511154,-0.0714511722326278,0.0016303559532389,-0.4035897850990295,0.0,0.0,-0.1090391874313354,-0.9301807880401612
0.0180479045957326,0.0160307511687278,0.0353172346949577,-0.0903242975473404,-0.0163968857377767,-0.3605448305606842,0.0,0.0,0.2871365547180176,-0.9363847374916076
