x_pos,y_pos,x_vel,y_vel,angle,ang_vel,leg_1,leg_2,main_booster,lat_booster
-0.0016108512645587,1.403390645980835,-0.1624712496995926,-0.3346379697322845,0.0012357584200799,0.0243377536535263,0.0,0.0,-0.4284050464630127,0.9294469356536864
-0.003229999449104,1.3956464529037476,-0.16053207218647,-0.3441905081272125,-0.0001357353321509,-0.0274321287870407,0.0,0.0,-0.1933263540267944,0.259415864944458
-0.0049362182617187,1.387667894363403,-0.1686604917049408,-0.3546012639999389,-0.0020708504598587,-0.0387059487402439,0.0,0.0,-0.3160758018493652,0.1227002143859863
-0.0067290305159986,1.379455804824829,-0.1767608672380447,-0.3649930357933044,-0.0045546214096248,-0.0496802404522895,0.0,0.0,0.1346732378005981,0.7243106365203857
-0.0084480289369821,1.3716830015182495,-0.1675218492746353,-0.3454748690128326,-0.0088847996667027,-0.0866115912795066,0.0,0.0,-0.1669787764549255,0.0394190549850463
-0.0102524757385253,1.3636767864227295,-0.1755536496639251,-0.3558691442012787,-0.0137274507433176,-0.0968620032072067,0.0,0.0,-0.6026835441589355,-0.0499674677848815
-0.0121419904753565,1.355437397956848,-0.1835493147373199,-0.3662566244602203,-0.0190636310726404,-0.1067333966493606,0.0,0.0,-0.4940849542617798,0.5172593593597412
-0.0140649797394871,1.3469648361206057,-0.1851314604282379,-0.3766607344150543,-0.0261498093605041,-0.1417362093925476,0.0,0.0,-0.610701322555542,0.1457703113555908
-0.0160716064274311,1.3382596969604492,-0.1930403113365173,-0.3870526850223541,-0.0336848050355911,-0.1507141590118408,0.0,0.0,-0.4793367385864258,0.6542148590087891
-0.0181095115840435,1.3293232917785645,-0.1944404542446136,-0.3974092602729797,-0.0429395735263824,-0.1851124614477157,0.0,0.0,-0.5756150484085083,0.8958464860916138
-0.0201489441096782,1.3201502561569214,-0.192134141921997,-0.4080660045146942,-0.0546227283775806,-0.233684703707695,0.0,0.0,-0.6961401104927063,0.8105846643447876
-0.0221981052309274,1.3107385635375977,-0.1909439116716385,-0.4188657701015472,-0.0684734731912612,-0.2770401239395141,0.0,0.0,-0.7799054384231567,-0.007371187210083
-0.0243274681270122,1.3010960817337036,-0.1986239105463028,-0.4292700886726379,-0.0826660171151161,-0.2838770449161529,0.0,0.0,-0.5724663734436035,0.4412558078765869
-0.0265360828489065,1.291223168373108,-0.2062378227710724,-0.4396759867668152,-0.0971704497933387,-0.2901152074337005,0.0,0.0,0.209516167640686,-0.2560071349143982
-0.0286613460630178,1.2820055484771729,-0.1981329023838043,-0.410674124956131,-0.1114676818251609,-0.2859709858894348,0.0,0.0,-0.5697521567344666,-0.4392042160034179
-0.0308634750545024,1.272557020187378,-0.2055989503860473,-0.421088695526123,-0.1260110437870025,-0.290893942117691,0.0,0.0,-0.596218466758728,-0.3100489377975464
-0.0331411361694335,1.2628779411315918,-0.2129771262407302,-0.4314945340156555,-0.1407649368047714,-0.2951048016548157,0.0,0.0,-0.7540438771247864,-0.6962765455245972
-0.0355352386832237,1.2529712915420532,-0.2255324125289917,-0.4416719377040863,-0.1546351909637451,-0.2774301469326019,0.0,0.0,-0.8145217895507812,-0.8565080165863037
-0.0380574241280555,1.242854356765747,-0.2396696358919143,-0.4509936571121216,-0.1672030985355377,-0.2513808906078338,0.0,0.0,-0.7968733906745911,-0.684726357460022
-0.0407114997506141,1.2325206995010376,-0.2543384134769439,-0.4605593979358673,-0.1783173978328704,-0.2223060578107834,0.0,0.0,-0.656137228012085,-0.6965319514274597
-0.0434776321053504,1.2219712734222412,-0.2665952146053314,-0.4700947403907776,-0.1883891522884369,-0.2014533579349517,0.0,0.0,-0.8866007924079895,0.2760055065155029
-0.0463120453059673,1.2111895084381104,-0.2734228372573852,-0.4804943203926086,-0.1984815299510955,-0.2018651217222213,0.0,0.0,-0.3282170295715332,-0.521528422832489
-0.0492446906864643,1.200183987617493,-0.2840937972068786,-0.4903914034366607,-0.2077331095933914,-0.1850484311580658,0.0,0.0,-0.4403823614120483,0.6212935447692871
-0.0521890632808208,1.1889219284057615,-0.2839802801609039,-0.5020355582237244,-0.2183243781328201,-0.2118442803621292,0.0,0.0,0.2189867496490478,-0.6588374376296997
-0.0552578940987587,1.178179383277893,-0.2976633608341217,-0.4788406491279602,-0.2276606857776641,-0.186742827296257,0.0,0.0,-0.0412414669990539,-0.4745280742645263
-0.058390237390995,1.1671828031539917,-0.304156094789505,-0.4901686906814575,-0.2368593662977218,-0.183973416686058,0.0,0.0,0.1959192752838134,-0.640605628490448
-0.0615025535225868,1.1567400693893433,-0.3036363422870636,-0.4653593897819519,-0.244581937789917,-0.1544516682624817,0.0,0.0,-0.8283729553222656,0.0943788290023803
-0.0646703690290451,1.1460638046264648,-0.3094117045402527,-0.4757456183433532,-0.2520912885665893,-0.1501870453357696,0.0,0.0,-0.7524491548538208,-0.1791275143623352
-0.0678911209106445,1.1351537704467771,-0.3149535655975342,-0.4861306548118591,-0.2593510448932647,-0.1451951414346695,0.0,0.0,-0.5187497138977051,0.3160449266433716
-999.0,1.1240098476409912,-0.3202450573444366,-0.4965144991874695,-0.2663261294364929,-0.1395011246204376,0.0,0.0,-0.1922342181205749,0.1263120174407959
-0.0744794830679893,1.1126315593719482,-0.3252688646316528,-0.5068971514701843,-0.2729827761650085,-0.1331330984830856,0.0,0.0,-0.2792612314224243,0.3305716514587402
-0.0778409987688064,1.1010189056396484,-0.3300075829029083,-0.5172784924507141,-0.2792888879776001,-0.1261221468448639,0.0,0.0,-0.4645020961761474,0.432132363319397
-0.081243135035038,1.0891715288162231,-0.3344438374042511,-0.5276585817337036,-0.2852139472961426,-0.1185013875365257,0.0,0.0,-0.6961299777030945,0.3799252510070801
-0.0846822708845138,1.077089548110962,-0.3385604918003082,-0.5380374193191528,-0.2907292246818542,-0.1103055477142334,0.0,0.0,-0.8853116631507874,0.017584204673767
-0.08815498650074,1.064772605895996,-0.342340886592865,-0.5484151244163513,-0.2958077490329742,-0.1015698313713073,0.0,0.0,-0.1258152723312378,-0.0075185298919677
-0.0916574448347091,1.0522204637527466,-0.3457691669464111,-0.5587916970252991,-0.3004242479801178,-0.0923297330737114,0.0,0.0,-0.3582104444503784,0.0682470798492431
-0.0951857566833496,1.0394327640533447,-0.3488304316997528,-0.5691670179367065,-0.3045552968978882,-0.0826207622885704,0.0,0.0,-0.2715697884559631,0.7496118545532227
-0.0986746773123741,1.0263872146606443,-0.3438419997692108,-0.5808795690536499,-0.3097958564758301,-0.1048109531402587,0.0,0.0,-0.3569971323013305,0.3414427042007446
-0.1021814346313476,1.0131059885025024,-0.34613037109375,-0.5912540555000305,-0.3145092725753784,-0.0942684561014175,0.0,0.0,0.5214476585388184,0.8158450126647949
-0.1054395660758018,1.0003453493118286,-0.320246160030365,-0.5683570504188538,-0.3202972412109375,-0.1157592162489891,0.0,0.0,0.2359551191329956,0.2398613691329956
-0.1085992828011512,0.98821622133255,-0.3106054961681366,-0.5402755737304688,-0.3258924484252929,-0.1119038835167884,0.0,0.0,0.8159518241882324,-0.0710601210594177
-0.1114513427019119,0.976603627204895,-0.2809887230396271,-0.5170671343803406,-0.3302825689315796,-0.0878025069832801,0.0,0.0,0.9269773960113524,0.7180178165435791
-0.114017866551876,0.965179681777954,-0.2518747448921203,-0.5088315010070801,-0.3352702558040619,-0.0997538119554519,0.0,0.0,0.685321569442749,0.7174394130706787
-0.1162458434700965,0.9541999697685242,-0.2174159586429596,-0.4892558455467224,-0.3408966064453125,-0.1125272735953331,0.0,0.0,0.4182864427566528,-0.3791873455047607
-0.1184140220284462,0.943358838558197,-0.2118864059448242,-0.483001708984375,-0.3460690677165985,-0.1034483462572097,0.0,0.0,-0.0728111863136291,-0.7530262470245361
-0.1206232085824012,0.9323021173477172,-0.2179305851459503,-0.4921299815177917,-0.349199503660202,-0.062608852982521,0.0,0.0,0.9751276969909668,0.0667463541030883
-0.1225644126534462,0.921724498271942,-0.1920723915100097,-0.4706168174743652,-0.3513578176498413,-0.0431657284498214,0.0,0.0,0.6356842517852783,-0.7412577867507935
-0.1243683844804763,0.9121733903884888,-0.1801899969577789,-0.4245437681674957,-0.3515745103359222,-0.004333771765232,0.0,0.0,0.9749822616577148,-0.7206035256385803
-0.1260354071855545,0.9038357734680176,-0.1681421399116516,-0.3702006340026855,-0.3500633835792541,0.0302223749458789,0.0,0.0,0.952433466911316,-0.6577253937721252
-0.1275418251752853,0.8961473703384399,-0.1539269983768463,-0.3409134149551391,-0.3466170728206634,0.0689263120293617,0.0,0.0,0.941981315612793,-0.7105540633201599
-0.128669261932373,0.8891052603721619,-0.1184607967734336,-0.311623752117157,-0.3406187891960144,0.1199659332633018,0.0,0.0,0.8475680351257324,0.2906301021575928
-0.1295458823442459,0.8830238580703735,-0.0937529951333999,-0.2688600122928619,-0.3342500627040863,0.1273750066757202,0.0,0.0,0.922335147857666,-0.7622005343437195
-0.1301403939723968,0.8773972392082214,-0.0679639428853988,-0.2481283396482467,-0.3253489136695862,0.1780231595039367,0.0,0.0,-0.1181122064590454,-0.3425506353378296
-0.1306915283203125,0.8715350031852722,-0.0643240213394165,-0.258502185344696,-0.31577068567276,0.1915647834539413,0.0,0.0,-0.3049588203430176,0.1893790960311889
-0.1311962157487869,0.8654375672340393,-0.0603716187179088,-0.2688774466514587,-0.3055116832256317,0.2051798999309539,0.0,0.0,-0.8382035493850708,0.5713138580322266
-0.1316161155700683,0.8590855002403259,-0.0516192205250263,-0.28031986951828,-0.2955500483512878,0.1992326825857162,0.0,0.0,-0.7357989549636841,0.538191556930542
-0.1319357901811599,0.8524817228317261,-0.0410809107124805,-0.2916865944862366,-0.2861616015434265,0.1877687275409698,0.0,0.0,-0.7409587502479553,0.5705230236053467
-0.1321473121643066,0.8456214070320129,-0.0295608378946781,-0.3032752871513366,-0.2775053083896637,0.1731258183717727,0.0,0.0,-0.3833873867988586,0.5253063440322876
-0.1322555541992187,0.8385118842124939,-0.0187798049300909,-0.3144911527633667,-0.2693495750427246,0.1631145775318145,0.0,0.0,-0.875632107257843,0.5409202575683594
-0.1322672814130783,0.8311567902565002,-0.0088987303897738,-0.3254971206188202,-0.2614528238773346,0.1579352766275406,0.0,0.0,-0.8937674760818481,0.8650901317596436
-0.1321471184492111,0.8235303163528442,0.0054697161540389,-0.3378021419048309,-0.2547666728496551,0.1337232291698455,0.0,0.0,-0.9626795649528505,0.2373014688491821
-0.1319630593061447,0.815668523311615,0.0111614093184471,-0.3481767475605011,-0.2473831176757812,0.1476708948612213,0.0,0.0,-0.9950838685035706,0.7519819736480713
-0.1316442489624023,0.8075432181358337,0.0257376339286565,-0.3601039946079254,-0.2411330640316009,0.1250011473894119,0.0,0.0,-0.8456647992134094,0.3134437799453735
-0.1312578171491623,0.7991825938224792,0.0317913405597209,-0.3704788982868194,-0.2341828793287277,0.1390036344528198,0.0,0.0,-0.982214629650116,0.6980745792388916
-0.1307489424943924,0.7905623316764832,0.0447594299912452,-0.3821649551391601,-0.2279618978500366,0.1244193911552429,0.0,0.0,-0.9574549198150636,0.1889916658401489
-0.1301693022251129,0.7817067503929138,0.0511242151260376,-0.3925405144691467,-0.2210386544466018,0.1384648978710174,0.0,0.0,-0.9972298741340636,0.4819052219390869
-0.1295175552368164,0.7726162672042847,0.0576270148158073,-0.4029172360897064,-0.213412269949913,0.1525279581546783,0.0,0.0,-0.9988220930099488,0.1426379680633545
-0.1287923753261566,0.7632907629013062,0.0642572790384292,-0.4132952094078064,-0.2050819545984268,0.1666061878204345,0.0,0.0,-0.9944679737091064,0.2465721368789672
-0.1279927194118499,0.7537307739257812,0.07100510597229,-0.4236745536327362,-0.1960470527410507,0.1806973814964294,0.0,0.0,-0.9907811880111694,0.6774556636810303
-0.1270734816789627,0.7439202070236206,0.0833916589617729,-0.4349215924739837,-0.1874572038650512,0.1717970967292785,0.0,0.0,-0.9919803142547609,0.5788829326629639
-0.1260390281677246,0.7338665723800659,0.0951655879616737,-0.4458021819591522,-0.1791447699069976,0.1662487089633941,0.0,0.0,-0.999235212802887,0.3598875999450683
-0.1249268501996994,0.7235786318778992,0.1022144556045532,-0.4561830461025238,-0.1701263487339019,0.180368572473526,0.0,0.0,-0.9965328574180604,0.199439525604248
-0.1237361878156662,0.7130566239356995,0.109347864985466,-0.4665654301643371,-0.1604016125202179,0.1944945752620697,0.0,0.0,-0.9999581575393676,0.1915431022644043
-0.1224661841988563,0.7023007273674011,0.1165589913725853,-0.4769494831562042,-0.1499703526496887,0.2086251080036163,0.0,0.0,-0.9864395260810852,0.8291281461715698
-0.1210556998848915,0.6912907958030701,0.1314634978771209,-0.4883942008018493,-0.1404015570878982,0.1913758367300033,0.0,0.0,-0.9992240071296692,0.3950697183609009
-0.119564339518547,0.6800472736358643,0.138812243938446,-0.4987792372703552,-0.1301259696483612,0.2055120021104812,0.0,0.0,-0.9962259531021118,0.0400196313858032
-0.1179917305707931,0.6685702800750732,0.1462211608886718,-0.5091660022735596,-0.1191435307264328,0.2196487188339233,0.0,0.0,-0.9998152852058412,0.834463357925415
-0.1162720695137977,0.6568558216094971,0.1618585884571075,-0.5198693871498108,-0.1090935841202735,0.2009991705417633,0.0,0.0,-0.9962140321731568,-0.0935420393943786
-0.1144699081778526,0.6449081897735596,0.1693738251924514,-0.530256986618042,-0.0983368754386901,0.2151341140270233,0.0,0.0,-0.9989072680473328,0.0300843715667724
-0.1125849708914756,0.6327275633811951,0.1769353747367859,-0.540646493434906,-0.0868735760450363,0.2292660027742386,0.0,0.0,-0.9974286556243896,0.7135009765625
-0.1105730086565017,0.6203009486198425,0.1900390088558197,-0.5516857504844666,-0.0758224353194236,0.2210228145122528,0.0,0.0,-0.9960511326789856,0.0329476594924926
-0.1084773987531662,0.6076417565345764,0.1976819336414337,-0.5620772242546082,-0.0640651583671569,0.2351454794406891,0.0,0.0,-0.9992663860321044,0.0866899490356445
-0.1062976866960525,0.5947500467300415,0.2053601294755935,-0.5724707245826721,-0.0516020990908145,0.2492614239454269,0.0,0.0,-0.9983882904052734,0.8622374534606934
-0.1039716750383377,0.5816248655319214,0.2208553254604339,-0.5829731822013855,-0.039992619305849,0.2321892082691192,0.0,0.0,-0.9978134036064148,0.5990204811096191
-0.101514533162117,0.5682677030563354,0.2344288527965545,-0.5933874249458313,-0.0288458038121461,0.2229365557432174,0.0,0.0,-0.9951252341270448,0.5440199375152588
-0.0989233031868934,0.5546761155128479,0.2483773231506347,-0.6038963198661804,-0.0182332191616296,0.2122514545917511,0.0,0.0,-0.9845201969146729,0.4141623973846435
-0.0962470024824142,0.5408522486686707,0.256167858839035,-0.6142904162406921,-0.0069167087785899,0.2263303101062774,0.0,0.0,-0.947046995162964,0.2900247573852539
-0.093485452234745,0.5267965197563171,0.2639798820018768,-0.6246864199638367,0.0051030865870416,0.2403959780931472,0.0,0.0,-0.9440902471542358,0.8381810188293457
-0.0905559509992599,0.512509286403656,0.2821676135063171,-0.6350592970848083,0.0157513990998268,0.2129660546779632,0.0,0.0,-0.8689730167388916,-0.4081555604934692
-0.0875408202409744,0.4979900121688843,0.2900160253047943,-0.6454554796218872,0.0271014980971813,0.227001816034317,0.0,0.0,-0.866011381149292,0.0159912109375
-0.0844400376081466,0.4832392334938049,0.2978795170783996,-0.6558536291122437,0.0391524769365787,0.2410196512937545,0.0,0.0,-0.5754671692848206,-0.5224959254264832
-0.0812927260994911,0.4682590663433075,0.3008282780647278,-0.6662062406539917,0.0528887845575809,0.2747260332107544,0.0,0.0,-0.7847392559051514,-0.1989522576332092
-0.0780596733093261,0.453048437833786,0.3087165951728821,-0.6766109466552734,0.0673238709568977,0.2887017130851745,0.0,0.0,-0.4345777034759521,0.2938141822814941
-0.0747406035661697,0.4376075565814972,0.3166147768497467,-0.687018096446991,0.0824565663933754,0.3026536107063293,0.0,0.0,-0.115532100200653,0.6703922748565674
-0.0712872520089149,0.421940803527832,0.3305873572826385,-0.6971789598464966,0.0970670953392982,0.2922108769416809,0.0,0.0,0.6600399017333984,0.1561298370361328
-0.0677473098039627,0.4073508977890014,0.3381687998771667,-0.6495422124862671,0.1127659529447555,0.3139772415161133,0.0,0.0,0.0356073379516601,-0.2141112685203552
-0.0641762763261795,0.3930609226226806,0.3406892418861389,-0.636427104473114,0.1290906369686126,0.3264935612678528,0.0,0.0,0.1414504051208496,0.3159987926483154
-0.0606753341853618,0.3793431222438812,0.3334110677242279,-0.6112097501754761,0.1457094103097915,0.3323754370212555,0.0,0.0,0.1461682319641113,0.5307552814483643
-0.0570520386099815,0.3661412894725799,0.345944881439209,-0.5884344577789307,0.1620812863111496,0.3274374008178711,0.0,0.0,0.2029882669448852,-0.3165866732597351
-0.0534696578979492,0.3535102307796478,0.341387927532196,-0.5633083581924438,0.1789608746767044,0.3375920057296753,0.0,0.0,0.2135441303253173,0.5618963241577148
-0.0499220862984657,0.3414603769779205,0.3385124802589416,-0.5375853180885315,0.195270761847496,0.3261976838111877,0.0,0.0,-0.0246328115463256,0.2621855735778808
-0.0462891571223735,0.3291823863983154,0.3464325666427612,-0.5480040907859802,0.2122642546892166,0.339869886636734,0.0,0.0,0.4861941337585449,0.8062105178833008
-0.0427372939884662,0.3174531757831573,0.3394756913185119,-0.5236311554908752,0.228145033121109,0.3176155388355255,0.0,0.0,-0.0902329087257385,0.6684894561767578
-0.0390614494681358,0.3055075407028198,0.3522601723670959,-0.5333644151687622,0.2436947077512741,0.3109937608242035,0.0,0.0,0.3444228172302246,0.5120968818664551
-0.0353123657405376,0.2942360639572143,0.359784185886383,-0.5035356879234314,0.2591000497341156,0.3081068992614746,0.0,0.0,0.0486612319946289,0.7908205986022949
-0.03143310546875,0.2831103205680847,0.3737501502037048,-0.4970472455024719,0.2736009955406189,0.2900187373161316,0.0,0.0,-0.0219573378562927,0.3478788137435913
-0.0274690631777048,0.2717561423778534,0.3816318809986114,-0.5074650645256042,0.2887705862522125,0.3033923804759979,0.0,0.0,-0.0323020815849304,0.7115689516067505
-0.0233700759708881,0.2602023184299469,0.3959099650382995,-0.5163415670394897,0.3032086193561554,0.2887607216835022,0.0,0.0,0.4512312412261963,0.416991114616394
-0.0192911140620708,0.2495510131120681,0.3927576243877411,-0.4766251742839813,0.3188869953155517,0.3135675489902496,0.0,0.0,0.6770679950714111,0.4657046794891357
-0.0152393337339162,0.2395465224981308,0.3891642689704895,-0.4482580721378326,0.3355795741081238,0.33385169506073,0.0,0.0,0.1097446680068969,0.6493411064147949
-0.0112429615110158,0.2301200926303863,0.3843721747398376,-0.4225896000862121,0.351580947637558,0.320027619600296,0.0,0.0,0.5767802000045776,0.6015894412994385
-0.00732002267614,0.2215861678123474,0.3775318264961242,-0.382969856262207,0.3671313226222992,0.3110076189041137,0.0,0.0,0.3780624866485595,0.57352614402771
-0.0033403397537767,0.2134210914373397,0.383667528629303,-0.3666369020938873,0.3822985291481018,0.3033443093299866,0.0,0.0,0.361174464225769,0.2508997917175293
0.0004385948122944,0.2056808769702911,0.3635112941265106,-0.3479393422603607,0.3976329863071441,0.3066889643669128,0.0,0.0,0.6280791759490967,-0.140704333782196
0.0039867400191724,0.1983412057161331,0.3404856324195862,-0.3302964568138122,0.4130086898803711,0.3075149655342102,0.0,0.0,0.6162426471710205,0.4186540842056274
0.0073760030791163,0.1915190368890762,0.3242175281047821,-0.3075841963291168,0.4289057552814483,0.317941665649414,0.0,0.0,0.5568383932113647,0.230126142501831
0.0106596946716308,0.1851708441972732,0.313108891248703,-0.2868871092796325,0.445526510477066,0.3324158489704132,0.0,0.0,0.5320131778717041,0.2275031805038452
0.013989639468491,0.17912557721138,0.3167981505393982,-0.2739390730857849,0.4633089900016784,0.3556498885154724,0.0,0.0,0.3212869167327881,0.0964225530624389
0.017224883660674,0.1736401468515396,0.3066151142120361,-0.2495435774326324,0.482043981552124,0.3746999204158783,0.0,0.0,0.2074812650680542,0.3697437047958374
0.0202821735292673,0.1687253266572952,0.2884043753147125,-0.2246139198541641,0.5014452934265137,0.3880259990692138,0.0,0.0,0.1999400854110717,0.5274147987365723
0.0233916286379098,0.1639438420534134,0.2941821217536926,-0.2187623679637909,0.5204091668128967,0.3792771100997925,0.0,0.0,-0.173470914363861,0.4406914710998535
