x_pos,y_pos,x_vel,y_vel,angle,ang_vel,leg_1,leg_2,main_booster,lat_booster
-0.0014517784584313,1.4030627012252808,-0.1477998793125152,-0.3492193818092346,0.0023462662938982,0.0463258177042007,0.0,0.0,0.5499357376400533,-0.5152151032383088
-0.0028210640884935,1.3953135013580322,-0.1410525143146515,-0.3444225192070007,0.0064228321425616,0.0815398171544075,0.0,0.0,-0.6893547393677248,-0.927445076523255
-0.0041755675338208,1.3869948387145996,-0.1416527032852172,-0.3697516024112701,0.012551519088447,0.1225852519273758,0.0,0.0,0.1601816339491351,-0.7544378050376914
-0.0056180953979492,1.3786362409591677,-0.1524929851293563,-0.3715858459472656,0.0206924937665462,0.1628348231315612,0.0,0.0,-0.8735696254026806,0.7912802864912367
-0.0069147110916674,1.3697216510772705,-0.1366116106510162,-0.3963232934474945,0.0275621581822633,0.1374056935310363,0.0,0.0,-0.434733132963226,-0.968761433543792
-0.0082002636045217,1.360242486000061,-0.137635201215744,-0.4214922189712524,0.0365464650094509,0.1797031164169311,0.0,0.0,0.7078571613347171,-0.6609771465554756
-0.0095155714079737,1.3510936498641968,-0.1425095945596695,-0.4069169461727142,0.0474095046520233,0.2172810137271881,0.0,0.0,0.1361600335219452,0.604428064711966
-0.0106215476989746,1.342064619064331,-0.121192954480648,-0.401653915643692,0.05790276825428,0.2098843157291412,0.0,0.0,0.2064935811496371,-0.8222275766543959
-0.0117700574919581,1.3333938121795654,-0.1277232468128204,-0.3859190940856933,0.0706520080566406,0.2550082206726074,0.0,0.0,0.9129126477906266,0.7738990427183254
-0.0128514291718602,1.3254331350326538,-0.1200864911079406,-0.354408711194992,0.0824997872114181,0.2369773089885711,0.0,0.0,-0.1713313641619478,0.5683098722768297
-0.0138156889006495,1.3169198036193848,-0.1077099293470382,-0.3790284693241119,0.0936990678310394,0.2240060865879058,0.0,0.0,0.9918969395421152,-0.5480186065413314
-0.0147273065522313,1.308804273605347,-0.1044542342424392,-0.3615764379501343,0.1069051325321197,0.2641453742980957,0.0,0.0,0.3978021956114645,-0.8981579594408957
-0.0155838970094919,1.3010265827178955,-0.1015089005231857,-0.3468901515007019,0.1226721107959747,0.3153681755065918,0.0,0.0,-0.7027931630881414,-0.6925727120679843
-0.0164252277463674,1.2926764488220217,-0.1018198728561401,-0.3726692497730255,0.1403056532144546,0.3527032136917114,0.0,0.0,-0.0981307658731731,0.8159633494282559
-0.017127513885498,1.283794403076172,-0.0864977687597274,-0.3963676691055298,0.1565718948841095,0.3253547251224518,0.0,0.0,-0.5835932014309633,-0.9122256994880628
-0.0178266521543264,1.2743316888809204,-0.0882824137806892,-0.4226067662239074,0.1749815791845321,0.3682273328304291,0.0,0.0,0.6208866898066268,-0.7622222750588676
-0.0185270309448242,1.2655850648880005,-0.0907916724681854,-0.3913107812404632,0.195842444896698,0.4172554910182953,0.0,0.0,0.9092957890120072,0.7898880997560362
-0.019017219543457,1.256984829902649,-0.0691595003008842,-0.3850268721580505,0.2161686867475509,0.4065617620944977,0.0,0.0,0.9226033359490904,-0.6164031939019956
-0.0195834152400493,1.2492282390594482,-0.0788349583745002,-0.3481578230857849,0.2387083172798156,0.450833797454834,0.0,0.0,-0.0697417566564349,-0.6406110216149887
-0.020152473822236,1.2408978939056396,-0.0810818076133728,-0.3743441998958587,0.2633610963821411,0.4930996298789978,0.0,0.0,-0.3159412431721464,-0.8674272128518343
-0.0207247734069824,1.2320016622543335,-0.0831952840089798,-0.4002844989299774,0.2900413274765014,0.5336531400680542,0.0,0.0,0.5217337500642849,-0.6213851162586022
-0.0214009284973144,1.2231221199035645,-0.0952560678124427,-0.4004085659980774,0.3186636567115783,0.5724982023239136,0.0,0.0,-0.2666383210085707,-0.5517086988826974
-0.0220645908266305,1.213677167892456,-0.0952076613903045,-0.4264082610607147,0.3488219380378723,0.6032195091247559,0.0,0.0,0.1376620065289209,0.761891186362728
-0.022649860009551,1.2040380239486694,-0.086246058344841,-0.4354003667831421,0.3781249225139618,0.586112380027771,0.0,0.0,0.4232201391229802,0.5009457537053895
-0.0234865192323923,1.1945734024047852,-0.1104283928871154,-0.4280040860176086,0.4067271053791046,0.5720947980880737,0.0,0.0,0.930006026683906,-0.5065474914778579
-0.0248088836669921,1.1855459213256836,-0.1597643196582794,-0.4094153344631195,0.4365018904209137,0.5954955816268921,0.0,0.0,-0.5854049549086475,-0.9190838262170348
-0.026164149865508,1.1759320497512815,-0.1650071293115615,-0.43680140376091,0.4688348174095154,0.6466584801673889,0.0,0.0,0.1271292769375231,-0.5568561772239176
-0.0278729442507028,1.166435956954956,-0.2013555318117141,-0.4327466189861297,0.5028331279754639,0.6799656748771667,0.0,0.0,0.1993570562597002,-0.855014365703721
-0.0299837104976177,1.1570143699645996,-0.243104487657547,-0.4309277832508087,0.5392456650733948,0.7282510995864868,0.0,0.0,0.715616654891474,0.7775647029876631
-0.0323004722595214,1.1477280855178833,-0.2621436417102813,-0.425323337316513,0.5746346116065979,0.7077783942222595,0.0,0.0,0.6389119341190002,-0.7411504591893253
-0.0350908264517784,1.138933777809143,-0.3107073903083801,-0.4050468206405639,0.6123063564300537,0.7534357905387878,0.0,0.0,-0.8303335905075073,0.9881247282028198
-0.037810992449522,1.129650592803955,-0.3019183278083801,-0.4270740151405334,0.6487998366355896,0.7298704385757446,0.0,0.0,-0.9183223843574524,0.9994878768920898
-0.0404722206294536,1.1198928356170654,-0.2942533195018768,-0.4483741223812103,0.6840709447860718,0.7054222822189331,0.0,0.0,-0.780337929725647,0.9973082542419434
-0.0430702194571495,1.1096497774124146,-0.2861601710319519,-0.4700316190719604,0.7180742025375366,0.6800652742385864,0.0,0.0,-0.9686043858528136,0.9907608032226562
-0.045607566833496,1.0989409685134888,-0.2781616449356079,-0.4905963242053985,0.7504971027374268,0.648457944393158,0.0,0.0,-0.9642457962036132,0.9988622665405272
-0.0480917915701866,1.0877726078033447,-0.2709261775016784,-0.51076340675354,0.7812885046005249,0.6158285737037659,0.0,0.0,-0.9446600079536438,0.9920026063919068
-0.050526238977909,1.076130986213684,-0.2642795443534851,-0.5315513014793396,0.810636579990387,0.5869610905647278,0.0,0.0,-0.984908163547516,0.9920203685760498
-0.0529167167842388,1.0640344619750977,-0.2580856680870056,-0.5512977838516235,0.8382647633552551,0.5525636076927185,0.0,0.0,-0.958922803401947,0.996211051940918
-0.0552766807377338,1.0514761209487915,-0.2534823715686798,-0.5714209675788879,0.8644344210624695,0.5233928561210632,0.0,0.0,-0.9069772958755492,0.9884514808654784
-0.0576004981994628,1.0384597778320312,-0.2482747733592987,-0.591201663017273,0.8889133930206299,0.4895789623260498,0.0,0.0,-0.9425302147865297,0.987837553024292
-0.0599076263606548,1.024970769882202,-0.2453835904598236,-0.6118175387382507,0.9121886491775512,0.4655056893825531,0.0,0.0,-0.7834522128105164,0.9860306978225708
-0.0621792785823345,1.0110374689102173,-0.2401504963636398,-0.6306730508804321,0.933399260044098,0.4242125451564789,0.0,0.0,-0.9828340411186218,0.9934737682342528
-0.064416691660881,0.996652364730835,-0.2351925671100616,-0.6498363018035889,0.9526275396347046,0.384566068649292,0.0,0.0,-0.988275945186615,0.98205828666687
-0.0666293129324913,0.981820821762085,-0.2312754839658737,-0.6687213182449341,0.9698693156242372,0.3448356986045837,0.0,0.0,-0.9907112121582032,0.9785974025726318
-0.0688258185982704,0.9665164947509766,-0.2286103218793869,-0.6890376806259155,0.985673487186432,0.3160828948020935,0.0,0.0,-0.7884990572929382,0.9793524742126464
-0.0710047706961631,0.9507544040679932,-0.2256639003753662,-0.7084665298461914,0.999695897102356,0.2804482281208038,0.0,0.0,-0.9787061810493468,0.9928374290466307
-0.073170468211174,0.934541404247284,-0.2231602966785431,-0.7275034189224243,1.01182758808136,0.2426346242427826,0.0,0.0,-0.9685722589492798,0.990470290184021
-0.0753470435738563,0.9178582429885864,-0.223461702466011,-0.7477301955223083,1.02271568775177,0.2177617996931076,0.0,0.0,-0.9826687574386596,0.994548797607422
-0.0775375366210937,0.900701105594635,-0.2241417169570922,-0.7681437730789185,1.0324289798736572,0.194265678524971,0.0,0.0,-0.8877490162849426,0.97566556930542
-0.079731561243534,0.8830811977386475,-0.223610520362854,-0.7878513336181641,1.040586233139038,0.1631439477205276,0.0,0.0,-0.911559283733368,0.9940907955169678
-0.0819218605756759,0.8650280237197876,-0.2220477759838104,-0.8058114647865295,1.0464882850646973,0.1180402785539627,0.0,0.0,-0.9503189325332642,0.9818696975708008
-0.0841279998421669,0.84651118516922,-0.2228573113679886,-0.8255678415298462,1.0509355068206787,0.0889438241720199,0.0,0.0,-0.9385395050048828,0.9860281944274902
-0.0863344222307205,0.8275527358055115,-0.2218208760023117,-0.8439789414405823,1.0532811880111694,0.0469139888882637,0.0,0.0,-0.9258187413215636,0.9227515459060668
-0.0885601043701171,0.8081355690956116,-0.2229638844728469,-0.8634426593780518,1.0540653467178345,0.0156823117285966,0.0,0.0,-0.8781304359436035,0.9924771785736084
-0.0907879844307899,0.7882846593856812,-0.2220341861248016,-0.881378710269928,1.052562236785889,-0.0300632007420063,0.0,0.0,-0.7544792294502258,0.9844948053359984
-0.0930343642830848,0.7679592370986938,-0.2232241332530975,-0.9017034769058228,1.049747109413147,-0.0563027076423168,0.0,0.0,-0.8581327795982361,0.9906797409057616
-0.0952965766191482,0.747196614742279,-0.2237333804368972,-0.9199065566062928,1.0448393821716309,-0.0981550365686416,0.0,0.0,-0.7731159925460815,0.9968066215515136
-0.0975696593523025,0.7260023355484009,-0.2236241549253463,-0.9377807974815368,1.037654161453247,-0.1437043249607086,0.0,0.0,-0.5390784740447998,0.9955339431762696
-0.0998618155717849,0.7043684124946594,-0.2244444191455841,-0.956151843070984,1.0284327268600464,-0.1844280958175659,0.0,0.0,-0.6583130955696106,0.9936470985412598
-0.1021827682852745,0.6822694540023804,-0.226478025317192,-0.9760226607322692,1.017772555351257,-0.2132037431001663,0.0,0.0,-0.67875075340271,0.9976849555969238
-0.1045145019888877,0.6597172617912292,-0.2264177501201629,-0.995115339756012,1.0051909685134888,-0.2516307234764099,0.0,0.0,-0.3988943696022033,0.9983518123626708
-0.1068753227591514,0.6366941928863525,-0.2284469604492187,-1.015336513519287,0.9912566542625428,-0.2786868214607239,0.0,0.0,-0.4210688471794128,0.998701810836792
-0.1092457771301269,0.6132311224937439,-0.2279957234859466,-1.033719539642334,0.9751045107841492,-0.323043018579483,0.0,0.0,-0.2446954846382141,0.9992693662643432
-0.1116353049874305,0.5893139243125916,-0.2285977303981781,-1.0529874563217163,0.9571167826652528,-0.359755128622055,0.0,0.0,-0.3314000964164734,0.9994286298751832
-0.1140398010611534,0.5649345517158508,-0.2287739217281341,-1.0726972818374634,0.9373692274093628,-0.3949513733386993,0.0,0.0,-0.0180248022079467,0.9979934692382812
-0.1164730042219162,0.5400760769844055,-0.2305732071399688,-1.0934593677520752,0.9163597226142884,-0.420189619064331,0.0,0.0,0.1302312612533569,0.9863704442977904
-0.1193860992789268,0.5153174996376038,-0.277077168226242,-1.088286280632019,0.8936038613319397,-0.455117791891098,0.0,0.0,0.3180596828460693,0.9867244958877563
-0.1224461570382118,0.4903963804244995,-0.2902788519859314,-1.094848871231079,0.8691472411155701,-0.4891318678855896,0.0,0.0,0.1821026802062988,0.9801673889160156
-0.1259829550981521,0.4656349420547485,-0.3363119065761566,-1.087133765220642,0.8429593443870544,-0.5237594246864319,0.0,0.0,-0.204523503780365,0.9620256423950196
-0.1295442581176757,0.4403903484344482,-0.3373435437679291,-1.1082699298858645,0.815463125705719,-0.5499240159988403,0.0,0.0,0.0382170677185058,0.8427798748016357
-0.1334877908229828,0.4150331020355224,-0.3740385174751282,-1.1129710674285889,0.7865951061248779,-0.5773598551750183,0.0,0.0,0.1368186473846435,0.81770920753479
-0.137743279337883,0.389674425125122,-0.4036399722099304,-1.1128106117248535,0.7563908696174622,-0.6040858030319214,0.0,0.0,-0.1611884832382202,0.5662977695465088
-0.1420468389987945,0.3638071119785309,-0.4074169993400574,-1.135625958442688,0.7256662249565125,-0.6144946217536926,0.0,0.0,0.4556657075881958,0.014784812927246
-0.1467096358537674,0.3380267918109894,-0.4433077275753021,-1.1325725317001345,0.695708155632019,-0.599161684513092,0.0,0.0,-0.2201465368270874,-0.5579183101654053
-0.1514752358198166,0.3116500973701477,-0.454399973154068,-1.1602764129638672,0.6675030589103699,-0.564102053642273,0.0,0.0,-0.1747265458106994,-0.7626696228981018
-0.1563479453325271,0.2846679389476776,-0.4661666452884674,-1.188379168510437,0.6412175893783569,-0.5257096290588379,0.0,0.0,-0.0334559082984924,-0.9094000458717346
-0.1613453924655914,0.2570603489875793,-0.4802803099155426,-1.2175352573394775,0.6174309253692627,-0.4757335186004638,0.0,0.0,-0.1431419849395752,-0.9645509719848632
-0.1664768159389495,0.2288404256105423,-0.4954194128513336,-1.245998740196228,0.5961204767227173,-0.4262095391750335,0.0,0.0,-0.0736481547355651,-0.9871159195899964
-0.1717353761196136,0.2000179141759872,-0.5097283720970154,-1.2738381624221802,0.5769844055175781,-0.3827218413352966,0.0,0.0,-0.292083740234375,-0.9928064346313475
-0.177142709493637,0.1705727726221084,-0.5268260836601257,-1.3027347326278689,0.560677170753479,-0.3261447548866272,0.0,0.0,-0.5151457190513611,-0.9960832595825196
-0.1826942414045334,0.1404866129159927,-0.5435940027236938,-1.332389235496521,0.5472625494003296,-0.2682926058769226,0.0,0.0,-0.5103463530540466,-0.9959602355957032
-0.1883788108825683,0.109793335199356,-0.5587456822395325,-1.360249161720276,0.5360726118087769,-0.223798394203186,0.0,0.0,-0.57970130443573,-0.994503378868103
-0.1942092925310135,0.0784714296460151,-0.575642466545105,-1.3891736268997192,0.5275800228118896,-0.169851928949356,0.0,0.0,-0.5237700343132019,-0.9932343363761902
-0.194992259144783,0.0604962669312953,-0.0842229202389717,-0.8019485473632812,0.5477542281150818,0.4196502566337585,0.0,1.0,0.999509334564209,0.9978795051574708
-0.1966297179460525,0.0433787666261196,-0.1605106592178344,-0.7596681118011475,0.5454051494598389,-0.0454339310526847,0.0,0.0,0.9987865686416626,0.6761584281921387
-0.1987504065036773,0.0269697997719049,-0.1969693601131439,-0.7272241711616516,0.5300377607345581,-0.2497465312480926,0.0,1.0,0.9998892545700072,0.9990794658660888
-0.2000239789485931,0.0158366300165653,-0.0229741912335157,-0.4698969721794128,0.4040849804878235,-2.353476524353028,0.0,1.0,0.9999995231628418,-0.9999382495880128
-0.201526790857315,0.0052258823998272,-0.0301488451659679,-0.4479327797889709,0.2749387323856354,-2.499701023101806,0.0,1.0,0.9999969005584716,-0.99992573261261
-0.2031287252902984,-0.0048008225858211,-0.0383456908166408,-0.4295024871826172,0.1518862247467041,-2.434004545211792,0.0,1.0,0.9999845027923584,-0.9999842643737792
-0.2042465209960937,-0.0121920965611934,0.0313459858298301,-0.3205231726169586,0.0098986281082034,-2.839901924133301,1.0,0.0,0.9999845027923584,-0.9999842643737792
