x_pos,y_pos,x_vel,y_vel,angle,ang_vel,leg_1,leg_2,main_booster,lat_booster
-0.0015731811290606,1.4031271934509275,-0.159226968884468,-0.3463479280471802,0.0017048922600224,0.0336263999342918,0.0,0.0,0.2881107330322265,0.91392183303833
-0.0030758858192712,1.3953957557678225,-0.1500622630119323,-0.3436236381530761,0.0014951737830415,-0.0041938149370253,0.0,0.0,-0.309070348739624,0.6184865236282349
-0.0045637129805982,1.3871619701385498,-0.146944373846054,-0.3659412562847137,-0.0003154829901177,-0.0362165123224258,0.0,0.0,-0.3986084461212158,0.1398408412933349
-0.0060928342863917,1.3784310817718506,-0.150969386100769,-0.3880399763584137,-0.0022369315847754,-0.03843230381608,0.0,0.0,0.2070491313934326,0.7240185737609863
-0.0074956892058253,1.3699194192886353,-0.136933296918869,-0.3783012628555298,-0.0055609005503356,-0.0664856880903244,0.0,0.0,0.3614703416824341,-0.3411800861358642
-0.0088178636506199,1.3615810871124268,-0.1292919963598251,-0.3706081509590149,-0.0084623042494058,-0.0580331571400165,0.0,0.0,-0.0531215667724609,-0.1786910891532898
-0.0101716043427586,1.352745532989502,-0.1323180496692657,-0.3927088975906372,-0.0114866103976964,-0.0604917518794536,0.0,0.0,0.2908062934875488,0.1704093217849731
-0.0114308353513479,1.3441691398620603,-0.1232868283987045,-0.381193459033966,-0.014080517925322,-0.0518829002976417,0.0,0.0,-0.4014327526092529,0.5737709999084473
-0.0126696582883596,1.3351008892059326,-0.1200141757726669,-0.4030727446079254,-0.017918175086379,-0.0767602398991584,0.0,0.0,-0.1476341485977172,-0.5629779100418091
-0.0139732360839843,1.325540542602539,-0.127474159002304,-0.4249457716941833,-0.0207716319710016,-0.0570744201540946,0.0,0.0,-0.0679123997688293,0.839421272277832
-0.0152175901457667,1.315481424331665,-0.1194894686341285,-0.4471488893032074,-0.0256644822657108,-0.0978657975792884,0.0,0.0,0.1937721967697143,0.0746961832046508
-0.0164133068174123,1.3054959774017334,-0.1147261038422584,-0.4438940286636352,-0.0304553899914026,-0.0958267673850059,0.0,0.0,-0.1384865045547485,-0.0264442563056945
-0.01761713065207,1.295013427734375,-0.1153912991285324,-0.4659982919692993,-0.0353917106986045,-0.0987355038523674,0.0,0.0,-0.2454159259796142,0.5850081443786621
-0.0187735557556152,1.2840261459350586,-0.1091988831758499,-0.4884904623031616,-0.0417706072330474,-0.1275897324085235,0.0,0.0,0.7533529996871948,-0.1807152032852172
-0.0197434425354003,1.2738440036773682,-0.0911075249314308,-0.4527130424976349,-0.047595951706171,-0.116517387330532,0.0,0.0,-0.835407555103302,0.2483191490173339
-0.0207088477909564,1.2631651163101196,-0.0904948338866233,-0.4748246073722839,-0.0535782538354396,-0.1196569204330444,0.0,0.0,-0.6621893048286438,-0.2933741807937622
-0.0216653831303119,1.2519896030426023,-0.0894546061754226,-0.4969218075275421,-0.0597201623022556,-0.1228494271636009,0.0,0.0,0.0750534534454345,-0.876473069190979
-0.0225549694150686,1.2406716346740725,-0.0843706279993057,-0.5032168626785278,-0.0642629191279411,-0.0908630043268203,0.0,0.0,-0.5941552519798279,-0.9628899097442628
-0.0234907157719135,1.2288717031478882,-0.090445764362812,-0.5245749950408936,-0.0673667043447494,-0.0620809681713581,0.0,0.0,-0.0973751544952392,-0.7622374892234802
-0.0244735721498727,1.2165814638137815,-0.0967164635658264,-0.5463058352470398,-0.0689238384366035,-0.0311454199254512,0.0,0.0,-0.7839305400848389,-0.5230444073677063
-0.0254637710750103,1.2038013935089111,-0.098105564713478,-0.5680479407310486,-0.0698356181383133,-0.0182372089475393,0.0,0.0,-0.1437318325042724,-0.5299423336982727
-0.0264664646238088,1.1905255317687988,-0.1002038344740867,-0.5900402069091797,-0.0698931589722633,-0.0011509952601045,0.0,0.0,-0.4335477352142334,-0.2126064300537109
-0.027436638250947,1.1767528057098389,-0.0967765599489212,-0.6121394038200378,-0.0701332539319992,-0.0048023713752627,0.0,0.0,-0.7512819170951843,0.0659531354904174
-0.0283708572387695,1.1624828577041626,-0.0929895192384719,-0.6342380046844482,-0.0705587342381477,-0.0085103223100304,0.0,0.0,0.4284807443618774,-0.413087248802185
-0.0293489452451467,1.1485614776611328,-0.0966106578707695,-0.6187818646430969,-0.0717422738671302,-0.023672878742218,0.0,0.0,0.163553237915039,-0.3151720762252807
-0.0303522106260061,1.134874701499939,-0.0984561294317245,-0.6083953976631165,-0.073592260479927,-0.0369996838271617,0.0,0.0,-0.1104191541671752,-0.8444216251373291
-0.0313756950199604,1.1207034587860107,-0.1019725352525711,-0.6298506259918213,-0.0739645510911941,-0.0074462480843067,0.0,0.0,0.4297401905059814,-0.0936191082000732
-0.0324106216430664,1.1071162223815918,-0.1023823469877243,-0.603933572769165,-0.0750570595264434,-0.0218502227216959,0.0,0.0,-0.6636757254600525,-0.3574051856994629
-0.0333941467106342,1.093031883239746,-0.0970467999577522,-0.626030683517456,-0.0763489156961441,-0.0258371084928512,0.0,0.0,0.0049281120300292,-0.7068730592727661
-0.0343716628849506,1.0788997411727903,-0.0976597219705581,-0.628100574016571,-0.0764452740550041,-0.0019265279406681,0.0,0.0,-0.4472618103027344,-0.3519452810287475
-0.035292912274599,1.0642706155776978,-0.0918235406279563,-0.6501976847648621,-0.0767451077699661,-0.0059963958337903,0.0,0.0,-0.2035304307937622,-0.7505294680595398
-0.0362226478755474,1.0491479635238647,-0.0941744893789291,-0.6720587015151978,-0.0755636468529701,0.0236290339380502,0.0,0.0,-0.06843101978302,-0.0238426327705383
-0.0370918288826942,1.0335283279418943,-0.0879029184579849,-0.6941558122634888,-0.074589267373085,0.0194877199828624,0.0,0.0,0.4163752794265747,-0.5691813230514526
-0.0379797928035259,1.017880916595459,-0.0905841141939163,-0.6953566074371338,-0.0728242620825767,0.0353001803159713,0.0,0.0,0.2866412401199341,0.1682778596878051
-0.0387552268803119,1.002465844154358,-0.0791779085993766,-0.6850345134735107,-0.0712107643485069,0.0322699286043643,0.0,0.0,0.0833466053009033,-0.2698059678077698
-0.0394175536930561,0.9872946739196776,-0.0677011087536811,-0.6742059588432312,-0.0697535350918769,0.0291447527706623,0.0,0.0,-0.7002654671669006,0.1831336021423339
-0.0400122627615928,0.9716265797615052,-0.0607347264885902,-0.6963030695915222,-0.068508930504322,0.0248924456536769,0.0,0.0,-0.6847437024116516,-0.4779921770095825
-0.0405381210148334,0.9554613828659058,-0.0536269843578338,-0.7184001803398132,-0.067478023469448,0.0206184685230255,0.0,0.0,-0.3678469657897949,0.1104533672332763
-0.0409936904907226,0.9387995004653932,-0.0463892593979835,-0.7404972910881042,-0.0666617751121521,0.0163249615579843,0.0,0.0,-0.1285721063613891,-0.6784698367118835
-0.0414289459586143,0.9216463565826416,-0.045434758067131,-0.7622708678245544,-0.0647735744714737,0.0377643294632434,0.0,0.0,0.018743872642517,-0.6307055354118347
-0.041884709149599,0.904732584953308,-0.0484558939933776,-0.751602828502655,-0.0619268901646137,0.0569337904453277,0.0,0.0,-0.5393468737602234,0.2431957721710205
-0.0422670356929302,0.8873218297958374,-0.0408889651298522,-0.7737003564834595,-0.0592972114682197,0.0525934807956218,0.0,0.0,-0.0607686042785644,0.1970391273498535
-0.0425749793648719,0.8694143891334534,-0.0332300961017608,-0.7957977056503296,-0.0568851567804813,0.0482412576675415,0.0,0.0,-0.0253292918205261,0.4068233966827392
-0.0428076758980751,0.8510098457336426,-0.0254870764911174,-0.8178949952125549,-0.0546912029385566,0.0438787676393985,0.0,0.0,0.1508493423461914,0.6419346332550049
-0.0429344177246093,0.8324064612388611,-0.0133319525048136,-0.8267927765846252,-0.0540396235883235,0.0130316140130162,0.0,0.0,0.4075081348419189,-0.2276091575622558
-0.0429300293326377,0.8137292861938477,-0.0001779612357495,-0.8300732374191284,-0.0534259155392646,0.0122741376981139,0.0,0.0,0.1737736463546753,0.2237436771392822
-0.042788028717041,0.7950273752212524,0.0135983098298311,-0.8311808705329895,-0.0528309270739555,0.0118998074904084,0.0,0.0,0.1848028898239135,0.3984773159027099
-0.0426169410347938,0.7767304182052612,0.0170993413776159,-0.8132007122039795,-0.052828200161457,5.484907887876034e-05,0.0,0.0,-0.5490031242370605,-0.2029575705528259
-0.0423674583435058,0.7579363584518433,0.0251664333045482,-0.8352973461151123,-0.053044956177473,-0.0043352642096579,0.0,0.0,-0.7504780888557434,0.0260708332061767
-0.0420391075313091,0.7386454939842224,0.0332825109362602,-0.8573940396308899,-0.0534812845289707,-0.0087264804169535,0.0,0.0,-0.5047150254249573,-0.1339378356933593
-0.0416312217712402,0.7188573479652405,0.041443295776844,-0.8794907927513123,-0.0541371628642082,-0.0131174447014927,0.0,0.0,-0.1892176270484924,0.3137989044189453
-0.0411436073482036,0.6985723972320557,0.0496448650956153,-0.9015875458717346,-0.0550125017762184,-0.0175067409873008,0.0,0.0,0.0542318820953369,-0.2252456545829773
-0.0404906272888183,0.678209662437439,0.0660832971334457,-0.9050444960594176,-0.0557844713330268,-0.0154395047575235,0.0,0.0,-0.1400567889213562,-0.7091453671455383
-0.0398125648498535,0.6573610901832581,0.067387156188488,-0.9265906810760498,-0.055370457470417,0.0082803331315517,0.0,0.0,0.2578198909759521,-0.7847166657447815
-0.0389666557312011,0.6365628838539124,0.0826766714453697,-0.9242924451828004,-0.0534758530557155,0.0378922000527381,0.0,0.0,0.927983283996582,-0.6050376892089844
-0.0381770133972168,0.6161019802093506,0.0763758644461631,-0.9092767238616944,-0.0509209707379341,0.0510976687073707,0.0,0.0,0.7249292135238647,-0.2358597517013549
-0.0371656417846679,0.5963834524154663,0.0983152538537979,-0.8762895464897156,-0.0481300726532936,0.0558180399239063,0.0,0.0,0.6334037780761719,-0.8495558500289917
-0.0359558090567588,0.5771644711494446,0.1164122074842453,-0.8540406823158264,-0.0436219982802867,0.0901616513729095,0.0,0.0,0.3613157272338867,-0.5706490278244019
-0.0346124656498432,0.5584697723388672,0.1286959499120712,-0.8307203054428101,-0.0380507372319698,0.111425444483757,0.0,0.0,0.2923465967178345,-0.5468805432319641
-0.033271886408329,0.5402107834815979,0.1276824176311493,-0.8113601207733154,-0.0317452065646648,0.1261102855205536,0.0,0.0,0.1776647567749023,-0.5929850935935974
-0.0318471901118755,0.521846354007721,0.1350401639938354,-0.8160592913627625,-0.0244078114628791,0.1467480361461639,0.0,0.0,0.1613448858261108,-0.6829445958137512
-0.0304614063352346,0.5037334561347961,0.1300804018974304,-0.8049036264419556,-0.0160264540463686,0.1676270812749862,0.0,0.0,0.4720101356506347,0.1646467447280883
-0.0288758277893066,0.485812783241272,0.1497758328914642,-0.7964022755622864,-0.0073497500270605,0.1735338270664215,0.0,0.0,0.6346828937530518,0.54646897315979
-0.0271347053349018,0.4683056175708771,0.1665655076503753,-0.7780764698982239,9.28811787161976e-05,0.1488530039787292,0.0,0.0,0.3155632019042969,-0.7114966511726379
-0.0253602024167776,0.4507757723331451,0.1686763018369674,-0.7791319489479065,0.00874934066087,0.1731290817260742,0.0,0.0,0.4073412418365478,-0.4659954309463501
-0.0236125942319631,0.4335033595561981,0.166688859462738,-0.7677303552627563,0.0167078245431184,0.1591700762510299,0.0,0.0,0.8318685293197632,-0.3035668134689331
-0.0217741020023822,0.4171583950519562,0.1758859008550644,-0.7265542149543762,0.024567736312747,0.1571983397006988,0.0,0.0,0.3370207548141479,-0.4010561108589172
-0.0197919849306345,0.4006743431091308,0.1901534795761108,-0.732778012752533,0.0325278751552104,0.1592027246952057,0.0,0.0,0.417770504951477,0.0720456838607788
-0.0177273750305175,0.3847932815551758,0.1985081732273101,-0.7060175538063049,0.0403900109231472,0.1572427302598953,0.0,0.0,0.2805525064468384,-0.2166740298271179
-0.015667151659727,0.3689611852169037,0.1986116915941238,-0.7038653492927551,0.0477113127708435,0.1464261710643768,0.0,0.0,0.142019510269165,-0.1067708730697631
-0.0136093143373727,0.3533291816711426,0.1988728642463684,-0.6949891448020935,0.0545377135276794,0.1365279257297516,0.0,0.0,0.8397469520568848,-0.4772070646286011
-0.0114717483520507,0.3382413685321808,0.2068962752819061,-0.6708361506462097,0.0613235682249069,0.1357174664735794,0.0,0.0,0.6502437591552734,-0.0899085402488708
-0.0094307903200387,0.3239079415798187,0.1980290710926056,-0.6373036503791809,0.0673177018761634,0.1198825091123581,0.0,0.0,0.5159871578216553,-0.1385360956192016
-0.0072749136015772,0.3098773956298828,0.2094211131334304,-0.6238674521446228,0.0734299197793006,0.1222443208098411,0.0,0.0,0.820044755935669,-0.6552518606185913
-0.0051584243774414,0.2959794104099273,0.2044472247362136,-0.6180561184883118,0.0805586799979209,0.1425753682851791,0.0,0.0,0.453441858291626,-0.440075159072876
-0.0029218674171715,0.2820196151733398,0.2163741141557693,-0.6208459138870239,0.0877765268087387,0.1443566381931305,0.0,0.0,0.8270585536956787,-0.4482530355453491
-0.0006694793701171,0.2681194245815277,0.2183094024658203,-0.6182110905647278,0.0946484878659248,0.137439027428627,0.0,0.0,0.9251277446746826,-0.6491034030914307
0.0015172004932537,0.2550998330116272,0.2106506526470184,-0.5791784524917603,0.1026045903563499,0.1591220200061798,0.0,0.0,0.8582854270935059,-0.4831349849700928
0.0037830353248864,0.2429665923118591,0.2183293998241424,-0.5398425459861755,0.1108006611466407,0.1639212965965271,0.0,0.0,0.4229774475097656,-0.4077197313308716
0.0059585571289062,0.2313702255487442,0.2099261283874511,-0.5159779191017151,0.1183775141835212,0.1515369564294815,0.0,0.0,0.4568849802017212,-0.6962496042251587
0.008004093542695,0.21967314183712,0.1959237158298492,-0.5205754637718201,0.1269503533840179,0.1714567840099334,0.0,0.0,0.7807080745697021,0.1042940616607666
0.0100682256743311,0.2087556272745132,0.197774201631546,-0.4859816133975982,0.135561853647232,0.1722303330898285,0.0,0.0,0.5551280975341797,-0.6078438758850098
0.011992740444839,0.1981161236763,0.1829780042171478,-0.4737550616264343,0.1449939310550689,0.1886414438486099,0.0,0.0,0.2924761772155761,0.3470962047576904
0.0138815883547067,0.1877579987049102,0.1797832995653152,-0.461270123720169,0.1540761739015579,0.1816450506448745,0.0,0.0,0.1054822206497192,0.5349382162094116
0.0158147811889648,0.1776074469089508,0.1854688227176666,-0.4519723653793335,0.1619253605604171,0.1569841802120208,0.0,0.0,0.1560099124908447,-0.4311312437057495
0.017825985327363,0.1675775647163391,0.1931367069482803,-0.4466617703437805,0.1699178367853164,0.1598494350910186,0.0,0.0,0.1502265930175781,-0.1217327713966369
0.0198966022580862,0.1574076265096664,0.1991366297006607,-0.4529246687889099,0.1778544038534164,0.1587317287921905,0.0,0.0,0.1375949382781982,-0.3815271854400635
0.0220643039792776,0.1471672356128692,0.2086908519268036,-0.456114113330841,0.185961365699768,0.1621392369270324,0.0,0.0,0.6939715147018433,-0.7501435875892639
0.0243111606687307,0.1373228877782821,0.2149195224046707,-0.4387828111648559,0.1957859992980957,0.1964924037456512,0.0,0.0,0.56107497215271,-0.5447077751159668
0.0266660694032907,0.127555564045906,0.2243987619876861,-0.4356088042259216,0.2069536000490188,0.2233524620532989,0.0,0.0,0.8134640455245972,-0.6258453726768494
0.0288787838071584,0.118490345776081,0.209094613790512,-0.404653251171112,0.2192574590444564,0.2460775673389434,0.0,0.0,0.4977691173553467,-0.2183259129524231
0.0310522075742483,0.1099456176161766,0.205151230096817,-0.381624162197113,0.2315975427627563,0.2468020915985107,0.0,0.0,0.4981324672698974,-0.4336632490158081
0.0332792289555072,0.1018275320529937,0.2101267576217651,-0.3628340363502502,0.2443751394748687,0.2555520236492157,0.0,0.0,0.4075039625167846,-0.6456869840621948
0.0355648025870323,0.0936283469200134,0.2146316766738891,-0.3667854964733124,0.2585653662681579,0.283804714679718,0.0,0.0,0.1363279819488525,-0.3064209222793579
0.0378080382943153,0.0854283645749092,0.2106815129518509,-0.3669092953205108,0.2725213170051574,0.2791191637516022,0.0,0.0,0.5706892013549805,0.1893335580825805
0.039989948272705,0.077951081097126,0.2042996138334274,-0.3349774777889251,0.2867915034294128,0.2854035496711731,0.0,0.0,0.6413081884384155,-0.4481309652328491
0.0420715324580669,0.070782646536827,0.194467008113861,-0.3213502168655395,0.3009057641029358,0.2822856307029724,0.0,0.0,0.2897031307220459,0.3473643064498901
0.0439577102661132,0.0639658272266388,0.1754648387432098,-0.3057504594326019,0.3145312368869781,0.2725093960762024,0.0,0.0,0.5737988948822021,0.2621724605560303
0.0457983016967773,0.0576408952474594,0.1706239581108093,-0.284086674451828,0.3285099565982818,0.2795745134353637,0.0,0.0,0.5453509092330933,0.0119801759719848
0.0474459640681743,0.0517931804060936,0.1516352593898773,-0.2629401385784149,0.3422359228134155,0.27451953291893,0.0,0.0,0.3300179243087768,0.0947827100753784
0.0489090904593467,0.0462689027190208,0.1335526704788208,-0.248614028096199,0.3556417524814605,0.2681167721748352,0.0,0.0,0.3866994380950928,0.2555592060089111
0.0502873435616493,0.0408264510333538,0.1252127140760421,-0.2450645864009857,0.368947833776474,0.2661214470863342,0.0,0.0,0.5039041042327881,0.1046767234802246
0.0514487251639366,0.0355974994599819,0.104056492447853,-0.2355671823024749,0.3817681968212127,0.256407082080841,0.0,1.0,0.9962716102600098,0.9957914352416992
0.0522830002009868,0.0316456407308578,0.0843319743871688,-0.1763734817504882,0.377800703048706,-0.0838129520416259,0.0,1.0,0.9890060424804688,0.9994268417358398
0.0528722777962684,0.0293754190206527,0.0818236172199249,-0.0950791612267494,0.3534748256206512,-0.4866828024387359,0.0,1.0,0.987746238708496,0.0708733797073364
0.0533174499869346,0.027895126491785,0.0789345204830169,-0.0579566806554794,0.3169310986995697,-0.7316825985908508,0.0,1.0,0.921955704689026,-0.5511652827262878
0.0535814277827739,0.0274096820503473,0.0635474696755409,-0.0139259528368711,0.2785036563873291,-0.7685999274253845,0.0,1.0,0.6858072280883789,-0.7717020511627197
0.0535754188895225,0.0275234803557395,0.0337837673723697,0.0112150991335511,0.2433406263589859,-0.7032906413078308,0.0,1.0,-0.0693783164024353,-0.0795438289642334
0.0535680763423442,0.0271557662636041,0.0339003726840019,-0.0109975058585405,0.2082191109657287,-0.7024585604667664,0.0,0.0,-0.9995079040527344,-0.0787206292152404
0.0536385551095008,0.0263076163828372,0.0419302769005298,-0.0331686697900295,0.1731092035770416,-0.7022266387939453,0.0,0.0,-0.9955145716667176,-0.335925817489624
0.0537867546081543,0.0249789580702781,0.0498993434011936,-0.0553470067679882,0.138023167848587,-0.7017493844032288,0.0,0.0,-0.9862258434295654,-0.5957137942314148
0.0539701469242572,0.0231657121330499,0.0524805299937725,-0.0777845531702041,0.1040362790226936,-0.6797652840614319,0.0,0.0,-0.8266158103942871,-0.6426325440406799
0.0541940703988075,0.0208504293113946,0.0551342070102691,-0.1009427830576896,0.0715989172458648,-0.6487478017807007,0.0,0.0,-0.2770031094551086,-0.9083576798439026
0.0544083602726459,0.0180433373898267,0.0519911162555217,-0.123575359582901,0.0413799807429313,-0.6043787598609924,0.0,0.0,0.4219094514846802,-0.9294328093528748
0.054481029510498,0.0153996804729104,0.0360539034008979,-0.1169453784823417,0.012942693196237,-0.5687457323074341,0.0,0.0,0.679213285446167,-0.992006540298462
0.0545183196663856,0.0131257390603423,0.0305219590663909,-0.1010460332036018,-0.0134973991662263,-0.5288021564483643,0.0,0.0,0.7471827268600464,-0.9768154621124268
0.0545913688838481,0.0112084243446588,0.032007660716772,-0.0856148302555084,-0.0378908030688762,-0.4878683686256408,0.0,0.0,0.387565016746521,-0.6623363494873047
0.0548177734017372,0.0092441532760858,0.0457083247601985,-0.0880431979894638,-0.0606792792677879,-0.4557696878910064,0.0,0.0,0.8378804922103882,-0.9034625887870787
0.0552114471793174,0.0079273674637079,0.0602947473526001,-0.0595008097589015,-0.0813859701156616,-0.4141341149806976,0.0,0.0,0.5397255420684814,-0.8169113397598267
0.0557926185429096,0.0079756472259759,0.0586000196635723,0.0020894615445286,-0.0817860513925552,-0.0078861378133296,1.0,0.0,-0.8800454139709473,-0.7445735335350037
0.0563315376639366,0.007607290521264,0.0509013347327709,-0.0162356086075305,-0.0787414610385894,0.0609866566956043,1.0,0.0,-0.6916620135307312,-0.6276019215583801
