x_pos,y_pos,x_vel,y_vel,angle,ang_vel,leg_1,leg_2,main_booster,lat_booster
-0.0014853477478027,1.4034957885742188,-0.1499590575695037,-0.3299636244773865,0.0012676117476075,0.024968322366476,0.0,0.0,0.7681818665915576,0.6114042744393807
-0.0028253556229174,1.396704077720642,-0.1337074339389801,-0.3018592894077301,0.0009806293528527,-0.0057395128533244,0.0,0.0,-0.3317434287819991,-0.7110039082386193
-0.0041703223250806,1.3897777795791626,-0.1348420977592468,-0.3078353106975555,0.0013146440032869,0.0066810697317123,0.0,0.0,-0.7894648596125777,0.6682614088898039
-0.0054347990080714,1.382720947265625,-0.1252302378416061,-0.3136411011219024,0.0001143908593803,-0.02400728687644,0.0,0.0,0.998411062836602,0.8382338626155904
-0.006424808409065,1.3767213821411133,-0.096034474670887,-0.2666502296924591,-0.002821356523782,-0.0587205179035663,0.0,0.0,-0.0401158878442116,0.6114386676564223
-0.0073173521086573,1.37059223651886,-0.0843114331364631,-0.2724268138408661,-0.007710329722613,-0.0977884978055954,0.0,0.0,0.6236176722913571,-0.7197361152317914
-0.0082480432465672,1.3651870489120483,-0.0890437960624694,-0.240255206823349,-0.0116923963651061,-0.0796485170722007,0.0,0.0,0.9617237562258434,-0.5534082621927261
-0.0089868549257516,1.3608046770095823,-0.0710686817765235,-0.1947948485612869,-0.0144687592983245,-0.055532120168209,0.0,0.0,-0.9209351344038624,-0.5028790696406475
-0.0097278598695993,1.3563002347946167,-0.0718479454517364,-0.200223222374916,-0.0166906788945198,-0.0444427207112312,0.0,0.0,0.4268631599218211,-0.9917591577184944
-0.010499095544219,1.3526164293289185,-0.0764033049345016,-0.1637307256460189,-0.0174063947051763,-0.0143153835088014,0.0,0.0,-0.7497657707785945,-0.5241653939239324
-0.0112679479643702,1.3488051891326904,-0.0765978619456291,-0.1693840324878692,-0.0176878590136766,-0.0056299953721463,0.0,0.0,0.5785509395541828,-0.7764188790267893
-0.0119766239076852,1.34562087059021,-0.0718221142888069,-0.1415184289216995,-0.0167432352900505,0.0188940111547708,0.0,0.0,0.0056079536400157,-0.9639100540577972
-0.0126208309084177,1.3429508209228516,-0.0668220371007919,-0.1186405792832374,-0.014374797232449,0.0473731979727745,0.0,0.0,-0.8329371866682045,0.5335364644591436
-0.0131809236481785,1.340146541595459,-0.0567669942975044,-0.1246341988444328,-0.0136316455900669,0.0148647371679544,0.0,0.0,0.0311439256980834,0.955851419914276
-0.0135157583281397,1.3379915952682495,-0.0318388827145099,-0.095789648592472,-0.0152527065947651,-0.0324245952069759,0.0,0.0,0.4006835599610101,-0.7691346135012411
-0.0137665746733546,1.3360761404037476,-0.024700541049242,-0.085138700902462,-0.0156243313103914,-0.0074331327341496,0.0,0.0,-0.28036101628202,-0.5972521891130411
-0.0140169141814112,1.3340398073196411,-0.0251470003277063,-0.0904959589242935,-0.0155140664428472,0.0022056100424379,0.0,0.0,-0.803039148858411,-0.5018125421447918
-0.0142611507326364,1.331871747970581,-0.0248691029846668,-0.0963588580489158,-0.0150698497891426,0.0088849077001214,0.0,0.0,0.8787573616491489,-0.7966214727289573
-0.0143975261598825,1.3309504985809326,-0.0155367497354745,-0.0409279093146324,-0.0132028488442301,0.0373434573411941,0.0,0.0,0.4547016064446025,0.9498916532331368
-0.01449756603688,1.330647587776184,-0.0094825299456715,-0.0134654436260461,-0.0137182353064417,-0.0103084202855825,0.0,0.0,-0.040995020650415,0.938218625497416
-0.0144720077514648,1.3302212953567505,0.0057741040363907,-0.0189784597605466,-0.0168993379920721,-0.0636279806494712,0.0,0.0,0.3305545398732588,-0.834233223413225
-0.0144602777436375,1.330197811126709,0.003108208766207,-0.0010662662098184,-0.0188132151961326,-0.0382808186113834,0.0,0.0,-0.8716102918356261,-0.758143471676759
-0.0144605636596679,1.3300460577011108,0.0011112609645351,-0.006757644470781,-0.0199416708201169,-0.0225708317011594,0.0,0.0,0.884981177446285,-0.6580202033055368
-0.0143855093047022,1.3302918672561646,0.0074964175000786,0.0109198298305273,-0.0199324563145637,0.0001840672630351,0.0,0.0,0.0667999379719641,0.5501172175536408
-0.014326381497085,1.3310353755950928,0.0075707314535975,0.0330292843282222,-0.0215652845799922,-0.0326593779027462,0.0,0.0,0.968434424360968,-0.581775843093175
-0.0144461635500192,1.3328979015350342,-0.0105966478586196,0.082751378417015,-0.0229356121271848,-0.0274063888937234,0.0,0.0,0.3122662725024265,0.9239617870949988
-0.014442634768784,1.3355003595352173,0.0039705894887447,0.1156069487333297,-0.02650404907763,-0.0713688880205154,0.0,0.0,-0.5592902386804095,-0.731165581736374
-0.0144762992858886,1.3379848003387451,-0.0011871424503624,0.1103870123624801,-0.0286560263484716,-0.0430392399430274,0.0,0.0,-0.981781366750841,0.7741710198436267
-0.0144292833283543,1.3403455018997192,0.0084501970559358,0.1048434078693389,-0.032357633113861,-0.0740320459008216,0.0,0.0,-0.7607922575319483,0.651531316883746
-0.0143004413694143,1.342573165893555,0.0182339660823345,0.0988861992955207,-0.0376441217958927,-0.1057296022772789,0.0,0.0,0.2773757293873513,0.6080271343552799
-0.014051055535674,1.3456575870513916,0.0318036302924156,0.1368934363126754,-0.0444329418241977,-0.1357761621475219,0.0,0.0,-0.3011807203292846,-0.9791600704193116
-0.0138583183288574,1.3486140966415403,0.0242447257041931,0.1312483102083206,-0.0493347458541393,-0.0980361998081207,0.0,0.0,-0.6729086637496948,-0.9554125666618348
-0.0137204173952341,1.3514578342437744,0.0168605260550975,0.1262865364551544,-0.052373468875885,-0.0607742480933666,0.0,0.0,-0.3528913855552673,-0.7216604351997375
-0.0136158941313624,1.3541717529296875,0.0122176175937056,0.1205585375428199,-0.0541134215891361,-0.0347991064190864,0.0,0.0,-0.6355995535850525,-0.7934926748275757
-0.0135427471250295,1.3567641973495483,0.0077920397743582,0.1151953637599945,-0.0545922107994556,-0.0095758754760026,0.0,0.0,-0.4293046593666076,-0.3922963142395019
-0.0134408948943018,1.3592281341552734,0.0109430393204092,0.1094826683402061,-0.0553336441516876,-0.014828510582447,0.0,0.0,-0.5332788228988647,-0.6877357959747314
-0.0133675578981637,1.3615649938583374,0.0068909651599824,0.1038764640688896,-0.0548968017101287,0.0087367575615644,0.0,0.0,-0.2255842089653015,-0.6279556155204773
-0.0133129116147756,1.3637821674346924,0.0040756929665803,0.0985920578241348,-0.0535240061581134,0.0274558030068874,0.0,0.0,-0.3531045913696289,0.1769888401031494
-0.0132312774658203,1.3658709526062012,0.0069958292879164,0.092879444360733,-0.0523728877305984,0.0230225846171379,0.0,0.0,-0.546471893787384,-0.2816199064254761
-0.0131234172731637,1.367831468582153,0.0098346192389726,0.0871669501066207,-0.0514291115105152,0.018875379115343,0.0,0.0,-0.2878504991531372,-0.0331009626388549
-0.0129899028688669,1.3696637153625488,0.0125900078564882,0.0814545825123786,-0.0506781265139579,0.0150196310132741,0.0,0.0,-0.6331212520599365,-0.2896435856819153
-0.0128314970061182,1.3713674545288086,0.015260043554008,0.0757422968745231,-0.0501051396131515,0.0114599941298365,0.0,0.0,-0.5100125074386597,-0.2341123223304748
-0.0126489643007516,1.3729428052902222,0.0178429018706083,0.0700301229953765,-0.0496951155364513,0.00820042937994,0.0,0.0,-0.5538529753684998,-0.5334606170654297
-0.0124781606718897,1.3743913173675537,0.0159151814877986,0.0644160136580467,-0.0485466681420803,0.0229690894484519,0.0,0.0,-0.4440324306488037,-0.3865619301795959
-0.0122846607118844,1.375711441040039,0.0183187257498502,0.0587038956582546,-0.0475307591259479,0.0203180648386478,0.0,0.0,-0.3606253266334533,-0.6816397905349731
-0.0121192932128906,1.3768997192382812,0.014363688416779,0.0528813153505325,-0.0453804843127727,0.0430055037140846,0.0,0.0,-0.3133880496025085,0.227576732635498
-0.0119327548891305,1.3779596090316772,0.0165823101997375,0.0471690706908702,-0.0433320552110672,0.0409686751663684,0.0,0.0,-0.3429453372955322,0.5909569263458252
-0.0116876605898141,1.3788950443267822,0.0234935823827981,0.0416009165346622,-0.0423254445195198,0.0201320778578519,0.0,0.0,-0.4905793666839599,-0.470758318901062
-0.0114230159670114,1.3797019720077517,0.0255230851471424,0.0358891077339649,-0.0413900353014469,0.0187082234770059,0.0,0.0,-0.2585190534591675,-0.4569076895713806
-0.0111394878476858,1.380380392074585,0.0274568796157836,0.0301773715764284,-0.0405106209218502,0.0175882987678051,0.0,0.0,-0.2207038402557373,-0.4052644968032837
-0.0108380317687988,1.3809301853179932,0.0292944721877574,0.0244656968861818,-0.0396721549332141,0.0167694855481386,0.0,0.0,-0.4055347442626953,-0.4767317771911621
-0.0105195045471191,1.3813518285751345,0.0310355685651302,0.0187540743499994,-0.0388597473502159,0.0162482149899005,0.0,0.0,-0.3364781141281128,-0.4425996541976928
-0.0101845739409327,1.3816447257995603,0.0326800793409347,0.013042508624494,-0.0380587391555309,0.0160201601684093,0.0,0.0,-0.3558725714683532,-0.512631356716156
-0.0098743438720703,1.3818161487579346,0.0291807316243648,0.0076694837771356,-0.0362397618591785,0.036379586905241,0.0,0.0,-0.0776638984680175,-0.4942018389701843
-0.0095494268462061,1.381859302520752,0.030632596462965,0.0019577844068408,-0.0344036445021629,0.0367223136126995,0.0,0.0,-0.4544025659561157,-0.3426722288131714
-0.0092106815427541,1.3817739486694336,0.0319888330996036,-0.0037538835313171,-0.0325365774333477,0.0373413860797882,0.0,0.0,-0.0112607479095458,-0.4068611860275268
-0.0088587757200002,1.3815600872039795,0.0332501791417598,-0.0094655295833945,-0.030625082552433,0.038230113685131,0.0,0.0,0.1643127202987671,-0.4340690374374389
-0.0083828922361135,1.3819258213043213,0.0451401993632316,0.0163054652512073,-0.0282061081379652,0.0483794882893562,0.0,0.0,-0.3838739991188049,-0.0888412594795227
-0.0078955646604299,1.382163166999817,0.0462147369980812,0.0105936666950583,-0.0257168281823396,0.0497855246067047,0.0,0.0,-0.2700961828231811,0.0322777032852172
-0.0073974607512354,1.3822720050811768,0.0471977740526199,0.0048818504437804,-0.0231449138373136,0.0514384396374225,0.0,0.0,-0.3825682401657104,0.7504584789276123
-0.0068252561613917,1.3822437524795532,0.0561639666557312,-0.0012441988801583,-0.0220983829349279,0.0209305994212627,0.0,0.0,-0.2154099941253662,-0.7834398150444031
-0.0063161849975585,1.3820931911468506,0.0479026734828949,-0.0066411318257451,-0.0191279593855142,0.0594085231423378,0.0,0.0,-0.0191647410392761,0.3900761604309082
-0.0057987212203443,1.3818144798278809,0.0486209131777286,-0.0123531576246023,-0.0160403605550527,0.061752013862133,0.0,0.0,-0.401789903640747,0.4454275369644165
-0.0052735330536961,1.3814072608947754,0.0492547042667865,-0.0180652625858783,-0.0128249414265155,0.0643083676695823,0.0,0.0,-0.3677569627761841,0.1506117582321167
-0.004741477780044,1.3808717727661133,0.049806211143732,-0.0237774569541215,-0.0094715086743235,0.0670687109231948,0.0,0.0,-0.1196503043174743,0.1075384616851806
-0.0042032240889966,1.3802080154418943,0.0502777509391307,-0.0294897593557834,-0.0059702959842979,0.0700241848826408,0.0,0.0,-0.2897878885269165,0.6599440574645996
-0.0036053657531738,1.3794227838516235,0.057461492717266,-0.0348871126770973,-0.0036710109561681,0.0459856241941452,0.0,0.0,-0.153294563293457,-0.2519944906234741
-0.0030025481246411,1.378509283065796,0.057780522853136,-0.0405989773571491,-0.0012057799613103,0.049304686486721,0.0,0.0,-0.3128412365913391,-0.101940631866455
-0.0023955344222486,1.3774672746658323,0.0580272451043129,-0.0463109463453292,0.0014338397886604,0.0527922809123992,0.0,0.0,-0.1977572441101074,0.5111105442047119
-0.0017507553566247,1.3762946128845217,0.0624867379665374,-0.0521180443465709,0.0033982759341597,0.0392887815833091,0.0,0.0,-0.5815834999084473,-0.0300025939941406
-0.0011029243469238,1.3749935626983645,0.0625972598791122,-0.0578298941254615,0.0055526415817439,0.043087363243103,0.0,0.0,-0.2849256992340088,-0.1312211155891418
-0.0004526138363871,1.3735642433166504,0.0626440420746803,-0.0635418444871902,0.0079040769487619,0.0470285937190055,0.0,0.0,-0.3530241847038269,-0.5469549298286438
0.0001469612179789,1.3720120191574097,0.0560346357524395,-0.0690166652202606,0.0117793567478656,0.0775059014558792,0.0,0.0,0.0448735952377319,0.7721395492553711
0.0008587837219238,1.370881199836731,0.0685652047395706,-0.0502812266349792,0.0143568217754364,0.0515491664409637,0.0,0.0,0.1749523878097534,0.5298142433166504
0.0015830993652343,1.370035171508789,0.0707252919673919,-0.0376114770770072,0.0160449184477329,0.0337618850171566,0.0,0.0,0.3935058116912842,-0.4311490058898926
0.0023609162308275,1.369473576545715,0.0755751579999923,-0.0249887574464082,0.0182198081165552,0.0434978902339935,0.0,0.0,-0.3563216924667358,0.2987580299377441
0.0031387328635901,1.368783473968506,0.0753496810793876,-0.0307009797543287,0.0206212848424911,0.0480296835303306,0.0,0.0,-0.1720084547996521,0.7655196189880371
0.0039758682250976,1.367973804473877,0.0825642719864845,-0.0360028110444545,0.0217522419989109,0.0226190220564603,0.0,0.0,-0.1553487777709961,-0.2854372262954712
0.0048122406005859,1.3670356273651123,0.0822523459792137,-0.0417148284614086,0.0231188796460628,0.0273327939212322,0.0,0.0,-0.215690791606903,-0.5203875303268433
0.0055986405350267,1.365972638130188,0.0757659301161766,-0.0472890213131904,0.0259525328874588,0.0566729791462421,0.0,0.0,-0.0166316032409667,0.4677085876464844
0.0063835144974291,1.3647814989089966,0.0753807350993156,-0.0530017018318176,0.0290295146405696,0.0615396983921527,0.0,0.0,-0.0368813276290893,0.9510948657989502
0.007246971130371,1.3634740114212036,0.0850203037261962,-0.0581424012780189,0.0303337424993515,0.0260844025760889,0.0,0.0,-0.1837404370307922,-0.6729485392570496
0.0080462452024221,1.362035036087036,0.0767725557088851,-0.0640149936079979,0.0334512628614902,0.0623499974608421,0.0,0.0,-0.3734529018402099,0.9805114269256592
0.0089137079194188,1.3604756593704224,0.0851383209228515,-0.0693475306034088,0.0350476056337356,0.0319268181920051,0.0,0.0,-0.2996151447296142,-0.1034401059150695
0.0097789764404296,1.3587877750396729,0.0846462026238441,-0.0750599727034568,0.0368984900414943,0.0370174422860145,0.0,0.0,-0.2564968466758728,-0.8254253268241882
0.0105858799070119,1.3569687604904177,0.0771309584379196,-0.080938309431076,0.0404100082814693,0.0702305883169174,0.0,0.0,-0.3896147608757019,0.965051531791687
0.0114696500822901,1.355016827583313,0.0865824148058891,-0.0868057757616043,0.0421856641769409,0.0355130955576896,0.0,0.0,-0.0147874355316162,0.7811671495437622
0.0124221798032522,1.3529353141784668,0.0950043648481369,-0.0925208702683448,0.0424282178282737,0.0048511754721403,0.0,0.0,-0.066011369228363,-0.7817574739456177
0.0133251193910837,1.350722312927246,0.0885978937149047,-0.098408542573452,0.0441067069768905,0.0335697494447231,0.0,0.0,-0.0992363095283508,-0.7757774591445923
0.0141782760620117,1.3483717441558838,0.0821491330862045,-0.1045595332980156,0.0472337007522583,0.0625397562980651,0.0,0.0,-0.3509058356285095,0.8033456802368164
0.0150912282988429,1.345903396606445,0.0894697979092598,-0.1097644045948982,0.0490381568670272,0.0360893383622169,0.0,0.0,-0.2249351739883422,0.1474453210830688
0.0160013195127248,1.3433067798614502,0.08891611546278,-0.1154772266745567,0.0511047467589378,0.0413319170475006,0.0,0.0,-0.4238801598548889,-0.0083758234977722
0.0169085506349802,1.3405817747116089,0.0883663147687912,-0.1211901828646659,0.0534333996474742,0.0465731807053089,0.0,0.0,-0.372692346572876,0.9824917316436768
0.0179039947688579,1.3377255201339722,0.0992336273193359,-0.126956433057785,0.0537431165575981,0.0061942473985254,0.0,0.0,-0.3172225952148437,0.3920869827270508
0.0188968665897846,1.3347408771514893,0.0987006947398185,-0.1326690912246704,0.0543139427900314,0.0114165758714079,0.0,0.0,-0.3483242392539978,0.5320558547973633
0.019934844225645,1.331638216972351,0.1041748970746994,-0.1378813832998275,0.053936056792736,-0.0075575872324407,0.0,0.0,-0.2153311967849731,-0.3166102170944214
0.020970344543457,1.3284074068069458,0.1036708205938339,-0.1435940414667129,0.0538172870874404,-0.0023754723370075,0.0,0.0,-0.597270667552948,-0.171823501586914
0.0220036506652832,1.3250479698181152,0.1031855344772338,-0.1493066847324371,0.0539562217891216,0.0027787541039288,0.0,0.0,-0.3748344182968139,-0.6335204839706421
0.022991944104433,1.3215601444244385,0.0973370969295501,-0.1550709903240203,0.0554290786385536,0.0294569972902536,0.0,0.0,-0.5399793982505798,0.8939664363861084
0.0240425113588571,1.317955732345581,0.1049496755003929,-0.160197839140892,0.0555337592959404,0.0020937568042427,0.0,0.0,-0.3450620174407959,0.0188139677047729
0.025091553106904,1.3142231702804563,0.1045374497771263,-0.1659104973077774,0.055890467017889,0.0071343453601002,0.0,0.0,-0.451867938041687,0.5657763481140137
0.0261821746826171,1.31036376953125,0.1095396280288696,-0.1715062409639358,0.0554176904261112,-0.009455488063395,0.0,0.0,-0.418813407421112,0.0899255275726318
0.0272717475891113,1.3063760995864868,0.109189473092556,-0.17721888422966,0.0551919378340244,-0.0045151407830417,0.0,0.0,-0.3616112470626831,-0.0977042913436889
0.028360653668642,1.3022602796554563,0.1088741421699523,-0.1829314827919006,0.05521035566926,0.0003679567598737,0.0,0.0,-0.4304633140563965,0.6700187921524048
0.0295113567262887,1.298025131225586,0.1163932532072067,-0.1881804019212722,0.0539009980857372,-0.0261870920658111,0.0,0.0,-0.2130947113037109,-0.5810888409614563
0.03062105178833,1.2936532497406006,0.1109983474016189,-0.1943045407533645,0.0538689419627189,-0.0006410506321117,0.0,0.0,-0.4017382860183716,0.5681424140930176
0.0317866317927837,1.2891619205474854,0.117776408791542,-0.1995698511600494,0.0526672042906284,-0.02403468452394,0.0,0.0,-0.4171659350395202,-0.4531353712081909
0.0329530723392963,1.2845423221588137,0.117623820900917,-0.2052824646234512,0.0516958944499492,-0.0194260533899068,0.0,0.0,-0.5092597603797913,-0.7094897627830505
0.0340776443481445,1.279799222946167,0.1121209859848022,-0.2108146548271179,0.0520267449319362,0.0066170333884656,0.0,0.0,-0.7171326875686646,0.0113666057586669
0.0352039337158203,1.274927854537964,0.1120625957846641,-0.2165271192789077,0.0525798499584198,0.0110622495412826,0.0,0.0,-0.3259429335594177,-0.6141122579574585
0.0362829193472862,1.269930362701416,0.1058706492185592,-0.2221828252077102,0.0545863173902034,0.0401291064918041,0.0,0.0,-0.1295527219772339,0.3645222187042236
0.0373644828796386,1.2648046016693115,0.1059139817953109,-0.2278956323862075,0.0568060353398323,0.0443946383893489,0.0,0.0,-0.4200295209884643,0.819368839263916
0.038522720336914,1.2595527172088623,0.1152360588312149,-0.2334406226873397,0.057386141270399,0.0116020645946264,0.0,0.0,-0.6531518697738647,-0.1911561489105224
0.0396844856441021,1.2541723251342771,0.1153876185417175,-0.2391531020402908,0.0581697784364223,0.0156724993139505,0.0,0.0,-0.6783416867256165,-0.5479217171669006
0.0407979004085063,1.2486578226089478,0.1090119332075119,-0.2451853305101394,0.0604750253260135,0.0461050793528556,0.0,0.0,-0.5174662470817566,0.4516857862472534
0.0419159904122352,1.243014931678772,0.1092774495482444,-0.2508982419967651,0.0629733279347419,0.0499661564826965,0.0,0.0,-0.6262184977531433,0.7888219356536865
0.0431041717529296,1.237248420715332,0.1177623495459556,-0.2563329637050628,0.0640215575695037,0.0209644250571727,0.0,0.0,-0.5390411019325256,0.0994616746902465
0.0442981719970703,1.2313536405563354,0.1181463748216629,-0.2620455026626587,0.0652517080307006,0.0246032122522592,0.0,0.0,-0.8477557897567749,0.0325020551681518
0.0454982742667198,1.225330471992493,0.1185910552740097,-0.2677580416202545,0.0666580349206924,0.0281264577060937,0.0,0.0,-0.696071445941925,0.6758172512054443
0.0467604622244834,1.219191074371338,0.126043289899826,-0.2728724181652069,0.0668315291404724,0.003470039460808,0.0,0.0,-0.8211286067962646,-0.8332250714302063
0.0479715354740619,1.2129080295562744,0.1192701011896133,-0.2793253660202026,0.0686549246311187,0.0364677533507347,0.0,0.0,-0.8496188521385193,0.3539413213729858
