x_pos,y_pos,x_vel,y_vel,angle,ang_vel,leg_1,leg_2,main_booster,lat_booster
-0.0016079902416095,1.402965068817139,-0.1632100045680999,-0.3535543084144592,0.0021578182931989,0.0425944849848747,0.0,0.0,-0.7929264281089135,-0.7619943623443136
-0.0033504485618323,1.3943703174591064,-0.1780982166528701,-0.3820055723190307,0.0059673027135431,0.0761975795030593,0.0,0.0,-0.8470111402152489,0.8748676116547364
-0.0050827981904149,1.3851100206375122,-0.1752898395061493,-0.4115743637084961,0.0079902373254299,0.0404626168310642,0.0,0.0,0.7121580518161552,-0.9034855449089956
-0.0070959092117846,1.3759617805480957,-0.2052532136440277,-0.4066140949726105,0.0118889212608337,0.0779812559485435,0.0,0.0,0.3887507062581132,0.7520743612778804
-0.0089972494170069,1.3669819831848145,-0.1931042969226837,-0.3991273045539856,0.0148253962397575,0.0587346628308296,0.0,0.0,0.8282698715299299,0.7002250469128899
-0.0107434270903468,1.3582483530044556,-0.1769311726093292,-0.3881905972957611,0.0171120315790176,0.0457366853952407,0.0,0.0,-0.8298778854566402,0.9393761501449314
-0.0124671934172511,1.3488571643829346,-0.1732057780027389,-0.4173971712589264,0.0179312489926815,0.0163859445601701,0.0,0.0,0.8862458578576633,0.7036555016561551
-0.0140063287690281,1.3399230241775513,-0.1541313827037811,-0.3970738649368286,0.0181464292109012,0.0043038018047809,0.0,0.0,-0.4711575583983851,0.8516887744445089
-0.0155145647004246,1.3303405046463013,-0.1496906280517578,-0.4258762300014496,0.0170260295271873,-0.0224098451435565,0.0,0.0,0.8726076356197296,0.6110327873444409
-0.0170171745121479,1.3213386535644531,-0.1482126265764236,-0.4000589549541473,0.0150087298825383,-0.0403497330844402,0.0,0.0,0.2447138853559436,0.719064734756784
-0.018416691571474,1.3123525381088257,-0.1368973106145858,-0.3993528485298157,0.0119841443374753,-0.0604976788163185,0.0,0.0,0.4390663706345674,-0.880914722597768
-0.0198340415954589,1.3033955097198486,-0.1408377140760421,-0.398080825805664,0.0111026838421821,-0.0176306162029504,0.0,0.0,-0.3301681791351869,-0.8634533893810853
-0.021309757605195,1.2937827110290527,-0.1483573317527771,-0.4272414743900299,0.0118681266903877,0.0153103293851017,0.0,0.0,0.5245358778831886,0.8553666592905311
-0.0226482395082712,1.2839969396591189,-0.1333109736442566,-0.434928297996521,0.0113461706787347,-0.0104400292038917,0.0,0.0,0.3714013435644114,-0.7880770932037435
-0.0239151008427143,1.2745872735977173,-0.1282297968864441,-0.4182171821594238,0.0128722675144672,0.0305246412754058,0.0,0.0,-0.703392719921976,0.7371403328287784
-0.0250959396362304,1.2645108699798584,-0.1181775480508804,-0.4478387832641601,0.0129632847383618,0.0018205612432211,0.0,0.0,0.6656429635491505,-0.94385482088981
-0.0261820796877145,1.2550814151763916,-0.1111200898885726,-0.4191070795059204,0.0154424095526337,0.0495870932936668,0.0,0.0,0.82357449736519,-0.7348471615741412
-0.027130126953125,1.2456094026565552,-0.0994635075330734,-0.4210351109504699,0.0200571008026599,0.0923020392656326,0.0,0.0,-0.2908401467448946,0.921680188571351
-0.0279550552368164,1.2354896068572998,-0.0853072106838226,-0.4498127996921539,0.0228266175836324,0.0553954765200614,0.0,0.0,-0.7175229086771653,-0.785200992552593
-0.0288051608949899,1.2247079610824585,-0.089876465499401,-0.4792670309543609,0.0276428796350955,0.0963340103626251,0.0,0.0,0.2591695918100631,-0.6005542814672681
-0.0295596122741699,1.2141337394714355,-0.0819941163063049,-0.4701061844825744,0.0341240651905536,0.1296351701021194,0.0,0.0,0.1948850903955856,0.61439701087949
-0.0302088744938373,1.2033796310424805,-0.0705303773283958,-0.4780948460102081,0.0396677367389202,0.1108833998441696,0.0,0.0,-0.5112942194347463,0.6232293353279388
-0.0307342521846294,1.191969394683838,-0.0568778030574321,-0.5072427988052368,0.0439701490104198,0.0860556811094284,0.0,0.0,-0.2090562749658409,-0.6034350016050141
-0.031231690198183,1.1798908710479736,-0.0554238967597484,-0.5370008945465088,0.0495947115123271,0.1125013455748558,0.0,0.0,0.0574188790333849,0.867040220438897
-0.03171281889081,1.1677701473236084,-0.0522891171276569,-0.5388444662094116,0.0537339076399803,0.0827912837266922,0.0,0.0,-0.3747640919835755,0.674021851750983
-0.0320722572505474,1.1549757719039917,-0.0393628999590873,-0.568766176700592,0.0571084767580032,0.0674912855029106,0.0,0.0,-0.0294445594341714,-0.6750140265283564
-0.0323993675410747,1.1415221691131592,-0.0377283878624439,-0.5981369614601135,0.062066052109003,0.0991516560316085,0.0,0.0,-0.8174783946682673,0.6707558407279223
-0.032595157623291,1.1274205446243286,-0.0237877909094095,-0.626917839050293,0.0662224516272544,0.0831282213330268,0.0,0.0,-0.9788035172189626,-0.8861077641585459
-0.0327820777893066,1.1126590967178345,-0.0253016147762537,-0.6563705205917358,0.072766326367855,0.1308774650096893,0.0,0.0,0.6847552609618361,0.9139772031789888
-0.0328581817448139,1.0979846715927124,-0.0125893410295248,-0.6524451971054077,0.0776954963803291,0.0985836163163185,0.0,0.0,0.8533458239867064,0.936864380900798
-0.0328091606497764,1.084093689918518,0.0015364025020971,-0.6175574660301208,0.0810321345925331,0.066732719540596,0.0,0.0,-0.1143426012481811,-0.6226477747327741
-0.032709501683712,1.0695334672927856,0.0049444464966654,-0.6473998427391052,0.086005263030529,0.0994623526930809,0.0,0.0,0.9463389384684842,-0.8533639855931043
-0.0327557548880577,1.0557117462158203,-0.011367792263627,-0.6147080659866333,0.0926916450262069,0.1337275207042694,0.0,0.0,-0.2439828062686562,0.6898647502864623
-0.0326407440006732,1.0412318706512451,0.0057578636333346,-0.6439151167869568,0.0983809679746627,0.1137862429022789,0.0,0.0,-0.2729045749651015,0.7582774576811382
-0.0323495864868164,1.026103973388672,0.0247182585299015,-0.6726455092430115,0.1027452424168586,0.0872855857014656,0.0,0.0,0.1358152012164541,0.8110216992886562
-0.0319163314998149,1.0111113786697388,0.0403244122862815,-0.6665515303611755,0.1057249680161476,0.0595943331718444,0.0,0.0,-0.2567980728209522,0.8371200233382183
-0.0312996879220008,0.9954654574394226,0.0600469000637531,-0.6954863667488098,0.107333593070507,0.032172106206417,0.0,0.0,0.7221376055376745,-0.9402004194362032
-0.030675983056426,0.9803465604782104,0.0585764721035957,-0.6722328662872314,0.111101746559143,0.0753627270460128,0.0,0.0,-0.1872512775346091,-0.9864560688965228
-0.0300112720578908,0.9645658731460572,0.0603492558002471,-0.7018255591392517,0.1171823441982269,0.121611937880516,0.0,0.0,0.1359137609260485,0.8869785914548131
-0.0291769988834857,0.9487668871879578,0.0788722336292266,-0.7025484442710876,0.121717631816864,0.0907056629657745,0.0,0.0,0.0003857088928105,0.6376879978720654
-0.0282951351255178,0.933012068271637,0.0847587883472442,-0.7004960179328918,0.1251210272312164,0.0680677741765976,0.0,0.0,0.4375391006469726,0.96626877784729
-0.0271422378718853,0.9173114895820618,0.1134849041700363,-0.6979547142982483,0.1269125193357467,0.0358297266066074,0.0,0.0,0.3379473686218261,0.7095766067504883
-0.0257469173520803,0.9013494253158568,0.1388088762760162,-0.7094862461090088,0.1276394724845886,0.0145391747355461,0.0,0.0,-0.3217130899429321,0.6631300449371338
-0.0241580959409475,0.8847387433052063,0.1594844758510589,-0.7381995320320129,0.1270362883806228,-0.0120636383071541,0.0,0.0,-0.0686514377593994,-0.5514518022537231
-0.0224810596555471,0.8674537539482117,0.1669251024723053,-0.7682861089706421,0.1278218924999237,0.0157120414078235,0.0,0.0,-0.1276346445083618,-0.4025288820266723
-0.0206687934696674,0.8495099544525146,0.1802280247211456,-0.7975905537605286,0.1288160979747772,0.0198841020464897,0.0,0.0,-0.1579415202140808,-0.5816022753715515
-0.0187609679996967,0.8308961391448975,0.1885195225477218,-0.8274799585342407,0.1310625821352005,0.0449298396706581,0.0,0.0,-0.053556203842163,0.1925930976867675
-0.0167160034179687,0.8116232752799988,0.2020313441753387,-0.8567848801612854,0.1335143446922302,0.0490348301827907,0.0,0.0,-0.1385341882705688,-0.1476863026618957
-0.0145330429077148,0.7916917204856873,0.2156347930431366,-0.8860897421836853,0.1361696273088455,0.0531055144965648,0.0,0.0,0.4878947734832763,-0.7365889549255371
-0.0123517038300633,0.771763801574707,0.2138231098651886,-0.886082649230957,0.1404630243778228,0.0858683139085769,0.0,0.0,0.3827880620956421,-0.3038079738616943
-0.0099787712097167,0.7519122958183289,0.2322281599044799,-0.882770836353302,0.1455117166042328,0.1009737998247146,0.0,0.0,0.8163615465164185,-0.1991954445838928
-0.0076457024551928,0.7325906753540039,0.2283515036106109,-0.8592360019683838,0.1504656225442886,0.0990776941180229,0.0,0.0,-0.089835524559021,-0.4892498850822449
-0.0051715848967432,0.7126103043556213,0.2422496378421783,-0.8885427713394165,0.1556156724691391,0.1030008643865585,0.0,0.0,0.3160655498504638,-0.3929405808448791
-0.0026519775856286,0.6929137110710144,0.2465992420911789,-0.8759744763374329,0.1609715223312378,0.1071172729134559,0.0,0.0,0.5300302505493164,-0.1780712008476257
7.333755638683215e-05,0.6732603907585144,0.266354888677597,-0.8741627931594849,0.1671576201915741,0.1237220168113708,0.0,0.0,0.6928393840789795,-0.1234629154205322
0.0027642250061035,0.653638482093811,0.2631780505180359,-0.8727671504020691,0.1730804592370987,0.1184570789337158,0.0,0.0,0.8442277908325195,-0.1705143451690673
0.0055481912568211,0.6346997618675232,0.2718121111392975,-0.8425018787384033,0.1796760112047195,0.1319106072187423,0.0,0.0,0.8889768123626709,0.2848309278488159
0.008492755703628,0.6162832379341125,0.2869685292243957,-0.8194373250007629,0.1871861517429351,0.1502027213573455,0.0,0.0,0.4195528030395508,-0.3896908164024353
0.0115120885893702,0.5982691645622253,0.2939896881580353,-0.8016495108604431,0.195175290107727,0.1597824543714523,0.0,0.0,-0.3307781219482422,-0.3158409595489502
0.0146750453859567,0.5795971155166626,0.3081910312175751,-0.8309599161148071,0.2033436447381973,0.163366824388504,0.0,0.0,0.3495683670043945,-0.0456781387329101
0.0179619789123535,0.5607241988182068,0.3202144205570221,-0.8399828672409058,0.2118815332651138,0.1707582026720047,0.0,0.0,0.9346789121627808,-0.6697395443916321
0.0210444442927837,0.542344868183136,0.2986169159412384,-0.8182650804519653,0.2216181606054306,0.194732517004013,0.0,0.0,0.707122802734375,0.6882444620132446
0.0243424419313669,0.5241519808769226,0.3210705518722534,-0.8099089860916138,0.2304453998804092,0.1765450239181518,0.0,0.0,0.7051990032196045,-0.273272693157196
0.0276638027280569,0.5062335133552551,0.3231638073921203,-0.7978066802024841,0.239550769329071,0.1821077466011047,0.0,0.0,0.9650609493255616,0.148118257522583
0.0310255046933889,0.4883553087711334,0.3270109295845032,-0.7961009740829468,0.2488607764244079,0.1862005293369293,0.0,0.0,0.940035343170166,0.1940746307373047
0.034219741821289,0.47077476978302,0.3107965886592865,-0.7828458547592163,0.2576556205749511,0.1758974641561508,0.0,0.0,0.8612006902694702,0.6080846786499023
0.0373829826712608,0.4539696872234344,0.3087030947208404,-0.7482459545135498,0.2654348015785217,0.1555834114551544,0.0,0.0,0.8952229022979736,-0.122011661529541
0.0406934730708599,0.4370293617248535,0.3228775858879089,-0.7544047236442566,0.273797333240509,0.1672504097223281,0.0,0.0,0.961618185043335,-0.0907073616981506
0.0439051613211631,0.420907974243164,0.3127325177192688,-0.7181076407432556,0.2824507355690002,0.1730677634477615,0.0,0.0,0.9583890438079834,0.3176494836807251
0.0469975471496582,0.4048904180526733,0.3011943697929382,-0.7134698033332825,0.2907248735427856,0.1654829233884811,0.0,0.0,0.528501033782959,0.4825963973999023
0.0499730110168457,0.3890785276889801,0.2897849977016449,-0.7043169140815735,0.2987367808818817,0.1602377295494079,0.0,0.0,0.9661853313446044,0.6083575487136841
0.052957534790039,0.3737099170684814,0.2916670143604278,-0.6844569444656372,0.3057403862476349,0.1400720775127411,0.0,0.0,0.929354190826416,0.796340823173523
0.0556905753910541,0.3590565323829651,0.2683449387550354,-0.6523162722587585,0.3108815252780914,0.1028225645422935,0.0,0.0,0.7979116439819336,0.3629103899002075
0.0584511756896972,0.3446787595748901,0.2706438899040222,-0.640181839466095,0.3165026307106018,0.1124219447374343,0.0,0.0,0.930673122406006,0.8406064510345459
0.0612361915409565,0.3302985429763794,0.2747257351875305,-0.6399545669555664,0.3204323649406433,0.0785947740077972,0.0,0.0,0.8919825553894043,-0.3248860836029053
0.0641210526227951,0.3158263266086578,0.2842693626880646,-0.6441475749015808,0.3248164355754852,0.0876811295747757,0.0,0.0,0.9131969213485718,-0.3926569819450378
0.0669885650277137,0.3012366890907287,0.282618910074234,-0.6493613123893738,0.3291166424751282,0.0860040038824081,0.0,0.0,0.9726192951202391,-0.7343813180923462
-999.0,0.2873058021068573,0.2581368684768677,-0.6204376816749573,0.3349610567092895,0.1168881431221962,0.0,0.0,0.932557225227356,0.3363105058670044
0.0721798911690712,0.2741143405437469,0.2493363171815872,-0.5877076983451843,0.3413053452968597,0.1268857419490814,0.0,0.0,0.9232473373413086,0.4203301668167114
0.0744338035583496,0.2615436315536499,0.2198611050844192,-0.5600206255912781,0.3471023142337799,0.1159391552209854,0.0,0.0,0.9270251989364624,0.7416098117828369
0.0766002684831619,0.2487982809543609,0.2128688991069793,-0.5673767328262329,0.3510634899139404,0.0792233794927597,0.0,0.0,0.8998426198959351,-0.3376990556716919
0.0786379799246788,0.2366982251405716,0.1997800171375274,-0.5387616753578186,0.3552753329277038,0.0842366144061088,0.0,0.0,0.8833839893341064,0.595505952835083
0.0805157646536827,0.2248218357563018,0.1852241456508636,,0.3579614758491516,0.0537230372428894,0.0,0.0,0.6839499473571777,0.0363174676895141
0.0822383910417556,0.2132276147603988,0.1699490845203399,-0.5158809423446655,0.3604029715061188,0.0488296896219253,0.0,0.0,0.7370648384094238,0.618605375289917
0.0838723182678222,0.2020275741815567,0.1623266190290451,-0.4980513453483581,0.3615393340587616,0.0227270331233739,0.0,0.0,0.8384368419647217,0.514909029006958
0.0855493545532226,0.1911526024341583,0.1673544943332672,-0.4834161698818207,0.3619037568569183,0.007288291119039,0.0,0.0,0.8284735679626465,0.2889854907989502
0.0872538536787033,0.1801636964082718,0.170011967420578,-0.4885071814060211,0.3623678684234619,0.0092824874445796,0.0,0.0,0.71217942237854,-0.0963188409805297
0.0890366584062576,0.1691517680883407,0.1774483025074005,-0.4896304309368133,0.3632429242134094,0.0175010170787572,0.0,0.0,0.7693263292312622,0.6806879043579102
0.0909470543265342,0.1584571152925491,0.1912131011486053,-0.4752772450447082,0.3630605041980743,-0.0036486566532403,0.0,0.0,0.7008904218673706,-0.5824093222618103
0.0929499641060829,0.1477257162332534,0.1990268677473068,-0.4772734045982361,0.3644089102745056,0.0269673019647598,0.0,0.0,0.863829493522644,-0.5917500853538513
0.0947335213422775,0.1374981254339218,0.1760142743587494,-0.4551574289798736,0.366879791021347,0.0494174659252166,0.0,0.0,0.6679513454437256,0.120429515838623
0.0964037925004959,0.1276999861001968,0.1646373569965362,-0.4360883831977844,0.3694128692150116,0.0506609082221984,0.0,0.0,0.8097646236419678,0.4136005640029907
0.0980687141418457,0.1183382123708725,0.1635899543762207,-0.4168296456336975,0.3724827766418457,0.0613987520337104,0.0,0.0,0.5564538240432739,0.2949408292770386
0.0998400673270225,0.1087983474135398,0.1739318668842315,-0.424835592508316,0.3758864998817444,0.0680745393037796,0.0,0.0,0.6429159641265869,0.5057600736618042
0.101539708673954,0.0992951020598411,0.1679936349391937,-0.422887772321701,0.3779825270175934,0.0419197455048561,0.0,0.0,0.8582479953765869,0.0701993703842163
0.1030971556901931,0.0905375778675079,0.1534700691699981,-0.3898251950740814,0.3803906142711639,0.0481616780161857,0.0,0.0,0.8060867786407471,-0.1316968202590942
0.1045257598161697,0.0819724649190902,0.1408349573612213,-0.3812111914157867,0.3825418353080749,0.0430244132876396,0.0,0.0,0.7874140739440918,0.5289533138275146
0.1056618690490722,0.0738925039768219,0.1131327152252197,-0.359235018491745,0.3830495774745941,0.0101547883823513,0.0,0.0,0.8455458879470825,0.265045166015625
0.1067195907235145,0.0662916302680969,0.1050186976790428,-0.3380191028118133,0.3838476538658142,0.0159616023302078,0.0,0.0,0.8298931121826172,0.5097742080688477
0.1075650230050087,0.0591769069433212,0.0851110070943832,-0.3160532712936401,0.3832399249076843,-0.0121548036113381,0.0,0.0,0.6927216053009033,0.7383730411529541
0.1082091331481933,0.0524548627436161,0.0667629167437553,-0.2981305718421936,0.3807417452335357,-0.0499637313187122,0.0,0.0,0.968836784362793,0.7178728580474854
0.1087733283638954,0.0459104888141155,0.0604068860411644,-0.2898020148277282,0.3765038549900055,-0.0847579315304756,0.0,0.0,0.9734363555908204,0.5839968919754028
0.1090932860970497,0.0396523587405681,0.0376993641257286,-0.2766469419002533,0.3704554140567779,-0.1209690421819686,0.0,0.0,0.7676974534988403,0.7657349109649658
0.109221838414669,0.0346407033503055,0.0372397415339946,-0.2166054397821426,0.344894140958786,-0.5110253095626831,0.0,1.0,0.9974238872528076,0.964940309524536
0.1091571822762489,0.0311943143606185,0.0366862714290618,-0.1434913277626037,0.2999039590358734,-0.8998444676399231,0.0,1.0,0.9881515502929688,-0.3938407897949219
0.1089712157845497,0.0283082574605941,0.0354529879987239,-0.1181118935346603,0.2444008588790893,-1.110142707824707,0.0,1.0,0.9426333904266356,-0.864685595035553
0.1087110489606857,0.0261225793510675,0.0250734146684408,-0.0894848108291626,0.1927155256271362,-1.0337073802947998,0.0,0.0,-0.9574808478355408,-0.277050256729126
0.1085574179887771,0.0233121253550052,0.0364467687904834,-0.1190021261572837,0.1408253312110901,-1.0378057956695557,0.0,0.0,-0.8927937746047974,-0.6441599726676941
0.1084698662161827,0.0198761075735092,0.0426755174994468,-0.1486520916223526,0.0897016823291778,-1.0224745273590088,0.0,0.0,-0.4743849039077759,-0.9869240522384644
0.1084185615181922,0.0158050153404474,0.0450260005891323,-0.1786777377128601,0.0400763638317585,-0.9925079345703124,0.0,0.0,0.9418902397155762,-0.9994207620620728
0.1083428412675857,0.0125491712242364,0.0409240648150444,-0.1441041529178619,-0.007804091554135,-0.9576103091239928,0.0,0.0,0.4803130626678467,-0.9987483620643616
0.108357049524784,0.0097308130934834,0.0480758026242256,-0.1261461079120636,-0.0538794472813606,-0.9215083122253418,0.0,0.0,0.5460013151168823,-0.9981379508972168
0.1085002869367599,0.0069174980744719,0.0590177401900291,-0.1272380650043487,-0.0981243103742599,-0.8848983645439148,1.0,0.0,0.9056847095489502,-0.9197150468826294
0.1085598021745681,0.0052949045784771,0.0315934307873249,-0.0743823051452636,-0.1220957338809967,-0.4774475991725921,1.0,0.0,0.7345800399780273,-0.7888220548629761
0.1086104363203048,0.0045337653718888,0.0087687103077769,-0.034146212041378,-0.125737190246582,-0.0727738738059997,1.0,0.0,-0.3867290019989013,0.1485991477966308
0.1087677925825119,0.0037565685342997,0.0016053200233727,-0.0334215611219406,-0.1116521134972572,0.2817544937133789,1.0,0.0,-0.9229921102523804,0.4814081192016601
0.1089983955025672,0.0027738427743315,-0.0035540130920708,-0.0419061966240406,-0.0852073282003402,0.5289444923400879,1.0,0.0,-0.8935421109199524,0.4788604974746704
0.1092617064714431,0.001358029898256,-0.0062645049765706,-0.0613958910107612,-0.052905149757862,0.6460980772972107,1.0,0.0,-0.7914831638336182,0.4120843410491943
0.1095266342163086,-0.0006654286407865,-0.0070947357453405,-0.0890876278281211,-0.0196816567331552,0.6645228266716003,1.0,0.0,-0.1797337532043457,0.1399954557418823
0.1097796410322189,-0.0033524655736982,-0.0076106139458715,-0.1193167194724083,0.0128184482455253,0.6500297784805298,1.0,1.0,0.7371969223022461,-0.4757794141769409
0.1100180596113205,-0.0055490159429609,0.0066379383206367,-0.0981565937399864,0.0284295659512281,0.310472309589386,1.0,1.0,0.1365460157394409,0.8783857822418213
0.1102937683463096,-0.0068750288337469,0.0257491916418075,-0.0589795932173728,0.030234932899475,0.036107413470745,1.0,1.0,-0.5095938444137573,0.012513518333435
