x_pos,y_pos,x_vel,y_vel,angle,ang_vel,leg_1,leg_2,main_booster,lat_booster
-0.001618766807951,1.4032795429229736,-0.1639790534973144,-0.3395871818065643,0.001877318136394,0.0370407663285732,0.0,0.0,0.095661342243936,0.3072475725466664
-0.0032993317581713,1.3957759141921997,-0.1701202690601349,-0.3334979712963104,0.0039143809117376,0.0407456569373607,0.0,0.0,-0.5867192739316427,-0.5615266070502539
-0.0051095960661768,1.387922286987305,-0.1839933097362518,-0.3490548729896545,0.0068563176319003,0.0588441975414752,0.0,0.0,-0.6137478504688694,0.6970791075751702
-0.0069706914946436,1.379721999168396,-0.1880041807889938,-0.3644694685935974,0.0087312739342451,0.037502322345972,0.0,0.0,-0.8784789009901692,-0.7610619265448458
-0.0089733125641942,1.371178388595581,-0.2034036666154861,-0.3797349631786346,0.0118309622630476,0.0619995109736919,0.0,0.0,-0.5580744096659569,-0.7148456516378914
-0.0111137386411428,1.362288236618042,-0.2183132916688919,-0.3951612114906311,0.0160624552518129,0.0846375748515129,0.0,0.0,-0.0681952386481941,0.8052514218120096
-0.0132867814972996,1.3530545234680176,-0.2200805246829986,-0.4104171693325043,0.018797842785716,0.0547127798199653,0.0,0.0,0.8954796940203422,0.3846639362602463
-0.015395832248032,1.344594120979309,-0.2145261466503143,-0.3760743141174316,0.0223893690854311,0.0718368738889694,0.0,0.0,-0.0775884986423578,-0.927523316934004
-0.0176722519099712,1.3357961177825928,-0.2332047671079635,-0.3911128342151642,0.0278907734900712,0.1100379973649978,0.0,0.0,-0.1712058923804376,0.2024077224559067
-0.0200409889221191,1.3266535997390747,-0.2424744367599487,-0.4064477384090423,0.0334285013377666,0.1107648238539695,0.0,0.0,-0.4765573322638661,-0.3007529824675388
-0.0225014686584472,1.317166447639465,-0.2516821026802063,-0.4217861890792846,0.0390028096735477,0.1114964112639427,0.0,0.0,-0.0352930122693735,0.03224701406009
-0.0250529292970895,1.3073346614837646,-0.2608225643634796,-0.4371255338191986,0.0446126125752925,0.1122061014175415,0.0,0.0,0.1231202008315066,0.7110038941848629
-0.0275595672428607,1.2978849411010742,-0.2550498247146606,-0.4201299846172333,0.0489601716399192,0.0869593322277069,0.0,0.0,0.6897384032911853,0.1675188704743301
-0.0301029197871685,1.2886395454406738,-0.2590908706188202,-0.4110686182975769,0.0536754690110683,0.0943145304918289,0.0,0.0,-0.8244139923387153,0.0555993574020625
-0.0327347740530967,1.2790493965148926,-0.2679865956306457,-0.4264093935489654,0.0584234781563282,0.0949686095118522,0.0,0.0,-0.5955258950412865,0.8559120271232876
-0.0353742614388465,1.2691112756729126,-0.266750156879425,-0.4418027698993683,0.0611973106861114,0.0554818026721477,0.0,0.0,-0.5601417622530267,0.3488384947261395
-0.0381003394722938,1.2588281631469729,-0.2754374146461487,-0.4571408331394195,0.0640035048127174,0.056129265576601,0.0,0.0,0.896137996780954,-0.5431572897369699
-0.040808580815792,1.248852014541626,-0.2752986550331116,-0.4435852766036987,0.0684314370155334,0.0885666385293006,0.0,0.0,-0.0146223811769525,0.1686368398833869
-0.0436011329293251,1.2385309934616089,-0.2837502062320709,-0.4589296877384186,0.0728874057531356,0.0891276448965072,0.0,0.0,-0.0226039341127777,-0.7955738583128789
-0.0465476028621196,1.2278568744659424,-0.3009791672229767,-0.4747179746627807,0.0791656374931335,0.1255759298801422,0.0,0.0,0.0701862261197741,0.985126316054758
-0.0494380965828895,1.217594861984253,-0.2933876812458038,-0.4563331604003906,0.0834776610136032,0.0862480551004409,0.0,0.0,0.7290172204271443,-0.5232777775899782
-0.0524747855961322,1.20767343044281,-0.3091367483139038,-0.4412639737129211,0.0888950377702713,0.108357049524784,0.0,0.0,-0.1293814895241902,0.6898360188207334
-0.0555234923958778,1.197415113449097,-0.3086703717708587,-0.4561571180820465,0.0926654487848281,0.0754151791334152,0.0,0.0,0.69536418961007,0.0863695887848912
-0.0586066246032714,1.1873003244400024,-0.3124573826789856,-0.449808269739151,0.0967915877699852,0.0825300365686416,0.0,0.0,0.1962607789916917,0.1182485773428978
-0.0619111061096191,1.1775213479995728,-0.3341345191001892,-0.4348612129688263,0.1004604920744896,0.0733843520283699,0.0,0.0,-0.0379256861605012,0.3480913642080082
-0.0652856826782226,1.167376160621643,-0.3411803543567657,-0.4511501491069793,0.1041484549641609,0.0737592354416847,0.0,0.0,-0.0826445255678445,-0.7466410631281037
-0.0687882453203201,1.1568818092346191,-0.3554739654064178,-0.4667910933494568,0.1093304455280304,0.1036397963762283,0.0,0.0,-0.6541213355227293,0.4962914668138988
-0.0723573714494705,1.146042823791504,-0.3621432483196258,-0.4821285009384155,0.1145260632038116,0.1039124503731727,0.0,0.0,-0.3250099642294621,0.8250493126065008
-0.0759400352835655,1.1348745822906494,-0.3622030019760132,-0.4966759979724884,0.1184400990605354,0.0782807469367981,0.0,0.0,0.223237958267624,0.6650818391023695
-0.0795908942818641,1.1239029169082642,-0.3676684498786926,-0.4878392219543457,0.1210100427269935,0.0513988509774208,0.0,0.0,-0.6851233534532535,0.4380085404183126
-0.0832991600036621,1.1125861406326294,-0.3734195828437805,-0.503174901008606,0.1235849633812904,0.0514981262385845,0.0,0.0,-0.9109656810760498,0.998854398727417
-0.0869926437735557,1.1009315252304075,-0.3702020347118377,-0.518057644367218,0.1244276463985443,0.01685356721282,0.0,0.0,-0.8990541696548462,0.990084171295166
-0.0906703025102615,1.088953733444214,-0.36689093708992,-0.5322805643081665,0.123558908700943,-0.0173745080828666,0.0,0.0,-0.8376476764678955,0.9985570907592772
-0.0943235382437706,1.076634645462036,-0.3626565635204315,-0.5472872853279114,0.1209068521857261,-0.0530410706996917,0.0,0.0,-0.8614784479141235,0.9945948123931884
-0.0979390144348144,1.0639877319335938,-0.356828361749649,-0.5617157220840454,0.1162066683173179,-0.0940035060048103,0.0,0.0,-0.8396883606910706,0.9903886318206788
-0.1015131026506424,1.0510174036026,-0.3506121635437011,-0.5759415030479431,0.1094555556774139,-0.1350224018096923,0.0,0.0,-0.8682334423065186,0.9933011531829834
-0.1050456017255783,1.037710189819336,-0.3445349335670471,-0.5908178091049194,0.1007960215210914,-0.1731908321380615,0.0,0.0,-0.9232780933380128,0.9605395793914796
-0.1085272803902626,1.0240787267684937,-0.3373599946498871,-0.6051517128944397,0.0900784954428672,-0.2143502980470657,0.0,0.0,-0.9167178869247437,0.9840352535247804
-0.1119612678885459,1.0101248025894165,-0.3307075202465057,-0.6194644570350647,0.0775017812848091,-0.2515341639518738,0.0,0.0,-0.9658079743385316,0.9270150661468506
-0.1153380423784256,0.9958381056785583,-0.3229831159114837,-0.6342628002166748,0.0629651919007301,-0.2907317876815796,0.0,0.0,-0.977348566055298,0.9509973526000975
-0.1186674088239669,0.981223464012146,-0.3166291117668152,-0.6489337682723999,0.046838954091072,-0.3225250542163849,0.0,0.0,-0.9612504243850708,0.94590163230896
-0.1219156235456466,0.9662720561027528,-0.3061637878417969,-0.6640322208404541,0.0284110531210899,-0.3685580790042877,0.0,0.0,-0.8089903593063354,0.9552782773971558
-0.1250796318054199,0.9509736895561218,-0.2954539954662323,-0.6796562075614929,0.0077397213317453,-0.4134274125099182,0.0,0.0,-0.5769690275192261,0.8665475845336914
-0.128161996603012,0.93533593416214,-0.2852249443531036,-0.6950540542602539,-0.014980643056333,-0.4544074535369873,0.0,0.0,-0.8334506154060364,0.2852075099945068
-0.1312375962734222,0.9193598628044128,-0.2844945192337036,-0.7104323506355286,-0.0377463847398757,-0.4553149342536926,0.0,0.0,-0.4918574094772339,0.0086010694503784
-0.1343009024858474,0.9030457139015198,-0.2832432389259338,-0.7258109450340271,-0.0605612732470035,-0.4562980532646179,0.0,0.0,-0.2158693671226501,-0.0131271481513977
-0.1373468339443206,0.8863935470581055,-0.2814782559871673,-0.7411897778511047,-0.0834289938211441,-0.4573549628257751,0.0,0.0,0.1974554061889648,-0.3884783983230591
-0.1404009759426117,0.8703169226646423,-0.2819092869758606,-0.7159900665283203,-0.106730006635189,-0.466020405292511,0.0,0.0,-0.0552387237548828,-0.1207925677299499
-0.1434275656938552,0.8539025187492371,-0.2791498899459839,-0.7313709855079651,-0.1300907880067825,-0.4672158658504486,0.0,0.0,0.5830070972442627,-0.5026904940605164
-0.1464195251464843,0.8378856182098389,-0.2766434550285339,-0.7139866352081299,-0.1525697559118271,-0.4495796263217926,0.0,0.0,0.7544515132904053,-0.7861144542694092
-0.1491785049438476,0.8224046230316162,-0.2552603185176849,-0.6902844905853271,-0.1732123494148254,-0.4128521978855133,0.0,0.0,0.0221866369247436,-0.7823014855384827
-0.1519187986850738,0.8072894215583801,-0.2549363672733307,-0.674127459526062,-0.1923680454492569,-0.3831139206886291,0.0,0.0,0.4195501804351806,-0.803632378578186
-0.154499813914299,0.7923797965049744,-0.2407544553279876,-0.6650019288063049,-0.2098437398672104,-0.3495140671730041,0.0,0.0,-0.0115665197372436,-0.8786851167678833
-0.157097727060318,0.777158260345459,-0.2441730052232742,-0.6788052916526794,-0.2256301045417785,-0.3157270848751068,0.0,0.0,0.4396039247512817,-0.8765299916267395
-0.159472182393074,0.7621867060661316,-0.2237002402544021,-0.6675687432289124,-0.2395663559436798,-0.2787254154682159,0.0,0.0,0.1990673542022705,-0.6078503131866455
-0.1618306189775467,0.7474128007888794,-0.2231461256742477,-0.6587384343147278,-0.2524833381175995,-0.2583395838737488,0.0,0.0,-0.4359723329544067,-0.995024561882019
-0.1641916334629058,0.7323294878005981,-0.2250369787216186,-0.672305703163147,-0.2637759447097778,-0.2258522808551788,0.0,0.0,0.7185558080673218,-0.9000627398490906
-0.1662203818559646,0.7178875803947449,-0.1937755048274994,-0.6435239911079407,-0.2730794847011566,-0.1860704571008682,0.0,0.0,0.5685027837753296,-0.9794678688049316
-0.1679673194885254,0.7042392492294312,-0.1675654947757721,-0.6079403758049011,-0.2803907692432403,-0.1462258100509643,0.0,0.0,0.8800997734069824,-0.9907524585723876
-0.1695643365383148,0.691616415977478,-0.1543358862400055,-0.5620572566986084,-0.2859158813953399,-0.1105021685361862,0.0,0.0,0.908104419708252,-0.9872199892997742
-0.1709831207990646,0.6792615056037903,-0.138467401266098,-0.5497801303863525,-0.2894284129142761,-0.0702503770589828,0.0,0.0,0.9605400562286376,-0.9872182011604308
-0.1722910851240158,0.6678532958030701,-0.1290449202060699,-0.5073826313018799,-0.2912344932556152,-0.0361217260360717,0.0,0.0,0.9447433948516846,-0.9864291548728944
-0.1732692718505859,0.6569366455078125,-0.0981811434030532,-0.4851124882698059,-0.2908657193183899,0.0073753683827817,0.0,0.0,0.9351543188095092,-0.9769352674484252
-0.1740084588527679,0.6467282176017761,-0.0761594921350479,-0.45325568318367,-0.2885496318340301,0.0463219285011291,0.0,0.0,0.9865857362747192,-0.9303744435310364
-0.1745928823947906,0.6368889212608337,-0.0624601319432258,-0.4365217983722687,-0.2844212353229522,0.0825679153203964,0.0,0.0,0.9146413803100586,-0.9659268260002136
-0.1751298904418945,0.6277905702590942,-0.0592915415763855,-0.4032878875732422,-0.2786820232868194,0.1147846952080726,0.0,0.0,0.5681285858154297,-0.830186665058136
-0.1754002571105957,0.6195465326309204,-0.0342277139425277,-0.3650485277175903,-0.2713057100772857,0.1475264132022857,0.0,0.0,-0.6139125823974609,-0.5470406413078308
-0.1756238043308258,0.6109673380851746,-0.0304066780954599,-0.3798314034938812,-0.2630684971809387,0.1647442132234573,0.0,0.0,-0.5980849862098694,-0.3330363035202026
-0.175762265920639,0.6020442843437195,-0.0218190178275108,-0.3951738774776459,-0.2549217045307159,0.1629357635974884,0.0,0.0,-0.9497915506362916,0.0744718313217163
-0.1758143454790115,0.5927771925926208,-0.0131131988018751,-0.4105162322521209,-0.2468652427196502,0.161129355430603,0.0,0.0,-0.3966459035873413,0.3218748569488525
-0.1757789552211761,0.583166241645813,-0.0042993538081645,-0.4258584082126617,-0.2388988435268402,0.1593277156352996,0.0,0.0,-0.8007879853248596,0.0784567594528198
-0.1756551712751388,0.5732113122940063,0.0046131950803101,-0.4412003755569458,-0.2310221940279007,0.1575333774089813,0.0,0.0,-0.3720021247863769,0.1348044872283935
-0.1754421293735504,0.5629124045372009,0.0136158866807818,-0.4565421938896179,-0.2232347577810287,0.155749037861824,0.0,0.0,-0.8725336790084839,0.4919077157974243
-0.1751390397548675,0.5522695779800415,0.0227008685469627,-0.4718838334083557,-0.215535894036293,0.1539770364761352,0.0,0.0,-0.9761404991149902,0.2710599899291992
-0.1747450828552246,0.5412826538085938,0.0318609476089477,-0.4872253537178039,-0.2079249024391174,0.1522198617458343,0.0,0.0,-0.6081629991531372,0.491580605506897
-0.1742594689130783,0.5299517512321472,0.0410895347595214,-0.5025666356086731,-0.2004009187221527,0.1504799127578735,0.0,0.0,-0.5565878748893738,0.5235871076583862
-0.1736440658569336,0.5182598233222961,0.0551407523453235,-0.5187892317771912,-0.1939635574817657,0.1287473738193512,0.0,0.0,-0.6254129409790039,0.5290801525115967
-0.1728949546813964,0.5062163472175598,0.0696351081132888,-0.5345863103866577,-0.1886556148529052,0.106158971786499,0.0,0.0,0.1206469535827636,-0.6650148630142212
-0.1719392836093902,0.4946477711200714,0.0889549702405929,-0.5133314728736877,-0.1820186227560043,0.1327401101589203,0.0,0.0,-0.9807169437408448,0.2081570625305175
-0.1708899438381195,0.4827349781990051,0.0984023883938789,-0.5286714434623718,-0.1754640042781829,0.1310921162366867,0.0,0.0,-0.661443293094635,-0.0418614745140075
-0.1697463989257812,0.4704778492450714,0.1078928485512733,-0.5440111756324768,-0.1689903736114502,0.1294722408056259,0.0,0.0,-0.7924282550811768,0.2602009773254394
-0.1685082465410232,0.4578764140605926,0.1174224987626075,-0.559350848197937,-0.1625962853431701,0.1278824508190155,0.0,0.0,-0.2948103547096252,-0.1467269659042358
-0.1671752035617828,0.4449306428432464,0.1269877851009369,-0.5746904015541077,-0.156280055642128,0.1263245791196823,0.0,0.0,0.4002727270126343,-0.2495647668838501
-0.1657032966613769,0.4325025081634521,0.1411543786525726,-0.5517380833625793,-0.1502549946308136,0.1205012798309326,0.0,0.0,-0.5104342103004456,-0.7608290314674377
-0.164196103811264,0.4197477102279663,0.14320108294487,-0.5661376118659973,-0.1427501440048217,0.1500971615314483,0.0,0.0,0.1707563400268554,-0.1255970597267151
-0.1624732017517089,0.4072477519512176,0.1645508706569671,-0.5548309087753296,-0.1350321173667907,0.1543605178594589,0.0,0.0,-0.8090099692344666,-0.3859251737594604
-0.160654067993164,0.3944036960601806,0.1742282211780548,-0.5701717734336853,-0.127384752035141,0.1529468894004821,0.0,0.0,-0.1001157760620117,-0.6175241470336914
-0.1587800979614257,0.3812188804149627,0.1787436604499817,-0.5852726101875305,-0.1187649294734001,0.1723963767290115,0.0,0.0,0.1348414421081543,-0.6688058376312256
-0.156702235341072,0.3682635128498077,0.1976908147335052,-0.575021505355835,-0.1087356954813003,0.2005842924118042,0.0,0.0,0.1167424917221069,-0.690607488155365
-0.1544469892978668,0.3553484976291656,0.2139712572097778,-0.5732008218765259,-0.0972786545753479,0.2291410267353058,0.0,0.0,-0.3400006294250488,-0.2389068007469177
-0.1520948410034179,0.3420901596546173,0.2237223088741302,-0.5885471701622009,-0.0858840569853782,0.2278920859098434,0.0,0.0,0.4869577884674072,-0.6214529275894165
-0.1496053636074066,0.3295162618160248,0.2361850291490554,-0.5581555962562561,-0.073244959115982,0.2527820765972137,0.0,0.0,-0.3842688202857971,0.1711719036102295
-0.1470185220241546,0.3165994584560394,0.2459622323513031,-0.5735043883323669,-0.0606638863682746,0.251621663570404,0.0,0.0,0.1184852123260498,-0.2553919553756714
-0.1442527770996093,0.3036644756793976,0.2635868191719055,-0.5744100213050842,-0.0478227473795414,0.2568227648735046,0.0,0.0,0.4198007583618164,-0.4042140245437622
-0.1414136886596679,0.2910455763339996,0.2711787521839142,-0.5604802370071411,-0.0352438949048519,0.2515769600868225,0.0,0.0,0.5642482042312622,-0.6151103377342224
-0.1384097039699554,0.2793140411376953,0.2862700819969177,-0.5211330056190491,-0.0212930329144001,0.2790173888206482,0.0,0.0,0.1198973655700683,-0.5854836702346802
-0.1353636682033538,0.2678205966949463,0.2893615067005157,-0.5106731653213501,-0.0062545635737478,0.3007693886756897,0.0,0.0,-0.0167770981788635,-0.3189297914505005
-0.1322200745344162,0.2559851109981537,0.2991793155670166,-0.526027262210846,0.0087375482544302,0.2998422980308532,0.0,0.0,0.1244094371795654,-0.1448484659194946
-0.1289235055446624,0.2445206940174102,0.31423419713974,-0.5096866488456726,0.0239596683531999,0.3044424951076507,0.0,0.0,0.1590638160705566,0.0573352575302124
-0.1255792677402496,0.2335024029016494,0.3192215859889984,-0.4900178909301758,0.0389664880931377,0.3001364767551422,0.0,0.0,0.2581453323364258,-0.5289348363876343
-0.1222701072692871,0.2229940742254257,0.314850389957428,-0.4675278961658478,0.054838977754116,0.3174498677253723,0.0,0.0,0.1280578374862671,0.0019891262054443
-0.118898868560791,0.2126519083976745,0.3212000131607055,-0.4603097140789032,0.0705961510539054,0.3151433169841766,0.0,0.0,-0.2379141449928283,0.239392876625061
-0.1154297813773155,0.2019679099321365,0.3310282528400421,-0.475665420293808,0.0863189697265625,0.3144563734531402,0.0,0.0,0.8504612445831299,0.1056972742080688
-0.1120813339948654,0.1917969137430191,0.3197949826717376,-0.4529813528060913,0.1012302264571189,0.2982251644134521,0.0,0.0,0.2635399103164673,0.41444993019104
-0.1086101531982421,0.1821162104606628,0.3317487835884094,-0.4313625395298004,0.1164865270256996,0.3051263988018036,0.0,0.0,0.3233461380004883,-0.1096732020378112
-0.1050269156694412,0.1725424379110336,0.3427870869636535,-0.4267841875553131,0.131942793726921,0.3091257214546203,0.0,0.0,0.2219057083129882,-0.193765640258789
-0.1013138741254806,0.1634870916604995,0.3553176522254944,-0.4039520919322967,0.147870197892189,0.3185481429100036,0.0,0.0,0.5183670520782471,-0.0527509450912475
-0.0976292639970779,0.1551434099674224,0.3526399433612823,-0.3724773526191711,0.1636775732040405,0.3161472380161285,0.0,0.0,0.217606782913208,-0.2151100635528564
-0.0938461273908615,0.1474157124757766,0.362071692943573,-0.3453208804130554,0.1799507141113281,0.3254631161689758,0.0,0.0,-0.1533421277999878,-0.1466516256332397
-0.0899657234549522,0.139346495270729,0.3718656897544861,-0.360677570104599,0.1962054967880249,0.3250954151153564,0.0,0.0,0.2770408391952514,-0.4422701597213745
-0.0861165970563888,0.1318624764680862,0.3688273429870605,-0.3348363637924194,0.2124182134866714,0.3242540955543518,0.0,0.0,0.2935473918914795,-0.4828076362609863
-0.0822541266679763,0.1249559745192527,0.3700272440910339,-0.3093712925910949,0.2288364171981811,0.3283639252185821,0.0,0.0,0.0865929126739502,-0.2922247648239136
-0.0783114433288574,0.1181665509939193,0.3778670728206634,-0.304385632276535,0.2454875707626342,0.3330230116844177,0.0,0.0,0.2440894842147827,-0.590181291103363
-0.0745291709899902,0.1116602271795272,0.3609248995780945,-0.2921551764011383,0.2631357908248901,0.3529638051986694,0.0,0.0,-0.1103315949440002,0.129292607307434
-0.0706504806876182,0.1048129424452781,0.370655357837677,-0.3075153231620788,0.280775785446167,0.3528000116348266,0.0,0.0,-0.0144756436347961,-0.1025351285934448
-0.0666756629943847,0.09762454777956,0.3803679049015045,-0.322875440120697,0.2984095811843872,0.3526750802993774,0.0,0.0,0.6659572124481201,-0.3143585920333862
-0.0627379417419433,0.0908778980374336,0.3766332268714905,-0.3034700453281402,0.3161600232124328,0.3550091087818146,0.0,0.0,0.273101806640625,0.1507508754730224
-0.0586949363350868,0.084232173860073,0.3868061304092407,-0.299284279346466,0.3343733847141266,0.3642672002315521,0.0,0.0,0.5522850751876831,0.074137806892395
-0.0546809211373329,0.0782011374831199,0.3836172521114349,-0.2722776532173157,0.3530095517635345,0.3727235794067383,0.0,0.0,0.5552775859832764,0.0561667680740356
-0.0508122444152832,0.0729103907942771,0.3690991103649139,-0.2396198213100433,0.3717558979988098,0.3749270141124725,0.0,0.0,0.128751516342163,-0.0468973517417907
-0.0468858703970909,0.0676006153225898,0.3748135268688202,-0.2407396286725998,0.3907062709331512,0.3790079951286316,0.0,0.0,0.1133621931076049,-0.1751335859298706
