x_pos,y_pos,x_vel,y_vel,angle,ang_vel,leg_1,leg_2,main_booster,lat_booster
-0.0015177726745605,1.4032938480377195,-0.153774157166481,-0.3389444649219513,0.0017878861399367,0.0352693870663642,0.0,0.0,-0.9730475706942544,-0.9207175848075366
-0.0030957222916185,1.395355463027954,-0.1612520962953567,-0.3528203070163727,0.0052133160643279,0.0685155615210533,0.0,0.0,0.4263159559814657,0.8731503033922348
-0.0044699669815599,1.387604594230652,-0.1393280625343322,-0.3444944322109222,0.0071007320657372,0.0377515368163585,0.0,0.0,0.1153318740879649,-0.8305331982396805
-0.0059985159896314,1.380024552345276,-0.1563828289508819,-0.3369138538837433,0.0105880098417401,0.0697520598769187,0.0,0.0,0.9289975284592298,0.9910202757105088
-0.0072832107543945,1.373262882232666,-0.1303377449512481,-0.3005319833755493,0.0124327465891838,0.0368980765342712,0.0,0.0,-0.0246782268628045,0.8315762425850011
-0.0084807397797703,1.3661707639694214,-0.1195924431085586,-0.3152034878730774,0.0122752571478486,-0.0031499669421464,0.0,0.0,0.2306375509615976,-0.9863136822918326
-0.009773826226592,1.359391450881958,-0.1311382055282592,-0.3013141453266144,0.0140803605318069,0.0361052267253398,0.0,0.0,0.9611153948832564,-0.7495597289973691
-0.0109379766508936,1.3534384965896606,-0.120228037238121,-0.2646181285381317,0.0178620405495166,0.0756404250860214,0.0,0.0,0.0912271698574553,0.933187032703479
-0.0120409969240427,1.3479957580566406,-0.1122798174619674,-0.2419289648532867,0.0198081191629171,0.0389253683388233,0.0,0.0,0.9404443663697208,-0.8150576251433866
-0.0132193565368652,1.3435049057006836,-0.1214548498392105,-0.1996417194604873,0.0233827661722898,0.0714997723698616,0.0,0.0,0.9260545416257702,-0.9056648400554248
-0.0143679622560739,1.339724898338318,-0.1205238476395607,-0.1680965423583984,0.0289856474846601,0.1120676770806312,0.0,0.0,-0.225695212979228,-0.9223605143363036
-0.0155742643401026,1.3356101512908936,-0.1279329508543014,-0.1830367147922516,0.0362158641219139,0.1446176469326019,0.0,0.0,-0.8758670881114807,-0.8223340684895561
-0.0168251041322946,1.331167221069336,-0.1337041556835174,-0.1976983249187469,0.0447368957102298,0.1704364866018295,0.0,0.0,0.0571201926813924,0.9303652065555866
-0.017954159528017,1.3267345428466797,-0.1196559816598892,-0.1972179412841797,0.0514228455722332,0.1337310671806335,0.0,0.0,-0.2741084031278626,0.6294813192546903
-0.0190164558589458,1.3219830989837646,-0.1114358678460121,-0.2113664150238037,0.0565791279077529,0.1031349152326583,0.0,0.0,-0.292428057559231,0.7365590340084734
-0.0200043674558401,1.3168983459472656,-0.1022613421082496,-0.2261212021112442,0.0600212216377258,0.0688479468226432,0.0,0.0,0.0844615858715309,-0.6898043674413566
-0.020972728729248,1.3123364448547363,-0.1018104553222656,-0.2029596865177154,0.0649556517601013,0.0986973270773887,0.0,0.0,-0.6728629813458837,-0.9865069138087188
-0.0219952575862407,1.3074300289154053,-0.1087553650140762,-0.2183584123849868,0.0713994055986404,0.128886416554451,0.0,0.0,-0.1368894691173414,0.6509693378425185
-0.0229541771113872,1.302206039428711,-0.1008931398391723,-0.2324250489473343,0.0763493701815605,0.0990082025527954,0.0,0.0,-0.9155096808580904,0.8336834387834463
-0.0238524433225393,1.296657681465149,-0.093373954296112,-0.2467761784791946,0.0798748135566711,0.0705152675509452,0.0,0.0,0.5351998821826502,-0.9925876178959409
-0.0247467998415231,1.2918378114700315,-0.0951221883296966,-0.214533194899559,0.085518792271614,0.1128897070884704,0.0,0.0,0.9044895665108712,-0.8225166932373944
-0.0257315635681152,1.2874387502670288,-0.1058608293533325,-0.1959485709667205,0.0928410142660141,0.1464576721191406,0.0,0.0,0.3232835787000276,0.6848537958963735
-0.0265854839235544,1.283383846282959,-0.0915896967053413,-0.1806215792894363,0.0989980399608612,0.1231516823172569,0.0,0.0,0.815609827907881,-0.7005799927154073
-0.0274434089660644,1.2795069217681885,-0.0935991033911705,-0.1728315353393554,0.1067582890391349,0.1552186161279678,0.0,0.0,0.7798083046072353,0.6793674099884631
-0.0284855850040912,1.2763185501098633,-0.1102778315544128,-0.1421621441841125,0.1127807423472404,0.1204599365592002,0.0,0.0,-0.8029122754589308,0.9368220212020612
-0.0294702537357807,1.2727925777435305,-0.1031069010496139,-0.157062143087387,0.1173944920301437,0.092274822294712,0.0,0.0,-0.5848499565497387,0.6920477689335501
-0.030400563031435,1.268950343132019,-0.0962831228971481,-0.171025738120079,0.1206256300210952,0.0646225214004516,0.0,0.0,0.5630418797046259,-0.7410292035028512
-0.0316197387874126,1.2659127712249756,-0.1264065653085708,-0.1353690326213836,0.1250905394554138,0.0892980769276619,0.0,0.0,-0.3017285670214726,0.6090126546010914
-0.032803438603878,1.262557029724121,-0.1218993216753006,-0.149447351694107,0.1286092549562454,0.0703740864992141,0.0,0.0,-0.5696571981874599,0.6734969680217416
-0.0339380279183387,1.2588781118392944,-0.1157014220952987,-0.1637008339166641,0.1308392882347107,0.0446007438004016,0.0,0.0,0.2598542099024856,0.8708283718792067
-0.0350761413574218,1.2558553218841553,-0.1143195182085037,-0.134394109249115,0.1313452124595642,0.01011891849339,0.0,0.0,-0.0074674361740809,0.9926705182166344
-0.0361495986580848,1.2525094747543335,-0.1061375141143798,-0.1485923826694488,0.1301349848508834,-0.0242044366896152,0.0,0.0,0.2767293147169583,-0.9276909942014532
-0.0374547019600868,1.2497344017028809,-0.1311242580413818,-0.1233842149376869,0.1307401359081268,0.0121030947193503,0.0,0.0,-0.02946644538158,0.8886687758461136
-0.0387021079659462,1.2466332912445068,-0.1237698197364807,-0.1377467513084411,0.1297693252563476,-0.0194162912666797,0.0,0.0,-0.506842052358812,0.9963090604393768
-0.0398756973445415,1.2432193756103516,-0.1143326386809349,-0.1514711529016494,0.1267610490322113,-0.0601658038794994,0.0,0.0,0.7247765607911967,-0.8209871421156604
-0.0412002578377723,1.240647554397583,-0.13111612200737,-0.1141893044114112,0.1254347562789917,-0.0265259388834238,0.0,0.0,0.6778581183874566,-0.6129945053386914
-0.0426667220890522,1.2384158372879028,-0.1464850008487701,-0.0991779714822769,0.1252708286046981,-0.0032786377705633,0.0,0.0,0.2958188529707501,0.6794086479816
-0.0441307052969932,1.236763596534729,-0.1449188888072967,-0.0733148828148841,0.1238069981336593,-0.0292765796184539,0.0,0.0,-0.7952296812649429,0.6567003676652278
-0.0455565452575683,1.2347968816757202,-0.1398891806602478,-0.0871839374303817,0.1211210489273071,-0.0537187941372394,0.0,0.0,-0.6989604952396167,0.9767909870962984
-0.046912670135498,1.232515811920166,-0.1308635622262954,-0.1010041162371635,0.1163996681571006,-0.0944278091192245,0.0,0.0,0.6164610096146366,0.7704097456325731
-0.0484230034053325,1.2310365438461304,-0.1445284336805343,-0.0652515441179275,0.1099338009953498,-0.1293173134326934,0.0,0.0,-0.9894262552261353,0.2088938951492309
-0.0499456413090229,1.2292271852493286,-0.1457461267709732,-0.0799475386738777,0.1034743264317512,-0.1291896551847458,0.0,0.0,-0.989475965499878,0.0555914640426635
-0.0514811500906944,1.2270878553390503,-0.1470500081777572,-0.0946435183286666,0.0970211550593376,-0.1290632486343383,0.0,0.0,-0.995898962020874,0.6243318319320679
-0.052973173558712,1.224625825881958,-0.141243502497673,-0.108929619193077,0.089124895632267,-0.1579251587390899,0.0,0.0,-0.9627507925033568,0.0477118492126464
-0.0544799789786338,1.2218340635299685,-0.1427183151245117,-0.1236273199319839,0.0812348946928978,-0.1577998548746109,0.0,0.0,-0.9661735892295836,0.1161223649978637
-0.056002426892519,1.218712329864502,-0.144277736544609,-0.1383250206708908,0.0733511447906494,-0.1576748043298721,0.0,0.0,-0.6992732882499695,-0.118623673915863
-0.0575412735342979,1.2152611017227173,-0.1459208577871322,-0.1530227214097976,0.065473660826683,-0.1575497239828109,0.0,0.0,-0.8431177139282227,-0.0446257591247558
-0.0590972900390625,1.2114801406860352,-0.1476466059684753,-0.1677204072475433,0.0576024577021598,-0.1574242711067199,0.0,0.0,-0.9307441115379332,-0.1016725301742553
-0.0606714263558387,1.207369327545166,-0.149453729391098,-0.1824180781841278,0.0497375428676605,-0.157298281788826,0.0,0.0,-0.9740386605262756,-0.0057042837142944
-0.0622643455862998,1.20292866230011,-0.1513407975435257,-0.1971157342195511,0.0418789610266685,-0.1571714878082275,0.0,0.0,-0.9564037322998048,0.3573529720306396
-0.0638768225908279,1.1981583833694458,-0.1533062756061554,-0.2118134051561355,0.0340267866849899,-0.1570436507463455,0.0,0.0,-0.9921964406967164,0.4786837100982666
-0.0655096992850303,1.1930582523345947,-0.1553484499454498,-0.2265110462903976,0.0261810421943664,-0.156914547085762,0.0,0.0,-0.9879788160324096,0.3388242721557617
-0.0671637505292892,1.1876285076141355,-0.1574654132127761,-0.2412087023258209,0.0183418318629264,-0.1567840427160263,0.0,0.0,-0.9916531443595886,-0.3346238136291504
-0.0688396468758583,1.1818687915802002,-0.1596551984548568,-0.2559063136577606,0.0105092357844114,-0.1566520035266876,0.0,0.0,-0.9454507827758788,0.0737872123718261
-0.07053804397583,1.1757794618606567,-0.1619156450033188,-0.2706038653850555,0.0026833314914256,-0.1565182358026504,0.0,0.0,-0.9955409169197084,0.1307179927825927
-0.072259709239006,1.1693602800369265,-0.1642445027828216,-0.2853015065193176,-0.0051358039490878,-0.15638267993927,0.0,0.0,-0.97468239068985,0.5303570032119751
-0.0739566832780838,1.1626160144805908,-0.1605492234230041,-0.2998031079769134,-0.0141673097386956,-0.1806302368640899,0.0,0.0,-0.983832061290741,0.4502252340316772
-0.0756781548261642,1.155542254447937,-0.1630076766014099,-0.3145023882389068,-0.0231918264180421,-0.1804905384778976,0.0,0.0,-0.9111741185188292,0.8515701293945312
-0.0773489028215408,1.14814555644989,-0.1560109406709671,-0.3289588093757629,-0.0341123566031456,-0.218410775065422,0.0,0.0,-0.896016001701355,0.721932053565979
-0.0789951309561729,1.1404235363006592,-0.1523159742355346,-0.343523621559143,-0.0462793856859207,-0.2433403432369232,0.0,0.0,-0.9113188982009888,0.8745706081390381
-0.0805929154157638,1.132360577583313,-0.1455602347850799,-0.3588561415672302,-0.0603283792734146,-0.2809799015522003,0.0,0.0,-0.9316700100898744,0.7146056890487671
-0.0821701064705848,1.1239691972732544,-0.1423281729221344,-0.3736381232738495,-0.0755546540021896,-0.3045255243778229,0.0,0.0,-0.9782520532608032,-0.6635558009147644
-0.083816148340702,1.115253210067749,-0.1502958834171295,-0.3881607353687286,-0.0897233113646507,-0.283373475074768,0.0,0.0,-0.961141049861908,-0.2268202900886535
-0.085489846765995,1.1062092781066897,-0.1530792713165283,-0.4028698801994324,-0.1038842946290969,-0.2832199931144714,0.0,0.0,-0.8643792867660522,0.1827735900878906
-0.0871913880109787,1.0968374013900757,-0.1559063792228698,-0.4175790250301361,-0.118037536740303,-0.2830651700496673,0.0,0.0,-0.8387504816055298,0.5002286434173584
-0.0888900756835937,1.087132453918457,-0.1548527479171753,-0.4325853884220123,-0.1329760402441024,-0.2987702190876007,0.0,0.0,-0.7835131883621216,-0.6794726252555847
-0.0906681045889854,1.0771178007125854,-0.1641377508640289,-0.4463721215724945,-0.1465938985347747,-0.2723572850227356,0.0,0.0,-0.52119380235672,-0.1035021543502807
-0.0924750342965126,1.066774845123291,-0.1670763492584228,-0.461079865694046,-0.1602038890123367,-0.2721997201442718,0.0,0.0,0.1030234098434448,0.7193838357925415
-0.0941431075334549,1.05693781375885,-0.1517959535121917,-0.4388892352581024,-0.1752226054668426,-0.3003748059272766,0.0,0.0,-0.8848813772201538,-0.4991927742958069
-0.0958407372236251,1.0467731952667236,-0.1547929346561432,-0.4536002874374389,-0.190233364701271,-0.3002150654792785,0.0,0.0,-0.8927693367004395,-0.3559190034866333
-0.0975679382681846,1.036280870437622,-0.1578135788440704,-0.4683111906051636,-0.2052361071109771,-0.3000552356243133,0.0,0.0,-0.6986687779426575,-0.6023065447807312
-0.0993690490722656,1.0254755020141602,-0.166396364569664,-0.4822015166282654,-0.2190810889005661,-0.2768998444080353,0.0,0.0,-0.5224142670631409,-0.4975941181182861
-0.1012001037597656,1.014341950416565,-0.1694525778293609,-0.4969095289707184,-0.2329181730747223,-0.2767415940761566,0.0,0.0,0.0028587579727172,-0.4420887231826782
-0.1029371246695518,1.0033764839172363,-0.1602930277585983,-0.4895341992378235,-0.2465410977602005,-0.2724581062793731,0.0,0.0,-0.7715193629264832,-0.9939084053039552
-0.1047860160470008,0.9921051859855652,-0.1736064404249191,-0.5028802156448364,-0.2580429017543793,-0.2300359457731247,0.0,0.0,0.1939070224761963,-0.78099524974823
-0.1066122055053711,0.9808396697044371,-0.1729571670293808,-0.5024226307868958,-0.2679156959056854,-0.1974559724330902,0.0,0.0,-0.3932222723960876,-0.0728618502616882
-999.0,0.96924489736557,-0.17603799700737,-0.5171228051185608,-0.2777808904647827,-0.1973036080598831,0.0,0.0,0.8722991943359375,-0.7692122459411621
-0.1101762801408767,0.9586529731750488,-0.1626568287611007,-0.4723154902458191,-0.2860941290855407,-0.1662645488977432,0.0,0.0,-0.3883845806121826,-0.4029502272605896
-0.1119143515825271,0.9477311968803406,-0.1657266914844513,-0.4870133101940155,-0.2943999171257019,-0.1661155521869659,0.0,0.0,-0.1867792606353759,-0.5988559722900391
-0.1137349158525466,0.9365096688270568,-0.1754242479801178,-0.5000896453857422,-0.3012481033802032,-0.1369635462760925,0.0,0.0,0.5860617160797119,-0.0349229574203491
-0.1156100258231163,0.9254691004753112,-0.1803371012210846,-0.4922000169754028,-0.3086636066436767,-0.1483098417520523,0.0,0.0,0.5758426189422607,-0.767230749130249
-0.1173015609383583,0.9151906371116638,-0.1635966598987579,-0.458018809556961,-0.3144287168979645,-0.1153018251061439,0.0,0.0,0.6966152191162109,-0.8978683352470398
-0.1190176010131836,0.905511200428009,-0.1676596403121948,-0.4310550689697265,-0.3185296058654785,-0.0820178613066673,0.0,0.0,0.9028043746948242,-0.9082233905792236
-0.1206519156694412,0.896683394908905,-0.1611649096012115,-0.3928501307964325,-0.3208900988101959,-0.0472098290920257,0.0,0.0,0.8146570920944214,-0.8393206596374512
-0.122148610651493,0.8886603713035583,-0.149043321609497,-0.3567209243774414,-0.3215530812740326,-0.0132597964257001,0.0,0.0,0.9431183338165284,-0.8037850260734558
-0.1234120354056358,0.8812575936317444,-0.1275171190500259,-0.3287481665611267,-0.3203319311141968,0.0244229882955551,0.0,0.0,0.9716166257858276,-0.6808728575706482
-0.1245987862348556,0.8741106390953064,-0.1212594658136367,-0.3170781135559082,-0.3176459670066833,0.0537191331386566,0.0,0.0,0.8399088382720947,-0.4233182668685913
-0.1255753487348556,0.8672235608100891,-0.1007091775536537,-0.3054232895374298,-0.3144758641719818,0.0634027794003486,0.0,0.0,0.9194179773330688,-0.3836574554443359
-0.1262116432189941,0.8608732223510742,-0.0674520581960678,-0.2814167737960815,-0.3105089366436004,0.0793387368321418,0.0,0.0,0.3078562021255493,-0.558550238609314
-0.1267074644565582,0.8545991778373718,-0.0547471046447753,-0.2777474224567413,-0.3051554560661316,0.1070696264505386,0.0,0.0,-0.5849648118019104,0.0722037553787231
-0.1272296011447906,0.8479950428009033,-0.0573889836668968,-0.2924419939517975,-0.2997961938381195,0.1071854680776596,0.0,0.0,-0.1552256345748901,-0.1312994360923767
-0.1277772933244705,0.8410606384277344,-0.0599642507731914,-0.3071366250514984,-0.2944313585758209,0.1072968989610672,0.0,0.0,0.1625224351882934,0.2168127298355102
-0.1281297653913498,0.8344316482543945,-0.0408517718315124,-0.2935019135475158,-0.2886558473110199,0.1155095100402832,0.0,0.0,-0.9861274361610411,-0.2195261120796203
-0.1285063773393631,0.8274725079536438,-0.0432783141732215,-0.3081969320774078,-0.2828753590583801,0.1156105399131774,0.0,0.0,-0.9589409828186036,0.3438913822174072
-0.1289063394069671,0.8201830387115479,-0.0456224121153354,-0.3228919804096222,-0.2770900726318359,0.115705631673336,0.0,0.0,-0.7252633571624756,-0.4709210395812988
-0.1293286383152008,0.812563419342041,-0.0478786304593086,-0.3375870287418365,-0.2713003754615783,0.115794263780117,0.0,0.0,-0.7536810636520386,-0.0800862908363342
-0.1297723799943924,0.8046137690544128,-0.0500414669513702,-0.3522821366786957,-0.2655065655708313,0.1158758178353309,0.0,0.0,-0.6826876997947693,0.4248244762420654
-0.1302367150783538,0.7963338494300842,-0.0521053746342659,-0.3669772744178772,-0.2597091197967529,0.1159497052431106,0.0,0.0,-0.8961696028709412,0.0701129436492919
-0.1307205259799957,0.7877238988876343,-0.0540647394955158,-0.3816724121570587,-0.2539083659648895,0.1160153374075889,0.0,0.0,-0.9198687076568604,0.0603744983673095
-0.1312227249145507,0.7787836194038391,-0.0559139177203178,-0.3963675796985626,-0.2481047660112381,0.1160720437765121,0.0,0.0,-0.5393565893173218,-0.1615192890167236
-0.1317421942949295,0.7695133090019226,-0.05764726921916,-0.4110627174377441,-0.242298811674118,0.1161192059516906,0.0,0.0,-0.7345506548881531,-0.6161690950393677
-0.1323270797729492,0.7599290609359741,-0.0654788762331008,-0.4248270988464355,-0.2351974248886108,0.1420273780822754,0.0,0.0,-0.8946516513824463,0.0097333192825317
-0.1329267472028732,0.7500150203704834,-0.0669640824198722,-0.4395236372947693,-0.2280947417020797,0.1420533955097198,0.0,0.0,-0.985718071460724,0.6887319087982178
-0.1335002928972244,0.7397555708885193,-0.0633407607674598,-0.4550609588623047,-0.2220338582992553,0.1212174072861671,0.0,0.0,-0.9016348719596864,-0.3658123612403869
-0.1340858489274978,0.7291662096977234,-0.0645545125007629,-0.4697564244270324,-0.2159728556871414,0.121219977736473,0.0,0.0,-0.95652973651886,0.1661007404327392
-0.1346820890903473,0.7182465195655823,-0.0656245350837707,-0.4844518899917602,-0.2099123895168304,0.1212096959352493,0.0,0.0,-0.9940014481544496,-0.0364177823066711
-0.1352874785661697,0.7069966793060303,-0.0665454640984535,-0.4991473853588104,-0.2038531005382537,0.1211858615279197,0.0,0.0,-0.9793663620948792,-0.0058895945549011
-0.1359004974365234,0.6954169869422913,-0.0673121288418769,-0.5138428807258606,-0.1977957040071487,0.1211478561162948,0.0,0.0,-0.957878828048706,0.0617645978927612
-0.1365195214748382,0.683506965637207,-0.0679195076227188,-0.5285384058952332,-0.1917409598827362,0.121094986796379,0.0,0.0,-0.9762882590293884,0.3474617004394531
-0.1371428519487381,0.6712670922279358,-0.0683627873659133,-0.5432338714599609,-0.1856896430253982,0.1210266724228859,0.0,0.0,-0.9675495624542236,-0.3519428968429565
-0.1377690285444259,0.6586968898773193,-0.0686374008655548,-0.5579293966293335,-0.1796425282955169,0.1209422796964645,0.0,0.0,-0.7454187273979187,0.30842125415802
-0.1383961737155914,0.6457967162132263,-0.0687390491366386,-0.572624921798706,-0.1736004650592804,0.1208412200212478,0.0,0.0,-0.9793136715888976,-0.3183808326721191
-0.1390225440263748,0.6325664520263672,-0.0686637461185455,-0.5873204469680786,-0.1675643175840377,0.1207228451967239,0.0,0.0,-0.9778259992599488,0.0451809167861938
-0.1396463364362716,0.6190060973167419,-0.0684078484773635,-0.602016031742096,-0.1615349948406219,0.1205867081880569,0.0,0.0,-0.7317640781402588,-0.2980719804763794
-0.1402657479047775,0.6051155924797058,-0.0679680779576301,-0.6167115569114685,-0.1555133759975433,0.1204322725534439,0.0,0.0,-0.7259035706520081,0.4391859769821167
-0.1408789604902267,0.5908951163291931,-0.0673415437340736,-0.6314070224761963,-0.1495004147291183,0.1202591061592102,0.0,0.0,-0.6852746605873108,0.6934809684753418
-0.141427606344223,0.5763303637504578,-0.0594343431293964,-0.6468721628189087,-0.1449447274208068,0.091113768517971,0.0,0.0,0.4651510715484619,-0.0384788513183593
-0.1418056488037109,0.5618835091590881,-0.0428968146443367,-0.6415925621986389,-0.1398639231920242,0.1016159653663635,0.0,0.0,0.3306736946105957,-0.0797244310379028
-0.1420171707868576,0.5479081273078918,-0.0266080703586339,-0.6206260323524475,-0.1344316154718399,0.1086460351943969,0.0,0.0,-0.4169820547103882,0.9579323530197144
-0.1421359032392501,0.5335957407951355,-0.0153128551319241,-0.6358012557029724,-0.1310011744499206,0.0686092600226402,0.0,0.0,-0.158226728439331,0.1228044033050537
