x_pos,y_pos,x_vel,y_vel,angle,ang_vel,leg_1,leg_2,main_booster,lat_booster
-0.0015843391884118,1.4035093784332275,-0.160447895526886,-0.3293606340885162,0.0018098561558872,0.035704419016838,0.0,0.0,-0.654844343662262,0.6005640029907227
-0.0031804083846509,1.3960041999816897,-0.1600891351699829,-0.3335654437541961,0.0022831293754279,0.0094666127115488,0.0,0.0,0.0014460086822509,0.6974612474441528
-0.0046939849853515,1.3887462615966797,-0.1505207568407058,-0.3225740492343902,0.0014609222998842,-0.0164456646889448,0.0,0.0,0.2774477005004883,0.3640328645706177
-0.006366825196892,1.3819525241851809,-0.1660039722919464,-0.301944375038147,0.0001986689021578,-0.0252475887537002,0.0,0.0,-0.5888590812683105,-0.1731222867965698
-0.0081080440431833,1.3750436305999756,-0.1728458553552627,-0.3070577681064605,-0.0010603163391351,-0.025182181969285,0.0,0.0,-0.3226357698440552,0.024065613746643
-0.0099193574860692,1.3680198192596436,-0.1798659861087799,-0.3121662735939026,-0.0023149021435528,-0.0250939968973398,0.0,0.0,0.0789797306060791,0.589019775390625
-0.0117718698456883,1.3614468574523926,-0.1827769726514816,-0.2921399176120758,-0.0047562355175614,-0.0488313809037208,0.0,0.0,-0.3842763304710388,-0.1869490146636963
-0.0136979101225733,1.3547587394714355,-0.1901348829269409,-0.2972549796104431,-0.0071892673149704,-0.0486652180552482,0.0,0.0,-0.715720534324646,0.4924641847610473
-0.015699004754424,1.3479559421539309,-0.1976562142372131,-0.3023639619350433,-0.0096133472397923,-0.0484863333404064,0.0,0.0,-0.3630245923995971,0.3875876665115356
-0.017776871100068,1.3410381078720093,-0.205335259437561,-0.3074737787246704,-0.0120267225429415,-0.0482722707092762,0.0,0.0,-0.5266736149787903,0.311841607093811
-0.0199328418821096,1.33400559425354,-0.2131671607494354,-0.3125844895839691,-0.0144279198721051,-0.0480283685028553,0.0,0.0,-0.485756516456604,0.5295952558517456
-0.0221218112856149,1.3268558979034424,-0.2152973115444183,-0.3178000748157501,-0.0179882775992155,-0.0712140351533889,0.0,0.0,-0.7617728114128113,0.262511134147644
-0.024391746148467,1.3195912837982178,-0.2234138548374176,-0.3229112327098846,-0.0215328466147184,-0.0708979815244674,0.0,0.0,-0.6616442799568176,0.6960678100585938
-0.026682948693633,1.3122037649154663,-0.2240031063556671,-0.3284209668636322,-0.0265999529510736,-0.1013510823249816,0.0,0.0,-0.9141873717308044,-0.2456211447715759
-0.029057789593935,1.304701566696167,-0.2323820143938064,-0.333533227443695,-0.0316479504108428,-0.1009691581130027,0.0,0.0,-0.8594590425491333,0.7953708171844482
-0.0314435958862304,1.297071933746338,-0.2316055744886398,-0.3392570316791534,-0.038542840629816,-0.137910321354866,0.0,0.0,-0.7644184231758118,0.724245548248291
-0.0338449478149414,1.2893322706222534,-0.2313975840806961,-0.3442224264144897,-0.0471806414425373,-0.1727717816829681,0.0,0.0,-0.7096441388130188,0.663487434387207
-0.0362687110900878,1.2814687490463257,-0.2320267409086227,-0.3498453795909881,-0.0574249066412448,-0.2049043476581573,0.0,0.0,-0.6188965439796448,-0.3358543515205383
-0.0387804023921489,1.273491621017456,-0.2408593446016311,-0.3549649119377136,-0.0676439628005027,-0.2043995559215545,0.0,0.0,-0.7973209023475647,-0.0405504703521728
-0.0413811691105365,1.2654008865356443,-0.249795988202095,-0.3600843846797943,-0.07783704996109,-0.2038802653551101,0.0,0.0,-0.9197075366973876,0.0388815402984619
-0.044071864336729,0.0,-0.2588315308094024,-0.3652042150497436,-0.0880026072263717,-0.2033291608095169,0.0,0.0,-0.7581605911254883,-0.1061145663261413
-0.0468535423278808,1.2488782405853271,-0.2679601609706878,-0.3703242540359497,-0.0981392413377761,-0.2027507722377777,0.0,0.0,-0.3375355005264282,0.6587498188018799
-0.0496641173958778,1.240436553955078,-0.2692773938179016,-0.3760040700435638,-0.109841339290142,-0.234062984585762,0.0,0.0,-0.8804897665977478,0.3931608200073242
-0.0525670051574707,1.2318814992904663,-0.2785725891590118,-0.3811278045177459,-0.1215110644698143,-0.233415275812149,0.0,0.0,-0.8072152733802795,-0.1321064233779907
-0.0555631630122661,1.2232131958007812,-0.2879465520381927,-0.3862519860267639,-0.1331481486558914,-0.2327622920274734,0.0,0.0,-0.6006371378898621,-0.4327468276023865
-0.0586554519832134,1.214410424232483,-0.297583520412445,-0.3923216164112091,-0.1447521299123764,-0.2320792376995086,0.0,0.0,-0.7667471766471863,0.0253647565841674
-0.0618426315486431,1.2054942846298218,-0.3071317076683044,-0.3974408805370331,-0.1563231945037841,-0.2314213514328003,0.0,0.0,-0.6129758358001709,-0.510317862033844
-0.0651733428239822,1.196481466293335,-0.3227810561656952,-0.4016872346401214,-0.166615143418312,-0.2058387100696563,0.0,0.0,-0.7101386785507202,0.9680395126342772
-0.0685401931405067,1.1873480081558228,-0.3249363303184509,-0.4072861671447754,-0.1783875375986099,-0.2354481667280197,0.0,0.0,-0.8825153112411499,-0.4164698719978332
-0.0720037445425987,1.1781014204025269,-0.3346609771251678,-0.4124055802822113,-0.1901258677244186,-0.2347666323184967,0.0,0.0,-0.4023833274841308,0.4229239225387573
-0.0755644813179969,1.1687415838241575,-0.3444352746009826,-0.4175248444080353,-0.2018297761678695,-0.2340786010026931,0.0,0.0,-0.598124086856842,0.0190553665161132
-0.0792226791381836,1.1592686176300049,-0.3542547821998596,-0.4226439893245697,-0.2134990245103836,-0.2333848476409912,0.0,0.0,-0.5712496042251587,-0.5358163714408875
-0.0830251723527908,1.1497023105621338,-0.3699584603309631,-0.4266895949840545,-0.2239036113023758,-0.2080914229154586,0.0,0.0,-0.7254416942596436,-0.2715257406234741
-0.086925983428955,1.1400226354599,-0.3798543810844421,-0.4318062663078308,-0.2342729568481445,-0.2073868513107299,0.0,0.0,-0.5524724721908569,-0.655069887638092
-0.0909743309020996,1.130247712135315,-0.3959193229675293,-0.4358840882778168,-0.2433202117681503,-0.1809454262256622,0.0,0.0,-0.6794320940971375,0.0730477571487426
-0.0951216667890548,1.1203588247299194,-0.4058743119239807,-0.4409984946250915,-0.2523317635059356,-0.1802310794591903,0.0,0.0,-0.7511258721351624,-0.279224157333374
-0.0993681922554969,1.1103559732437134,-0.4158528447151184,-0.4461128115653991,-0.2613073587417602,-0.1795118004083633,0.0,0.0,-0.3340387344360351,0.7735347747802734
-0.1036502867937088,1.1002197265625,-0.4178556799888611,-0.452378362417221,-0.2719057202339172,-0.2119676619768142,0.0,0.0,-0.7499178051948547,0.4960252046585083
-0.1080319434404373,1.0899698734283447,-0.4278695583343506,-0.4574951231479645,-0.2824676632881164,-0.2112390100955963,0.0,0.0,-0.4682230949401855,-0.3578840494155884
-0.1125131621956825,1.0796064138412476,-0.4378941655158996,-0.4626117050647735,-0.2929929792881012,-0.2105064839124679,0.0,0.0,-0.5541132092475891,0.2311359643936157
-0.1170939430594444,1.069129228591919,-0.4479251801967621,-0.4677281677722931,-0.3034814894199371,-0.2097702920436859,0.0,0.0,-0.7194030284881592,0.4481496810913086
-0.1217742934823036,1.0585384368896484,-0.4579585194587707,-0.4728445410728454,-0.3139330148696899,-0.2090304642915725,0.0,0.0,-0.4579259157180786,-0.1184001564979553
-0.126554399728775,1.0478339195251465,-0.4679895341396332,-0.4779607951641083,-0.3243474066257477,-0.2082869559526443,0.0,0.0,-0.3107953071594238,-0.0955289602279663
-0.1314339637756347,1.0370155572891235,-0.4780140519142151,-0.4830769002437591,-0.3347243964672088,-0.2075397074222564,0.0,0.0,-0.7393149733543396,0.4307297468185425
-0.1364129036664962,1.0260834693908691,-0.4880273938179016,-0.4881928861141205,-0.3450638353824615,-0.2067885845899582,0.0,0.0,-0.7097057104110718,0.2287670373916626
-0.1414912194013595,1.0150375366210938,-0.4980250298976898,-0.4933087527751922,-0.355365514755249,-0.2060334235429763,0.0,0.0,-0.7583275437355042,0.5929305553436279
-0.1466212272644043,1.003848433494568,-0.5019931793212891,-0.50006502866745,-0.3669731616973877,-0.2321532070636749,0.0,0.0,-0.6680901646614075,0.3690626621246338
-0.1518497467041015,0.9925456643104552,-0.5119463801383972,-0.5051829814910889,-0.3785426020622253,-0.2313890755176544,0.0,0.0,-0.4969380497932434,0.6363979578018188
-0.1571391075849533,0.9811133146286012,-0.5171492695808411,-0.5112834572792053,-0.3910890519618988,-0.2509290874004364,0.0,0.0,-0.7835167050361633,-0.0049454569816589
-0.162526324391365,0.9695676565170288,-0.5270380973815918,-0.5164029598236084,-0.4035968482494354,-0.25015589594841,0.0,0.0,-0.4896984100341797,0.6555578708648682
-0.1679524481296539,0.9578713774681092,-0.5294708013534546,-0.5236419439315796,-0.4177460670471191,-0.2829835116863251,0.0,0.0,0.0224502086639404,-0.1224812865257263
-0.1733230650424957,0.9467090964317322,-0.5238814949989319,-0.5000655651092529,-0.4320209324359894,-0.2854974269866943,0.0,0.0,0.1913472414016723,-0.0410531163215637
-0.1785840988159179,0.9358211755752563,-0.5133870840072632,-0.4878775775432586,-0.445891797542572,-0.2774172127246856,0.0,0.0,-0.3329461812973022,0.0483696460723876
-0.1839408874511718,0.9248205423355104,-0.5230814218521118,-0.492999255657196,-0.459723025560379,-0.2766243517398834,0.0,0.0,0.2070541381835937,-0.5178866386413574
-0.1891652047634124,0.9141315817832948,-0.5111361742019653,-0.4788395464420318,-0.4721982181072235,-0.2495036870241165,0.0,0.0,-0.7595685124397278,-0.1493020057678222
-0.1944840401411056,0.903329372406006,-0.5206936597824097,-0.4839581549167633,-0.4846331477165222,-0.2486988753080368,0.0,0.0,0.4335736036300659,0.3676159381866455
-0.1995021849870681,0.8932746052742004,-0.4910727143287658,-0.4506975710391998,-0.4966501295566559,-0.2403394728899002,0.0,0.0,0.2276790142059326,-0.1349804997444152
-0.2042842805385589,0.8836937546730042,-0.467992216348648,-0.429545909166336,-0.5081517696380615,-0.2300323992967605,0.0,0.0,0.4275264739990234,0.3756848573684692
-0.2087558209896087,0.8748843669891357,-0.4373011589050293,-0.3952251374721527,-0.5193133354187012,-0.2232309281826019,0.0,0.0,-0.4475764632225036,0.255399227142334
-0.2133183479309082,0.8659612536430359,-0.4465014338493347,-0.4003409743309021,-0.530432939529419,-0.2223914861679077,0.0,0.0,0.6226937770843506,-0.1193381547927856
-0.2177434414625167,0.8573567271232605,-0.4330573081970215,-0.3861577212810516,-0.5412774682044983,-0.2168906927108764,0.0,0.0,0.5466748476028442,0.4378732442855835
-0.2219993621110916,0.8495551943778992,-0.4158643186092376,-0.3506811559200287,-0.5525132417678833,-0.2247156649827957,0.0,0.0,0.4627745151519775,-0.2137787342071533
-0.2260093241930008,0.8421381115913391,-0.39180588722229,-0.3334597945213318,-0.5631997585296631,-0.213728979229927,0.0,0.0,0.8077356815338135,-0.1039594411849975
-0.2297255098819732,0.835436999797821,-0.3626280725002289,-0.3016439974308014,-0.5737228989601135,-0.2104633599519729,0.0,0.0,0.7403790950775146,-0.2235859036445617
-0.2332901954650879,0.829147219657898,-0.3476102948188782,-0.2833994925022125,-0.5841634273529053,-0.2088102400302887,0.0,0.0,0.662641167640686,-0.7592594027519226
-0.2367730140686035,0.8236497640609741,-0.3406963944435119,-0.2477075159549713,-0.5931678414344788,-0.1800880134105682,0.0,0.0,0.9525859355926514,-0.1083475947380065
-0.2397509068250656,0.8192746639251709,-0.2903822660446167,-0.1978114247322082,-0.6020094156265259,-0.1768316924571991,0.0,0.0,0.9814043045043944,-0.0856000781059265
-0.2425287216901779,0.8151349425315857,-0.2708366513252258,-0.187194675207138,-0.610349714756012,-0.1668059527873993,0.0,0.0,0.9485676288604736,-0.4624894857406616
-0.2447811067104339,0.8120909333229065,-0.2184919863939285,-0.1384639292955398,-0.6184962391853333,-0.1629303395748138,0.0,0.0,0.9749510288238524,-0.6487503051757812
-0.2469213455915451,0.8097699284553528,-0.2082583159208297,-0.1059129685163497,-0.6254969835281372,-0.1400152146816253,0.0,0.0,0.9879283905029296,-0.842775821685791
-0.2488073855638504,0.8084906339645386,-0.1842169463634491,-0.0589800514280796,-0.630849301815033,-0.1070468574762344,0.0,0.0,0.7135746479034424,-0.8563495874404907
-0.2504085600376129,0.807906985282898,-0.1573446393013,-0.0272965375334024,-0.6342396140098572,-0.0678058341145515,0.0,0.0,0.1508139371871948,-0.6328969597816467
-0.2518474161624908,0.8080571889877319,-0.1421946585178375,0.00584013806656,-0.6363158226013184,-0.0415239632129669,0.0,0.0,-0.26980721950531,-0.5787505507469177
-0.2533842921257019,0.8081271052360535,-0.1529372185468673,0.0027371475007385,-0.6372398734092712,-0.0184808857738971,0.0,0.0,0.026574969291687,-0.4751715660095215
-0.2548570036888122,0.8083934783935547,-0.146477460861206,0.0114437984302639,-0.6382135152816772,-0.0194733384996652,0.0,0.0,0.1340904235839843,-0.638787031173706
-0.2562579214572906,0.8088053464889526,-0.1405048668384552,0.0185161046683788,-0.6377032995223999,0.0102047882974147,0.0,0.0,0.4609768390655517,-0.3608969449996948
-0.2575600147247314,0.8094887137413025,-0.1305597722530365,0.030544314533472,-0.6372755169868469,0.0085555110126733,0.0,0.0,0.0015205144882202,-0.1619976758956909
-0.2586342692375183,0.8106409907341003,-0.1077936142683029,0.0513928942382335,-0.636824905872345,0.0090123508125543,0.0,0.0,-0.1563166379928589,-0.3532524108886719
-0.2597593367099762,0.8116778135299683,-0.1129042506217956,0.0462866649031639,-0.6363285779953003,0.0099261421710252,0.0,0.0,-0.0114028453826904,-0.2929774522781372
-0.2609314024448395,0.8125994801521301,-0.1176524013280868,0.0411803983151912,-0.6357873678207397,0.010823949240148,0.0,0.0,-0.1569520831108093,-0.2889338135719299
-0.2621468603610992,0.8134058713912964,-0.1220215409994125,0.0360740795731544,-0.6352022290229797,0.0117024620994925,0.0,0.0,0.1150159835815429,-0.3238657116889953
-0.2630631923675537,0.8147169351577759,-0.092250257730484,0.0585700534284114,-0.6344484090805054,0.0150768859311938,0.0,0.0,-0.3198585510253906,-0.4150786399841308
-0.2640148103237152,0.815912663936615,-0.0958129987120628,0.0534635931253433,-0.6336530447006226,0.0159072447568178,0.0,0.0,-0.1907994747161865,-0.3665930032730102
-0.2649974822998047,0.8169931769371033,-0.0989493876695633,0.0483570545911788,-0.6328176259994507,0.0167088340967893,0.0,0.0,-0.1765973567962646,-0.0030881762504577
-0.2660067677497864,0.8179584741592407,-0.1016449555754661,0.0432504303753376,-0.6319437026977539,0.0174788050353527,0.0,0.0,-0.3342231512069702,-0.6241655349731445
-0.2670715451240539,0.8188453912734985,-0.1081683635711669,0.0402398146688938,-0.6298733949661255,0.0414065793156623,0.0,0.0,-0.3342810869216919,-0.4878385066986084
-0.2681537270545959,0.819616973400116,-0.1099433675408363,0.0351327620446682,-0.6277681589126587,0.0421051643788814,0.0,0.0,-0.3650725483894348,0.084327220916748
-0.2692485749721527,0.8202735781669617,-0.111240804195404,0.0300255976617336,-0.6256299614906311,0.0427643731236457,0.0,0.0,-0.1524292826652526,-0.0927050709724426
-0.2703512609004974,0.8208149075508118,-0.1120511889457702,0.0249183140695095,-0.6234608888626099,0.0433819107711315,0.0,0.0,-0.0395599603652954,0.0064983367919921
-0.2714568674564361,0.8212411999702454,-0.1123666986823082,0.0198109131306409,-0.6212630867958069,0.0439557805657386,0.0,0.0,-0.3305050730705261,-0.2946193218231201
-0.2725602984428406,0.8215524554252625,-0.1121812909841537,0.01470338832587,-0.6190388798713684,0.0444842353463172,0.0,0.0,0.1511082649230957,-0.378679096698761
-0.2733324468135834,0.822375476360321,-0.0791488140821456,0.0374961607158184,-0.6166908740997314,0.0469598844647407,0.0,0.0,-0.0950702428817749,-0.0021716952323913
-0.2740923762321472,0.8230834007263184,-0.0779512152075767,0.0323883444070816,-0.614321231842041,0.0473933890461921,0.0,0.0,-0.4766460657119751,-0.5404056310653687
-0.2748658061027527,0.8237019777297974,-0.0801224112510681,0.028793865814805,-0.6109687685966492,0.0670492798089981,0.0,0.0,-0.1405959129333496,-0.1869840025901794
-0.2756169438362121,0.8242055177688599,-0.0779127031564712,0.0236854143440723,-0.6075995564460754,0.0673838257789611,0.0,0.0,-0.0009792447090148,-0.1505762934684753
-0.2763407826423645,0.8245943188667297,-0.0752017349004745,0.0185768269002437,-0.6042161583900452,0.0676681101322174,0.0,0.0,-0.327949583530426,-0.0525357127189636
-0.2770324349403381,0.8248679637908936,-0.0719955787062645,0.0134681081399321,-0.6008210778236389,0.0679019838571548,0.0,0.0,-0.2263455390930175,-0.7660940885543823
-0.277743399143219,0.8250935673713684,-0.0756269097328186,0.0120829464867711,-0.5954114198684692,0.1081935763359069,0.0,0.0,0.1634753942489624,-0.6452596783638
-0.2781203389167785,0.8258019685745239,-0.0434824414551258,0.0340861156582832,-0.5885171294212341,0.1378853023052215,0.0,0.0,-0.0393188595771789,-0.2056130170822143
-0.2784505784511566,0.8263959288597107,-0.038847915828228,0.0289745163172483,-0.5816187858581543,0.1379672884941101,0.0,0.0,-0.3926998376846313,-0.6290012001991272
-0.2787743508815765,0.8269253373146057,-0.0395430251955986,0.0266376677900552,-0.5731751322746277,0.168873131275177,0.0,0.0,-0.1745787262916565,-0.5534510612487793
-0.279080718755722,0.8273755311965942,-0.0389014966785907,0.0235280022025108,-0.5635002851486206,0.1934973895549774,0.0,0.0,-0.2915775775909424,-0.3953967094421386
-0.2793272137641907,0.8277117013931274,-0.0329540967941284,0.0184127558022737,-0.5538288354873657,0.1934293508529663,0.0,0.0,-0.1168428063392639,-0.4895989894866943
-0.2795096337795257,0.8279339671134949,-0.026599183678627,0.0132973678410053,-0.544163167476654,0.1933129280805587,0.0,0.0,-0.5202087163925171,-0.6167935132980347
-0.2796568274497986,0.8280766010284424,-0.0240541957318782,0.0100657790899276,-0.5334174633026123,0.2149146348237991,0.0,0.0,-0.7751824259757996,-0.482287049293518
-0.2797323167324066,0.8281055092811584,-0.0169370956718921,0.0049485401250422,-0.522682249546051,0.2147042751312255,0.0,0.0,-0.4956876039505005,-0.7200495600700378
-0.2797675132751465,0.8280578851699829,-0.0139899803325533,0.0018562212353572,-0.5107924342155457,0.2377957552671432,0.0,0.0,-0.4140005111694336,-0.425748348236084
-0.2797240614891052,0.8278970718383789,-0.0061819208785891,-0.0032631771173328,-0.4989176392555237,0.2374958246946334,0.0,0.0,-0.5878725647926331,-0.5607007145881653
-0.2796259522438049,0.8276527523994446,-0.0015838904073461,-0.0067711696028709,-0.486147791147232,0.2553971111774444,0.0,0.0,-0.8251168131828308,-0.6565359234809875
-0.2794824242591858,0.827327311038971,0.0018048817291855,-0.0101143158972263,-0.4721910953521728,0.2791337966918945,0.0,0.0,-0.5223067402839661,-0.4214204549789428
-0.2792511582374573,0.8268892765045166,0.0105148963630199,-0.0152380941435694,-0.4582556784152984,0.2787082493305206,0.0,0.0,-0.8329784870147705,-0.4216087460517883
-0.2789294719696045,0.8263387084007263,0.0194920040667057,-0.0203619804233312,-0.4443434774875641,0.2782440185546875,0.0,0.0,-0.6924089789390564,-0.3667928576469421
-0.2785148620605469,0.8256756663322449,0.0287195779383182,-0.025485960766673,-0.4304563403129577,0.2777428030967712,0.0,0.0,-0.448935866355896,0.0458548069000244
-0.2780051231384277,0.8249001502990723,0.0381815619766712,-0.0306100193411111,-0.4165960252285003,0.2772063016891479,0.0,0.0,-0.8154481649398804,-0.3314176797866821
-0.277398020029068,0.8240123987197876,0.047862522304058,-0.0357341393828392,-0.4027642011642456,0.2766361832618713,0.0,0.0,-0.4857769012451172,-0.4308568239212036
-0.27669158577919,0.8230121731758118,0.0577476918697357,-0.0408583208918571,-0.3889625072479248,0.2760340869426727,0.0,0.0,-0.7695687413215637,-0.4623658061027527
-0.2758839130401611,0.8218993544578552,0.0678230226039886,-0.0459825433790683,-0.3751924335956573,0.2754016518592834,0.0,0.0,-0.717352032661438,-0.3026282787322998
-0.2749733328819275,0.8206743001937866,0.0780751779675483,-0.0511067882180213,-0.3614554107189178,0.2747404277324676,0.0,0.0,-0.7811732292175293,-0.2454878687858581
-0.273958295583725,0.8193365931510925,0.0884915217757225,-0.0562310442328453,-0.3477528095245361,0.2740519642829895,0.0,0.0,-0.646312952041626,0.1014331579208374
-0.2728373110294342,0.8178866505622864,0.0990601852536201,-0.0613553039729595,-0.3340859115123749,0.2733377814292907,0.0,0.0,-0.811009407043457,-0.0273886322975158
