x_pos,y_pos,x_vel,y_vel,angle,ang_vel,leg_1,leg_2,main_booster,lat_booster
-0.0015088081127032,1.403380274772644,-0.1534116864204406,-0.3351017236709595,0.0022662605624645,0.044741541147232,0.0,0.0,-0.8725419018112293,-0.6092776060214198
-0.0030454634688794,1.3956165313720703,-0.1575182378292083,-0.3450659215450287,0.0060817645862698,0.0763176903128624,0.0,0.0,-0.2626527219885923,-0.9014408548403924
-0.0046199797652661,1.387601375579834,-0.1632225662469864,-0.3562613129615783,0.0117902811616659,0.114181064069271,0.0,0.0,-0.0216367382556033,0.7313102896650068
-0.0061299325898289,1.3793411254882812,-0.1561096608638763,-0.3671790361404419,0.0168444439768791,0.1010927408933639,0.0,0.0,0.0778543634315138,0.8202275587892578
-0.0074652670882642,1.3714815378189087,-0.1375742107629776,-0.3493599891662597,0.0208414681255817,0.0799475312232971,0.0,0.0,0.4270432629320171,-0.8898231857088216
-0.0087254522368311,1.3640825748443604,-0.1325250118970871,-0.3289456665515899,0.0272771380841732,0.1287251710891723,0.0,0.0,-0.9340107789289596,0.8051526906931562
-0.009903335943818,1.3564424514770508,-0.123259425163269,-0.3396652340888977,0.0326886288821697,0.1082397103309631,0.0,0.0,-0.8034174911432157,-0.8478648556791256
-0.0111091611906886,1.3485591411590576,-0.1278524547815323,-0.3505445420742035,0.0398776419460773,0.1437937915325164,0.0,0.0,0.2663879085177369,0.6053301598605751
-0.0122802732512354,1.341402888298035,-0.1236610263586044,-0.3182482123374939,0.046359147876501,0.1296421587467193,0.0,0.0,-0.8539731342357866,-0.9497273574356904
-0.0135025028139352,1.334004044532776,-0.1311936825513839,-0.3291397988796234,0.0552403256297111,0.1776399761438369,0.0,0.0,0.6547001981325757,0.6032827736758016
-0.0145925525575876,1.3272662162780762,-0.1175266727805137,-0.2997908592224121,0.0636776536703109,0.168761670589447,0.0,0.0,0.0841671796076484,0.971821925386649
-0.0155475614592432,1.320814847946167,-0.1025832891464233,-0.2870403528213501,0.0706975311040878,0.1404103338718414,0.0,0.0,-0.339381723986734,-0.9395091123888416
-0.0165346153080463,1.3141193389892578,-0.107787050306797,-0.2980295419692993,0.0796957984566688,0.1799822449684143,0.0,0.0,0.6575072917709621,-0.885098997331145
-0.0175155643373727,1.3077070713043213,-0.1095901355147361,-0.2856378853321075,0.0910961702466011,0.2280283272266388,0.0,0.0,0.9730405331288164,0.7998967409610531
-0.0183143615722656,1.302565336227417,-0.0906905159354209,-0.2292136698961258,0.1018417626619339,0.2149315774440765,0.0,0.0,-0.9970795652733532,-0.7288574900055866
-0.0191316604614257,1.2971662282943726,-0.094253584742546,-0.2408680468797683,0.1142949908971786,0.2490871697664261,0.0,0.0,-0.6241022886796894,0.6938540705629443
-0.0198548324406147,1.291545033454895,-0.0836312025785446,-0.2507336139678955,0.1255642473697662,0.2254055738449096,0.0,0.0,0.5521356775004604,-0.6152463702833484
-0.0204970352351665,1.2862194776535034,-0.0776182264089584,-0.2378747314214706,0.1389184892177581,0.2671088576316833,0.0,0.0,0.2571313783266231,-0.9569659952944206
-0.0211855880916118,1.281571865081787,-0.0846785306930542,-0.2081108689308166,0.1547321677207946,0.3163025677204132,0.0,0.0,0.0869486410096782,0.7362242069742774
-0.0219051353633403,1.27723491191864,-0.0867444276809692,-0.194355696439743,0.1695403754711151,0.2961906790733337,0.0,0.0,0.1977583279187609,0.622302605710172
-0.0225378982722759,1.27350652217865,-0.0774784833192825,-0.1673857569694519,0.1837867498397827,0.2849535346031189,0.0,0.0,-0.1548288510353501,0.9234740726942604
-0.0230674743652343,1.2695527076721191,-0.0657456219196319,-0.1773606240749359,0.1966668963432312,0.2576261162757873,0.0,0.0,0.2786753284047909,0.6884105520803823
-0.0234859474003314,1.2660260200500488,-0.0539162158966064,-0.1583960205316543,0.2088534832000732,0.2437534779310226,0.0,0.0,0.0048697103820161,-0.9864651828371512
-0.0239375121891498,1.2625181674957275,-0.0596631839871406,-0.1580090224742889,0.2235161811113357,0.2932798564434051,0.0,0.0,0.3443807689047105,-0.8671344804061599
-0.0246707908809185,1.2594728469848633,-0.0898658856749534,-0.1379444301128387,0.24031563103199,0.3360196053981781,0.0,0.0,-0.7652686624683616,0.6438773217456432
-0.025333309546113,1.2561845779418943,-0.0822969228029251,-0.1488480865955352,0.2566455602645874,0.3265992701053619,0.0,0.0,0.0503632325673382,-0.7940764266376552
-0.0261412616819143,1.253309965133667,-0.0988275855779647,-0.1310227811336517,0.275097131729126,0.3690314888954162,0.0,0.0,0.6969221955081826,-0.9121380332576328
-0.0273639671504497,1.251340627670288,-0.1423007100820541,-0.0914338305592536,0.2956882417201996,0.4118223786354065,0.0,0.0,0.2321273905833314,0.9281417065748356
-0.02876453474164,1.249952793121338,-0.1585866957902908,-0.0655620843172073,0.3148619830608368,0.3834746181964874,0.0,0.0,-0.1121428781163567,0.8412125156917724
-0.0300731658935546,1.2483539581298828,-0.1481907069683075,-0.0749231129884719,0.3329025506973266,0.3608122169971466,0.0,0.0,-0.8873633854824772,-0.6782646713031721
-0.0314019210636615,1.24649977684021,-0.1518666595220565,-0.0869139656424522,0.3527972400188446,0.397894024848938,0.0,0.0,-0.9580099378468552,0.8044696775892433
-0.0326476097106933,1.2444326877593994,-0.142563059926033,-0.0964021608233451,0.371779054403305,0.3796365261077881,0.0,0.0,0.4299910566056986,-0.9521388935579976
-0.0342634208500385,1.2430217266082764,-0.1816947013139724,-0.0680845081806182,0.3931659460067749,0.4277382493019104,0.0,0.0,0.8458337522818429,-0.6443845504831678
-0.0361200347542762,1.2418551445007324,-0.2071397006511688,-0.0579552166163921,0.4162212014198303,0.4611046910285949,0.0,0.0,0.5063343109721732,-0.923829958394464
-0.0382302291691303,1.2412073612213137,-0.2345399558544159,-0.0359421372413635,0.441724956035614,0.5100748538970947,0.0,0.0,0.1756475344805028,0.9912907781006264
-0.0404603965580463,1.2411216497421265,-0.2448193728923797,-0.0108788190409541,0.4656663239002228,0.478828102350235,0.0,0.0,-0.786286835584534,-0.6514803453495641
-0.0427087768912315,1.2407634258270264,-0.2481340616941452,-0.0239473618566989,0.4915538132190704,0.5177496671676636,0.0,0.0,-0.1719340954246677,-0.7607696511876364
-0.0449807159602642,1.2401387691497805,-0.2519506812095642,-0.0368675701320171,0.5194496512413025,0.5579179525375366,0.0,0.0,-0.8560599157732267,-0.9851542385333878
-999.0,1.239231824874878,-0.2587706744670868,-0.0508272722363472,0.5500672459602356,0.6123535633087158,0.0,0.0,-0.1003511667954455,-0.6392007138025897
-0.0496375076472759,1.2380589246749878,-0.261374682188034,-0.0638482421636581,0.5824974775314331,0.6486051678657532,0.0,0.0,-0.6336708479487261,0.654987522213327
-0.0519165024161338,1.2366962432861328,-0.2545240819454193,-0.072624422609806,0.6142751574516296,0.635553240776062,0.0,0.0,-0.9399165511131288,0.9995290040969848
-0.0540940277278423,1.235182762145996,-0.2420967519283294,-0.0790456905961036,0.6439646482467651,0.5937895774841309,0.0,0.0,-0.9802485704421996,0.9896421432495116
-0.0561717040836811,1.2335094213485718,-0.2300039082765579,-0.085792101919651,0.6716828942298889,0.5543646216392517,0.0,0.0,-0.9901736974716188,0.9993603229522704
-0.0581536293029785,1.2316861152648926,-0.2183796167373657,-0.091982714831829,0.6973651647567749,0.5136455297470093,0.0,0.0,-0.992085099220276,0.999109148979187
-0.0600511543452739,1.2296898365020752,-0.2083389461040496,-0.0993358418345451,0.7215256094932556,0.4832087159156799,0.0,0.0,-0.99789160490036,0.9992661476135254
-0.0618577972054481,1.2275340557098389,-0.1974699199199676,-0.105875477194786,0.7438296675682068,0.4460810124874115,0.0,0.0,-0.99764084815979,0.988084077835083
-0.0635761246085167,1.2252243757247925,-0.1869178116321563,-0.1120698750019073,0.7642267942428589,0.4079427719116211,0.0,0.0,-0.995747685432434,0.9693808555603028
-0.0652318969368934,1.2227492332458496,-0.1794429272413253,-0.1190158501267433,0.7833468914031982,0.3824015259742737,0.0,0.0,-0.992249608039856,0.996835708618164
-0.0668261498212814,1.2201074361801147,-0.172135442495346,-0.1259964853525161,0.8012085556983948,0.3572327494621277,0.0,0.0,-0.9922552704811096,0.9974058866500854
-0.068344309926033,1.2173066139221191,-0.1631443798542022,-0.1323933750391006,0.8174054026603699,0.3239361047744751,0.0,0.0,-0.9943522810935974,0.9834879636764526
-0.0697753876447677,1.2143704891204834,-0.152703583240509,-0.137396290898323,0.8313429355621338,0.2787510752677917,0.0,0.0,-0.992743194103241,0.9827537536621094
-0.0711410492658615,1.2112765312194824,-0.1449887454509735,-0.1437278091907501,0.8437463045120239,0.2480668574571609,0.0,0.0,-0.9859741926193236,0.959136962890625
-0.0724238380789756,1.2080384492874146,-0.1352065801620483,-0.1491496711969375,0.8540704846382141,0.2064834535121917,0.0,0.0,-0.9992219805717468,0.8402055501937866
-0.0736461654305458,1.204639911651611,-0.1281155496835708,-0.1555772423744201,0.8629429936408997,0.1774496138095855,0.0,0.0,-0.9761688113212584,0.8744590282440186
-0.0747910514473915,1.2010958194732666,-0.118991270661354,-0.1610505282878875,0.86981201171875,0.1373805850744247,0.0,0.0,-0.9889349937438964,0.7901918888092041
-0.0758801475167274,1.197368860244751,-0.1127131357789039,-0.1686587929725647,0.8756483793258667,0.1167270094156265,0.0,0.0,-0.9983540773391724,0.7397769689559937
-0.0769103989005088,1.1934826374053955,-0.1058372259140014,-0.1749815791845321,0.879989504814148,0.0868226587772369,0.0,0.0,-0.9983891844749452,0.738724946975708
-0.0778780952095985,1.189439058303833,-0.0985254496335983,-0.1811264604330063,0.8827143311500549,0.0544949248433113,0.0,0.0,-0.9345566630363464,0.2213815450668335
-0.0788265243172645,1.1851565837860107,-0.0968930795788765,-0.1920071989297866,0.8859124183654785,0.0639614537358284,0.0,0.0,-0.999238133430481,0.2020406723022461
-0.0797563567757606,1.18063485622406,-0.0953258648514747,-0.2028877735137939,0.8895781636238098,0.0733143389225006,0.0,0.0,-0.999683916568756,0.4289827346801758
-0.0806683525443077,1.175873875617981,-0.0938247293233871,-0.2137682139873504,0.8937053084373474,0.0825425386428833,0.0,0.0,-0.9997690320014954,0.0977225303649902
-0.0815632790327072,1.1708736419677734,-0.0923905000090599,-0.2246484756469726,0.8982870578765869,0.0916339308023452,0.0,0.0,-0.981200635433197,0.6248884201049805
-0.0824050903320312,1.1657006740570068,-0.0862644165754318,-0.2316567748785019,0.9015786051750184,0.0658308640122413,0.0,0.0,-0.9964563250541688,0.346133828163147
-0.0832313522696495,1.1602879762649536,-0.0849673897027969,-0.2425358742475509,0.9053090214729308,0.0746081545948982,0.0,0.0,-0.9992583990097046,0.0307592153549194
-0.0840428322553634,1.1546359062194824,-0.0837391018867492,-0.2534146308898926,0.9094693064689636,0.0832058638334274,0.0,0.0,-0.9987971782684326,0.1225864887237548
-0.0848402008414268,1.1487443447113037,-0.0825797766447067,-0.2642929852008819,0.9140496850013732,0.0916076377034187,0.0,0.0,-0.9983853101730348,0.5665602684020996
-0.0856005698442459,1.1426702737808228,-0.0782652348279953,-0.2719015479087829,0.9176673889160156,0.0723537355661392,0.0,0.0,-0.9979698061943054,0.1509668827056884
-0.0863483399152755,1.136356234550476,-0.077245220541954,-0.2827783823013305,0.9216828942298888,0.0803097561001777,0.0,0.0,-0.9932276606559752,0.1219358444213867
-0.087084487080574,1.1298023462295532,-0.0762941464781761,-0.2936546206474304,0.9260835647583008,0.0880135744810104,0.0,0.0,-0.9935272932052612,0.2677215337753296
-0.0878095626831054,1.1230086088180542,-0.0754116624593734,-0.3045302033424377,0.9308558106422424,0.0954443886876106,0.0,0.0,-0.996506929397583,0.2149124145507812
-0.0885246247053146,1.1159746646881104,-0.0745972394943237,-0.3154050409793854,0.9359848499298096,0.1025803536176681,0.0,0.0,-0.9998174905776978,0.223874807357788
-0.0892303436994552,1.1087005138397217,-0.0738501846790313,-0.3262790739536285,0.9414547681808472,0.1093988269567489,0.0,0.0,-0.9988871216773988,0.2139862775802612
-0.0899276733398437,1.1011857986450195,-0.0731696859002113,-0.3371521830558777,0.9472485780715942,0.1158764138817787,0.0,0.0,-0.9984772801399232,0.3355861902236938
-0.0906172767281532,1.093430757522583,-0.0725547671318054,-0.348024308681488,0.9533480405807496,0.1219892501831054,0.0,0.0,-0.9947128891944884,0.5786960124969482
-0.0912734046578407,1.0854830741882324,-0.0686045959591865,-0.3560503721237182,0.958463966846466,0.1023183912038803,0.0,0.0,-0.998423993587494,0.2672417163848877
-0.0919234305620193,1.0772945880889893,-0.0681189000606536,-0.3669195175170898,0.963845431804657,0.1076296716928482,0.0,0.0,-0.9983463883399964,0.5055434703826904
-0.0925444588065147,1.0689067840576172,-0.0646943897008895,-0.3752993941307068,0.9683564901351928,0.0902228578925132,0.0,0.0,-0.9917184710502625,0.3434290885925293
-0.0931607261300087,1.0602773427963257,-0.0643322318792343,-0.3861652910709381,0.9730884432792664,0.0946379080414772,0.0,0.0,-0.9940586686134338,0.4317777156829834
-0.0937729850411415,1.0514063835144043,-0.0640289038419723,-0.3970296680927276,0.978017032146454,0.0985713973641395,0.0,0.0,-0.9962049722671508,0.5125315189361572
-0.0943672209978103,1.0423351526260376,-0.0617426745593547,-0.4054636061191559,0.9821282625198364,0.0822243839502334,0.0,0.0,-0.9995985627174376,0.4096376895904541
-0.0949588790535926,1.0330218076705933,-0.0615525022149086,-0.4163241982460022,0.9863850474357604,0.085135594010353,0.0,0.0,-0.998755156993866,0.4927586317062378
-0.0955486297607421,1.0234657526016235,-0.0614155046641826,-0.42718306183815,0.9907605648040771,0.0875101014971733,0.0,0.0,-0.9874869585037231,0.459762692451477
-0.0961372405290603,1.013666749000549,-0.061329573392868,-0.4380399882793426,0.9952272772789,0.0893343687057495,0.0,0.0,-0.9953489899635316,0.6022253036499023
-0.0967040061950683,1.0036778450012207,-0.0584611222147941,-0.4457791447639465,0.998461663722992,0.0646877586841583,0.0,0.0,-0.9917750358581544,0.509617805480957
-0.0972517952322959,0.9934946894645692,-0.0559180676937103,-0.453775942325592,1.0005474090576172,0.0417156256735324,0.0,0.0,-0.9992451667785645,0.1543762683868408
-0.0978000611066818,0.9830673933029176,-0.0559733435511589,-0.4646262228488922,1.0026392936706543,0.0418379046022892,0.0,0.0,-0.9966477155685424,0.415236234664917
-0.0983494743704795,0.9723955988883972,-0.0560702197253704,-0.4754745066165924,1.0047086477279663,0.04138720408082,0.0,0.0,-0.9974757432937622,0.4484357833862304
-0.0989006012678146,0.9614792466163636,-0.0562060996890068,-0.4863207936286926,1.0067269802093506,0.0403658375144004,0.0,0.0,-0.9985094666481018,0.6160092353820801
-0.099422737956047,0.95039165019989,-0.0522802844643592,-0.4928602874279022,1.0068539381027222,0.0025386314373463,0.0,0.0,-0.9964024424552916,0.1779947280883789
-0.0999475494027137,0.9390584230422974,-0.0524864122271537,-0.5037023425102234,1.0068738460540771,0.0003978520689997,0.0,0.0,-0.9955976009368896,0.5485787391662598
-0.100455567240715,0.92753404378891,-0.0500498041510582,-0.5113921761512756,1.0054681301116943,-0.0281143449246883,0.0,0.0,-0.9972797632217408,0.315872311592102
-0.1009673103690147,0.915763795375824,-0.0503140985965728,-0.5222305655479431,1.0039019584655762,-0.0313244275748729,0.0,0.0,-0.9958096742630004,0.6223201751708984
-0.1014536842703819,0.9038206338882446,-0.0467103123664855,-0.5287972092628479,1.0003712177276611,-0.0706157460808754,0.0,0.0,-0.9972086548805236,0.5088446140289307
-0.1019169837236404,0.8916851878166199,-0.0435196682810783,-0.5364359021186829,0.9952359199523926,-0.1027057990431785,0.0,0.0,-0.9954565763473512,0.4698455333709717
-0.1023852378129959,0.8793033957481384,-0.0438462644815444,-0.5472702383995056,0.9898666739463806,-0.1073852404952049,0.0,0.0,-0.983897626399994,0.5688620805740356
-0.1028354614973068,0.8667401671409607,-0.0410138741135597,-0.5543292164802551,0.9827009439468384,-0.1433147341012954,0.0,0.0,-0.9936087727546692,0.5636303424835205
-0.1032683402299881,0.8539814352989197,-0.0383557826280593,-0.5621687769889832,0.9739832282066344,-0.1743542999029159,0.0,0.0,-0.9969021677970886,0.5884664058685303
-0.1036902442574501,0.8410229086875916,-0.036391794681549,-0.5702981352806091,0.963862419128418,-0.20241579413414,0.0,0.0,-0.9960261583328248,0.2954527139663696
-0.1041184440255165,0.8278173804283142,-0.0367521531879901,-0.5811308026313782,0.9534253478050232,-0.2087417393922805,0.0,0.0,-0.9938498139381408,0.7213536500930786
-0.1045271903276443,0.814429521560669,-0.0336024090647697,-0.5882642865180969,0.941108465194702,-0.246338203549385,0.0,0.0,-0.9964940547943116,0.6868658065795898
-0.1049192398786544,0.8008525371551514,-0.0307436399161815,-0.5957838892936707,0.9270507097244264,-0.281155377626419,0.0,0.0,-0.9759244322776794,0.4997807741165161
-0.105318546295166,0.7870292067527771,-0.0310904346406459,-0.6066187620162964,0.9126272201538086,-0.2884695827960968,0.0,0.0,-0.9927458167076112,0.5963140726089478
-0.1057033538818359,0.7730035185813904,-0.0285270027816295,-0.6149088740348816,0.8967082500457764,-0.3183797597885132,0.0,0.0,-0.9789883494377136,0.3164721727371216
-0.1060959845781326,0.7587317228317261,-0.0288485493510961,-0.6257458329200745,0.8803960680961609,-0.3262433707714081,0.0,0.0,-0.9519243240356444,0.6502038240432739
-0.1064614281058311,0.7442842721939087,-0.0244966261088848,-0.6325560212135315,0.8619120121002197,-0.3696813285350799,0.0,0.0,-0.9640392065048218,0.3903343677520752
-0.1068351715803146,0.7295913100242615,-0.0247760508209466,-0.6433975100517273,0.8430113196372986,-0.3780143558979034,0.0,0.0,-0.9161981344223022,0.5427120923995972
-0.1071850806474685,0.714713990688324,-0.0207762625068426,-0.6507737636566162,0.8221391439437866,-0.4174436926841736,0.0,0.0,-0.8882694244384766,0.3032379150390625
-0.1075434684753418,0.6995923519134521,-0.0209994651377201,-0.66162109375,0.8008303642272949,-0.426175594329834,0.0,0.0,-0.8910857439041138,0.6012022495269775
-0.107874296605587,0.6842934489250183,-0.0163668636232614,-0.6687067151069641,0.7773829698562622,-0.4689489901065826,0.0,0.0,-0.8338350653648376,0.2193330526351928
-0.1082138046622276,0.6687512397766113,-0.0165186468511819,-0.6795621514320374,0.7534821033477783,-0.478017657995224,0.0,0.0,-0.8784750699996948,0.3024982213973999
-0.1085619926452636,0.6529662609100342,-0.0166329555213451,-0.6904197931289673,0.7291203737258911,-0.4872363209724426,0.0,0.0,-0.863507091999054,0.6166055202484131
-0.1088821440935134,0.6369960308074951,-0.0119052929803729,-0.6980971097946167,0.7027726769447327,-0.526953935623169,0.0,0.0,-0.5932621955871582,0.2675483226776123
-0.1092108711600303,0.6207844614982605,-0.0119279334321618,-0.7089648842811584,0.6759510040283203,-0.5364335179328918,0.0,0.0,-0.8876926898956299,0.7428638935089111
-0.1095129027962684,0.6043769717216492,-0.0073578893207013,-0.7173332571983337,0.6473480463027954,-0.5720586180686951,0.0,0.0,-0.6741881966590881,0.3913066387176513
-0.1098229438066482,0.5877302885055542,-0.0072764977812767,-0.7282123565673828,0.6182601451873779,-0.5817583799362183,0.0,0.0,-0.6502903699874878,-0.1547281146049499
-0.1101408973336219,0.5708451271057129,-0.0071412129327654,-0.7390952706336975,0.5886822938919067,-0.5915570855140686,0.0,0.0,-0.5871763825416565,-0.1412892341613769
-0.1104661002755165,0.5537218451499939,-0.0069488966837525,-0.7499821186065674,0.5586099624633789,-0.6014471054077148,0.0,0.0,-0.3223006725311279,-0.0653271079063415
-0.1107978820800781,0.5363613963127136,-0.0066964952275156,-0.7608731389045715,0.5280388593673706,-0.611421525478363,0.0,0.0,-0.2642966508865356,0.1883879899978637
-0.1111357659101486,0.5187644958496094,-0.0063810469582676,-0.7717685699462891,0.4969651401042938,-0.6214742064476013,0.0,0.0,0.7143166065216064,0.4008882045745849
-0.1118553131818771,0.5020537972450256,-0.0437231920659542,-0.7328299283981323,0.4655053317546844,-0.6291965246200562,0.0,0.0,-0.4199916124343872,0.6731734275817871
-0.1125253662467002,0.48514124751091,-0.036436740309,-0.7418167591094971,0.4319876730442047,-0.6703546047210693,0.0,0.0,-0.0236604809761047,0.896435022354126
