x_pos,y_pos,x_vel,y_vel,angle,ang_vel,leg_1,leg_2,main_booster,lat_booster
-0.0015328407753258,1.4029892683029177,-0.1550340354442596,-0.3524850010871887,0.0015580386389046,0.0307188685983419,0.0,0.0,-0.8720577488883099,-0.8389479423731014
-0.0031352997757494,1.394442081451416,-0.1631183922290802,-0.3798814415931701,0.0044071222655475,0.0569876953959465,0.0,0.0,-0.3660245442153982,0.9645669647384328
-0.0046538352034986,1.385252833366394,-0.1522207558155059,-0.4084172248840332,0.0047755152918398,0.0073683634400367,0.0,0.0,-0.1401441400883536,0.5860126397942624
-0.0061434744857251,1.3754265308380127,-0.1482907086610794,-0.4367253184318542,0.0041001890785992,-0.0135073661804199,0.0,0.0,-0.2078986789160284,0.8828783271364081
-0.0075568198226392,1.364968180656433,-0.1384285986423492,-0.4648085236549377,0.0012258363422006,-0.0574923679232597,0.0,0.0,-0.2602719481052058,0.5954836710053831
-0.0089200977236032,1.3538739681243896,-0.1319175064563751,-0.4930758476257324,-0.0031372860539704,-0.0872706174850463,0.0,0.0,-0.6901969497378544,-0.9811448863039804
-0.0103707313537597,1.3421450853347778,-0.1426654458045959,-0.5212908983230591,-0.0054929554462432,-0.0471177175641059,0.0,0.0,-0.1820378640772173,0.721474869118576
-0.0117569919675588,1.3297827243804932,-0.1344808340072631,-0.5494649410247803,-0.0096047595143318,-0.0822436735033989,0.0,0.0,-0.627324160031371,-0.5074274499839355
-0.0131903644651174,1.31679105758667,-0.1402894258499145,-0.5774229168891907,-0.01262794341892,-0.060469202697277,0.0,0.0,0.3792222120994069,0.9674354175092748
-0.0145467761904001,1.3040786981582642,-0.1307360827922821,-0.5650464296340942,-0.0174728967249393,-0.0969076007604599,0.0,0.0,-0.6737687658111509,0.8630338924668227
-0.0158309936523437,1.2907298803329468,-0.1216826662421226,-0.5933763384819031,-0.0241415873169899,-0.1333859264850616,0.0,0.0,0.8368174503495704,-0.607643202132311
-0.0170700065791606,1.277624249458313,-0.1187732368707656,-0.5825594067573547,-0.0292117558419704,-0.1014123931527137,0.0,0.0,-0.2768847927866547,0.9790587509931286
-0.018220042809844,1.263884663581848,-0.10768673568964,-0.6108101606369019,-0.0364491231739521,-0.1447606533765792,0.0,0.0,-0.8412216167189632,0.7686660349689416
-0.0193073265254497,1.2494995594024658,-0.0999179631471633,-0.639569103717804,-0.0451600961387157,-0.1742353737354278,0.0,0.0,0.9772368361542848,-0.611195420512121
-0.0202221870422363,1.2359557151794434,-0.0846863836050033,-0.602165937423706,-0.0518899895250797,-0.1346102654933929,0.0,0.0,-0.1157357823738078,0.5722140233978775
-0.0210879333317279,1.2217659950256348,-0.0787064284086227,-0.6309453845024109,-0.0596814304590225,-0.1558430343866348,0.0,0.0,0.7178555948665604,-0.9591043630756632
-0.0218190196901559,1.2082767486572266,-0.0677177831530571,-0.5997410416603088,-0.0650156140327453,-0.1066933274269104,0.0,0.0,0.2159499466137082,0.5835899750651632
-0.022374153137207,1.1945443153381348,-0.0495278760790824,-0.6106041669845581,-0.070957250893116,-0.118843212723732,0.0,0.0,-0.6320084711830813,-0.8810796043029989
-0.0229902267456054,1.180191159248352,-0.0574644580483436,-0.6381238698959351,-0.0750640407204628,-0.0821433290839195,0.0,0.0,0.858016606648643,0.5414926379510395
-0.0236148834228515,1.1661603450775146,-0.0573439374566078,-0.6238543391227722,-0.0801419541239738,-0.1015675663948059,0.0,0.0,0.2005200435004954,0.5194574576025766
-0.024056052789092,1.1522977352142334,-0.0385837629437446,-0.6164261698722839,-0.0856283232569694,-0.1097371578216552,0.0,0.0,0.5644660369497663,-0.742223131547358
-0.0245100017637014,1.1384273767471311,-0.0418150387704372,-0.6166703701019287,-0.0891848057508468,-0.071135975420475,0.0,0.0,0.430101665941814,0.6138539661025046
-0.0247533805668354,1.1246016025543213,-0.0202332008630037,-0.6147235631942749,-0.0932545289397239,-0.0814021155238151,0.0,0.0,-0.1476424134354323,0.7929510978976276
-0.0249292366206645,1.1101218461990356,-0.0121836271136999,-0.6438955068588257,-0.0986193567514419,-0.1073063015937805,0.0,0.0,0.9403661022141528,0.5726296995375235
-0.0251633636653423,1.0961557626724243,-0.0168544985353946,-0.6211522221565247,-0.1051396951079368,-0.1304182261228561,0.0,0.0,0.8779319728959905,-0.9985119738043692
-0.0255780220031738,1.0827734470367432,-0.0371298380196094,-0.5950806736946106,-0.1094452962279319,-0.0861117765307426,0.0,0.0,-0.3651636620503067,0.9562076860552502
-0.0259174350649118,1.068748950958252,-0.0282046105712652,-0.6237425208091736,-0.1151467710733413,-0.1140296459197998,0.0,0.0,0.2659861820024529,0.9835986256313516
-0.0262228958308696,1.0550482273101809,-0.0233455020934343,-0.6094962954521179,-0.1223077327013015,-0.1432189643383026,0.0,0.0,0.3359750875189173,0.6115406671602659
-0.0265189167112112,1.041662096977234,-0.021509725600481,-0.5956283807754517,-0.1303603649139404,-0.1610523462295532,0.0,0.0,0.8159483009607127,0.6939639951127258
-0.026715850457549,1.0284292697906494,-0.0107221668586134,-0.5889366269111633,-0.1392950117588043,-0.1786925494670868,0.0,0.0,-0.9421985867748937,-0.8746146644246594
-0.0269779209047555,1.0145845413208008,-0.019519068300724,-0.6159563064575195,-0.1459548473358154,-0.1331972926855087,0.0,0.0,-0.9974903464317322,-0.9779514074325562
-0.027326202020049,1.000117301940918,-0.0309579018503427,-0.6433734893798828,-0.1498218923807144,-0.0773408412933349,0.0,0.0,-0.9973286986351012,-0.9884149432182312
-0.0277606006711721,0.9850427508354188,-0.0424157679080963,-0.6700815558433533,-0.1508375704288482,-0.020313736051321,0.0,0.0,-0.9930362701416016,-0.9607045650482178
-0.0282776840031147,0.9693421721458436,-0.0534249022603035,-0.697633683681488,-0.1491245031356811,0.0342614725232124,0.0,0.0,-0.9712787866592408,-0.4166295528411865
-0.0287932399660348,0.9530050158500672,-0.0538938455283641,-0.7258592247962952,-0.1467939168214798,0.0466113947331905,0.0,0.0,-0.8658749461174011,-0.8086817860603333
-0.029367733746767,0.936051309108734,-0.0619846582412719,-0.7530590295791626,-0.1422658413648605,0.090561494231224,0.0,0.0,-0.8757203817367554,-0.1285617351531982
-0.0299400333315134,0.9184615015983582,-0.0624051876366138,-0.7812861204147339,-0.1371038258075714,0.1032402068376541,0.0,0.0,-0.7896268367767334,0.1800942420959472
-0.0305097587406635,0.9002354741096497,-0.062799833714962,-0.8095139861106873,-0.1313005983829498,0.1160645708441734,0.0,0.0,-0.4283027648925781,0.4472957849502563
-0.0310766212642192,0.8813737630844116,-0.0631676092743873,-0.8377426266670227,-0.1248494461178779,0.1290229856967926,0.0,0.0,-0.4796077013015747,0.7842531204223633
-0.0315757766366004,0.8618649840354919,-0.0554090440273284,-0.8666051030158997,-0.1193832233548164,0.1093244180083274,0.0,0.0,0.6082961559295654,0.5087599754333496
-0.0320509895682334,0.8428661227226257,-0.0523661263287067,-0.8440170884132385,-0.1145717427134513,0.096229575574398,0.0,0.0,-0.0537343025207519,0.7794981002807617
-0.0324486717581748,0.8232167363166809,-0.0433947779238224,-0.8730343580245972,-0.1109703704714775,0.0720274969935417,0.0,0.0,0.1584219932556152,0.6452341079711914
-0.032691765576601,0.8032307624816895,-0.027413910254836,-0.8880366683006287,-0.1078821048140525,0.0617653615772724,0.0,0.0,0.4440944194793701,-0.3939169645309448
-0.0327941887080669,0.7832840085029602,-0.0144343916326761,-0.886233389377594,-0.1037186086177825,0.0832696408033371,0.0,0.0,0.3914397954940796,0.6280343532562256
-0.0328544601798057,0.7630618810653687,-0.0095676267519593,-0.8985213041305542,-0.100206583738327,0.0702406615018844,0.0,0.0,0.4070825576782226,0.7369518280029297
-0.0327801704406738,0.7426055669784546,0.004619188606739,-0.9089785814285278,-0.0974167436361312,0.0557966940104961,0.0,0.0,-0.1938827633857727,0.708733320236206
-0.0326390266418457,0.7215005159378052,0.0121806170791387,-0.9378807544708252,-0.0955002903938293,0.038329005241394,0.0,0.0,0.6113865375518799,-0.1751425266265869
-0.0325235351920127,0.7009892463684082,0.0094400411471724,-0.9114773273468018,-0.0934042707085609,0.0419202595949173,0.0,0.0,0.1565035581588745,-0.3229153752326965
-0.0324426665902137,0.6806790232658386,0.0057082683779299,-0.9025350213050842,-0.0910489335656166,0.047106996178627,0.0,0.0,0.3867487907409668,0.2637984752655029
-0.0323340408504009,0.6603729128837585,0.007870128378272,-0.902316391468048,-0.0880848541855812,0.0592814795672893,0.0,0.0,0.0490095615386962,-0.3312495946884155
-0.0320958122611045,0.6399604678153992,0.0197032634168863,-0.9069756865501404,-0.0840069353580474,0.0815586000680923,0.0,0.0,0.0888388156890869,0.0575881004333496
-0.0318474769592285,0.6196429133415222,0.0201988704502582,-0.9027490615844728,-0.0794106647372245,0.0919253304600715,0.0,0.0,0.4984899759292602,0.0050412416458129
-0.031460665166378,0.5992810130119324,0.0328730717301368,-0.9046818614006042,-0.0736608579754829,0.1149962916970253,0.0,0.0,0.7934317588806152,-0.1773322820663452
-0.0309987068176269,0.5795785188674927,0.0396595224738121,-0.8753587603569031,-0.0671993941068649,0.1292290985584259,0.0,0.0,0.548818826675415,0.2052013874053955
-0.0303586013615131,0.5599108338356018,0.0561227798461914,-0.8737841844558716,-0.0593957528471946,0.156073123216629,0.0,0.0,0.6187262535095215,0.5188353061676025
-0.0297416690737009,0.5403023958206177,0.0544098913669586,-0.8712160587310791,-0.0521983578801155,0.1439481526613235,0.0,0.0,0.8863074779510498,0.3127515316009521
-0.0289613716304302,0.5214137434959412,0.0695384740829467,-0.839225172996521,-0.0438083223998546,0.1678007394075393,0.0,0.0,0.8345555067062378,-0.0757324695587158
-0.0279863364994525,0.5030027031898499,0.0875981003046035,-0.8180086016654968,-0.0340137891471385,0.1958907842636108,0.0,0.0,0.6445721387863159,0.798545241355896
-0.0268285758793354,0.4851868152618408,0.1066084280610084,-0.7916390895843506,-0.0249648075550794,0.1809795945882797,0.0,0.0,0.4376314878463745,0.5604486465454102
-0.0256718639284372,0.467767596244812,0.1071019992232322,-0.7740656137466431,-0.0165016781538724,0.1692626774311065,0.0,0.0,0.5202622413635254,0.230586290359497
-0.024452781304717,0.4502241015434265,0.1124077439308166,-0.7796391844749451,-0.0071278014220297,0.1874775290489196,0.0,0.0,0.8250603675842285,0.8298369646072388
-0.0232744216918945,0.4332133829593658,0.1095484271645546,-0.7560150027275085,0.0010496895993128,0.1635499745607376,0.0,0.0,0.7840559482574463,-0.0556758642196655
-0.0219533927738666,0.4164063036441803,0.1224972978234291,-0.7470134496688843,0.0105337863788008,0.1896816790103912,0.0,0.0,0.8044629096984863,0.5508384704589844
-0.0205582622438669,0.399971455335617,0.1302423030138015,-0.7305328249931335,0.0196862053126096,0.1830483525991439,0.0,0.0,0.8462375402450562,0.5698719024658203
-0.0191072467714548,0.3835717141628265,0.1362611353397369,-0.7290178537368774,0.0284166280180215,0.1746084988117218,0.0,0.0,0.921342134475708,0.5265750885009766
-0.0177761074155569,0.3675641417503357,0.1250923424959182,-0.7116234302520752,0.0363317653536796,0.1583030223846435,0.0,0.0,0.9020330905914308,0.2814610004425049
-0.0164456367492675,0.3524007797241211,0.1242330446839332,-0.6741665601730347,0.0450412184000015,0.1741889417171478,0.0,0.0,0.7050013542175293,0.5929141044616699
-0.0149800302460789,0.3370580673217773,0.13802270591259,-0.6821797490119934,0.0534800365567207,0.1687765419483184,0.0,0.0,0.8846440315246582,-0.1494380831718444
-0.0135249141603708,0.322542667388916,0.1361463963985443,-0.6454881429672241,0.0627348944544792,0.1850972473621368,0.0,0.0,0.7044938802719116,0.7419228553771973
-0.0121370311826467,0.3081170916557312,0.1304722130298614,-0.6415092349052429,0.0709650069475174,0.1646023839712143,0.0,0.0,0.8736789226531982,0.6433347463607788
-0.0108536724001169,0.2942028641700744,0.120933786034584,-0.6187801957130432,0.0782927870750427,0.1465552747249603,0.0,0.0,0.793502926826477,0.5333466529846191
-0.009534740820527,0.2806751728057861,0.1247984319925308,-0.6016188859939575,0.0853195786476135,0.1405359804630279,0.0,0.0,0.7129790782928467,0.913962721824646
-0.0083564762026071,0.2678225934505462,0.1121458038687706,-0.5715621709823608,0.0909507274627685,0.112622931599617,0.0,0.0,0.1679508686065673,0.8051294088363647
-0.0070812227204442,0.2549625039100647,0.1227534413337707,-0.5718564391136169,0.0956737324595451,0.0944602265954017,0.0,0.0,0.7397308349609375,0.5281643867492676
-0.0058300970122218,0.2420796006917953,0.1208662167191505,-0.572849452495575,0.0998867526650428,0.0842602998018264,0.0,0.0,0.745641827583313,0.1870577335357666
-0.0045306207612156,0.2290860563516616,0.1247250810265541,-0.5778504014015198,0.1050732284784317,0.1037294045090675,0.0,0.0,0.9042441844940186,0.2596750259399414
-0.0032972334884107,0.2160363495349884,0.1176480054855346,-0.5803959965705872,0.1107263937592506,0.1130633205175399,0.0,0.0,0.8522337675094604,0.4356862306594848
-0.002160167787224,0.203677088022232,0.1074211746454238,-0.5497820377349854,0.1169650331139564,0.1247729510068893,0.0,0.0,0.9701626300811768,0.7922512292861938
-0.0009608268737792,0.1921702027320861,0.1143916025757789,-0.5118630528450012,0.1224728301167488,0.1101559400558471,0.0,0.0,0.8754886388778687,0.4190489053726196
9.822845640883315e-06,0.1813874393701553,0.0915085673332214,-0.4797015488147735,0.1280066519975662,0.1106765419244766,0.0,0.0,0.9561622142791748,0.0454034805297851
0.0007896423339843,0.1705249100923538,0.0725276172161102,-0.4832548201084137,0.133439764380455,0.108662262558937,0.0,0.0,0.8944827318191528,0.1728584766387939
0.001505947089754,0.1603855937719345,0.0653535574674606,-0.4512125551700592,0.1396870464086532,0.1249457001686096,0.0,0.0,0.9684661626815796,0.3555498123168945
0.0020181655418127,0.1506059020757675,0.0449323467910289,-0.4352555274963379,0.1459679901599884,0.1256187260150909,0.0,0.0,0.9104912281036376,0.675108790397644
0.0024125098716467,0.141355350613594,0.0340831503272056,-0.4116702377796173,0.1513106971979141,0.1068541854619979,0.0,0.0,0.7905330657958984,0.5550768375396729
0.0027331351302564,0.1326044201850891,0.0272833742201328,-0.3894234597682953,0.1560782492160797,0.0953509584069252,0.0,0.0,0.8637034893035889,0.7271023988723755
0.0031248093582689,0.1242305636405944,0.0350441560149192,-0.3726094663143158,0.1602003574371338,0.0824424922466278,0.0,0.0,0.8694193363189697,0.6139206886291504
0.0035426139365881,0.1158089265227317,0.0382488034665584,-0.3746799826622009,0.1637284308671951,0.0705615431070327,0.0,0.0,0.914358615875244,0.2994225025177002
0.0040012360550463,0.1074701845645904,0.0412964560091495,-0.3711204528808594,0.1682995706796646,0.0914227366447448,0.0,0.0,0.902064085006714,0.5765023231506348
0.0045834542252123,0.0995265543460846,0.0537749156355857,-0.3535610735416412,0.1727526187896728,0.0890610218048095,0.0,0.0,0.829696536064148,0.3258552551269531
0.0052533149719238,0.0916344225406646,0.061314545571804,-0.3514316380023956,0.178444430232048,0.1138358563184738,0.0,0.0,0.88041090965271,0.851266622543335
0.0058405874297022,0.0843929648399353,0.0542580299079418,-0.3223857581615448,0.1829249709844589,0.0896109193563461,0.0,0.0,0.8571344614028931,0.7709528207778931
0.0063796998001635,0.077808104455471,0.0504125244915485,-0.2930971384048462,0.1864385306835174,0.070270799100399,0.0,0.0,0.8276063203811646,0.6043093204498291
0.0069841383956372,0.0717335790395736,0.0572898872196674,-0.2703796029090881,0.1896143704652786,0.0635167509317398,0.0,0.0,0.7315666675567627,-0.6434451937675476
0.0075976373627781,0.065540537238121,0.056158572435379,-0.2759189307689667,0.1948365867137909,0.1044445410370826,0.0,0.0,0.8157181739807129,0.5125792026519775
0.0080928802490234,0.0595299564301967,0.0450674854218959,-0.2677313685417175,0.1993181407451629,0.0896311104297638,0.0,0.0,0.5788605213165283,0.3626036643981933
0.0085143093019723,0.054121907800436,0.0368682593107223,-0.2410759180784225,0.2046259194612503,0.1061555296182632,0.0,0.0,0.3679513931274414,0.8163566589355469
0.0088916774839162,0.0487849563360214,0.0336973890662193,-0.2377637475728988,0.208705797791481,0.0815977081656456,0.0,0.0,0.9016847610473632,0.9262137413024902
0.0090046878904104,0.0441395156085491,0.0089673027396202,-0.2067948132753372,0.2110642790794372,0.0471692495048046,0.0,0.0,0.8006227016448975,0.9237682819366456
0.0091419219970703,0.0400361642241478,0.0126529932022094,-0.1825236231088638,0.2121424973011016,0.0215647704899311,0.0,0.0,0.4506717920303345,0.2776663303375244
0.0091041568666696,0.0362499579787254,-0.005022888071835,-0.1684580445289611,0.2134005725383758,0.0251611582934856,0.0,0.0,0.7997376918792725,0.784168004989624
0.0088664051145315,0.0330190770328044,-0.0236285310238599,-0.143571138381958,0.2132592946290969,-0.0028258960228413,0.0,0.0,0.4581584930419922,0.8941406011581421
0.0085902214050292,0.0298100803047418,-0.026035901159048,-0.1423971056938171,0.2116621434688568,-0.0319429002702236,0.0,0.0,0.7077504396438599,0.9791723489761353
0.0081356046721339,0.0268611535429954,-0.0421025604009628,-0.1305867731571197,0.2082716822624206,-0.0678092390298843,0.0,0.0,0.5533370971679688,0.960845708847046
0.0075057982467114,0.0239725206047296,-0.0578664354979991,-0.1276730746030807,0.2031174749135971,-0.1030840873718261,0.0,0.0,0.6179523468017578,0.9689445495605468
0.0069318772293627,0.0215481612831354,-0.0507918410003185,-0.1068601831793785,0.1964723914861679,-0.1329017281532287,0.0,0.0,0.0357409715652465,0.9196065664291382
0.0063891410827636,0.0193850137293338,-0.0344714447855949,-0.093658223748207,0.1765175461769104,-0.3991749584674835,0.0,1.0,0.6196167469024658,0.3544921875
0.0058538438752293,0.0177329163998365,-0.0342517383396625,-0.0712517574429512,0.1572175920009613,-0.3860092163085937,0.0,1.0,0.075342059135437,-0.0138527750968933
0.0052243233658373,0.0161952599883079,-0.0435527563095092,-0.066405601799488,0.1378488689661026,-0.3873748183250427,0.0,1.0,0.50765061378479,0.4283006191253662
0.0046161650680005,0.0152125693857669,-0.0419652089476585,-0.0420406199991703,0.1190831810235977,-0.3753135502338409,0.0,1.0,0.0260093212127685,0.2331351041793823
0.0040119169279932,0.014143762178719,-0.0417506471276283,-0.0461182706058025,0.1005372330546379,-0.3709190487861633,0.0,0.0,-0.7796984314918518,0.5149511098861694
0.0034558295737951,0.0124560454860329,-0.0361780636012554,-0.073816180229187,0.0812684819102287,-0.3853753209114074,0.0,0.0,-0.7319023013114929,0.3217208385467529
0.0029078484512865,0.0101381875574588,-0.0355992838740348,-0.1020819619297981,0.0622780099511146,-0.3798094391822815,0.0,0.0,0.0245654582977294,0.1027684211730957
0.0024003982543945,0.0076203439384698,-0.0320375002920627,-0.1112304106354713,0.0437817275524139,-0.3699254691600799,0.0,0.0,-0.2701373696327209,0.1834814548492431
0.0019010544056072,0.0044718240387737,-0.0314625687897205,-0.1394928991794586,0.0255331397056579,-0.3649717271327972,0.0,0.0,0.5328679084777832,-0.4222404360771179
0.0012784004211425,0.0014043068513274,-0.0434557013213634,-0.1361176669597625,0.0069661936722695,-0.3713391423225403,0.0,0.0,0.3212888240814209,-0.2888741493225097
0.000643253326416,-0.0016177915968,-0.0448394902050495,-0.1343321502208709,-0.0114629594609141,-0.3685830533504486,1.0,0.0,0.6799795627593994,0.3048158884048462
0.0001020431518554,-0.0039716623723506,-0.0484524294734001,-0.1048238575458526,-0.0164397042244672,-0.0987403392791748,1.0,0.0,0.6341050863265991,0.4170886278152466
-0.0002868652227334,-0.0051474357023835,-0.0346579849720001,-0.0523230023682117,-0.0206405539065599,-0.0840471088886261,1.0,1.0,0.076812744140625,-0.134015679359436
-0.0004901885986328,-0.0051307342946529,-0.0170369185507297,0.0006820544367656,-0.0239019151777029,-0.0652446895837783,1.0,1.0,-0.817160964012146,-0.4226048588752746
-0.0006424903986044,-0.0046642804518342,-0.0121306758373975,0.0206787809729576,-0.0269669163972139,-0.061290793120861,1.0,1.0,-0.5032036304473877,-0.1962593793869018
-0.0007027626270428,-0.0040633585304021,-0.0105989845469594,0.026775425300002,-0.0224639531224966,0.0900466069579124,1.0,1.0,-0.2705702781677246,0.6799154281616211
