x_pos,y_pos,x_vel,y_vel,angle,ang_vel,leg_1,leg_2,main_booster,lat_booster
-0.0015171051491051,1.4029455184936523,-0.1537375450134277,-0.3544223010540008,0.0018182435305789,0.0358705557882785,0.0,0.0,-0.5546874403953552,0.8785141706466675
-0.0029527663718909,1.3943111896514893,-0.1435033679008484,-0.3837452530860901,0.0017494144849479,-0.0013762682210654,0.0,0.0,0.0022418498992919,0.5089881420135498
-0.0042525292374193,1.3853617906570437,-0.1290987879037857,-0.3977504074573517,0.0008809601422399,-0.017370605841279,0.0,0.0,0.0231214761734008,0.7213907241821289
-0.0055744173005223,1.3761950731277466,-0.129827931523323,-0.4074069857597351,-0.0014515190850943,-0.0466536656022071,0.0,0.0,0.2388907670974731,-0.2063512802124023
-0.0067924498580396,1.3670828342437744,-0.1199464425444603,-0.4049904644489288,-0.0032891437876969,-0.0367562696337699,0.0,0.0,0.0497905015945434,0.3280525207519531
-0.00791597366333,1.357809066772461,-0.1109353750944137,-0.4121782183647156,-0.0046841306611895,-0.0279023554176092,0.0,0.0,-0.6003953218460083,0.4085153341293335
-0.0090332981199026,1.3478562831878662,-0.1103459820151329,-0.4423516094684601,-0.0060571208596229,-0.0274624619632959,0.0,0.0,-0.308493435382843,0.2703337669372558
-0.0101447105407714,1.3372247219085691,-0.1097641587257385,-0.4725221693515777,-0.0074119577184319,-0.0270993076264858,0.0,0.0,0.910747528076172,0.7925559282302856
-0.0111956596374511,1.3273738622665403,-0.1021234840154647,-0.4378237724304199,-0.010357410646975,-0.058914341032505,0.0,0.0,0.2495965957641601,0.1581193208694458
-0.0122357364743947,1.317668318748474,-0.1010407581925392,-0.431382805109024,-0.0132944798097014,-0.0587467364966869,0.0,0.0,-0.5657564997673035,0.8642053604125977
-0.0131922718137502,1.3072830438613892,-0.0907177552580833,-0.4616156220436096,-0.0181821845471858,-0.0977629423141479,0.0,0.0,0.0849426984786987,-0.030519962310791
-0.0140905380249023,1.2967383861541748,-0.0851088315248489,-0.4687169194221496,-0.0228453762829303,-0.0932724773883819,0.0,0.0,-0.4450052976608276,-0.8579382300376892
-0.0150362011045217,1.285521149635315,-0.091209702193737,-0.4985987842082977,-0.0261745732277631,-0.0665897205471992,0.0,0.0,-0.8589996695518494,-0.2669940590858459
-0.0159767158329486,1.2736252546310425,-0.090681716799736,-0.5287699103355408,-0.0295067727565765,-0.0666499584913253,0.0,0.0,0.2703642845153808,-0.2430295944213867
-0.0167849548161029,1.2619962692260742,-0.077967345714569,-0.5169050097465515,-0.0323329716920852,-0.0565286166965961,0.0,0.0,-0.875680148601532,-0.6008181571960449
-0.0176273342221975,1.249683141708374,-0.0823464915156364,-0.5472939610481262,-0.0341926477849483,-0.0371971055865287,0.0,0.0,0.1669725179672241,-0.7111994028091431
-0.0183899886906147,1.237602472305298,-0.0759402066469192,-0.5369234085083008,-0.0345156900584697,-0.0064616436138749,0.0,0.0,-0.8691117167472839,-0.5261908173561096
-0.0191800110042095,1.2248399257659912,-0.0794656500220298,-0.5672098994255066,-0.0340545140206813,0.0092244483530521,0.0,0.0,-0.8199049234390259,-0.3533353805541992
-0.019965648651123,1.211398720741272,-0.0790202468633651,-0.597378671169281,-0.0336075909435749,0.0089391600340604,0.0,0.0,-0.6308683156967163,-0.5711298584938049
-0.0207983963191509,1.1972808837890625,-0.0850076079368591,-0.6274195909500122,-0.0318900607526302,0.0343538895249366,0.0,0.0,-0.0507054328918457,-0.0396514534950256
-0.0216272361576557,1.1824842691421509,-0.084601767361164,-0.6575921177864075,-0.03019037283957,0.0339969024062156,0.0,0.0,0.5207267999649048,0.0344295501708984
-0.0224292762577533,1.167618989944458,-0.0819570869207382,-0.6606465578079224,-0.0284585580229759,0.0346396639943122,0.0,0.0,-0.2786825895309448,-0.080912172794342
-0.0232277866452932,1.152074694633484,-0.0815909430384635,-0.6908236742019653,-0.026745805516839,0.0342581272125244,0.0,0.0,0.0197535753250122,0.3862972259521484
-0.0239748004823923,1.136138916015625,-0.0766216441988945,-0.7082268595695496,-0.0248523857444524,0.0378720350563526,0.0,0.0,-0.3524209260940552,-0.3510075807571411
-0.0247188564389944,1.1195241212844849,-0.0762998908758163,-0.7384018301963806,-0.0229788664728403,0.0374735482037067,0.0,0.0,-0.0011133551597595,-0.2385534644126892
-0.0254604332149028,1.1022090911865234,-0.0760337635874748,-0.7695268988609314,-0.0211247652769088,0.0370821468532085,0.0,0.0,0.0584129095077514,0.3692258596420288
-0.0261871330440044,1.0849132537841797,-0.0745371803641319,-0.7686817646026611,-0.0192784201353788,0.0369268134236335,0.0,0.0,0.6957387924194336,-0.5175589919090271
-0.027078915387392,1.0682196617126465,-0.091676577925682,-0.7419079542160034,-0.0168180335313081,0.049207579344511,0.0,0.0,0.5669875144958496,0.2430610656738281
-0.0280800815671682,1.0519523620605469,-0.1020079031586647,-0.7229750752449036,-0.0149477263912558,0.0374060608446598,0.0,0.0,0.4044227600097656,0.365262508392334
-0.0290910713374614,1.0356281995773315,-0.1028901934623718,-0.725500226020813,-0.0131763815879821,0.0354270078241825,0.0,0.0,-0.3632863759994507,-0.6989840865135193
-0.0301539413630962,1.01863431930542,-0.1094376668334007,-0.7552614212036133,-0.0100728077813982,0.0620718225836753,0.0,0.0,-0.3029506206512451,0.3673723936080932
-0.0312156677246093,1.0009616613388062,-0.1092977151274681,-0.7854325175285339,-0.006982390768826,0.0618082769215106,0.0,0.0,0.7162390947341919,0.423830509185791
-0.0323562622070312,0.9838603138923644,-0.1167792230844497,-0.7600517868995667,-0.0042999624274671,0.0536484308540821,0.0,0.0,-0.5594655275344849,-0.1093019247055053
-0.0334961898624897,0.9660801887512208,-0.1167009621858596,-0.7902227640151978,-0.0016264753649011,0.0534700155258178,0.0,0.0,0.8889822959899902,0.0907468795776367
-0.0346158966422081,0.948697030544281,-0.1147629842162132,-0.7725861072540283,0.001126640709117,0.0550620779395103,0.0,0.0,0.3572465181350708,0.4180917739868164
-0.0357213020324707,0.9315672516822816,-0.1133931279182434,-0.7613331079483032,0.0039452430792152,0.056372083723545,0.0,0.0,-0.2253483533859253,0.2031464576721191
-0.0368268974125385,0.9137585163116456,-0.1134119182825088,-0.7915039658546448,0.0067633152939379,0.0563616454601287,0.0,0.0,0.563664436340332,0.8498580455780029
-0.0378302559256553,0.896359384059906,-0.1015456095337867,-0.773300051689148,0.0079537667334079,0.0238089971244335,0.0,0.0,-0.1451497077941894,0.5153599977493286
-0.0387964248657226,0.8782875537872314,-0.0968508496880531,-0.8031905293464661,0.0081925392150878,0.0047753704711794,0.0,0.0,0.9417314529418944,0.6475825309753418
-0.0396824851632118,0.8606104254722595,-0.0876552388072013,-0.785643458366394,0.007246867287904,-0.0189132522791624,0.0,0.0,0.6111795902252197,-0.3315691947937011
-0.0406795516610145,0.843392550945282,-0.0982794761657714,-0.7652416229248047,0.0058338195085525,-0.0282608605921268,0.0,0.0,-0.0991700887680053,-0.7495673894882202
-0.0417255386710166,0.8254933953285217,-0.1043807417154312,-0.7955105304718018,0.0056244893930852,-0.0041867610998451,0.0,0.0,0.7957544326782227,-0.3133221864700317
-0.0426695831120014,0.8074278831481934,-0.0947235971689224,-0.8029182553291321,0.0059268586337566,0.0060475599020719,0.0,0.0,0.3728561401367187,0.5170385837554932
-0.0434884056448936,0.7893423438072205,-0.0813878923654556,-0.8037970066070557,0.0054412195459008,-0.0097126299515366,0.0,0.0,0.7507292032241821,-0.3659698367118835
-0.0443544387817382,0.7710458636283875,-0.0859433561563491,-0.8131780028343201,0.0047893980517983,-0.0130364075303077,0.0,0.0,0.9207773208618164,0.3014231920242309
-0.0451716408133506,0.7526535987854004,-0.0813498646020889,-0.8174332976341248,0.0044229440391063,-0.0073290742002427,0.0,0.0,0.8516201972961426,0.7605977058410645
-0.0458594337105751,0.7343304753303528,-0.0670772641897201,-0.8143553137779236,0.0027508274652063,-0.0334422066807746,0.0,0.0,0.1850146055221557,-0.0383269190788269
-0.0466325767338275,0.7162253260612488,-0.0752958729863166,-0.8046707510948181,0.0007551751332357,-0.0399127416312694,0.0,0.0,0.6296672821044922,-0.0699062943458557
-0.0475405678153038,0.6986074447631836,-0.0882263630628585,-0.7830192446708679,-0.001790601061657,-0.0509157963097095,0.0,0.0,0.1988437175750732,0.3073008060455322
-0.0484670624136924,0.6808645129203796,-0.0900508388876915,-0.7885829210281372,-0.0043461346067488,-0.0511107258498668,0.0,0.0,0.1835825443267822,0.3918297290802002
-0.0492926612496376,0.6630556583404541,-0.0805315375328064,-0.7915092706680298,-0.0063588488847017,-0.0402542240917682,0.0,0.0,0.5998283624649048,0.0579245090484619
-0.0501736626029014,0.6456387639045715,-0.0858696848154068,-0.774100124835968,-0.008555656298995,-0.0439362190663814,0.0,0.0,0.5808267593383789,0.7211490869522095
-0.0508831031620502,0.6281747817993164,-0.0675805583596229,-0.7761964201927185,-0.0118828127160668,-0.0665430054068565,0.0,0.0,0.7314088344573975,-0.4479936361312866
-0.0515837669372558,0.6112860441207886,-0.0667924508452415,-0.7506429553031921,-0.0151074873283505,-0.064493641257286,0.0,0.0,0.4456920623779297,0.4619805812835693
-0.0521520599722862,0.5943553447723389,-0.0542695745825767,-0.7524992823600769,-0.0176352933049201,-0.0505563616752624,0.0,0.0,0.8546128273010254,-0.7965834736824036
-0.0528960227966308,0.5775404572486877,-0.0732944533228874,-0.7473421096801758,-0.0187234487384557,-0.0217629186809062,0.0,0.0,0.7681169509887695,0.2887089252471924
-0.0535282120108604,0.5613230466842651,-0.0626959353685379,-0.720779299736023,-0.0192386340349912,-0.0103037217631936,0.0,0.0,0.0501604080200195,-0.2684449553489685
-0.0540693290531635,0.5450672507286072,-0.054118663072586,-0.7224819660186768,-0.0192334372550249,0.0001039519338519,0.0,0.0,0.40115487575531,0.4181468486785888
-0.0545386299490928,0.5291779041290283,-0.0473606772720813,-0.7061875462532043,-0.0188133865594863,0.0084010418504476,0.0,0.0,0.7516775131225586,0.4719979763031006
-0.0550782196223735,0.5138614177703857,-0.054128598421812,-0.6807287335395813,-0.0186379607766866,0.0035082516260445,0.0,0.0,0.7759261131286621,0.5218417644500732
-0.055515669286251,0.4984557926654815,-0.0431838445365428,-0.6847023367881775,-0.0191982444375753,-0.0112056015059351,0.0,0.0,0.5117261409759521,0.918297290802002
-0.0559772476553916,0.4833395183086395,-0.0437613166868686,-0.6718659996986389,-0.0215615406632423,-0.047266025096178,0.0,0.0,0.8664577007293701,0.7018032073974609
-0.0562251098453998,0.4684122800827026,-0.0214962754398584,-0.6634852886199951,-0.0248110108077526,-0.0649891942739486,0.0,0.0,0.2199212312698364,-0.0333923697471618
-0.0564497932791709,0.453484296798706,-0.0194132812321186,-0.6635197997093201,-0.0278221927583217,-0.0602236799895763,0.0,0.0,0.4904496669769287,0.1029947996139526
-0.0566627494990825,0.4384194612503052,-0.01844516210258,-0.6696041226387024,-0.030635742470622,-0.056271094828844,0.0,0.0,0.9617153406143188,-0.5393152236938477
-0.0570579543709754,0.4237374067306518,-0.0374715775251388,-0.6525804996490479,-0.0326639078557491,-0.0405631884932518,0.0,0.0,0.9528243541717528,0.803570032119751
-0.0573343262076377,0.4098979234695434,-0.0242005512118339,-0.6151654720306396,-0.0360497497022151,-0.0677171647548675,0.0,0.0,-0.6096091866493225,-0.1038432121276855
-0.0576160438358783,0.3953797221183777,-0.0249433033168315,-0.6453361511230469,-0.0392492711544036,-0.0639901310205459,0.0,0.0,0.9221783876419068,-0.3237267732620239
-0.0578330047428607,0.3816695511341095,-0.0187993347644805,-0.6094216108322144,-0.042109977453947,-0.0572141222655773,0.0,0.0,0.8529818058013916,-0.0615208745002746
-0.0581385605037212,0.3680828511714935,-0.02737433090806,-0.6039475202560425,-0.0452587381005287,-0.0629751607775688,0.0,0.0,0.9395933151245116,0.6708739995956421
-0.058476448059082,0.3550156354904175,-0.0291595309972763,-0.5809124708175659,-0.0498300157487392,-0.0914256870746612,0.0,0.0,0.0646817684173584,-0.2704259157180786
-0.0587800964713096,0.3418689966201782,-0.0260488986968994,-0.5844421982765198,-0.0540959015488624,-0.0853175669908523,0.0,0.0,0.2711473703384399,-0.6585657000541687
-0.059216022491455,0.3290373980998993,-0.0406489185988903,-0.5704039931297302,-0.057007722556591,-0.0582361631095409,0.0,0.0,0.5105538368225098,-0.1526718735694885
-0.0595602989196777,0.316311776638031,-0.0320345684885978,-0.5656753182411194,-0.0593820996582508,-0.0474875271320343,0.0,0.0,0.4188851118087768,-0.136396050453186
-0.0599192604422569,0.3034127056598663,-0.0335897989571094,-0.5733834505081177,-0.0616574212908744,-0.0455065891146659,0.0,0.0,0.935428500175476,0.3221981525421142
-0.0601806640625,0.2903974056243896,-0.0244635492563247,-0.5785261392593384,-0.0633251294493675,-0.0333538241684436,0.0,0.0,0.9501240253448486,-0.3963394165039062
-0.0604597106575965,0.2773065268993377,-0.0262799225747585,-0.5818889141082764,-0.0649202167987823,-0.031901903450489,0.0,0.0,0.9132999181747437,-0.3591333031654358
-0.0606942176818847,0.2649124264717102,-0.0220491476356983,-0.5509086847305298,-0.066309243440628,-0.0277805719524621,0.0,0.0,0.9347692728042604,-0.6076350212097168
-0.0608187690377235,0.2532700598239898,-0.0128089785575866,-0.517423689365387,-0.0659578219056129,0.0070286937989294,0.0,0.0,0.7948124408721924,0.1781446933746338
-0.0610118880867958,0.2422896772623062,-0.019366443157196,-0.4880162179470062,-0.0659082382917404,0.000991552369669,0.0,0.0,0.0393707752227783,-0.1024283766746521
-0.0612781532108783,0.2309501469135284,-0.026556983590126,-0.5039827823638916,-0.065967746078968,-0.0011902925325557,0.0,0.0,0.5612714290618896,0.3840051889419555
-0.06146240234375,0.2200457900762558,-0.0188298989087343,-0.4846182465553283,-0.0655784159898758,0.007787081412971,0.0,0.0,0.2368810176849365,0.2363812923431396
-0.0616997703909873,0.2091148197650909,-0.0240487046539783,-0.4858090281486511,-0.0652624294161796,0.0063194544054567,0.0,0.0,0.6211652755737305,0.3313767910003662
-0.061952780932188,0.1985055059194564,-0.025656783953309,-0.4715085625648498,-0.0649130195379257,0.0069882022216916,0.0,0.0,0.7074553966522217,-0.7905240058898926
-0.0622401237487793,0.1883103251457214,-0.0309478938579559,-0.4530239105224609,-0.0627280473709106,0.0436993688344955,0.0,0.0,-0.115147054195404,0.6831512451171875
-0.0624711997807025,0.1774304211139679,-0.0240337289869785,-0.4835121035575866,-0.0618085674941539,0.0183897148817777,0.0,0.0,0.8728384971618652,0.3502476215362549
-0.0626568794250488,0.1664499640464782,-0.0199188720434904,-0.4879671037197113,-0.0604692697525024,0.0267858747392892,0.0,0.0,0.9649224281311036,0.6296886205673218
-0.0626515373587608,0.1554875969886779,-0.0001837458112277,-0.487188458442688,-0.0597675554454326,0.0140346167609095,0.0,0.0,0.8894381523132324,0.0729008913040161
-0.0624446868896484,0.1448089033365249,0.0188848339021205,-0.4745357930660248,-0.0579840540885925,0.0356698110699653,0.0,0.0,0.9018210172653198,-0.5645350813865662
-0.0620910637080669,0.1341158896684646,0.031624186784029,-0.4751060903072357,-0.0542886145412921,0.0739088952541351,0.0,0.0,0.9587466716766356,0.4981324672698974
-0.0617011077702045,0.1240786388516426,0.0349735841155052,-0.4459612965583801,-0.0503137074410915,0.079498067498207,0.0,0.0,0.9627411365509032,0.0804166793823242
-0.0612343773245811,0.1147098615765571,0.0421594865620136,-0.4162477850914001,-0.0458549298346042,0.0891756042838096,0.0,0.0,0.9386961460113524,-0.3951948285102844
-0.0605911239981651,0.1058252453804016,0.0588151700794696,-0.3947143256664276,-0.0404031723737716,0.1090353354811668,0.0,0.0,0.865347146987915,-0.4480454921722412
-0.0598243698477745,0.0968075841665268,0.0702986568212509,-0.4006273448467254,-0.0341047197580337,0.1259687393903732,0.0,0.0,0.9250831604003906,-0.7333157658576965
-0.0591669082641601,0.088005430996418,0.0577225685119628,-0.3910456895828247,-0.0261812061071395,0.1584704965353012,0.0,0.0,0.9615797996520996,0.4767744541168213
-0.058387279510498,0.0800573676824569,0.0691293999552726,-0.3531189262866974,-0.0174675900489091,0.1742721945047378,0.0,0.0,0.7436912059783936,0.9616069793701172
-0.0575538650155067,0.0723304599523544,0.0761586800217628,-0.3433507084846496,-0.0103785125538706,0.1417816281318664,0.0,0.0,0.8200757503509521,0.6643763780593872
-0.0568119063973426,0.0652472823858261,0.0683889761567115,-0.3147793412208557,-0.0046416302211582,0.1147376745939254,0.0,0.0,0.2622398138046264,0.2008229494094848
-0.0560061447322368,0.0582849830389022,0.0741217508912086,-0.3094283044338226,0.0017349458066746,0.1275314390659332,0.0,0.0,0.734317421913147,0.9191867113113404
-0.0551966652274131,0.0518323741853237,0.0760912895202636,-0.2867966890335083,0.006520033814013,0.0957019478082656,0.0,0.0,0.3762975931167602,0.920562982559204
-0.0544026382267475,0.0456433407962322,0.0761449038982391,-0.2750853896141052,0.0097427489235997,0.0644542947411537,0.0,0.0,0.5004273653030396,0.8146477937698364
-0.0535788536071777,0.0394518710672855,0.0804537683725357,-0.2751926779747009,0.0116453003138303,0.038051038980484,0.0,0.0,0.7448346614837646,0.4456130266189575
-0.0528906807303428,0.0335320569574832,0.0671178549528122,-0.2631145119667053,0.013316691853106,0.0334280095994472,0.0,0.0,0.7795975208282471,0.8728139400482178
-0.0523254387080669,0.0277755353599786,0.0565674901008605,-0.2558448016643524,0.0132764605805277,-0.0008047212031669,0.0,0.0,0.7842321395874023,0.1928166151046753
-0.0516612045466899,0.0225066039711236,0.0655870884656906,-0.2341853231191635,0.0141065828502178,0.0166023038327693,0.0,0.0,0.5628876686096191,-0.1183336377143859
-0.0509489066898822,0.0170835349708795,0.0697719678282737,-0.2410367876291275,0.0155473165214061,0.0288147144019603,0.0,0.0,0.877605676651001,0.7477140426635742
-0.0500168800354003,0.0122935390099883,0.0924891531467437,-0.2128954380750656,0.016248045489192,0.0140144200995564,0.0,0.0,0.8309166431427002,0.7374656200408936
-0.0490732192993164,0.0081215957179665,0.0948620438575744,-0.1854176968336105,0.0157638136297464,-0.009684775955975,0.0,0.0,0.219434380531311,0.1302402019500732
-0.048039149492979,0.0042192316614091,0.1030541211366653,-0.1734411567449569,0.0161108393222093,0.0069405795074999,0.0,0.0,0.5464110374450684,-0.4860068559646606
-0.0469473823904991,0.0004535174230113,0.1081356033682823,-0.1673754155635833,0.0171326510608196,0.0204362086951732,0.0,0.0,0.6157302856445312,-0.751148521900177
-0.0460418686270713,-0.0020782018546015,0.1070507615804672,-0.1124214008450508,0.0008235020795837,-0.3262196183204651,0.0,1.0,-0.0503220558166503,0.0080587863922119
-0.0451637282967567,-0.0039805676788091,0.1045010089874267,-0.0846427530050277,-0.0156427696347236,-0.3293048739433288,1.0,1.0,0.8650147914886475,-0.8140955567359924
-0.0443391799926757,-0.0046420004218816,0.0966662615537643,-0.0296206828206777,-0.0296583194285631,-0.2802909612655639,1.0,1.0,0.6682507991790771,-0.9452094435691832
-0.0436286926269531,-0.0042648818343877,0.0681490749120712,0.0168084427714347,-0.0267837941646575,0.0575041584670543,1.0,1.0,-0.763170599937439,-0.9403035044670104
-0.0430987365543842,-0.0035650038626044,0.0476792380213737,0.0311854425817728,-0.021537072956562,0.1049371510744094,1.0,1.0,-0.6840413808822632,-0.9818209409713744
-0.0427184104919433,-0.0026991867925971,0.0314707644283771,0.038556832820177,-0.0150582892820239,0.1295746564865112,1.0,1.0,-0.5001862049102783,0.1425186395645141
-0.0423580184578895,-0.0018617653986439,0.0296349320560693,0.0372684001922607,-0.0087428279221057,0.1263012737035751,1.0,1.0,-0.8250612020492554,0.4315955638885498
-0.0420189872384071,-0.001154234400019,0.0284920241683721,0.0314641557633876,-0.0033998463768512,0.1068655401468277,1.0,1.0,-0.844251275062561,0.2036025524139404
-0.041734505444765,-0.0010375403799116,0.0275229252874851,0.0051836455240845,-0.0024943095631897,0.0181016027927398,1.0,1.0,-0.5279613137245178,-0.4570299386978149
-0.04151077196002,-0.0010406160727143,0.022367438301444,-0.000140475196531,-0.0024956942070275,-3.377045504748821e-05,1.0,1.0,-0.6013966798782349,0.0190684795379638
