x_pos,y_pos,x_vel,y_vel,angle,ang_vel,leg_1,leg_2,main_booster,lat_booster
-0.0015192031860351,1.4031598567962646,-0.1539143621921539,-0.3448992669582367,0.0017912052571773,0.0353352725505828,0.0,0.0,-0.4827332496643066,0.8342969417572021
-0.0029633522499352,1.3949542045593262,-0.1443952172994613,-0.364690363407135,0.001773708849214,-0.0003493888652883,0.0,0.0,0.1200472116470336,0.9124791622161864
-0.004226398654282,1.3866883516311646,-0.1245269179344177,-0.3673747479915619,2.2104439267423004e-05,-0.0350355505943298,0.0,0.0,0.0377163887023925,-0.0674830079078674
-0.0055611608549952,1.3784284591674805,-0.1313894987106323,-0.3671089708805084,-0.0020470249000936,-0.0413865894079208,0.0,0.0,0.0626887083053588,0.5583212375640869
-0.00675630569458,1.3703343868255615,-0.1165207624435424,-0.3597390353679657,-0.0050115454941987,-0.0592959150671958,0.0,0.0,-0.0095146894454956,-0.1461241841316223
-0.0079494472593069,1.3617759943008425,-0.1163739413022995,-0.3803914487361908,-0.0079206703230738,-0.0581875219941139,0.0,0.0,-0.357333779335022,0.7649121284484863
-0.0090831760317087,1.352752447128296,-0.1090133786201477,-0.4010766446590423,-0.0122249452397227,-0.0860933884978294,0.0,0.0,-0.0905166268348693,-0.2232016324996948
-0.0102155683562159,1.3432644605636597,-0.1089713424444198,-0.4217265844345093,-0.0164582580327987,-0.0846741423010826,0.0,0.0,-0.0194056034088134,0.495457649230957
-0.0113474847748875,1.3333120346069336,-0.1089813858270645,-0.4423766136169433,-0.0206138659268617,-0.0831197649240493,0.0,0.0,-0.5260277986526489,0.3132874965667724
-0.0124790193513035,1.3228954076766968,-0.1090409755706787,-0.4630266427993774,-0.0246835723519325,-0.0814015790820121,0.0,0.0,-0.1608967781066894,0.9111225605010986
-0.0135286329314112,1.3120120763778689,-0.0988568812608718,-0.4838170707225799,-0.0307229775935411,-0.1207993254065513,0.0,0.0,-0.2113850116729736,-0.2786034345626831
-0.0145786283537745,1.3006645441055298,-0.0990032404661178,-0.5044686198234558,-0.036659050732851,-0.118732139468193,0.0,0.0,0.1716246604919433,-0.9071261286735536
-0.015574837103486,1.289598822593689,-0.0955987274646759,-0.4919098913669586,-0.040637083351612,-0.0795677676796913,0.0,0.0,-0.0285639762878417,-0.4652884602546692
-0.016572093591094,1.2780685424804688,-0.0958350971341133,-0.5125657916069031,-0.0444971360266208,-0.0772080719470977,0.0,0.0,0.6746431589126587,-0.3324569463729858
-0.0173908229917287,1.2673165798187256,-0.0787832587957382,-0.4779638350009918,-0.0475556477904319,-0.0611757710576057,0.0,0.0,-0.9458914399147034,-0.8698986768722534
-0.0182677265256643,1.2560935020446775,-0.0861653536558151,-0.4988537132740021,-0.0490676537156105,-0.0302426107227802,0.0,0.0,-0.8637673854827881,-0.5559386014938354
-0.0191802978515625,1.2444146871566772,-0.0907333567738533,-0.5190713405609131,-0.0495829097926616,-0.0103059969842433,0.0,0.0,-0.643497109413147,-0.6673603653907776
-0.0201354976743459,1.2322685718536377,-0.0961739867925643,-0.5398050546646118,-0.0489340424537658,0.0129783870652318,0.0,0.0,-0.4379711151123047,-0.7338295578956604
-0.0211414340883493,1.2196683883666992,-0.1026530414819717,-0.55994713306427,-0.0468998588621616,0.040687222033739,0.0,0.0,-0.3882371187210083,0.242680549621582
-0.0221500396728515,1.2066034078598022,-0.1030902415513992,-0.5805957913398743,-0.0446960180997848,0.0440810099244117,0.0,0.0,-0.0987727642059326,0.3863365650177002
-0.023161506280303,1.1930737495422363,-0.1035477966070175,-0.6012446284294128,-0.042313277721405,0.0476589985191822,0.0,0.0,-0.2825087308883667,0.5696988105773926
-0.0241298675537109,1.1790733337402344,-0.0982778891921043,-0.6221993565559387,-0.0408982299268245,0.0283034797757864,0.0,0.0,-0.0079963207244873,-0.0294628739356994
-0.0251011848449707,1.1646082401275637,-0.0987651795148849,-0.6428479552268982,-0.0392866805195808,0.0322341993451118,0.0,0.0,-0.0636394023895263,0.073237657546997
-0.0260755531489849,1.1496784687042236,-0.0992644876241684,-0.6634967923164368,-0.0374708175659179,0.0363204032182693,0.0,0.0,-0.4648012518882751,0.1425588130950927
-0.0270526893436908,1.1342840194702148,-0.0997722223401069,-0.6841456294059753,-0.0354420617222785,0.0405789352953434,0.0,0.0,0.4712951183319092,0.194818377494812
-0.0281407348811626,1.1193503141403198,-0.1104762107133865,-0.6636804342269897,-0.0337923392653465,0.0329945906996727,0.0,0.0,0.0507204532623291,-0.1922004222869873
-0.0292134284973144,1.1046446561813354,-0.1091908663511276,-0.6535494327545166,-0.0319016464054584,0.0378138907253742,0.0,0.0,-0.2982648611068725,0.4035711288452148
-0.0302888862788677,1.0894742012023926,-0.1096969619393348,-0.6741963028907776,-0.0297731589525938,0.0425698570907115,0.0,0.0,-0.7412241101264954,0.1495252847671508
-0.0313668251037597,1.07383930683136,-0.1101974472403526,-0.6948431730270386,-0.0273989792913198,0.0474837161600589,0.0,0.0,-0.5839765071868896,0.2778182029724121
-0.0324471481144428,1.0577396154403689,-0.1106888875365257,-0.7154902219772339,-0.0247713644057512,0.0525520853698253,0.0,0.0,0.2522567510604858,0.1149301528930664
-0.0334994308650493,1.0421373844146729,-0.1082250475883483,-0.6933916807174683,-0.0218172073364257,0.0590831413865089,0.0,0.0,-0.2990212440490722,0.6294949054718018
-0.0345104224979877,1.026065230369568,-0.1032514795660972,-0.714281439781189,-0.0196852311491966,0.0426396168768405,0.0,0.0,-0.2447933554649353,0.2640308141708374
-0.0355229377746582,1.009528875350952,-0.1036950796842575,-0.7349284887313843,-0.0172777529805898,0.0481495670974254,0.0,0.0,0.0570223331451416,0.07755708694458
-0.0365736968815326,0.992874801158905,-0.1076031178236007,-0.7401496171951294,-0.0147764831781387,0.050025500357151,0.0,0.0,-0.3276209831237793,-0.4171642065048218
-0.0376253128051757,0.9757563471794128,-0.1079974323511123,-0.7607969045639038,-0.011986001394689,0.0558095574378967,0.0,0.0,0.2720503807067871,0.4435851573944092
-0.0386567115783691,0.9590466618537904,-0.1063276156783104,-0.742635190486908,-0.0088350716978311,0.0630189031362533,0.0,0.0,0.0138672590255737,0.5313712358474731
-0.0396616943180561,0.942288339138031,-0.1029011458158493,-0.7447981238365173,-0.0064673544839024,0.0473542511463165,0.0,0.0,-0.5067274570465088,0.3010357618331909
-0.0406665802001953,0.925065577030182,-0.1031952947378158,-0.7654454708099365,-0.0037915741559118,0.0535156801342964,0.0,0.0,-0.1010075211524963,0.5488150119781494
-0.041630171239376,0.9073843359947203,-0.0983539968729019,-0.7858349084854126,-0.0018218979239463,0.0393937230110168,0.0,0.0,0.5822784900665283,0.2799423933029175
-0.0425643920898437,0.8901116251945496,-0.095876321196556,-0.7676742076873779,0.0005924250581301,0.0482864417135715,0.0,0.0,0.3736211061477661,0.5342137813568115
-0.0435514450073242,0.8733498454093933,-0.1001728624105453,-0.744965672492981,0.0020468889269977,0.0290891118347644,0.0,0.0,-0.1290829181671142,-0.3452640175819397
-0.0445362105965614,0.8561235070228577,-0.1002849489450454,-0.7656130194664001,0.0038312631659209,0.0356875397264957,0.0,0.0,0.4869472980499267,0.1245204210281372
-0.0454318039119243,0.8388568162918091,-0.0921157598495483,-0.7674221396446228,0.0063549051992595,0.0504728741943836,0.0,0.0,-0.6841558814048767,0.3348369598388672
-0.0463239662349224,0.8211254477500916,-0.0921165198087692,-0.788070023059845,0.0092179467901587,0.0572608895599842,0.0,0.0,0.0700454711914062,0.7155041694641113
-0.0471872314810752,0.8032077550888062,-0.0881108567118644,-0.7963548302650452,0.010976443067193,0.0351699963212013,0.0,0.0,0.5958590507507324,0.7888088226318359
-0.0479376800358295,0.7853034734725952,-0.0756756290793418,-0.7957505583763123,0.0116001348942518,0.0124738058075308,0.0,0.0,0.652273416519165,0.3262856006622314
-0.0486268028616905,0.7676060199737549,-0.0701875537633895,-0.7865599989891052,0.012857848778367,0.0251542273908853,0.0,0.0,0.232986569404602,0.7107946872711182
-0.0493558868765831,0.750384509563446,-0.0729856863617897,-0.765407919883728,0.012932913377881,0.0015012397198006,0.0,0.0,0.5595870018005371,0.300339937210083
-0.0502128601074218,0.7338117957115173,-0.0855486094951629,-0.7365628480911255,0.0127875199541449,-0.0029076584614813,0.0,0.0,-0.4993916749954223,0.4449396133422851
-0.0510621070861816,0.7167746424674988,-0.0851398557424545,-0.757210373878479,0.013004271313548,0.0043349000625312,0.0,0.0,0.3564958572387695,0.7419806718826294
-0.0517183318734169,0.6999797224998474,-0.0649140775203704,-0.746435284614563,0.0123039027675986,-0.0140076726675033,0.0,0.0,-0.155892014503479,0.4187350273132324
-0.0523651130497455,0.6827201843261719,-0.0643460229039192,-0.7670828700065613,0.0119713982567191,-0.0066499561071395,0.0,0.0,0.1387360095977783,0.5106143951416016
-0.0528822913765907,0.6654552221298218,-0.0508865006268024,-0.7673249840736389,0.0111582344397902,-0.0162632763385772,0.0,0.0,0.2157028913497924,0.6195611953735352
-0.0533431060612201,0.6486127972602844,-0.0443979389965534,-0.7485419511795044,0.00948978215456,-0.0333688147366046,0.0,0.0,-0.0149305462837219,0.5558807849884033
-0.0537370666861534,0.6313046216964722,-0.0366864539682865,-0.7692391276359558,0.0068173543550074,-0.0534484162926673,0.0,0.0,0.1740890741348266,-0.0925782322883606
-0.0541881546378135,0.6140336394309998,-0.0424708798527717,-0.7675932049751282,0.0042076101526618,-0.0521946921944618,0.0,0.0,0.797957181930542,-0.2245440483093261
-0.0545267090201377,0.5975996255874634,-0.0320743843913078,-0.730391800403595,0.0024496729020029,-0.0351586751639843,0.0,0.0,0.0140303373336792,-0.0178574323654174
-0.0547667518258094,0.5813224911689758,-0.0230011753737926,-0.7234293818473816,0.0014636322157457,-0.0197207946330308,0.0,0.0,0.0210645198822021,0.2657564878463745
-0.0549454689025878,0.5653440952301025,-0.0174779873341321,-0.7101494669914246,0.0010726056061685,-0.0078207273036241,0.0,0.0,0.2593655586242676,0.2174286842346191
-0.0551660545170307,0.5497995018959045,-0.021783348172903,-0.6908685564994812,0.0007955596665851,-0.0055407667532563,0.0,0.0,-0.0880576968193054,0.7136116027832031
-0.055307675153017,0.5337842702865601,-0.0127073023468256,-0.7117869853973389,-0.0006376156234182,-0.0286635756492614,0.0,0.0,0.4056531190872192,0.6616437435150146
-0.0554718002676963,0.5182031989097595,-0.0138375554233789,-0.6924949884414673,-0.0031778428237885,-0.0508043952286243,0.0,0.0,0.1243377923965454,0.7331769466400146
-0.0554610267281532,0.5026831030845642,0.0046436553820967,-0.6897968053817749,-0.0067013697698712,-0.0704705119132995,0.0,0.0,0.5129780769348145,0.7624384164810181
-0.0553414337337017,0.4875408411026001,0.0166286844760179,-0.6730183959007263,-0.0113152228295803,-0.0922769159078598,0.0,0.0,0.7135486602783203,-0.6901274919509888
-0.055241297930479,0.4725533723831177,0.0128885004669427,-0.6661337614059448,-0.0141516113653779,-0.0567278079688549,0.0,0.0,0.3699700832366943,-0.8727698922157288
-0.0552974715828895,0.4578408002853393,-0.0047644786536693,-0.6538993716239929,-0.0149847622960805,-0.0166632793843746,0.0,0.0,-0.0633069276809692,0.9160270690917968
-0.0552546493709087,0.4426726400852203,0.0066450936719775,-0.6741654276847839,-0.0173184089362621,-0.0466726683080196,0.0,0.0,0.9360243082046508,-0.116528034210205
-0.0550849922001361,0.4275513589382171,0.0184847265481948,-0.6720752120018005,-0.018821720033884,-0.0300662778317928,0.0,0.0,0.8046727180480957,-0.274349570274353
-0.0548426620662212,0.4133630990982055,0.0252325572073459,-0.6306015849113464,-0.0198035202920436,-0.0196358151733875,0.0,0.0,0.1775058507919311,0.9254883527755736
-0.05457229539752,0.3992123603820801,0.0295299235731363,-0.6289587020874023,-0.0222644824534654,-0.0492193885147571,0.0,0.0,0.5993837118148804,0.0896441936492919
-0.0543485656380653,0.3855830132961273,0.0248894728720188,-0.6057906746864319,-0.0247530750930309,-0.049771748483181,0.0,0.0,0.8753293752670288,-0.4057528972625732
-0.054043959826231,0.3725469708442688,0.032431311905384,-0.5794116258621216,-0.0266974736005067,-0.0388877354562282,0.0,0.0,0.1334102153778076,-0.3720641136169433
-0.0537827499210834,0.3599186241626739,0.0281167272478342,-0.5612972378730774,-0.028669100254774,-0.0394329205155372,0.0,0.0,-0.246838092803955,0.0735108852386474
-0.0534912124276161,0.3468255996704101,0.0307659953832626,-0.5819438099861145,-0.0302604436874389,-0.0318265929818153,0.0,0.0,0.6674622297286987,0.1818437576293945
-0.0531904213130474,0.333861231803894,0.0314591191709041,-0.5762222409248352,-0.0316303558647632,-0.0273982472717762,0.0,0.0,0.7487268447875977,-0.4031169414520263
-0.0527748093008995,0.3209445476531982,0.0422335974872112,-0.574086606502533,-0.0322900861501693,-0.0131946951150894,0.0,0.0,0.7001588344573975,-0.5881279706954956
-0.0523964874446392,0.3080849647521972,0.0370238348841667,-0.571520209312439,-0.0314943678677082,0.0159143321216106,0.0,0.0,0.7912299633026123,-0.4943539500236511
-0.0519663803279399,0.2960503697395324,0.0418697111308574,-0.5348451137542725,-0.0303673055022954,0.0225412864238023,0.0,0.0,0.5472813844680786,-0.1536944508552551
-0.051403522491455,0.2846932411193847,0.0544152446091175,-0.504726231098175,-0.0285223610699176,0.0368989184498786,0.0,0.0,0.3562183380126953,-0.3615922927856445
-0.0508783347904682,0.2738813161849975,0.0507162623107433,-0.4804947972297668,-0.026734821498394,0.035750575363636,0.0,0.0,-0.3355523943901062,0.0687694549560546
-0.0503169074654579,0.2626048624515533,0.0539562478661537,-0.5011413097381592,-0.0245812498033046,0.0430717468261718,0.0,0.0,0.3678967952728271,-0.5956655740737915
-0.049713134765625,0.2518509328365326,0.0565574467182159,-0.4778936505317688,-0.0208042375743389,0.0755399838089943,0.0,0.0,-0.1877250075340271,-0.1825377941131591
-0.049071691930294,0.240632563829422,0.0599461980164051,-0.4985413253307342,-0.0166671779006719,0.0827412456274032,0.0,0.0,0.2029292583465576,0.3246924877166748
-0.0484238639473915,0.2296910136938095,0.0604260452091693,-0.4862501323223114,-0.0123580517247319,0.086182415485382,0.0,0.0,0.3913496732711792,-0.1831671595573425
-0.0477397926151752,0.2191685289144516,0.063723511993885,-0.4676341712474823,-0.0077424990013241,0.092311218380928,0.0,0.0,0.2247967720031738,-0.3136742115020752
-0.0469483360648155,0.2088280022144317,0.0738138705492019,-0.4595612585544586,-0.0024787506554275,0.1052751392126083,0.0,0.0,-0.1957466602325439,0.2724833488464355
-0.0461169257760047,0.1980232745409011,0.07747083902359,-0.4802106618881225,0.0031299921683967,0.1121746748685836,0.0,0.0,0.7143275737762451,0.0016069412231445
-0.0451497063040733,0.187381699681282,0.090234100818634,-0.4729879796504974,0.0095244534313678,0.127889335155487,0.0,0.0,0.2331178188323974,-0.6090924739837646
-0.0440720543265342,0.1769165098667144,0.0995022058486938,-0.4651955068111419,0.0176778081804513,0.1630672067403793,0.0,0.0,0.4036159515380859,-0.5035012364387512
-0.0428708083927631,0.1664888709783554,0.1101928576827049,-0.4635982811450958,0.0274792425334453,0.1960287392139434,0.0,0.0,0.7669522762298584,0.1136425733566284
-0.0416556373238563,0.1568024456501007,0.1112960577011108,-0.4307199716567993,0.0375775843858718,0.2019665688276291,0.0,0.0,0.4364762306213379,-0.0826474428176879
-0.0403957366943359,0.1476432383060455,0.1153198108077049,-0.4073744416236877,0.0481194034218788,0.2108363360166549,0.0,0.0,-0.1934393048286438,-0.5487598180770874
-0.0391273498535156,0.1380209773778915,0.1149821281433105,-0.4280793070793152,0.059839654713869,0.2344052344560623,0.0,0.0,0.7805399894714355,-0.4087019562721252
-0.0377282127737998,0.1284728199243545,0.1272531747817993,-0.4249144792556762,0.0723687559366226,0.2505817115306854,0.0,0.0,0.8035808801651001,0.0718501806259155
-0.0363827720284462,0.1192879304289817,0.1218589693307876,-0.4088758528232574,0.0849313661456108,0.2512522339820862,0.0,0.0,0.8626742362976074,-0.1536602973937988
-0.0349806770682334,0.1111071184277534,0.1267916858196258,-0.3644086420536041,0.0982266068458557,0.2659047544002533,0.0,0.0,-0.0631889700889587,-0.080601692199707
-0.0335344299674034,0.1024644672870636,0.130950391292572,-0.38507279753685,0.1118050441145896,0.27156862616539,0.0,0.0,0.8195759057998657,0.3454153537750244
-0.0322774872183799,0.0946430787444114,0.1123932376503944,-0.3486652970314026,0.1250240504741668,0.2643804252147674,0.0,0.0,0.323944091796875,0.545259952545166
-0.0309276580810546,0.0872170031070709,0.1223762407898902,-0.3311498463153839,0.1375838667154312,0.2511962354183197,0.0,0.0,0.3846703767776489,0.6069705486297607
-0.0296205524355173,0.0802672952413559,0.1191830858588218,-0.3099837005138397,0.1490846425294876,0.2300151139497757,0.0,0.0,-0.120167076587677,0.3139353990554809
-0.0282681472599506,0.0728552415966987,0.123478814959526,-0.330644816160202,0.1608310937881469,0.2349290400743484,0.0,0.0,0.905134916305542,0.217268705368042
-0.0269907005131244,0.0658243522047996,0.1159115433692932,-0.3138102293014526,0.1726797372102737,0.2369726151227951,0.0,0.0,0.8119683265686035,0.6492623090744019
-0.0258663184940814,0.0592839829623699,0.1020333021879196,-0.2919265031814575,0.1831103861331939,0.2086129188537597,0.0,0.0,0.8323594331741333,0.5201451778411865
-0.0249357223510742,0.0530992373824119,0.0840181335806846,-0.2760190665721893,0.1921985000371933,0.181762009859085,0.0,0.0,0.9592843055725098,0.8331184387207031
-0.0239233970642089,0.0477691516280174,0.0933835878968238,-0.2379288673400879,0.2000960856676101,0.1579520404338836,0.0,0.0,0.3787992000579834,-0.129332423210144
-0.0228761676698923,0.0424438565969467,0.0964674800634384,-0.2378183156251907,0.2084159553050995,0.166397362947464,0.0,0.0,0.8026186227798462,0.4500164985656738
-0.0218003280460834,0.0379261597990989,0.0984459668397903,-0.2020997107028961,0.2176393866539001,0.1844681948423385,0.0,0.0,-0.0151523351669311,-0.5061864852905273
-0.0207197181880474,0.0329363197088241,0.0977493524551391,-0.2233250439167022,0.2280740290880203,0.208693265914917,0.0,0.0,0.4749984741210937,0.4670870304107666
-0.0196415893733501,0.0286418534815311,0.0968062803149223,-0.1926111429929733,0.2392394393682479,0.2233083248138427,0.0,0.0,-0.2001267075538635,-0.2561044692993164
-0.0185175891965627,0.0238847583532333,0.1012969613075256,-0.2132709175348281,0.250530481338501,0.2258210182189941,0.0,1.0,0.9825613498687744,0.9941346645355223
-0.0176234245300292,0.0210571382194757,0.0970941558480262,-0.1249617040157318,0.2412378787994384,-0.1879707723855972,0.0,1.0,0.8315571546554565,0.0557605028152465
-0.0169887542724609,0.0197146758437156,0.0883051007986068,-0.0558231100440025,0.2159571349620819,-0.5057610869407654,0.0,1.0,-0.1393653750419616,-0.2931510210037231
-0.016404915601015,0.0183197110891342,0.092802032828331,-0.0573688559234142,0.1812000423669815,-0.6952747106552124,0.0,1.0,0.2814949750900268,-0.6340645551681519
-0.0160734169185161,0.0172261577099561,0.0687185972929,-0.0446692556142807,0.1455100327730178,-0.7139087319374084,0.0,1.0,0.2881824970245361,-0.6393808722496033
-0.0159296039491891,0.0162035562098026,0.0474303662776947,-0.0425495915114879,0.1126125454902648,-0.6579504609107971,0.0,1.0,0.0417205095291137,-0.3437093496322632
-0.0158401485532522,0.0152582740411162,0.0421697236597538,-0.0398381240665912,0.079653650522232,-0.659178614616394,0.0,0.0,-0.9419178366661072,-0.8808684349060059
-0.0157717708498239,0.0138525106012821,0.0383460149168968,-0.0610943511128425,0.0484848655760288,-0.6233763098716736,0.0,0.0,-0.5611668825149536,-0.9298993349075316
-0.0157150272279977,0.0119818309321999,0.0356671772897243,-0.0824351832270622,0.0188596695661544,-0.5925041437149048,0.0,0.0,0.122319221496582,-0.9247815608978271
-0.0156164169311523,0.0103584863245487,0.0379235409200191,-0.0720308274030685,-0.0088449548929929,-0.5540927648544312,0.0,0.0,0.0744361877441406,-0.8857852220535278
-0.0155182834714651,0.0090760681778192,0.03604381904006,-0.0573543831706047,-0.034730952233076,-0.5177204608917236,0.0,0.0,0.142059326171875,-0.9195812940597534
-0.0153879169374704,0.0076514575630426,0.0373295471072196,-0.0640532076358795,-0.0587422102689743,-0.4802257120609283,0.0,0.0,0.1009801626205444,-0.9376864433288574
