x_pos,y_pos,x_vel,y_vel,angle,ang_vel,leg_1,leg_2,main_booster,lat_booster
-0.0015423775184899,1.4034016132354736,-0.1566165685653686,-0.3341560959815979,0.0021264834795147,0.0419737361371517,0.0,0.0,-0.4518673419952392,0.9250712394714355
-0.0030230521224439,1.3956791162490845,-0.1485007554292678,-0.3432202637195587,0.0025507218670099,0.0084864180535078,0.0,0.0,-0.1655291318893432,0.8229827880859375
-0.0044399262405931,1.3877276182174685,-0.1404394656419754,-0.3533981740474701,0.0013206247240304,-0.0246039237827062,0.0,0.0,-0.2307814359664917,0.0654366016387939
-0.0058698654174804,1.379553198814392,-0.1420851647853851,-0.3633072674274444,0.0004198343958705,-0.0180176831781864,0.0,0.0,-0.0578879117965698,0.3922352790832519
-0.0073110582306981,1.3711559772491455,-0.1435266882181167,-0.3732132613658905,-0.0001572856417624,-0.0115433633327484,0.0,0.0,0.2374610900878906,0.4975634813308716
-0.0086583141237497,1.36314594745636,-0.1349668800830841,-0.3560003042221069,7.605557038914412e-05,0.0046673291362822,0.0,0.0,-0.261056900024414,0.8575105667114258
-0.0099475858733057,1.3549129962921145,-0.1278335303068161,-0.3659102022647857,-0.001011342043057,-0.0217499900609254,0.0,0.0,0.1742509603500366,0.6640410423278809
-0.0110698696225881,1.3471485376358032,-0.1102861613035202,-0.3450846076011657,-0.0029239621944725,-0.0382559522986412,0.0,0.0,-0.8074758648872375,0.5784198045730591
-0.0121499057859182,1.3391673564910889,-0.1052500754594802,-0.3547274172306061,-0.0056569590233266,-0.0546650104224681,0.0,0.0,-0.2150295376777649,0.3452825546264648
-0.0132305147126317,1.3309634923934937,-0.1055869460105896,-0.3646307587623596,-0.0080935955047607,-0.0487370528280735,0.0,0.0,-0.0600038766860961,-0.0020136833190917
-0.0143092153593897,1.3225367069244385,-0.1056986302137374,-0.3745359480381012,-0.01024114433676,-0.042954821139574,0.0,0.0,-0.3676745891571045,0.5348951816558838
-0.0153367994353175,1.3138853311538696,-0.0996770486235618,-0.3845311999320984,-0.0132909081876277,-0.0610009059309959,0.0,0.0,-0.864858090877533,0.214998722076416
-0.0163581855595111,1.3050110340118408,-0.0993365198373794,-0.3944373726844787,-0.0160650089383125,-0.0554867573082447,0.0,0.0,-0.5416250228881836,0.6232481002807617
-0.0173166282474994,1.295906901359558,-0.0919103771448135,-0.4046750962734222,-0.0199495684355497,-0.0776984840631485,0.0,0.0,-0.8189154267311096,0.0237524509429931
-0.0182645805180072,1.286579966545105,-0.0911286994814872,-0.4145815670490265,-0.0235735792666673,-0.0724870711565017,0.0,0.0,-0.9038128852844238,0.3297921419143677
-0.0191999431699514,1.277030348777771,-0.0901356190443039,-0.4244879186153412,-0.0269460175186395,-0.0674544721841812,0.0,0.0,-0.9256826043128968,-0.2191871404647827
-0.020120907574892,1.2672579288482666,-0.0889367386698722,-0.4343941807746887,-0.0300748534500598,-0.0625823736190795,0.0,0.0,-0.8812664747238159,0.6213665008544922
-0.0209650993347167,1.2572546005249023,-0.0799424797296524,-0.4446874558925628,-0.0344943404197692,-0.0883977115154266,0.0,0.0,-0.9641435742378236,-0.7686471343040466
-0.0218417160212993,1.2470383644104004,-0.0847155079245567,-0.4541255533695221,-0.0374051593244075,-0.0582212917506694,0.0,0.0,-0.7338757514953613,-0.7004852294921875
-0.0227610580623149,1.236602544784546,-0.0908075124025344,-0.46385058760643,-0.038521435111761,-0.0223277658224105,0.0,0.0,-0.9431301951408386,-0.6220342516899109
-0.0236974712461233,1.2259502410888672,-0.0937060266733169,-0.4734293520450592,-0.0384547896683216,0.0013329230714589,0.0,0.0,-0.959090769290924,0.3551170825958252
-0.0246107093989849,1.2150750160217283,-0.0915928930044174,-0.4833344519138336,-0.0381891429424285,0.0053136157803237,0.0,0.0,-0.863242506980896,0.2490767240524292
-0.0254992488771677,1.20397686958313,-0.0893201157450676,-0.4932397603988647,-0.0377334132790565,0.0091151064261794,0.0,0.0,-0.8484915494918823,-0.4552543759346008
-0.0263618472963571,1.1926558017730713,-0.0868963897228241,-0.5031450986862183,-0.0370971746742725,0.0127261178568005,0.0,0.0,-0.8427574038505554,0.0975639820098877
-0.027196979150176,1.1811116933822632,-0.0843300744891166,-0.5130504965782166,-0.0362898111343383,0.0161488000303506,0.0,0.0,-0.8568547964096069,0.4484939575195312
-0.0280039794743061,1.1693230867385864,-0.0816807001829147,-0.5239090919494629,-0.035320695489645,0.0193820409476757,0.0,0.0,-0.809943675994873,0.4739266633987427
-0.0287811271846294,1.1573117971420288,-0.0788511112332344,-0.5338126420974731,-0.0341991260647773,0.0224312394857406,0.0,0.0,-0.916161298751831,-0.240216851234436
-0.0295273773372173,1.1450774669647217,-0.0759029611945152,-0.5437161922454834,-0.0329343751072883,0.0252949837595224,0.0,0.0,-0.9542577862739564,0.3462703227996826
-0.030241584405303,1.1326204538345337,-0.0728439912199974,-0.5536197423934937,-0.0315357223153114,0.0279732886701822,0.0,0.0,-0.846397340297699,-0.0426220893859863
-0.0309230796992778,1.1199404001235962,-0.0696816518902778,-0.5635234117507935,-0.0300123933702707,0.0304663386195898,0.0,0.0,-0.9212004542350768,-0.0491491556167602
-0.0315707214176654,1.1070375442504885,-0.0664230212569236,-0.573427140712738,-0.028373647481203,0.0327748246490955,0.0,0.0,-0.9222036600112916,0.7335844039916992
-0.0321332924067974,1.0939054489135742,-0.0567421503365039,-0.5836410522460938,-0.027899706736207,0.0094790160655975,0.0,0.0,-0.9494656920433044,-0.6652218699455261
-0.0327203758060932,1.0805591344833374,-0.060807030647993,-0.5931273698806763,-0.0258235353976488,0.0415231995284557,0.0,0.0,-0.7246122360229492,-0.2851806879043579
-0.0332714095711708,1.0669900178909302,-0.0572985634207725,-0.6030312776565552,-0.0236592534929513,0.0432857982814312,0.0,0.0,-0.8390523791313171,0.4607177972793579
-0.0337859168648719,1.0531983375549316,-0.0537186153233051,-0.6129353046417236,-0.0214157570153474,0.0448698550462722,0.0,0.0,-0.7763567566871643,0.3869487047195434
-0.0342631340026855,1.0391837358474731,-0.0500724799931049,-0.6228393912315369,-0.0191018749028444,0.0462777242064476,0.0,0.0,-0.6956620216369629,0.3766932487487793
-0.0347027778625488,1.0249464511871338,-0.0463651195168495,-0.6327435970306396,-0.016726266592741,0.0475121363997459,0.0,0.0,-0.4664456844329834,0.5877912044525146
-0.0350546836853027,1.010489583015442,-0.0363914035260677,-0.6425158977508545,-0.0155400587245821,0.0237242300063371,0.0,0.0,-0.3675376176834106,-0.1195093989372253
-0.0353679656982421,0.99580979347229,-0.0325752086937427,-0.6524196863174438,-0.014309006743133,0.0246209632605314,0.0,0.0,-0.5467498898506165,0.0967453718185424
-0.0356422439217567,0.9809073209762572,-0.0287107862532138,-0.6623235940933228,-0.0130412895232439,0.0253540519624948,0.0,0.0,-0.7206623554229736,-0.3845633268356323
-0.0358772277832031,0.9657819271087646,-0.0248018894344568,-0.6722275018692017,-0.0117449164390563,0.0259274877607822,0.0,0.0,-0.6848165988922119,0.6669116020202637
-0.0360087379813194,0.9504311084747314,-0.0128742652013897,-0.6822608709335327,-0.0120257679373025,-0.0056170630268752,0.0,0.0,-0.7529557943344116,-0.4084286689758301
-0.0361003875732421,0.9348575472831726,-0.0088866418227553,-0.6921646595001221,-0.0122932596132159,-0.0053499471396207,0.0,0.0,-0.6413057446479797,0.0096055269241333
-0.0361516959965229,0.919061005115509,-0.0048642950132489,-0.7020684480667114,-0.0125547125935554,-0.0052289511077106,0.0,0.0,-0.7267757654190063,-0.0926749110221862
-0.0361624732613563,0.9030415415763856,-0.0008100305567495,-0.7119722962379456,-0.012817159295082,-0.0052489275112748,0.0,0.0,-0.8591434359550476,-0.2434258460998535
-0.0361324325203895,0.8867995142936707,0.0032735425047576,-0.7218760848045349,-0.0130873871967196,-0.0054045598953962,0.0,0.0,-0.4898535013198852,-0.0183930993080139
-0.0360614769160747,0.8703345060348511,0.0073839938268065,-0.731779932975769,-0.0133718894794583,-0.0056902337819337,0.0,0.0,-0.7246490120887756,-0.5459429025650024
-0.0360006317496299,0.853653609752655,0.0050924001261591,-0.7413658499717712,-0.0123883532360196,0.0196705944836139,0.0,0.0,-0.7280635237693787,0.5055053234100342
-0.0358672142028808,0.836753785610199,0.0131671102717518,-0.7511036992073059,-0.0122148590162396,0.0034702301491051,0.0,0.0,-0.5826405882835388,0.5468120574951172
-0.0356505401432514,0.8196287155151367,0.0225824397057294,-0.7611202597618103,-0.0131225995719432,-0.0181549377739429,0.0,0.0,-0.670166552066803,-0.3540714383125305
-0.0353922843933105,0.8022807836532593,0.0267792101949453,-0.7710241079330444,-0.0140675911679863,-0.0188996829092502,0.0,0.0,-0.2268283367156982,0.4197220802307129
-0.0350923538208007,0.7847102284431458,0.0309929214417934,-0.7809280157089233,-0.0150547428056597,-0.0197427999228239,0.0,0.0,-0.3667342662811279,0.4383090734481811
-0.0347506515681743,0.7669166922569275,0.0352219454944133,-0.7908319234848022,-0.0160886086523532,-0.0206773858517408,0.0,0.0,-0.6373154520988464,0.3643726110458374
-0.034366987645626,0.7489003539085388,0.0394647493958473,-0.8007358908653259,-0.0171734243631362,-0.021696351468563,0.0,0.0,-0.138831615447998,0.1408718824386596
-0.0339413657784462,0.7306613326072693,0.0437198877334594,-0.8106399178504944,-0.0183130390942096,-0.0227923616766929,0.0,0.0,-0.4507651329040527,-0.0869758129119873
-0.0334735885262489,0.7121994495391846,0.0479859746992588,-0.8205439448356628,-0.0195109527558088,-0.0239579267799854,0.0,0.0,-0.1781579256057739,-0.550199568271637
-0.0330004692077636,0.6935209631919861,0.0476590953767299,-0.8301631212234497,-0.0198465324938297,-0.0067120068706572,0.0,0.0,-0.0212618112564086,-0.2241976261138916
-0.0324851050972938,0.6746194958686829,0.0519432239234447,-0.8400670289993286,-0.0202462263405323,-0.0079937884584069,0.0,0.0,0.0898027420043945,0.2385131120681762
-0.0318671241402626,0.6563083529472351,0.0620327219367027,-0.8138352632522583,-0.0204844120889902,-0.0047633862122893,0.0,0.0,-0.1777759790420532,-0.307000994682312
-0.0312068946659564,0.6377744078636169,0.0663301199674606,-0.8237391710281372,-0.0207909028977155,-0.0061298753134906,0.0,0.0,-0.2459326982498169,-0.3269501328468323
-0.0305044166743755,0.6190175414085388,0.0706324577331543,-0.8336430788040161,-0.0211672261357307,-0.0075265914201736,0.0,0.0,0.4048421382904053,-0.8768739700317383
-0.0299131385982036,0.6009421348571777,0.057930052280426,-0.8033331036567688,-0.0199743974953889,0.0238561742007732,0.0,0.0,-0.3832049965858459,0.1190900802612304
-0.0292794220149517,0.582643985748291,0.0622390806674957,-0.8132371306419373,-0.0188532210886478,0.0224236585199832,0.0,0.0,0.1022315025329589,-0.0824190378189086
-0.0285798069089651,0.5647358894348145,0.0688204616308212,-0.795902669429779,-0.0177312493324279,0.0224392693489789,0.0,0.0,-0.3529020547866821,-0.5380071401596069
-0.0278800018131732,0.5466020703315735,0.0678555741906166,-0.8059214353561401,-0.0156252682209014,0.0421195589005947,0.0,0.0,0.4169648885726928,-0.384961724281311
-0.027235984802246,0.5290083289146423,0.0628421455621719,-0.781931459903717,-0.0140816401690244,0.030872443690896,0.0,0.0,-0.0835186839103698,-0.4083513021469116
-0.0265495292842388,0.511191725730896,0.0671522915363311,-0.7918354868888855,-0.0126081593334674,0.0294695235788822,0.0,0.0,0.4673713445663452,-0.2412818670272827
-0.0257445331662893,0.4935405552387237,0.0787369608879089,-0.7844832539558411,-0.0108661567792296,0.0348400026559829,0.0,0.0,0.4311854839324951,-0.5874407887458801
-0.0249100681394338,0.4767829775810241,0.0805137678980827,-0.7447630763053894,-0.0079667726531624,0.0579874329268932,0.0,0.0,-0.1154313087463378,-0.6565489768981934
-0.0240933410823345,0.459800660610199,0.0772752463817596,-0.7547549605369568,-0.0036224301438778,0.0868870243430137,0.0,0.0,0.7492492198944092,-0.1794086694717407
-0.0233288761228323,0.4436715841293335,0.0725657641887664,-0.7168433666229248,0.0002103537262883,0.0766556039452552,0.0,0.0,0.5922102928161621,-0.388653814792633
-0.022492503747344,0.4282195568084717,0.0796700045466423,-0.6867627501487732,0.0041216309182345,0.0782256796956062,0.0,0.0,0.0423389673233032,-0.3917598724365234
-0.0216973312199115,0.4133435785770416,0.0759874582290649,-0.661168098449707,0.0076019391417503,0.0696061998605728,0.0,0.0,-0.4830241203308105,-0.4459705352783203
-0.0208600051701068,0.3982448875904083,0.0802608579397201,-0.6710729598999023,0.0110313585028052,0.0685881599783897,0.0,0.0,0.4360213279724121,-0.2411903142929077
-0.0200135223567485,0.3834329545497894,0.0813577696681022,-0.6583374738693237,0.0142787657678127,0.0649481862783432,0.0,0.0,0.0245740413665771,-0.6289929151535034
-0.0191297531127929,0.3686940371990204,0.0838097333908081,-0.6551142930984497,0.0187896788120269,0.09021807461977,0.0,0.0,0.3459646701812744,-0.2887428998947143
-0.0182349197566509,0.3541464507579803,0.0850793123245239,-0.6466186046600342,0.0231453478336334,0.0871132314205169,0.0,0.0,0.6844058036804199,-0.1446629762649536
-0.0173252113163471,0.3405886888504028,0.0866260156035423,-0.6026383638381958,0.0274311061948537,0.0857150927186012,0.0,0.0,-0.525675356388092,0.2224625349044799
-0.0163737293332815,0.326808363199234,0.0908402502536773,-0.6125437021255493,0.0316927321255207,0.0852323919534683,0.0,0.0,0.4933876991271972,-0.1857767701148986
-0.0155051229521632,0.3139082193374634,0.0830368548631668,-0.5734245181083679,0.0354675613343715,0.07549649477005,0.0,0.0,-0.4696723222732544,-0.2540088891983032
-0.0145948408171534,0.3007854223251343,0.0872184783220291,-0.5833294987678528,0.0392319113016128,0.0752869695425033,0.0,0.0,0.2230840921401977,0.1807965040206909
-0.0136360172182321,0.2883188724517822,0.0919326990842819,-0.5541760921478271,0.0431312397122383,0.0779866278171539,0.0,0.0,-0.3189624547958374,0.1649805307388305
-0.0126357078552246,0.2756296694278717,0.096075989305973,-0.5640811920166016,0.0470353625714778,0.0780823975801467,0.0,0.0,0.5345233678817749,0.3106575012207031
-0.0116745950654149,0.263657659292221,0.0923920646309852,-0.5322137475013733,0.0507169142365455,0.0736309289932251,0.0,0.0,-0.2938646674156189,0.2273768186569214
-0.0106721874326467,0.2514629065990448,0.096490666270256,-0.5421187877655029,0.0544200465083122,0.0740628987550735,0.0,0.0,0.4057282209396362,-0.1646307706832885
-0.0095816608518362,0.2397930771112442,0.1049346551299095,-0.5188142657279968,0.0584968961775302,0.0815369859337806,0.0,0.0,0.3139975070953369,-0.3842508792877197
-0.0084472652524709,0.2283100038766861,0.1091846972703933,-0.5105308890342712,0.0627007782459259,0.0840777084231376,0.0,0.0,0.3922305107116699,-0.7067462801933289
-0.0072624208405613,0.2171101719141006,0.1126111596822738,-0.4980271160602569,0.0685070306062698,0.1161247938871383,0.0,0.0,0.1393873691558838,-0.395300805568695
-0.0059629441238939,0.2062877714633941,0.1235530823469162,-0.4812995791435241,0.0748420804738998,0.126701071858406,0.0,0.0,0.4055424928665161,-0.4618622660636902
-0.0045300484634935,0.1957584917545318,0.1362729966640472,-0.4683378934860229,0.0817954614758491,0.139067605137825,0.0,0.0,0.3446328639984131,-0.4401365518569946
-0.0031116486061364,0.1859205812215805,0.1347616761922836,-0.4376439452171325,0.0888077318668365,0.1402455270290374,0.0,0.0,0.5490623712539673,-0.6669096350669861
-0.0017378807533532,0.1769255995750427,0.1288070976734161,-0.4003081023693084,0.0973042324185371,0.1699299365282058,0.0,0.0,-0.0463142991065979,-0.2754372358322143
-0.0003246307314839,0.1677088886499405,0.1326513290405273,-0.4102187752723694,0.1059029698371887,0.1719745099544525,0.0,0.0,0.2227178812026977,0.0122796297073364
0.0011762619251385,0.1586426645517349,0.140975147485733,-0.4036125242710113,0.1149605065584182,0.181150808930397,0.0,0.0,0.0833090543746948,-0.8479787111282349
0.0025712014175951,0.1498318463563919,0.1285651177167892,-0.3924690186977386,0.1258244067430496,0.2172784507274627,0.0,0.0,-0.3192142248153686,0.0886693000793457
0.0040043829940259,0.1408000290393829,0.1322761923074722,-0.4023841321468353,0.1368251144886016,0.220014289021492,0.0,0.0,-0.0023027062416076,0.427545428276062
0.0054756165482103,0.1315472722053527,0.1359372586011886,-0.4122996628284454,0.1479745209217071,0.2229881733655929,0.0,0.0,0.3167289495468139,-0.0668829083442688
0.0067927362397313,0.1229922398924827,0.120850458741188,-0.3813393414020538,0.1588258594274521,0.2170264422893524,0.0,0.0,-0.0590916275978088,-0.0941159725189209
0.0081469537690281,0.1142164096236229,0.1244025826454162,-0.3912551701068878,0.169850081205368,0.220484659075737,0.0,0.0,0.1786825656890869,-0.2632001638412475
0.00940961856395,0.1060013398528099,0.1152615174651146,-0.3664107918739319,0.1808827668428421,0.2206534892320633,0.0,0.0,-0.186836838722229,0.5443298816680908
0.0107443807646632,0.0975792035460472,0.1232333034276962,-0.3755974173545837,0.1911686658859253,0.2057181298732757,0.0,0.0,0.5772194862365723,-0.2012542486190796
0.0120010375976562,0.0896294936537742,0.1153448447585105,-0.3546842932701111,0.2015545666217804,0.2077182978391647,0.0,0.0,0.4816261529922485,0.3019227981567383
0.0130822183564305,0.0822202265262603,0.098075196146965,-0.3307035565376282,0.2116787582635879,0.2024835050106048,0.0,0.0,0.3191843032836914,0.7409172058105469
0.0140356067568063,0.0751774609088897,0.0867371633648872,-0.3142652511596679,0.2203648686408996,0.1737226098775863,0.0,0.0,0.6827776432037354,0.9246615171432496
0.015050983056426,0.0690537318587303,0.0943817123770713,-0.2732534408569336,0.2276032716035843,0.1447682678699493,0.0,0.0,0.2530245780944824,0.1786835193634033
0.0160815231502056,0.0631332695484161,0.0954551845788955,-0.2643242478370666,0.2353162467479705,0.1542595475912094,0.0,0.0,-0.3134456872940063,0.5773813724517822
0.0171987526118755,0.0570156201720237,0.105290375649929,-0.2729379534721374,0.2418518811464309,0.1307125389575958,0.0,0.0,0.611156702041626,0.4766719341278076
0.0181447025388479,0.0517707206308841,0.0879999697208404,-0.2342067062854766,0.2485679537057876,0.1343209892511367,0.0,0.0,-0.0664028525352478,-0.146681010723114
0.0191215518862009,0.0463045947253704,0.0908066108822822,-0.2441202849149704,0.2555797100067138,0.1402348726987838,0.0,0.0,0.348884105682373,0.0117307901382446
0.0200690273195505,0.041327629238367,0.0873021408915519,-0.2225102633237838,0.2631870806217193,0.1521475166082382,0.0,0.0,0.1916530132293701,0.3765931129455566
0.0208874698728323,0.0369806624948978,0.074120856821537,-0.1946027427911758,0.2710895538330078,0.1580496728420257,0.0,0.0,-0.2205979228019714,-0.0422238111495971
0.0217341426759958,0.0324129685759544,0.0766370892524719,-0.2045190185308456,0.2793228030204773,0.1646648496389389,0.0,0.0,0.2445430755615234,0.3580609560012817
0.0225712768733501,0.0281476117670536,0.0750900283455848,-0.1912402510643005,0.2881788611412048,0.1771213710308075,0.0,1.0,0.9943358898162842,0.9869253635406494
0.0230682380497455,0.0256796218454837,0.0597166530787944,-0.1083066761493682,0.2764851152896881,-0.2359119355678558,0.0,1.0,0.8528532981872559,0.5163768529891968
0.0231964103877544,0.0244192704558372,0.0403655394911766,-0.0510921739041805,0.2482098042964935,-0.565657913684845,0.0,1.0,0.5554413795471191,-0.002383530139923
0.0231356620788574,0.0239693745970726,0.027703708037734,-0.0146807003766298,0.2138563990592956,-0.6871827840805054,0.0,1.0,0.1473335027694702,-0.225732684135437
0.023050021380186,0.0238185264170169,0.0235146023333072,-0.0023828474804759,0.1815456002950668,-0.6462163925170898,0.0,1.0,-0.1187719702720642,-0.3610475063323974
0.0229625701904296,0.0234584659337997,0.0235409513115882,-0.0123728923499584,0.1492370218038559,-0.6461721658706665,0.0,0.0,-0.9955563545227052,0.4261592626571655
0.0229004863649606,0.0228899102658033,0.0258654095232486,-0.02236795052886,0.1172833815217018,-0.6390733122825623,0.0,0.0,-0.9878077507019044,-0.5320373177528381
0.0228224750608205,0.0221099946647882,0.023006398230791,-0.0325304791331291,0.0867109894752502,-0.6114484071731567,0.0,0.0,-0.9747957587242126,-0.058603286743164
0.0227683074772357,0.0211198665201663,0.0250983834266662,-0.0425154827535152,0.0565146021544933,-0.60392826795578,0.0,0.0,-0.907639980316162,-0.7737241387367249
