x_pos,y_pos,x_vel,y_vel,angle,ang_vel,leg_1,leg_2,main_booster,lat_booster
-0.0015356063377112,1.4031996726989746,-0.1552630364894867,-0.3431315720081329,0.0015216908650472,0.0299985203891992,0.0,0.0,-0.258725106716156,0.5980660915374756
-0.00303316116333,1.3950748443603516,-0.1496913731098175,-0.3611081838607788,0.0014585498720407,-0.0012622328940778,0.0,0.0,-0.1349728107452392,0.7128422260284424
-0.0044757844880223,1.3865195512771606,-0.142178937792778,-0.3802345395088196,-0.0005910313338972,-0.0409955345094203,0.0,0.0,0.1352792978286743,0.526244044303894
-0.0059805870987474,1.3780527114868164,-0.1469007134437561,-0.3763056993484497,-0.0041368203237652,-0.0709228217601776,0.0,0.0,0.022754430770874,0.7551957368850708
-0.0073462487198412,1.3697682619094849,-0.131249725818634,-0.3682201504707336,-0.0093850027769804,-0.1049736961722374,0.0,0.0,-0.4992532730102539,-0.3850101828575134
-0.0087265018373727,1.3610594272613523,-0.1324402093887329,-0.3871060013771057,-0.0149077931419014,-0.1104656010866165,0.0,0.0,-0.0353681445121765,-0.299250841140747
-0.0101217273622751,1.3519262075424194,-0.1336589753627777,-0.4059877097606659,-0.0207087211310863,-0.1160292774438858,0.0,0.0,-0.1503010392189026,-0.413992166519165
-0.0115322116762399,1.3423689603805542,-0.1348977237939834,-0.4248709082603454,-0.0267905760556459,-0.1216484457254409,0.0,0.0,0.0058025121688842,0.7800151109695435
-0.012891387566924,1.3331577777862549,-0.1279181540012359,-0.4095498025417328,-0.0347047001123428,-0.1582971066236496,0.0,0.0,0.2714481353759765,0.1719022989273071
-0.0142472265288233,1.324360489845276,-0.1272860467433929,-0.3911963105201721,-0.0429073609411716,-0.1640685647726059,0.0,0.0,0.0335195064544677,-0.2898095846176147
-0.0155485151335597,1.3156936168670654,-0.1218078136444091,-0.3854648768901825,-0.0511436387896537,-0.1647405177354812,0.0,0.0,-0.6807177662849426,-0.2175735235214233
-0.0168650634586811,1.3066027164459229,-0.1230450421571731,-0.4043540060520172,-0.0596716664731502,-0.1705764532089233,0.0,0.0,-0.5850217938423157,0.0839461088180542
-0.0181967727839946,1.2970882654190063,-0.1242633312940597,-0.4232410490512848,-0.0684935823082923,-0.176454409956932,0.0,0.0,-0.784776508808136,0.4279522895812988
-0.0195433609187603,1.2871501445770264,-0.125455766916275,-0.4421297907829284,-0.0776117444038391,-0.182380199432373,0.0,0.0,-0.7476974129676819,-0.2255474328994751
-0.0209044460207223,1.2767889499664309,-0.1266147196292877,-0.4610197246074676,-0.0870283916592598,-0.1883501857519149,0.0,0.0,-0.6172715425491333,0.2835745811462402
-0.0222796443849802,1.2660043239593506,-0.1277330219745636,-0.479910671710968,-0.0967456176877021,-0.1943619400262832,0.0,0.0,0.0906528234481811,-0.2219766974449157
-0.0235234256833791,1.255626559257507,-0.1147223263978958,-0.4618891775608063,-0.1063382029533386,-0.1918691247701645,0.0,0.0,-0.7486439943313599,-0.5150588154792786
-0.0248115547001361,1.244825839996338,-0.11964613199234,-0.4807063341140747,-0.1154542416334152,-0.1823370903730392,0.0,0.0,-0.8750631809234619,-0.7696329355239868
-0.0261623375117778,1.2336177825927734,-0.1269027888774871,-0.4987834393978119,-0.1235876232385635,-0.1626822054386139,0.0,0.0,-0.3272989988327026,-0.5335792303085327
-0.0275725368410348,1.2219945192337036,-0.1337494105100631,-0.5171934962272644,-0.1308235973119735,-0.1447326838970184,0.0,0.0,-0.5282970666885376,-0.4423031806945801
-0.0289938934147357,1.209947943687439,-0.1345709860324859,-0.5360842347145081,-0.1383699625730514,-0.1509414315223693,0.0,0.0,0.0721701383590698,-0.6735020875930786
-0.0304306037724018,1.1979097127914429,-0.1371544897556305,-0.5356481075286865,-0.1448755860328674,-0.1301241815090179,0.0,0.0,0.8578537702560425,-0.6060652732849121
-0.0316813476383686,1.1863322257995603,-0.1198813468217849,-0.5150731205940247,-0.1500666737556457,-0.1038308590650558,0.0,0.0,-0.0919191837310791,-0.7559849619865417
-0.032993983477354,1.1743340492248535,-0.1270914524793625,-0.5336763262748718,-0.1542416363954544,-0.0835066214203834,0.0,0.0,0.3143004179000854,-0.7098823189735413
-0.0344157218933105,1.1627148389816284,-0.1389233022928238,-0.5167524218559265,-0.1575006395578384,-0.0651857182383537,0.0,0.0,0.0044422149658203,-0.6923899054527283
-0.0359336845576763,1.1513248682022097,-0.149540513753891,-0.5064634084701538,-0.159764289855957,-0.0452725812792778,0.0,0.0,-0.1087267398834228,-0.5711320042610168
-0.0375015251338481,1.1395249366760254,-0.1553364098072052,-0.5245934128761292,-0.1612093895673751,-0.0289019644260406,0.0,0.0,0.700833797454834,0.7829225063323975
-0.0390216819941997,1.1285877227783203,-0.1484124064445495,-0.4864934682846069,-0.1648201793432235,-0.0722156763076782,0.0,0.0,-0.4521528482437134,0.1520010232925415
-0.0405454635620117,1.1172267198562622,-0.148448958992958,-0.5053784251213074,-0.1687526106834411,-0.0786483883857727,0.0,0.0,0.3570460081100464,-0.5892574787139893
-0.0420690551400184,1.106048345565796,-0.14925017952919,-0.4971786737442016,-0.1718670427799224,-0.0622885897755622,0.0,0.0,-0.1980459690093994,0.4191937446594238
-0.043593693524599,1.094445824623108,-0.1490353047847747,-0.5160635709762573,-0.1753047853708267,-0.0687549635767936,0.0,0.0,0.2868784666061401,-0.1617353558540344
-0.0451182350516319,1.082939624786377,-0.1484213769435882,-0.5118694305419922,-0.1793468296527862,-0.0808409601449966,0.0,0.0,0.5919972658157349,0.2120043039321899
-0.0465815551578998,1.072170972824097,-0.1416191458702087,-0.4791832268238067,-0.1840814501047134,-0.0946924984455108,0.0,0.0,-0.3209054470062256,-0.2396296858787536
-0.0480420105159282,1.060978651046753,-0.1409979462623596,-0.4980694949626922,-0.189141035079956,-0.1011916548013687,0.0,0.0,-0.5078689455986023,-0.5363816022872925
-0.0495382323861122,1.0493754148483276,-0.1453114449977874,-0.5162577033042908,-0.1934776455163955,-0.086732305586338,0.0,0.0,0.7029496431350708,0.2232959270477295
-0.0508603081107139,1.0384905338287354,-0.1276575773954391,-0.4843692779541015,-0.1980529725551605,-0.091506652534008,0.0,0.0,-0.8868733048439026,-0.6344947814941406
-0.0522267334163188,1.0271943807601929,-0.1330916434526443,-0.5025347471237183,-0.2016258239746093,-0.0714573860168457,0.0,0.0,-0.6701270341873169,-0.5099886059761047
-0.0536206252872943,1.0154894590377808,-0.1364824324846267,-0.5206162333488464,-0.2045611292123794,-0.0587058290839195,0.0,0.0,-0.1951261162757873,-0.6843167543411255
-0.0550595298409462,1.0033856630325315,-0.1421122252941131,-0.538190484046936,-0.2063504457473755,-0.035786222666502,0.0,0.0,-0.6936238408088684,-0.5817513465881348
-0.0565292350947856,0.9908722639083862,-0.1459814012050628,-0.556291401386261,-0.2073489725589752,-0.0199704691767692,0.0,0.0,-0.1216636896133422,-0.1777963638305664
-0.057985495775938,0.9779350161552428,-0.1443164646625518,-0.5751765370368958,-0.2086713463068008,-0.0264476481825113,0.0,0.0,0.5308613777160645,-0.7890282273292542
-0.0592631325125694,0.9652636647224426,-0.1279022097587585,-0.5631480813026428,-0.2085274755954742,0.0028773020021617,0.0,0.0,-0.974348485469818,-0.4199380874633789
-0.0605241768062114,0.9521684646606444,-0.1259268820285797,-0.5820329785346985,-0.2087056040763855,-0.003562644124031,0.0,0.0,-0.991754412651062,-0.6539717316627502
-0.0618094429373741,0.9386614561080932,-0.1291210800409317,-0.6002270579338074,-0.2081071436405182,0.011969169601798,0.0,0.0,-0.94672828912735,-0.4092991352081299
-0.0630750656127929,0.9247305393218994,-0.1268350332975387,-0.6191120743751526,-0.2078279703855514,0.0055834939703345,0.0,0.0,-0.930375635623932,-0.5313088297843933
-0.064358040690422,0.9103823900222778,-0.129237949848175,-0.6375621557235718,-0.2068834453821182,0.0188902746886014,0.0,0.0,-0.9844115376472472,-0.595952033996582
-0.0656600967049598,0.8956202268600464,-0.1318939179182052,-0.6558606624603271,-0.2051800936460495,0.034067403525114,0.0,0.0,-0.992028534412384,-0.4653761386871338
-0.0669378265738487,0.8804342150688171,-0.1291471421718597,-0.6747456789016724,-0.2037901431322097,0.0277986042201519,0.0,0.0,-0.2653190493583679,-0.8515120148658752
-0.0682688727974891,0.864856481552124,-0.1362554877996444,-0.6919109225273132,-0.2006171643733978,0.063459888100624,0.0,0.0,-0.9118934869766236,0.1012072563171386
-0.0695724487304687,0.8488549590110779,-0.1332091391086578,-0.7107963562011719,-0.1977523565292358,0.0572963953018188,0.0,0.0,-0.7779213190078735,-0.3811164498329162
-0.0708472281694412,0.8324295282363892,-0.1300160139799118,-0.7296814322471619,-0.1951926201581955,0.0511947572231292,0.0,0.0,-0.1033152937889099,-0.5884687304496765
-0.0721409767866134,0.8155988454818726,-0.132909893989563,-0.7475671768188477,-0.1916370540857315,0.0711113810539245,0.0,0.0,-0.3051320910453796,-0.3521983623504638
-0.0734028816223144,0.7983443140983582,-0.1294313371181488,-0.7664524912834167,-0.1883793771266937,0.0651535615324974,0.0,0.0,0.3572512865066528,-0.0943027734756469
-0.0745061859488487,0.7816306352615356,-0.1132945865392685,-0.7424543499946594,-0.185403287410736,0.0595217756927013,0.0,0.0,-0.3034229278564453,0.475215196609497
-0.0755748748779296,0.7644931077957153,-0.1095427498221397,-0.761339008808136,-0.1827164441347122,0.0537371933460235,0.0,0.0,-0.3144375681877136,0.0994210243225097
-0.0766075104475021,0.7469314336776733,-0.1056595891714096,-0.7802233099937439,-0.1803138852119445,0.0480512827634811,0.0,0.0,0.5092470645904541,-0.4190014600753784
-0.0773877128958702,0.7299970388412476,-0.0805362164974212,-0.7523359656333923,-0.177792951464653,0.0504188127815723,0.0,0.0,-0.5301017165184021,-0.5071544647216797
-0.0781595259904861,0.7126489281654358,-0.0801993310451507,-0.770672082901001,-0.1747600585222244,0.0606577582657337,0.0,0.0,0.6474055051803589,-0.4031527638435364
-0.0786752700805664,0.6960698962211609,-0.0546760186553001,-0.7364815473556519,-0.1716493517160415,0.0622140653431415,0.0,0.0,-0.2086290717124939,-0.605991542339325
-0.0792023688554763,0.6790858507156372,-0.0569284968078136,-0.7543619275093079,-0.1674276739358902,0.08443383872509,0.0,0.0,-0.2071545720100402,-0.394046425819397
-0.0796872153878212,0.6616779565811157,-0.0524516105651855,-0.7732464671134949,-0.1634588241577148,0.0793768763542175,0.0,0.0,-0.3728622198104858,-0.2738815546035766
-0.0801286697387695,0.6438459157943726,-0.0478698350489139,-0.7921305894851685,-0.1597350537776947,0.0744754448533058,0.0,0.0,0.6249215602874756,-0.5627769827842712
-0.080359935760498,0.6263211369514465,-0.0280660483986139,-0.778355062007904,-0.1547914147377014,0.098872534930706,0.0,0.0,0.2033901214599609,-0.2896763682365417
-0.080459788441658,0.6090300679206848,-0.0147889554500579,-0.7679995894432068,-0.1499962955713272,0.0959022492170333,0.0,0.0,0.5996679067611694,0.0313004255294799
-0.0804476737976074,0.5918888449668884,-0.0034091223496943,-0.7613714933395386,-0.1453846544027328,0.0922328829765319,0.0,0.0,-0.0615914463996887,-0.586315929889679
-0.0804433822631836,0.5743361115455627,-0.0054027456790208,-0.7795626521110535,-0.1395680159330368,0.1163329109549522,0.0,0.0,0.2899301052093506,0.016176700592041
-0.0802812576293945,0.5573484301567078,0.0105030722916126,-0.754483163356781,-0.1338718086481094,0.1139240711927414,0.0,0.0,0.3225716352462768,-0.3939160108566284
-0.0799734145402908,0.5402716398239136,0.0249338615685701,-0.7584571242332458,-0.1280584931373596,0.1162662655115127,0.0,0.0,0.3517415523529053,-0.5745624899864197
-0.0795470252633094,0.5238206386566162,0.0357625037431716,-0.7305806875228882,-0.121219053864479,0.1367888897657394,0.0,0.0,0.3295706510543823,0.1087986230850219
-0.0790990814566612,0.507526695728302,0.0384284332394599,-0.7236743569374084,-0.1148928329348564,0.1265244334936142,0.0,0.0,0.5880008935928345,-0.3477327823638916
-0.0786129012703895,0.4917936325073242,0.0428123325109481,-0.6988127827644348,-0.109124980866909,0.1153571233153343,0.0,0.0,0.1305105686187744,0.0119093656539917
-0.0780075043439865,0.47626793384552,0.05477150157094,-0.689620316028595,-0.1033964902162551,0.1145697981119155,0.0,0.0,0.1935559511184692,-0.3545323610305786
-0.0773792266845703,0.46124267578125,0.0576140508055686,-0.6674360036849976,-0.0982213914394378,0.1035020351409912,0.0,0.0,-0.3074459433555603,-0.6747120022773743
-0.0767445564270019,0.4458001852035522,0.0571611002087593,-0.6859340667724609,-0.0919739156961441,0.1249494776129722,0.0,0.0,0.0473664999008178,-0.0849178433418273
-0.076055146753788,0.4303067326545715,0.0628389865159988,-0.6882339119911194,-0.0859190970659256,0.1210963129997253,0.0,0.0,0.7477781772613525,-0.4677503705024719
-0.075210765004158,0.4148937463760376,0.0780724436044693,-0.6846683621406555,-0.0796101242303848,0.1261792182922363,0.0,0.0,0.901056170463562,-0.1962212920188903
-0.074317455291748,0.3996450006961822,0.0831891521811485,-0.6774123311042786,-0.0735324844717979,0.1215529218316078,0.0,0.0,0.7331099510192871,-0.4454357624053955
-0.0733174309134483,0.3852175772190094,0.0939418748021125,-0.6409329771995544,-0.0675427541136741,0.1197950467467308,0.0,0.0,0.5200514793395996,-0.5419670939445496
-0.0721757858991622,0.3714909553527832,0.1068535074591636,-0.6097586750984192,-0.0603066720068454,0.1447212994098663,0.0,0.0,-0.335127592086792,-0.0512097477912902
-0.0709796920418739,0.3573402762413025,0.1123182773590087,-0.6286426186561584,-0.0530856028199195,0.1444213092327118,0.0,0.0,0.5634481906890869,-0.5277240872383118
-0.0698853507637977,0.3432434499263763,0.1014030203223228,-0.6262633204460144,-0.0451548136770725,0.1586157828569412,0.0,0.0,0.7095562219619751,0.1283563375473022
-0.0686579719185829,0.3299455642700195,0.1145017370581626,-0.5907919406890869,-0.0370131209492683,0.1628335863351822,0.0,0.0,0.0503860712051391,0.4188861846923828
-0.0674270614981651,0.316775768995285,0.1151207834482193,-0.5851491093635559,-0.0291352663189172,0.1575570702552795,0.0,0.0,0.61279296875,0.552560567855835
-0.0661362633109092,0.3041768074035644,0.1223051697015762,-0.5598351955413818,-0.0224532298743724,0.1336406916379928,0.0,0.0,0.1239275932312011,0.3426015377044678
-0.0647891014814376,0.2918673455715179,0.1279181689023971,-0.5470010042190552,-0.0157421249896287,0.1342222988605499,0.0,0.0,-0.23227059841156,0.437706708908081
-0.0633885413408279,0.2791336476802826,0.1331845819950103,-0.5658841729164124,-0.0089483074843883,0.135876327753067,0.0,0.0,0.613623857498169,0.1924588680267334
-0.0619086250662803,0.2664769887924194,0.1408971846103668,-0.562493085861206,-0.0019490169361233,0.1399857699871063,0.0,0.0,0.4933387041091919,0.1560614109039306
-0.0602916702628135,0.2539418935775757,0.1540986597537994,-0.5571240782737732,0.0055519677698612,0.1500196307897567,0.0,0.0,0.7701246738433838,-0.3069883584976196
-0.0584685318171978,0.2419019341468811,0.1738458126783371,-0.5351646542549133,0.0139110703021287,0.1671820431947708,0.0,0.0,0.7544729709625244,-0.498721718788147
-0.0564519874751567,0.2300695329904556,0.1923479735851287,-0.5260005593299866,0.0230985693633556,0.1837497651576995,0.0,0.0,0.7464947700500488,-0.5475539565086365
-0.054453182965517,0.2190067321062088,0.189333289861679,-0.4918728172779083,0.0335150361061096,0.2083292752504348,0.0,0.0,0.0063686370849609,-0.6460847854614258
-0.0524501800537109,0.2082169651985168,0.1882666647434234,-0.4798533618450165,0.0454087629914283,0.237874299287796,0.0,0.0,0.2626197338104248,-0.3580434322357178
-0.0503267273306846,0.1977750211954116,0.1996825635433197,-0.4645192921161651,0.057927630841732,0.250377207994461,0.0,0.0,0.6105716228485107,-0.2168167829513549
-0.0480761528015136,0.1873956471681594,0.21174156665802,-0.4618716537952423,0.0710989236831665,0.2634259760379791,0.0,0.0,0.5010578632354736,-0.2243640422821045
-0.0458599105477333,0.1772811561822891,0.2083323001861572,-0.4502154886722564,0.08425934612751,0.2632083892822265,0.0,0.0,0.2358005046844482,-0.6459639668464661
-0.0436342246830463,0.167719617486,0.2076551616191864,-0.4258679449558258,0.0990380048751831,0.2955731749534607,0.0,0.0,0.2047145366668701,0.3612775802612304
-0.0414229407906532,0.1583532691001892,0.2060671746730804,-0.4173428118228912,0.1139709874987602,0.2986599206924438,0.0,0.0,0.3508473634719848,0.3319520950317383
-0.0393450744450092,0.1495174318552017,0.1930053979158401,-0.3938971757888794,0.1286771297454834,0.2941232621669769,0.0,0.0,-0.2301669120788574,0.5887056589126587
-0.0371742248535156,0.1402731090784073,0.2034156322479248,-0.4120940268039703,0.1422902643680572,0.2722625732421875,0.0,0.0,0.4766308069229126,0.0652687549591064
-0.0351072326302528,0.1315924674272537,0.1930141448974609,-0.3871700167655945,0.1559460163116455,0.2731149196624756,0.0,0.0,-0.0908981561660766,0.2834832668304443
-0.0330035202205181,0.1224901303648948,0.196445882320404,-0.4060684740543365,0.1698750704526901,0.2785809636116028,0.0,0.0,0.5772875547409058,-0.2323418259620666
-0.0309688560664653,0.1136629432439804,0.1894125640392303,-0.3939848840236664,0.1839764714241027,0.282027930021286,0.0,0.0,0.5937914848327637,0.36314857006073
-0.0291180610656738,0.1052389442920684,0.1712795794010162,-0.3761683404445648,0.1978479474782943,0.2774291634559631,0.0,0.0,0.3854154348373413,0.1232647895812988
-0.0274466518312692,0.097002275288105,0.1536612659692764,-0.3679357767105102,0.211434468626976,0.271730363368988,0.0,0.0,0.7795910835266113,0.4762234687805176
-0.0257976539433002,0.0895152688026428,0.1506289541721344,-0.3348594605922699,0.225855141878128,0.2884137034416199,0.0,0.0,0.0263091325759887,0.1318435668945312
-0.0241368301212787,0.0819552242755889,0.1513754576444625,-0.3383269608020782,0.2407657951116562,0.2982129752635956,0.0,0.0,0.6716392040252686,0.6689286231994629
-0.0224313735961914,0.0751794651150703,0.1565728336572647,-0.3034941256046295,0.2549960911273956,0.2846061289310455,0.0,0.0,0.1312803030014038,0.4092683792114258
-0.020854091271758,0.0687481015920639,0.143557608127594,-0.2883683443069458,0.2694812417030334,0.2897029817104339,0.0,0.0,0.1301901340484619,0.4913456439971924
-0.0193198211491107,0.0627801492810249,0.1385286301374435,-0.268057256937027,0.2847515046596527,0.3054054081439972,0.0,0.0,0.0364223718643188,0.1316242218017578
-0.0178263671696186,0.056935366243124,0.1339811086654663,-0.262844830751419,0.3005827963352203,0.3166257441043854,0.0,0.0,0.0264074802398681,-0.0839114785194397
-0.0164747238159179,0.0513952821493148,0.1195588335394859,-0.2495368123054504,0.3167387247085571,0.323119193315506,0.0,0.0,0.2519261837005615,0.2772860527038574
-0.0152557371184229,0.0463073104619979,0.1058444380760192,-0.2297290116548538,0.3334581851959228,0.3343894481658935,0.0,0.0,0.144774317741394,0.0865755081176757
-0.014081573113799,0.04127749055624,0.1008821129798889,-0.2274666577577591,0.3507920503616333,0.3466770648956299,0.0,0.0,0.0429422855377197,0.3905403614044189
-0.0131105426698923,0.0363382920622825,0.0806563645601272,-0.2236294001340866,0.3681299090385437,0.3467570841312408,0.0,1.0,0.990549087524414,0.9981677532196044
-0.0124444011598825,0.0327311120927333,0.0648339092731475,-0.1613114476203918,0.3683858811855316,0.0027018373366445,0.0,1.0,0.9413836002349854,0.9854421615600586
-0.0120789529755711,0.0305369235575199,0.0555615834891796,-0.0927968546748161,0.3482501208782196,-0.4028460383415222,0.0,1.0,0.6868222951889038,0.5591216087341309
-0.0119003299623727,0.0293377265334129,0.0503042861819267,-0.0458466485142707,0.3142716288566589,-0.6796981692314148,0.0,1.0,0.444854736328125,0.1717015504837036
-0.0117358211427927,0.0284464452415704,0.0531716123223304,-0.0321393907070159,0.2763060629367828,-0.7594161629676819,0.0,1.0,0.1486487388610839,-0.5204356908798218
-0.0116446493193507,0.0278233140707016,0.0437493547797203,-0.0215503927320241,0.2409041225910186,-0.7080754041671753,0.0,1.0,-0.0130942463874816,-0.3812927007675171
-0.0115533825010061,0.0267897695302963,0.0439499840140342,-0.0406253673136234,0.2056192010641098,-0.7057276964187622,0.0,0.0,-0.9957311749458312,-0.3416807651519775
-0.0114551540464162,0.0253400895744562,0.0441665165126323,-0.0600241385400295,0.1711022108793258,-0.6903401017189026,0.0,0.0,-0.98517507314682,0.0326535701751709
