x_pos,y_pos,x_vel,y_vel,angle,ang_vel,leg_1,leg_2,main_booster,lat_booster
-0.0015065192710608,1.4029641151428225,-0.1523341685533523,-0.3535971939563751,0.0015004002489149,0.02957758679986,0.0,0.0,-0.3655952215194702,0.7684164047241211
-0.0029308318626135,1.3943674564361572,-0.1419582366943359,-0.3820743262767792,0.001028282335028,-0.0094424877315759,0.0,0.0,-0.3629884719848633,0.3556134700775146
-0.0043387413024902,1.3851099014282229,-0.1399961411952972,-0.4114443063735962,0.0002491579216439,-0.0155842471867799,0.0,0.0,0.1390522718429565,0.822246789932251
-0.0057606697082519,1.3757059574127195,-0.1393606662750244,-0.4179493486881256,-0.0025594604667276,-0.0561777241528034,0.0,0.0,0.3909037113189697,0.5974528789520264
-0.006999778561294,1.366466760635376,-0.1197890490293502,-0.4106477797031402,-0.0066324300132691,-0.0814670249819755,0.0,0.0,0.4877740144729614,0.7421779632568359
-0.0080246925354003,1.3572980165481567,-0.0967816486954689,-0.4075354933738708,-0.0122882770374417,-0.1131273657083511,0.0,0.0,-0.4250440001487732,0.1773750782012939
-0.0090344427153468,1.3474695682525637,-0.0948633700609207,-0.436887115240097,-0.0183337070047855,-0.1209196895360946,0.0,0.0,0.1494653224945068,-0.0565211772918701
-0.0099171642214059,1.3376535177230835,-0.0822415500879287,-0.4363513886928558,-0.0242919772863388,-0.11917644739151,0.0,0.0,-0.4224858283996582,-0.3390148878097534
-0.010785293765366,1.327177882194519,-0.0803602188825607,-0.4657066464424133,-0.030675996094942,-0.127691850066185,0.0,0.0,-0.2384760379791259,-0.3544839024543762
-0.0116393091157078,1.31604266166687,-0.0784980282187461,-0.4950553476810455,-0.0375014431774616,-0.1365213394165039,0.0,0.0,-0.3124548196792602,-0.9311417937278748
-0.0125423427671194,1.30425226688385,-0.0845393016934394,-0.5241806507110596,-0.0432016961276531,-0.1140158548951149,0.0,0.0,-0.5022847056388855,-0.814152181148529
-0.0134885786101222,1.291803956031799,-0.0898310765624046,-0.55340176820755,-0.0479493327438831,-0.0949613377451896,0.0,0.0,-0.2948753833770752,-0.9616607427597046
-0.0144810676574707,1.27870512008667,-0.0954791530966758,-0.5822948813438416,-0.0516861528158187,-0.0747435912489891,0.0,0.0,0.1014662981033325,-0.9590834379196168
-0.0154701229184865,1.265293836593628,-0.0965443700551986,-0.5961396098136902,-0.05402073264122,-0.0466953441500663,0.0,0.0,-0.3393393158912658,-0.856326162815094
-0.0164983756840229,1.2512356042861938,-0.1012748032808303,-0.6248651146888733,-0.0555623434484005,-0.0308349914848804,0.0,0.0,-0.2567945718765259,-0.1558088660240173
-0.0175150875002145,1.2365175485610962,-0.0995869264006614,-0.654213547706604,-0.0576256215572357,-0.041269414126873,0.0,0.0,0.310782790184021,-0.7620539665222168
-0.0184183120727539,1.222159504890442,-0.089400514960289,-0.638174295425415,-0.0585376769304275,-0.0182426981627941,0.0,0.0,0.0598526000976562,-0.9023876786231996
-0.0192602165043354,1.20749032497406,-0.0845312774181366,-0.6519486904144287,-0.0581963919103145,0.006826342549175,0.0,0.0,-0.1062005162239074,-0.0290707349777221
-0.0200918205082416,1.192161202430725,-0.082954004406929,-0.6812973022460938,-0.0584063753485679,-0.004199840594083,0.0,0.0,-0.0829831361770629,-0.3073588609695434
-0.0209136959165334,1.176172375679016,-0.0814137309789657,-0.7106456160545349,-0.0591748356819152,-0.0153707340359687,0.0,0.0,-0.009440004825592,-0.88508540391922
-0.0217811577022075,1.159534931182861,-0.0867928713560104,-0.7394358515739441,-0.0591213591396808,0.0010694125667214,0.0,0.0,0.7009156942367554,-0.5113279819488525
-0.0226404182612895,1.142919421195984,-0.0864728540182113,-0.7384478449821472,-0.0585895888507366,0.0106366230174899,0.0,0.0,0.4323680400848388,-0.5898302793502808
-0.023388098925352,1.1263432502746582,-0.0761782303452491,-0.7366628050804138,-0.0571946464478969,0.0279012266546487,0.0,0.0,-0.5336601734161377,-0.4417022466659546
-0.0241281501948833,1.109107255935669,-0.074819728732109,-0.766015887260437,-0.056386649608612,0.0161616019904613,0.0,0.0,0.511939525604248,-0.3625675439834595
-0.0249576568603515,1.0921045541763306,-0.0825565457344055,-0.7556946873664856,-0.0567724108695983,-0.0077160322107374,0.0,0.0,0.7289916276931763,-0.8079817891120911
-0.0259709358215332,1.0755478143692017,-0.1016383618116378,-0.73583984375,-0.0564618371427059,0.006211289204657,0.0,0.0,0.2964634895324707,-0.7349749803543091
-0.0270005222409963,1.0591943264007568,-0.1041480302810669,-0.7267785668373108,-0.0552839562296867,0.0235575772821903,0.0,0.0,0.0680640935897827,0.0030211210250854
-0.0280794147402048,1.0429871082305908,-0.1080846562981605,-0.7203155755996704,-0.0551017671823501,0.0036438577808439,0.0,0.0,0.9027664661407472,-0.6609380841255188
-0.0293178558349609,1.0274791717529297,-0.1243284195661544,-0.6892188787460327,-0.0546217635273933,0.0096000013872981,0.0,0.0,-0.399333655834198,0.2179799079895019
-0.0305521003901958,1.0113115310668943,-0.1232910603284835,-0.7185667753219604,-0.0547533072531223,-0.0026310409884899,0.0,0.0,-0.272327184677124,-0.6441797614097595
-0.031831931322813,0.9944953322410583,-0.1284759789705276,-0.7473660707473755,-0.0542556270956993,0.0099536944180727,0.0,0.0,0.7433370351791382,-0.5154076814651489
-0.0332117080688476,0.9777194261550904,-0.1386458128690719,-0.7455725073814392,-0.053596768528223,0.013177340850234,0.0,0.0,-0.4557728767395019,-0.5233679413795471
-0.0346361175179481,0.9602923393249512,-0.1436769366264343,-0.7744912505149841,-0.0523713380098342,0.0245087165385484,0.0,0.0,-0.0432791709899902,-0.212651789188385
-0.0360589027404785,0.942205548286438,-0.1428888440132141,-0.8038392663002014,-0.0517662204802036,0.0121025331318378,0.0,0.0,0.9362354278564452,-0.5976194739341736
-0.0374694839119911,0.9245633482933044,-0.1423068940639495,-0.7840557098388672,-0.0505372583866119,0.0245793368667364,0.0,0.0,0.2956594228744507,-0.5064444541931152
-0.0388743393123149,0.907155692577362,-0.1421513706445694,-0.7736237645149231,-0.0488869547843933,0.0330059006810188,0.0,0.0,0.1471604108810424,-0.2485181093215942
-0.0402822494506835,0.8895630240440369,-0.141748622059822,-0.7818641662597656,-0.0479442551732063,0.0188540928065776,0.0,0.0,0.264296293258667,-0.3994265794754028
-0.0416342727839946,0.8721809983253479,-0.1356565505266189,-0.77251136302948,-0.0474904589354991,0.0090760067105293,0.0,0.0,-0.0248699784278869,-0.6618935465812683
-0.0430434234440326,0.8541507124900818,-0.1421683728694915,-0.8013107776641846,-0.0462561771273613,0.0246859602630138,0.0,0.0,0.5869593620300293,-0.0488589406013488
-0.0444008819758892,0.8363335132598877,-0.1364897936582565,-0.7918537855148315,-0.0455198399722576,0.0147270169109106,0.0,0.0,0.8204793930053711,-0.7526612281799316
-0.0459095947444438,0.8191611170768738,-0.1522296667098999,-0.7631744146347046,-0.0441867373883724,0.0266622640192508,0.0,0.0,-0.0512721538543701,0.1308330297470092
-0.0474221222102642,0.8013288974761963,-0.1519692987203598,-0.7925218939781189,-0.0434758178889751,0.0142184030264616,0.0,0.0,0.4349262714385986,-0.3465313911437988
-0.0488428100943565,0.7832395434379578,-0.1425539255142212,-0.8039605021476746,-0.0429956540465354,0.0096030980348587,0.0,0.0,0.854055643081665,0.7379422187805176
-0.050063706934452,0.7653661370277405,-0.1207373142242431,-0.7944117188453674,-0.0443303398787975,-0.0266934894025325,0.0,0.0,0.8815507888793945,-0.4342287182807922
-0.0513215065002441,0.7473387122154236,-0.1235899478197097,-0.8012917637825012,-0.0464972928166389,-0.0433389358222484,0.0,0.0,0.9017717838287354,-0.4266818165779114
-0.0525147430598735,0.7292238473892212,-0.1167604103684425,-0.8051807880401611,-0.0490358546376228,-0.0507712736725807,0.0,0.0,0.8791007995605469,-0.2483142018318176
-0.0536205284297466,0.7112058401107788,-0.1077175885438919,-0.8009003400802612,-0.0518675446510314,-0.0566336885094642,0.0,0.0,0.5974576473236084,-0.5522944331169128
-0.05485200881958,0.6937538981437683,-0.1204732432961463,-0.7757292985916138,-0.0545083321630954,-0.0528159067034721,0.0,0.0,0.8816623687744141,-0.4682230949401855
-0.0561933517456054,0.6769992709159851,-0.1301343739032745,-0.7448009252548218,-0.0584570281207561,-0.0789739862084388,0.0,0.0,0.0354504585266113,-0.6899888515472412
-0.0575942024588584,0.6600666046142578,-0.1368505656719207,-0.7526976466178894,-0.0616519190371036,-0.0638977363705635,0.0,0.0,0.665574312210083,0.5601545572280884
-0.0587693229317665,0.643317461013794,-0.1129557266831398,-0.7445957064628601,-0.0661612078547477,-0.0901857167482376,0.0,0.0,0.3350334167480469,-0.4858524799346924
-0.0599609389901161,0.6268046498298645,-0.1137814074754715,-0.7341506481170654,-0.0714848563075065,-0.106472909450531,0.0,0.0,0.3649147748947143,-0.8155136108398438
-0.0610990524291992,0.6101734042167664,-0.1095925122499466,-0.7393741607666016,-0.0756581649184227,-0.0834663361310958,0.0,0.0,0.8852697610855103,-0.6454916596412659
-0.0622254386544227,0.5942553877830505,-0.1091292724013328,-0.7076469659805298,-0.0791255608201026,-0.0693481191992759,0.0,0.0,0.1885106563568115,-0.3997470140457153
-0.0632278472185134,0.5781896710395813,-0.0966579318046569,-0.7142252326011658,-0.0826839506626129,-0.0711679607629776,0.0,0.0,0.7056465148925781,-0.5836024284362793
-0.0643530860543251,0.5622078776359558,-0.1092477291822433,-0.7104834318161011,-0.0859345495700836,-0.0650118589401245,0.0,0.0,0.8728129863739014,0.1495935916900634
-0.0653061866760253,0.546903133392334,-0.0919467806816101,-0.6804074645042419,-0.0892692878842353,-0.0666951015591621,0.0,0.0,0.5883982181549072,-0.8612124919891357
-0.06613340228796,0.5319004654884338,-0.0807315185666084,-0.6669066548347473,-0.0912382900714874,-0.0393798537552356,0.0,0.0,-0.4273805618286133,-0.1973822116851806
-0.066972829401493,0.516238272190094,-0.0813905596733093,-0.6962562799453735,-0.0937736555933952,-0.0507068261504173,0.0,0.0,0.8665282726287842,-0.7935267686843872
-0.0678974166512489,0.5012712478637695,-0.0907317027449607,-0.6653099060058594,-0.0954835787415504,-0.0341984778642654,0.0,0.0,0.1893255710601806,-0.6687781810760498
-0.068821333348751,0.4860385954380035,-0.0915117710828781,-0.6770628094673157,-0.0963595807552337,-0.0175199024379253,0.0,0.0,0.9696903228759766,-0.3935732841491699
-0.0697970390319824,0.4714122712612152,-0.0955736190080642,-0.6501902341842651,-0.0983363166451454,-0.0395350120961666,0.0,0.0,0.5872906446456909,0.0167906284332275
-0.0706193000078201,0.4568505883216858,-0.0802391394972801,-0.6473154425621033,-0.1003050878643989,-0.0393754467368125,0.0,0.0,0.7281167507171631,-0.5329897403717041
-0.0714067444205284,0.442589521408081,-0.0773658156394958,-0.6339202523231506,-0.1016722619533538,-0.0273436717689037,0.0,0.0,0.9194056987762452,-0.2892869710922241
-0.0721518546342849,0.4283624589443207,-0.072637178003788,-0.6324423551559448,-0.1035237535834312,-0.0370298698544502,0.0,0.0,0.5458674430847168,-0.1272631287574768
-0.0729690566658973,0.4143189787864685,-0.0787906050682067,-0.6243619918823242,-0.1064296215772628,-0.0581172332167625,0.0,0.0,0.9119117259979248,-0.5244979858398438
-0.0737097710371017,0.4011016190052032,-0.0717779248952865,-0.5876032114028931,-0.1087199002504348,-0.0458054170012474,0.0,0.0,0.3532462120056152,-0.4112313985824585
-0.0743721947073936,0.3875710666179657,-0.0637461692094802,-0.6015418171882629,-0.1112011224031448,-0.0496242865920066,0.0,0.0,0.65751051902771,-0.765694260597229
-0.074984073638916,0.3746716976165771,-0.0597835853695869,-0.5734100341796875,-0.1125876083970069,-0.0277297608554363,0.0,0.0,0.7345229387283325,-0.7527822852134705
-0.0757215470075607,0.3618785142898559,-0.0731516107916832,-0.5686311721801758,-0.113179974257946,-0.0118473302572965,0.0,0.0,0.8350021839141846,0.3053250312805176
-0.0764902085065841,0.3495639562606811,-0.075316272675991,-0.5474318861961365,-0.114718809723854,-0.0307765789330005,0.0,0.0,0.5235685110092163,0.2513335943222046
-0.0771798118948936,0.3374402225017547,-0.0670785307884216,-0.5389781594276428,-0.1165913492441177,-0.0374509915709495,0.0,0.0,0.4590672254562378,-0.75314861536026
-0.0779816657304763,0.3258089423179626,-0.0791584104299545,-0.517025887966156,-0.1176170781254768,-0.0205144491046667,0.0,0.0,-0.5884408354759216,0.399773359298706
-0.0787986740469932,0.3135181367397308,-0.0802099853754043,-0.5463753342628479,-0.1190873235464096,-0.0294053349643945,0.0,0.0,-0.0836278796195983,0.1368229389190673
-0.079630471765995,0.3005678653717041,-0.0812753587961196,-0.5757247805595398,-0.1209914907813072,-0.0380831435322761,0.0,0.0,-0.0042300820350646,-0.706752598285675
-0.0805273056030273,0.2869594693183899,-0.0885931029915809,-0.6049033999443054,-0.1220703646540641,-0.0215776450932025,0.0,0.0,0.8294814825057983,-0.5633482336997986
-0.0814750641584396,0.2732605934143066,-0.0943036079406738,-0.608880877494812,-0.1225416883826255,-0.0094265174120664,0.0,0.0,0.9953417778015136,-0.0183062553405761
-0.0823308005928993,0.2603300809860229,-0.0846454352140426,-0.5747661590576172,-0.12346001714468,-0.018366701900959,0.0,0.0,0.8075815439224243,-0.4670693874359131
-0.0830045714974403,0.2480522692203521,-0.0664753392338752,-0.545751690864563,-0.1243618428707122,-0.0180363245308399,0.0,0.0,0.8095155954360962,-0.8045878410339355
-0.0837783813476562,0.2364923059940338,-0.0774461477994918,-0.5137732028961182,-0.124299481511116,0.0012472900561988,0.0,0.0,0.2588512897491455,0.7402212619781494
-0.0845887213945388,0.2246505320072174,-0.0790969580411911,-0.5264638662338257,-0.1262213885784149,-0.0384382158517837,0.0,0.0,0.8847625255584717,0.3520944118499756
-0.0852545723319053,0.2134823203086853,-0.0645155534148216,-0.4965393841266632,-0.1282824873924255,-0.0412217639386653,0.0,0.0,0.5149500370025635,-0.129301905632019
-0.08595971763134,0.2024575024843216,-0.0676753669977188,-0.4902409315109253,-0.1311128735542297,-0.0566078349947929,0.0,0.0,0.7514910697937012,-0.5695655345916748
-0.0866916626691818,0.1918650716543197,-0.0709994286298751,-0.4709701240062713,-0.1332965195178985,-0.043673250824213,0.0,0.0,-0.113254427909851,0.0914661884307861
-0.0874381065368652,0.1806129515171051,-0.0721330195665359,-0.5003190636634827,-0.1357941627502441,-0.0499525479972362,0.0,0.0,0.8925156593322754,-0.0281450152397155
-0.0880096405744552,0.1696714013814926,-0.0548096597194671,-0.486506313085556,-0.1381307393312454,-0.046731911599636,0.0,0.0,0.729659914970398,-0.594085693359375
-0.0885666832327842,0.1586009562015533,-0.0543314591050148,-0.4921464323997497,-0.1395029127597808,-0.0274435821920633,0.0,0.0,0.8827365636825562,-0.3723533749580383
-0.0889693275094032,0.1475303769111633,-0.0391028001904487,-0.4921364486217499,-0.1406609863042831,-0.023161593824625,0.0,0.0,0.968707799911499,-0.6399154663085938
-0.0891547203063964,0.1367815881967544,-0.0188999064266681,-0.4776889979839325,-0.1403033882379531,0.0071518258191645,0.0,0.0,0.9923384189605712,-0.4423900246620178
-0.0891209617257118,0.1260441690683365,0.0024937889538705,-0.4771356284618377,-0.1394168138504028,0.0177309364080429,0.0,0.0,0.9965211153030396,-0.1995137929916381
-0.0889812484383583,0.1159969642758369,0.0133468629792332,-0.4464861452579498,-0.1387975662946701,0.0123853459954261,0.0,0.0,0.9554378986358644,-0.4353543519973755
-0.0886943787336349,0.1066160276532173,0.0281147602945566,-0.416877806186676,-0.138231411576271,0.0113226501271128,0.0,0.0,0.91479754447937,-0.7935998439788818
-0.0882202163338661,0.0977073013782501,0.0451262444257736,-0.3957342207431793,-0.1359477192163467,0.04567401856184,0.0,0.0,0.8934681415557861,-0.6816104650497437
-0.0876388549804687,0.0886732637882232,0.0543674528598785,-0.4011728465557098,-0.1321956664323806,0.0750407502055168,0.0,0.0,0.9889066219329834,-0.443796157836914
-0.0870521515607833,0.0799035876989364,0.0553838834166526,-0.3894786536693573,-0.1289202570915222,0.0655083209276199,0.0,0.0,0.9342639446258544,-0.4412563443183899
-0.086249828338623,0.071957528591156,0.0766607373952865,-0.3528538644313812,-0.1253578960895538,0.0712471976876258,0.0,0.0,0.8518006801605225,0.0920882225036621
-0.0854058265686035,0.0643058642745018,0.0810991004109382,-0.339800089597702,-0.122075468301773,0.0656485557556152,0.0,0.0,0.6883134841918945,-0.2260240912437439
-0.0846010223031044,0.0572277642786502,0.0779146254062652,-0.3143720030784607,-0.1195281818509101,0.0509459152817726,0.0,0.0,0.7609045505523682,-0.1912355422973632
-0.0836272239685058,0.0505808927118778,0.0945226997137069,-0.295189768075943,-0.1166866496205329,0.0568304359912872,0.0,0.0,0.5429694652557373,0.1529197692871093
-0.0826330184936523,0.0443266965448856,0.0969205051660537,-0.277771532535553,-0.1141996458172798,0.0497401356697082,0.0,0.0,0.5773983001708984,0.2090941667556762
-0.081647016108036,0.038491353392601,0.0965758338570594,-0.2591954171657562,-0.1121899113059043,0.0401948392391204,0.0,0.0,0.5478366613388062,-0.1379671692848205
-0.0806429833173751,0.0326952785253524,0.0985950976610183,-0.2574692070484161,-0.1103887557983398,0.0360231101512908,0.0,0.0,0.4613118171691894,0.1123266220092773
-0.0796935111284256,0.0270491931587457,0.093699999153614,-0.2508462965488434,-0.109154962003231,0.0246756989508867,0.0,0.0,0.6571810245513916,0.5537209510803223
-0.0788147896528244,0.0215443708002567,0.088251307606697,-0.2446871101856231,-0.1095280423760414,-0.0074616484344005,0.0,0.0,0.9262487888336182,0.3940742015838623
-0.0777318030595779,0.0166083201766014,0.1081680431962013,-0.2193692326545715,-0.1093994006514549,0.0025729204062372,0.0,0.0,0.8357100486755371,-0.6896896958351135
-0.0765953063964843,0.011614260263741,0.1120200157165527,-0.2218382060527801,-0.1077820509672164,0.0323467291891574,0.0,0.0,0.6911659240722656,-0.6438690423965454
-0.0751886367797851,0.0078871343284845,0.118172787129879,-0.1641841530799865,-0.0854668989777565,0.446310430765152,1.0,0.0,0.600456953048706,-0.3342982530593872
-0.0736414939165115,0.0052042459137737,0.1169194430112838,-0.117521658539772,-0.0480151660740375,0.7491074204444885,1.0,0.0,0.7034497261047363,-0.2090758085250854
-0.071922019124031,0.0031632280442863,0.1343627423048019,-0.0899260863661766,-0.0109038343653082,0.7422264814376831,1.0,0.0,0.428769588470459,-0.195000946521759
-0.0701311081647872,0.0012311792233958,0.1411934792995453,-0.0860180035233497,0.026509566232562,0.7482689023017883,0.0,0.0,-0.241176962852478,0.585996150970459
-0.0685169249773025,-0.0007771516102366,0.1442393213510513,-0.0896672382950782,0.043409090489149,0.3379049897193908,0.0,1.0,-0.8190825581550598,0.7003695964813232
-0.0670743957161903,-0.0028859043959528,0.1482932865619659,-0.0936189219355583,0.0393807329237461,-0.0806131288409233,0.0,1.0,0.1387437582015991,0.0278019905090332
-0.0658076256513595,-0.0046618487685918,0.1489490419626236,-0.0785064399242401,0.0173327792435884,-0.4410301744937897,1.0,1.0,0.7420854568481445,-0.9818801283836364
-0.0648500472307205,-0.0052583003416657,0.1141938120126724,-0.0265729371458292,-0.0002549644559621,-0.3509873449802398,1.0,1.0,0.4787349700927734,-0.9748070240020752
-0.0640838593244552,-0.0049143694341182,0.082982487976551,0.0152609627693891,-0.0065443580970168,-0.1258031278848648,1.0,1.0,-0.1819249987602234,-0.992605984210968
-0.0634195357561111,-0.0043059373274445,0.0641240552067756,0.0270412489771842,-0.0042809671722352,0.0452535226941108,1.0,1.0,-0.8543568849563599,-0.9222440719604492
-0.0629019737243652,-0.0034558558836579,0.047050803899765,0.0377840027213096,0.0003352484491188,0.0923002809286117,1.0,1.0,-0.7733807563781738,-0.2178069353103637
-0.0624648109078407,-0.0024278901983052,0.0411083064973354,0.0456830225884914,0.0028857497964054,0.0509837083518505,1.0,1.0,-0.5056616067886353,-0.6930139660835266
-0.062100600451231,-0.0013170981546863,0.0349587835371494,0.0493608228862285,0.0043247491121292,0.0287705864757299,1.0,1.0,-0.6171709895133972,-0.4902388453483581
-0.0618341453373432,-0.0004458093608263,0.0333097763359546,0.038728043437004,-0.0022581869270652,-0.1316610127687454,1.0,1.0,-0.3960899114608764,-0.8595829606056213
