x_pos,y_pos,x_vel,y_vel,angle,ang_vel,leg_1,leg_2,main_booster,lat_booster
-0.0015460967551916,1.4031859636306765,-0.156095802783966,-0.3437433242797851,0.0013298052363097,0.0261995941400527,0.0,0.0,-0.5711882710456848,0.7155251502990723
-0.003054141998291,1.3950328826904297,-0.150096446275711,-0.3623563051223755,0.0006342130363918,-0.0139126209542155,0.0,0.0,0.1143566370010376,0.1247816085815429
-0.0044951438903808,1.3868496417999268,-0.1433780640363693,-0.3637023270130157,-8.100474224193022e-05,-0.0143054891377687,0.0,0.0,-0.4224222898483276,0.5994365215301514
-0.0059214592911303,1.3782256841659546,-0.1404848992824554,-0.3832892477512359,-0.0021994716953486,-0.0423732437193393,0.0,0.0,0.0464839935302734,0.8451070785522461
-0.007207584567368,1.3697850704193115,-0.1243639141321182,-0.3751525580883026,-0.006404289510101,-0.0841046422719955,0.0,0.0,-0.3182424306869507,-0.4714292287826538
-0.0085169794037938,1.3609061241149902,-0.1262385100126266,-0.394651710987091,-0.0110555263236165,-0.0930330455303192,0.0,0.0,-0.1072704792022705,0.0787349939346313
-0.0098498342558741,1.3515889644622805,-0.1281260997056961,-0.4141444563865661,-0.0161518175154924,-0.1019352450966835,0.0,0.0,0.5326218605041504,0.2286900281906128
-0.0110577587038278,1.3427302837371826,-0.1158616691827774,-0.3937757909297943,-0.0210302583873271,-0.0975780040025711,0.0,0.0,-0.0438617467880249,0.2734934091567993
-0.0122892381623387,1.3334335088729858,-0.1177736744284629,-0.4132783710956573,-0.0263496600091457,-0.1063975319266319,0.0,0.0,0.0057264566421508,-0.4478629231452942
-0.0135331153869628,1.3243616819381714,-0.1185748949646949,-0.403300940990448,-0.0321090705692768,-0.1151988953351974,0.0,0.0,-0.6922427415847778,0.2884778976440429
-0.0148008344694972,1.314851999282837,-0.1205052509903907,-0.4228027462959289,-0.0383037813007831,-0.123905561864376,0.0,0.0,0.535496711730957,-0.2922645807266235
-0.0160077102482318,1.3056365251541138,-0.1143079251050949,-0.4097508490085602,-0.0446198433637619,-0.126332938671112,0.0,0.0,-0.4590951204299927,-0.6186237931251526
-0.0172765739262104,1.2959890365600586,-0.1210376471281051,-0.428971379995346,-0.0504031516611576,-0.115676924586296,0.0,0.0,-0.5754003524780273,0.0026326179504394
-0.018569279462099,1.2859034538269043,-0.122993491590023,-0.4484659731388092,-0.0566131584346294,-0.1242115497589111,0.0,0.0,-0.6192218661308289,-0.4800430536270141
-0.0198857299983501,1.2753803730010986,-0.1249550729990005,-0.4679634273052215,-0.063245877623558,-0.1326662302017212,0.0,0.0,-0.5304542779922485,0.3023179769515991
-0.0212261192500591,1.264419674873352,-0.1269219517707824,-0.4874625205993652,-0.0702976956963539,-0.1410493850708007,0.0,0.0,0.5154440402984619,0.3038479089736938
-0.0224092490971088,1.25418221950531,-0.1113696098327636,-0.4553440809249878,-0.0771710351109504,-0.1374796330928802,0.0,0.0,-0.7919270396232605,-0.6566709876060486
-0.0236559864133596,1.2435057163238523,-0.1183306202292442,-0.4748457670211792,-0.0834602862596511,-0.1257963329553604,0.0,0.0,-0.7032167911529541,0.5717372894287109
-0.0248740203678607,1.2323907613754272,-0.1137296184897422,-0.4944675266742706,-0.0914749503135681,-0.1603079587221145,0.0,0.0,-0.27992844581604,-0.6690977215766907
-0.0261755939573049,1.2208462953567505,-0.1232045665383338,-0.5135262608528137,-0.0983802303671836,-0.1381179839372635,0.0,0.0,0.4860576391220093,-0.7986480593681335
-0.0273694042116403,1.2098701000213623,-0.1138447523117065,-0.4882079660892486,-0.1038913205265998,-0.1102317124605178,0.0,0.0,-0.2457889318466186,-0.8744432926177979
-0.0286550521850585,1.198461651802063,-0.1243389621376991,-0.5073468089103699,-0.1080870479345321,-0.0839217007160186,0.0,0.0,0.5760338306427002,-0.2969608306884765
-0.0297852512449026,1.187369704246521,-0.1090095862746238,-0.4932665824890136,-0.1120917573571205,-0.0801012441515922,0.0,0.0,-0.5113593935966492,-0.0010976195335388
-0.0309395790100097,1.175839900970459,-0.1110222488641738,-0.512771725654602,-0.1164746806025505,-0.0876663699746131,0.0,0.0,0.3245711326599121,-0.7331089377403259
-0.0322417244315147,1.16467547416687,-0.1267354935407638,-0.4964751005172729,-0.1199475824832916,-0.0694643408060073,0.0,0.0,-0.5755653977394104,-0.6507662534713745
-0.0336328521370887,1.153066635131836,-0.1368673145771026,-0.5161311030387878,-0.1221697255969047,-0.0444425344467163,0.0,0.0,0.0746622085571289,0.516577959060669
-0.0349465385079383,1.141718864440918,-0.1277537047863006,-0.5046553611755371,-0.1257730573415756,-0.0720667988061904,0.0,0.0,0.1340193748474121,-0.6243101954460144
-0.0363611206412315,1.1308106184005735,-0.1385939270257949,-0.4850527644157409,-0.1286191642284393,-0.0569222271442413,0.0,0.0,-0.3412747979164123,0.6485106945037842
-0.0377591140568256,1.119462251663208,-0.1355824768543243,-0.5047435164451599,-0.1328163146972656,-0.0839431136846542,0.0,0.0,0.2684633731842041,-0.3313859701156616
-0.0391472801566123,1.1082358360290527,-0.1341872364282608,-0.499367356300354,-0.1374174058437347,-0.0920220762491226,0.0,0.0,-0.2087140083312988,-0.5124083757400513
-0.0405972488224506,1.0965856313705444,-0.1410607993602752,-0.5181592702865601,-0.1413427591323852,-0.078506976366043,0.0,0.0,0.0125067234039306,-0.2755887508392334
-0.0420801155269146,1.0849064588546753,-0.1438197940587997,-0.5195024609565735,-0.1457970738410949,-0.0890866816043853,0.0,0.0,-0.4035575985908508,0.2581861019134521
-0.0435863509774208,1.0727896690368652,-0.145866110920906,-0.5389988422393799,-0.1505484133958816,-0.0950268879532814,0.0,0.0,0.6278126239776611,-0.387117862701416
-0.0451247207820415,1.0607763528823853,-0.1485021710395813,-0.5344741940498352,-0.1558752059936523,-0.1065361499786377,0.0,0.0,0.1869255304336547,0.1934820413589477
-0.0466047301888465,1.0489903688430786,-0.1424548923969268,-0.5244101881980896,-0.1614201366901397,-0.1108986139297485,0.0,0.0,-0.1220108270645141,0.2566637992858886
-0.0481078140437603,1.0367668867111206,-0.144506350159645,-0.5439073443412781,-0.1672239005565643,-0.1160752177238464,0.0,0.0,0.7359154224395752,-0.1478925943374633
-0.0495813377201557,1.024820327758789,-0.1411865055561065,-0.5316652655601501,-0.1734000146389007,-0.1235219463706016,0.0,0.0,-0.3751463890075683,-0.0865228772163391
-0.0510776527225971,1.0124361515045166,-0.143240600824356,-0.551162838935852,-0.1798062771558761,-0.1281251460313797,0.0,0.0,-0.8244929909706116,-0.953688383102417
-0.0526741966605186,0.9996464252471924,-0.1550976932048797,-0.5689943432807922,-0.1843833327293396,-0.0915407314896583,0.0,0.0,-0.4879732728004455,-0.6394048929214478
-0.0543405525386333,0.9864327907562256,-0.1630928069353103,-0.5877150297164917,-0.1879363507032394,-0.0710607171058654,0.0,0.0,-0.2300018668174743,-0.039203941822052
-0.0560292229056358,0.9727813005447388,-0.1651485562324524,-0.6072101593017578,-0.1916720867156982,-0.0747142806649208,0.0,0.0,0.249131441116333,-0.9583225846290588
-0.0576323494315147,0.9592630863189696,-0.1583876311779022,-0.6010648012161255,-0.1936137974262237,-0.038834236562252,0.0,0.0,-0.9076098203659058,-0.7686835527420044
-0.0593087188899517,0.9453129172325134,-0.1668348610401153,-0.6201082468032837,-0.194415271282196,-0.0160293765366077,0.0,0.0,-0.5948761105537415,-0.928899109363556
-0.0610672011971473,0.9309403896331788,-0.1764740645885467,-0.6386922597885132,-0.1937909126281738,0.0124871302396059,0.0,0.0,-0.1817376017570495,0.5581713914871216
-0.0628080368041992,0.916111409664154,-0.1735406368970871,-0.6591377854347229,-0.1943287998437881,-0.0107577815651893,0.0,0.0,-0.9191348552703856,-0.3073372840881347
-0.0645701438188552,0.900844156742096,-0.1755948364734649,-0.678630530834198,-0.1949608027935028,-0.0126399602741003,0.0,0.0,-0.1204172372817993,-0.6165041327476501
-0.0663969963788986,0.8851478695869446,-0.1830895543098449,-0.6975594162940979,-0.1945579648017883,0.0080568138509988,0.0,0.0,0.3685915470123291,-0.2311252951622009
-0.0682027786970138,0.870056688785553,-0.1804924011230468,-0.670731246471405,-0.1946425288915634,-0.0016913504805415,0.0,0.0,-0.717141330242157,-0.3449392914772033
-0.0700294524431228,0.854526937007904,-0.1825417578220367,-0.6902230381965637,-0.1947650015354156,-0.0024496610276401,0.0,0.0,-0.9789496064186096,-0.6614729166030884
-0.0719301253557205,0.8385725617408752,-0.1912849396467209,-0.708920419216156,-0.1935328543186187,0.0246430654078722,0.0,0.0,-0.800788402557373,-0.0809023380279541
-0.0738511085510253,0.8221797347068787,-0.1933288276195526,-0.7284117937088013,-0.1923010349273681,0.0246362574398517,0.0,0.0,-0.2242695093154907,-0.8801988959312439
-0.0758663192391395,0.8053759932518005,-0.2046958208084106,-0.7464263439178467,-0.1891108453273773,0.0638036802411079,0.0,0.0,-0.5275570154190063,-0.2916381359100342
-0.0779015570878982,0.7881337404251099,-0.2067321091890335,-0.7659177780151367,-0.1858840137720108,0.0645367056131362,0.0,0.0,0.5852642059326172,-0.20472252368927
-0.0798119530081749,0.7715803980827332,-0.1943279206752777,-0.7352975010871887,-0.1825882047414779,0.065916046500206,0.0,0.0,-0.7006982564926147,-0.5812573432922363
-0.081776238977909,0.7545958161354065,-0.2006521224975586,-0.7543584108352661,-0.1783438771963119,0.0848864838480949,0.0,0.0,0.3897128105163574,0.2741148471832275
-0.0837684646248817,0.7377791404724121,-0.2031783610582351,-0.7469393610954285,-0.1743814349174499,0.0792488232254982,0.0,0.0,-0.2474373579025268,-0.1012051701545715
-0.0857798606157302,0.7205238938331604,-0.2051904201507568,-0.7664302587509155,-0.170312151312828,0.0813854485750198,0.0,0.0,0.2215559482574463,0.2766485214233398
-0.0876247435808181,0.7035412788391113,-0.1891555041074752,-0.754256546497345,-0.1656475961208343,0.0932910069823265,0.0,0.0,0.2152330875396728,0.4199848175048828
-0.0893341079354286,0.6870025992393494,-0.175995260477066,-0.7345026135444641,-0.1605896055698394,0.1011599451303482,0.0,0.0,-0.1398646235466003,0.4699362516403198
-0.0910616889595985,0.670025110244751,-0.1779792010784149,-0.7539939880371094,-0.155377060174942,0.1042512506246566,0.0,0.0,0.7474331855773926,0.6197409629821777
-0.0926412567496299,0.6531593799591064,-0.1622476130723953,-0.7491461634635925,-0.1510932594537735,0.0856757909059524,0.0,0.0,0.6555510759353638,0.6015009880065918
-0.0941926017403602,0.6369139552116394,-0.1581391990184784,-0.7217133641242981,-0.148091971874237,0.0600259192287921,0.0,0.0,-0.092094600200653,0.6778550148010254
-0.0956976860761642,0.6202136874198914,-0.1520759165287017,-0.7420762777328491,-0.1465282291173935,0.0312748327851295,0.0,0.0,0.7747030258178711,-0.1870763301849365
-0.0970987305045127,0.6040460467338562,-0.1420008540153503,-0.7183759808540344,-0.1446372866630554,0.0378191620111465,0.0,0.0,0.1043441295623779,0.0373101234436035
-0.0984727889299392,0.5878360867500305,-0.1395540386438369,-0.7202364206314087,-0.1424996703863144,0.0427522137761116,0.0,0.0,0.6749067306518555,0.2464629411697387
-0.0999025329947471,0.5721035599708557,-0.1447724550962448,-0.6990531086921692,-0.1407083719968795,0.0358259417116642,0.0,0.0,0.3946771621704101,0.6793917417526245
-0.1011733040213584,0.5569973587989807,-0.1278025209903717,-0.6713212728500366,-0.1399904191493988,0.0143591118976473,0.0,0.0,-0.0543384552001953,0.3345507383346557
-0.102460004389286,0.5414520502090454,-0.1296447813510894,-0.6908096075057983,-0.1390166282653808,0.0194758158177137,0.0,0.0,0.8034160137176514,0.5134778022766113
-0.1035612076520919,0.5268429517745972,-0.1104277744889259,-0.6492645144462585,-0.1387099772691726,0.0061329915188252,0.0,0.0,-0.4552783966064453,0.6309971809387207
-0.1046360954642295,0.5117833018302917,-0.1070022210478782,-0.6693611741065979,-0.1391936540603637,-0.0096731875091791,0.0,0.0,0.5671433210372925,-0.4794917106628418
-0.1057227104902267,0.497256875038147,-0.1080637946724891,-0.6456764340400696,-0.1397963315248489,-0.0120533714070916,0.0,0.0,0.5302512645721436,-0.5946013331413269
-0.1067591682076454,0.4831520318984985,-0.1045960038900375,-0.6267926096916199,-0.1388467848300933,0.0189910028129816,0.0,0.0,-0.1223211884498596,-0.4533215761184692
-0.1078094467520713,0.4686081111431122,-0.1062747836112976,-0.6462804079055786,-0.1375973969697952,0.0249874740839004,0.0,0.0,0.8635220527648926,0.801467776298523
-0.1086310371756553,0.4545612037181854,-0.0823036804795265,-0.624293863773346,-0.1374547779560089,0.0028523788787424,0.0,0.0,0.6453568935394287,-0.4501115679740906
-0.1094452887773513,0.4406608343124389,-0.0817262455821037,-0.6177683472633362,-0.1371538043022155,0.0060200649313628,0.0,0.0,0.4947439432144165,-0.2826355695724487
-0.1101705580949783,0.4267456233501434,-0.0734355673193931,-0.6183680295944214,-0.1362482756376266,0.0181104801595211,0.0,0.0,0.8937201499938965,0.0904426574707031
-0.1108904853463172,0.4129769504070282,-0.0730563625693321,-0.6118459701538086,-0.1351846158504486,0.0212732348591089,0.0,0.0,0.8046844005584717,-0.4066599607467651
-0.1115135177969932,0.4000587165355682,-0.063667431473732,-0.5740203857421875,-0.1338322311639785,0.0270478911697864,0.0,0.0,-0.0340097546577453,-0.353833794593811
-0.1121469512581825,0.3867014646530151,-0.0650324076414108,-0.5935080051422119,-0.1321439445018768,0.0337654538452625,0.0,0.0,0.8493428230285645,0.6325873136520386
-0.1127528175711631,0.374288409948349,-0.0610180869698524,-0.5516518950462341,-0.131721630692482,0.0084464084357023,0.0,0.0,0.185143232345581,-0.0615843534469604
-0.1134283989667892,0.3618077635765075,-0.0678919330239296,-0.5546618700027466,-0.1313841789960861,0.0067489109933376,0.0,0.0,-0.1425318121910095,0.1902261972427368
-0.114111803472042,0.3488880395889282,-0.0690404996275901,-0.5741493105888367,-0.130698561668396,0.0137123018503189,0.0,0.0,0.4352446794509887,0.1340845823287964
-0.114824578166008,0.3362899422645569,-0.0719087272882461,-0.5598617792129517,-0.1300685703754425,0.0125996889546513,0.0,0.0,0.2528941631317138,-0.205561876296997
-0.1155181899666786,0.3240252435207367,-0.0701499953866005,-0.5450279712677002,-0.1292763203382492,0.0158449672162532,0.0,0.0,-0.5565759539604187,-0.8057469725608826
-0.1162810325622558,0.3113380968570709,-0.0790974870324134,-0.5636328458786011,-0.1264837235212326,0.0558516979217529,0.0,0.0,0.7911100387573242,0.5135681629180908
-0.1168288215994834,0.2991238236427307,-0.0572034828364849,-0.5426520705223083,-0.1240682601928711,0.0483094751834869,0.0,0.0,-0.4905774593353271,0.3900282382965088
-0.1173798590898513,0.2864704430103302,-0.0579007863998413,-0.5621401071548462,-0.1212911009788513,0.0555433444678783,0.0,0.0,0.7137045860290527,0.8050246238708496
-0.1177147850394249,0.2739632725715637,-0.0352262668311595,-0.5557337999343872,-0.119562491774559,0.034571997821331,0.0,0.0,0.9346563816070556,-0.1931303739547729
-0.1178000420331955,0.2619821727275848,-0.011433744803071,-0.5322659015655518,-0.1166719123721122,0.0578115470707416,0.0,0.0,0.8710330724716187,-0.0842173099517822
-0.1176766380667686,0.2501999139785766,0.0083299335092306,-0.5233480930328369,-0.1126847490668296,0.0797431617975235,0.0,0.0,0.8019993305206299,0.2618429660797119
-0.1174661666154861,0.2392011284828186,0.016688335686922,-0.4885121583938598,-0.1083588451147079,0.0865180864930152,0.0,0.0,0.8398451805114746,0.2297455072402954
-0.1171279922127723,0.2290175259113311,0.0289299488067626,-0.4522532522678375,-0.103505402803421,0.0970688164234161,0.0,0.0,0.7641781568527222,-0.4567667841911316
-0.1165806800127029,0.2194375395774841,0.0488494746387004,-0.4253834784030914,-0.0976681038737297,0.1167460456490516,0.0,0.0,-0.039751648902893,0.543429970741272
-0.1159793883562088,0.2094057947397232,0.055144228041172,-0.4455368816852569,-0.0927285701036453,0.0987904816865921,0.0,0.0,0.1922042369842529,0.7113707065582275
-0.115325354039669,0.1994802504777908,0.061529766768217,-0.4408992230892181,-0.0888900235295295,0.0767709985375404,0.0,0.0,0.7529780864715576,0.2763677835464477
-0.114494040608406,0.1904717534780502,0.0784677565097808,-0.4001068472862243,-0.0842668339610099,0.0924638286232948,0.0,0.0,-0.4862445592880249,-0.7444256544113159
-0.1137160286307334,0.1810322403907776,0.071205697953701,-0.4191779792308807,-0.0777342692017555,0.1306513249874115,0.0,0.0,0.4395632743835449,0.7888621091842651
-0.1129338294267654,0.1722048372030258,0.0730158537626266,-0.3920671045780182,-0.0725791603326797,0.1031020060181617,0.0,0.0,-0.015907347202301,-0.3490064144134521
-0.1121418923139572,0.1629389077425003,0.0736135989427566,-0.4115583300590515,-0.0670559778809547,0.1104637384414672,0.0,0.0,0.4928406476974487,0.5452408790588379
-0.1113026589155197,0.1542539149522781,0.0791939347982406,-0.385795533657074,-0.062377244234085,0.0935744494199752,0.0,0.0,0.0642313957214355,-0.2605131864547729
-0.110474869608879,0.1458573937416076,0.0779242292046547,-0.3729821145534515,-0.057578470557928,0.095975637435913,0.0,0.0,0.2283408641815185,-0.0942450165748596
-0.1096317321062088,0.1375784426927566,0.0791785195469856,-0.3677643537521362,-0.0524996519088745,0.1015761122107505,0.0,0.0,0.2289029359817505,0.1563546657562255
-0.1088383644819259,0.1295379698276519,0.0742362961173057,-0.3571852743625641,-0.0474577955901622,0.1008370667695999,0.0,0.0,0.3067779541015625,0.6828713417053223
-0.1080896407365799,0.1216836795210838,0.0709976106882095,-0.3489606976509094,-0.0436228550970554,0.0766989216208458,0.0,0.0,0.4436428546905517,0.605104923248291
-0.107149600982666,0.1143256276845932,0.0907488614320755,-0.3269326984882355,-0.04041313752532,0.0641944780945777,0.0,0.0,-0.4770350456237793,-0.849821925163269
-0.1062545776367187,0.1065253317356109,0.084357164800167,-0.3465491533279419,-0.0353259705007076,0.1017432361841201,0.0,0.0,0.3197444677352905,0.1508291959762573
-0.1052058190107345,0.0991941764950752,0.0988174155354499,-0.3256981670856476,-0.0293443799018859,0.1196319833397865,0.0,0.0,0.1158322095870971,0.8807864189147949
-0.1040729507803917,0.0922156423330307,0.1086415275931358,-0.310075581073761,-0.0247622728347778,0.0916422232985496,0.0,0.0,-0.2515097856521606,0.1825608015060424
-0.1029226332902908,0.0847986564040184,0.1100330725312233,-0.3295677304267883,-0.0198255758732557,0.0987341105937957,0.0,0.0,0.4976232051849365,0.645352840423584
-0.1016171425580978,0.0777275636792182,0.1263321787118911,-0.3142202496528625,-0.0156625900417566,0.083259716629982,0.0,0.0,0.4154031276702881,0.0909880399703979
-0.1002882942557334,0.0712674483656883,0.1283389329910278,-0.2870797514915466,-0.011178033426404,0.0896913260221481,0.0,0.0,0.2543292045593261,0.2664024829864502
-0.0988877266645431,0.0652649477124214,0.1349438428878784,-0.2667450308799743,-0.0061326776631176,0.100907064974308,0.0,0.0,0.0081832408905029,0.1502506732940673
-0.0974169746041297,0.0592435710132122,0.1413912028074264,-0.267605721950531,-0.0005147968768142,0.1123578920960426,0.0,0.0,0.0335768461227417,0.5283534526824951
-0.0959692969918251,0.0533650964498519,0.1399284154176712,-0.2612707018852234,0.0042541692964732,0.0953793004155159,0.0,0.0,0.546828031539917,0.884077787399292
-0.0945687294006347,0.0477685071527957,0.1368436515331268,-0.2487502843141555,0.0074233184568583,0.0633828863501548,0.0,0.0,0.1262749433517456,0.3573007583618164
-0.0931653007864952,0.0423098169267177,0.1368600279092788,-0.2426303923130035,0.0108608538284897,0.0687507316470146,0.0,0.0,0.4409068822860718,0.7964295148849487
-0.0916578322649002,0.0371105521917343,0.1484956741333007,-0.2310982793569564,0.0130841247737407,0.0444655194878578,0.0,0.0,0.5153824090957642,-0.6580390334129333
-0.0900547057390213,0.0319631434977054,0.1561300903558731,-0.2288154065608978,0.0172161571681499,0.0826404318213462,0.0,0.0,0.4933245182037353,0.2290648221969604
-0.0883528739213943,0.0273067578673362,0.1652500629425048,-0.2070150375366211,0.0220816582441329,0.0973101109266281,0.0,0.0,0.5695376396179199,-0.7733354568481445
-0.0866815596818924,0.0233678445219993,0.1602714955806732,-0.1751789301633834,0.0288528073579072,0.1354229599237442,0.0,0.0,0.2843782901763916,-0.3196147680282593
