x_pos,y_pos,x_vel,y_vel,angle,ang_vel,leg_1,leg_2,main_booster,lat_booster
-0.0015871047507971,1.4032150506973269,-0.1606444865465164,-0.3424533009529114,0.0017281600739806,0.0340868607163429,0.0,0.0,-0.3709549307823181,0.7916649580001831
-0.0031700134277343,1.3951197862625122,-0.1581874191761016,-0.3597897589206695,0.0016286004101857,-0.0019907092209905,0.0,0.0,-0.1582406163215637,0.880197286605835
-0.0047307014465332,1.3866082429885864,-0.1537312567234039,-0.3782885670661926,-0.0006780793773941,-0.0461377464234828,0.0,0.0,0.5665528774261475,0.1845595836639404
-0.0064652441069483,1.378397822380066,-0.1705003082752227,-0.3649064302444458,-0.0036051503848284,-0.0585469231009483,0.0,0.0,0.1222124099731445,0.1368932723999023
-0.0081709865480661,1.370442032814026,-0.1679587960243225,-0.3536059558391571,-0.0061893668025732,-0.0516890287399292,0.0,0.0,-0.3569943904876709,0.6890759468078613
-0.0098695755004882,1.3620750904083252,-0.1654689610004425,-0.371890127658844,-0.0105218375101685,-0.086657777428627,0.0,0.0,0.0278152227401733,0.4499157667160034
-0.0116363521665334,1.353837966918945,-0.1721694618463516,-0.3661327362060547,-0.0149914855137467,-0.0894010886549949,0.0,0.0,-0.368242859840393,0.3860304355621338
-0.0134601593017578,1.3451913595199585,-0.1777935475111007,-0.3843412399291992,-0.0195294450968503,-0.0907675623893737,0.0,0.0,-0.2993383407592773,0.4761824607849121
-0.0153395654633641,1.3361356258392334,-0.1832896769046783,-0.4025440514087677,-0.0241324342787265,-0.0920679792761802,0.0,0.0,-0.156844675540924,0.023590087890625
-0.0172732360661029,1.3266706466674805,-0.1886480003595352,-0.420747697353363,-0.0287971924990415,-0.0933036655187606,0.0,0.0,-0.0817750692367553,0.8784693479537964
-0.0191803928464651,1.3167937994003296,-0.1839357912540435,-0.4391150772571563,-0.0355102308094501,-0.1342727690935135,0.0,0.0,0.3709301948547363,0.895768404006958
-0.0209856033325195,1.3071560859680176,-0.1719521284103393,-0.4285661280155182,-0.0439837537705898,-0.169485941529274,0.0,0.0,-0.3629286289215088,0.7028853893280029
-0.0227724071592092,1.2971091270446775,-0.1683624982833862,-0.4468684196472168,-0.0542026795446872,-0.2043972015380859,0.0,0.0,0.107701301574707,0.1918163299560547
-0.0245472900569438,1.2870068550109863,-0.167346253991127,-0.4493855535984039,-0.0642496272921562,-0.2009571492671966,0.0,0.0,-0.689841091632843,0.155078649520874
-0.0263673774898052,1.2764962911605835,-0.1718275249004364,-0.4675998091697693,-0.0743402019143104,-0.2018297016620636,0.0,0.0,-0.2481154203414917,0.8920862674713135
-0.0281479842960834,1.2655582427978516,-0.165739893913269,-0.4867914021015167,-0.0865674167871475,-0.2445662915706634,0.0,0.0,-0.2883028984069824,0.3929643630981445
-0.029969310387969,1.2542126178741455,-0.1697789132595062,-0.5050076246261597,-0.09882852435112,-0.2452445775270462,0.0,0.0,0.5206520557403564,0.649885892868042
-0.0316015258431434,1.2429404258728027,-0.1498627662658691,-0.5019347071647644,-0.1121070459485054,-0.2655942142009735,0.0,0.0,-0.3205385208129883,0.3966076374053955
-0.033269215375185,1.2312605381011963,-0.1534085571765899,-0.5201582908630371,-0.125411719083786,-0.2661177217960357,0.0,0.0,0.0269806385040283,0.1806956529617309
-0.0349754318594932,1.2197067737579346,-0.1570245027542114,-0.5147073268890381,-0.1389728337526321,-0.2712467610836029,0.0,0.0,-0.1430897712707519,-0.5626212358474731
-0.036745835095644,1.2077566385269165,-0.1643389910459518,-0.5323454141616821,-0.1516639143228531,-0.2538445591926574,0.0,0.0,-0.3862676620483398,-0.4989024400711059
-0.0385432243347168,1.1953991651535034,-0.1670431196689605,-0.550562858581543,-0.1643688380718231,-0.2541215419769287,0.0,0.0,-0.2405279278755188,0.2053844928741455
-0.0403643622994422,1.182634353637695,-0.1694394201040268,-0.5687817931175232,-0.1770824342966079,-0.2542946934700012,0.0,0.0,0.1969180107116699,0.0483357906341552
-0.042116355150938,1.1697824001312256,-0.1627828776836395,-0.5727272629737854,-0.1895653456449508,-0.2496803551912307,0.0,0.0,-0.0263351798057556,-0.9218440651893616
-0.0439735427498817,1.156550407409668,-0.1756058633327484,-0.5894178152084351,-0.1997600048780441,-0.2039110213518142,0.0,0.0,0.124377965927124,-0.9145687818527222
-0.0459370613098144,1.1436543464660645,-0.1880492269992828,-0.5743026733398438,-0.2081243842840194,-0.1672873497009277,0.0,0.0,0.7810832262039185,-0.9472315311431884
-0.0478172302246093,1.1315264701843262,-0.1816325038671493,-0.5399353504180908,-0.2145647853612899,-0.1288087666034698,0.0,0.0,0.7384004592895508,-0.7701972723007202
-0.04972505569458,1.1203372478485107,-0.1856565773487091,-0.498045951128006,-0.2197364270687103,-0.1034327745437622,0.0,0.0,0.4679149389266968,-0.4693200588226318
-0.0515992157161235,1.1097843647003174,-0.1818027645349502,-0.4698647856712341,-0.2254269123077392,-0.1138094514608383,0.0,0.0,-0.6815454959869385,0.6264071464538574
-0.0534270294010639,1.098804235458374,-0.1759824454784393,-0.4890650510787964,-0.2323148101568222,-0.137758120894432,0.0,0.0,-0.3200529813766479,-0.5499404668807983
-0.0552906021475791,1.0874354839324951,-0.180668830871582,-0.5061886310577393,-0.2380956262350082,-0.1156159788370132,0.0,0.0,0.5934247970581055,-0.8849387168884277
-0.057197093963623,1.0763227939605713,-0.1866379678249359,-0.4945473372936249,-0.2421786934137344,-0.0816609412431716,0.0,0.0,0.9186031818389891,-0.0808454155921936
-0.058962058275938,1.0661909580230713,-0.1720802336931228,-0.4510383605957031,-0.2466671466827392,-0.0897690281271934,0.0,0.0,-0.2737022638320923,0.3738641738891601
-0.060711957514286,1.0556496381759644,-0.1706177145242691,-0.4692400991916656,-0.2511121034622192,-0.0888993591070175,0.0,0.0,0.219368577003479,-0.2685979604721069
-0.0623164176940918,1.0453671216964722,-0.1561886519193649,-0.4577376246452331,-0.2554526627063751,-0.0868109315633773,0.0,0.0,-0.7459703087806702,-0.2249572873115539
-0.0638986602425575,1.034675121307373,-0.1540264636278152,-0.475939005613327,-0.2597387731075287,-0.085722915828228,0.0,0.0,-0.4042991995811462,-0.3345157504081726
-0.0654553398489952,1.023573398590088,-0.1515282094478607,-0.4941401779651642,-0.2639649510383606,-0.0845240280032157,0.0,0.0,-0.6672176122665405,-0.3623914122581482
-0.0669830292463302,1.012062430381775,-0.1487050056457519,-0.5123411417007446,-0.2681256234645843,-0.0832135155797004,0.0,0.0,-0.4001433849334717,-0.9403328895568848
-0.0685528740286827,1.00018310546875,-0.1549815386533737,-0.5283364653587341,-0.2701765596866607,-0.0410180203616619,0.0,0.0,-0.2172988057136535,-0.7858036160469055
-0.0701443701982498,0.9879186749458312,-0.1586978137493133,-0.545169472694397,-0.2706325054168701,-0.0091190207749605,0.0,0.0,0.3826782703399658,-0.8017391562461853
-999.0,0.9762584567070008,-0.1546762287616729,-0.5180293917655945,-0.2695008218288421,0.0226338859647512,0.0,0.0,-0.7103268504142761,-0.360554575920105
-0.0731749534606933,0.964188516139984,-0.1506834924221038,-0.536228358745575,-0.2682812809944153,0.0243906769901514,0.0,0.0,0.328680157661438,-0.8418392539024353
-0.0745396614074707,0.9520554542541504,-0.1394930779933929,-0.5386905074119568,-0.2651855051517486,0.0619152784347534,0.0,0.0,-0.0523821115493774,-0.4218976497650146
-0.0758584961295127,0.9395129084587096,-0.1350026577711105,-0.5568901300430298,-0.261990875005722,0.0638925284147262,0.0,0.0,-0.8356614112854004,-0.6442736983299255
-0.0771827697753906,0.926574170589447,-0.1370155066251754,-0.5742380619049072,-0.2573070526123047,0.093676708638668,0.0,0.0,-0.1226513385772705,-0.6443731784820557
-0.078503131866455,0.913237690925598,-0.1379152834415435,-0.5917179584503174,-0.251315712928772,0.1198275089263916,0.0,0.0,-0.8703998327255249,-0.2102026343345642
-0.0797710418701171,0.8994916081428528,-0.1327888369560241,-0.609919548034668,-0.2452096194028854,0.1221218109130859,0.0,0.0,-0.5437239408493042,-0.4832149744033813
-0.0809845924377441,0.8853362798690796,-0.1274782568216323,-0.6281211376190186,-0.2389837354421615,0.1245175823569297,0.0,0.0,-0.8308823108673096,-0.0513427257537841
-0.0821419730782508,0.8707713484764099,-0.1219968348741531,-0.6463227868080139,-0.2326331287622451,0.1270124614238739,0.0,0.0,-0.3560261726379394,-0.3427479267120361
-0.083241656422615,0.8557972311973572,-0.1163571923971176,-0.664524495601654,-0.2261529415845871,0.1296038180589676,0.0,0.0,-0.6961904764175415,-0.0333732366561889
-0.0842819213867187,0.840413510799408,-0.1105714067816734,-0.6827264428138733,-0.2195384949445724,0.1322888284921646,0.0,0.0,-0.4729982614517212,-0.286081314086914
-0.0852616280317306,0.8246206641197205,-0.1046507954597473,-0.7009284496307373,-0.2127852886915207,0.1350645273923874,0.0,0.0,-0.3047202825546264,0.3602690696716308
-0.0861793532967567,0.8084183931350708,-0.0986060425639152,-0.7191306352615356,-0.205888882279396,0.1379278749227523,0.0,0.0,-0.8069983720779419,0.0574442148208618
-0.0870339423418045,0.7918069958686829,-0.0924471542239189,-0.7373330593109131,-0.198845088481903,0.1408756822347641,0.0,0.0,-0.3326157927513122,0.7451763153076172
-0.0877527222037315,0.7747616171836853,-0.0771694630384445,-0.7568737268447876,-0.1935193985700607,0.1065137013792991,0.0,0.0,-0.2550892829895019,0.2004565000534057
-0.0884062796831131,0.7573065161705017,-0.0708090513944625,-0.7750745415687561,-0.1880383193492889,0.1096213459968566,0.0,0.0,-0.3164731860160827,0.2610877752304077
-0.0889938324689865,0.7394421100616455,-0.064360536634922,-0.7932754158973694,-0.1823981255292892,0.1128039583563804,0.0,0.0,0.3720453977584839,0.260150671005249
-0.0892999619245529,0.7219632863998413,-0.0369271822273731,-0.7760768532752991,-0.1760650724172592,0.1266608238220214,0.0,0.0,-0.4055679440498352,0.6793272495269775
-0.0894780158996582,0.7040659785270691,-0.022776186466217,-0.7948580384254456,-0.1710924059152603,0.0994532629847526,0.0,0.0,-0.2309768795967102,-0.1049864292144775
-0.0895877853035926,0.6857590079307556,-0.016105456277728,-0.8130586743354797,-0.1659503579139709,0.1028410345315933,0.0,0.0,-0.1104422211647033,0.575438380241394
-0.0895802527666091,0.6670253276824951,-0.0033120501320809,-0.8321612477302551,-0.1618893295526504,0.0812209174036979,0.0,0.0,0.2827163934707641,-0.6840633749961853
-0.089554026722908,0.6487258076667786,-0.0028499525506049,-0.8127253651618958,-0.1564132869243621,0.1095209270715713,0.0,0.0,0.5094647407531738,-0.3074288964271545
-0.0892724022269249,0.6306905150413513,0.0219769813120365,-0.8009272813796997,-0.1502370536327362,0.1235247626900672,0.0,0.0,0.4728755950927734,0.3745577335357666
-0.0888174995779991,0.61305171251297,0.039024569094181,-0.7833101153373718,-0.1437827944755554,0.1290852576494217,0.0,0.0,0.2160733938217163,-0.1273865699768066
-0.0882433876395225,0.5954403877258301,0.050726406276226,-0.7820976972579956,-0.1371185779571533,0.1332842260599136,0.0,0.0,0.4826254844665527,-0.2859439849853515
-0.0876352339982986,0.5782305598258972,0.0544579029083251,-0.7643083930015564,-0.1307825595140457,0.1267196834087371,0.0,0.0,0.4499853849411011,-0.1010344624519348
-0.0868384391069412,0.5617247223854065,0.0730409100651741,,-0.1241715550422668,0.1322200745344162,0.0,0.0,0.2491179704666137,-0.4008870124816894
-0.0858801826834678,0.5451273918151855,0.0886875614523887,-0.7370858788490295,-0.1170835494995117,0.141760379076004,0.0,0.0,-0.4005105495452881,-0.3898906707763672
-0.0848493576049804,0.5281208753585815,0.0957548469305038,-0.7552890777587891,-0.1098036468029022,0.1455982476472854,0.0,0.0,0.424823522567749,-0.4818893671035766
-0.0837815254926681,0.5113272666931152,0.0996349304914474,-0.7458762526512146,-0.1027054488658905,0.141963928937912,0.0,0.0,0.4854880571365356,-0.4734650254249573
-0.0826601013541221,0.49504554271698,0.105169877409935,-0.7231677770614624,-0.0957937464118003,0.1382339298725128,0.0,0.0,0.3671181201934814,-0.4439656734466553
-0.0813906639814376,0.4791200757026672,0.1196541637182235,-0.7073509693145752,-0.0885672718286514,0.1445296853780746,0.0,0.0,-0.2554369568824768,-0.8402522802352905
-0.0801273360848426,0.4628058075904846,0.1167827844619751,-0.724541425704956,-0.079106830060482,0.1892088949680328,0.0,0.0,0.2441638708114624,-0.3058446645736694
-0.0787005424499511,0.4467267990112304,0.1326586902141571,-0.7141254544258118,-0.0691905245184898,0.1983259171247482,0.0,0.0,0.13079833984375,0.200152039527893
-0.0772042274475097,0.4306422472000122,0.1395130008459091,-0.714429497718811,-0.0591797977685928,0.2002148181200027,0.0,0.0,0.2639983892440796,-0.2694190740585327
-0.0755669623613357,0.4145172536373138,0.1531474292278289,-0.7162825465202332,-0.0487260036170482,0.2090760022401809,0.0,0.0,0.2954139709472656,-0.5598013997077942
-0.0739139541983604,0.3983825147151947,0.1534508317708969,-0.7167514562606812,-0.0370119586586952,0.2342807054519653,0.0,0.0,0.6119232177734375,0.5908688306808472
-0.072119615972042,0.3830031454563141,0.168573185801506,-0.6832924485206604,-0.0262895710766315,0.2144476473331451,0.0,0.0,0.4222066402435303,-0.1261194944381714
-0.0701633468270301,0.3682660162448883,0.1842366456985473,-0.6548178195953369,-0.0150429541245102,0.2249326258897781,0.0,0.0,0.3167942762374878,0.2862250804901123
-0.0682119354605674,0.3541001081466675,0.183955043554306,-0.629519522190094,-0.004003626294434,0.2207865417003631,0.0,0.0,-0.3705676794052124,0.6589164733886719
-0.0661448463797569,0.3395191133022308,0.1963597238063812,-0.6480464339256287,0.006214085035026,0.2043542563915252,0.0,0.0,0.2545356750488281,-0.1937865018844604
-0.0639759078621864,0.3254306316375732,0.2061858177185058,-0.6262276768684387,0.0167815312743186,0.2113489210605621,0.0,0.0,0.4459973573684692,0.0919272899627685
-0.0618292801082134,0.3116874396800995,0.2041749209165573,-0.6109573841094971,0.0271475352346897,0.2073199450969696,0.0,0.0,0.4439201354980469,0.4589123725891113
-0.059671401977539,0.2984225153923034,0.2052946090698242,-0.5897720456123352,0.0375013016164302,0.2070754766464233,0.0,0.0,0.1423887014389038,0.0399366617202758
-0.0574649795889854,0.285473883152008,0.2099914103746414,-0.5757904648780823,0.0480268523097038,0.2105108052492141,0.0,0.0,0.4997607469558716,-0.1268266439437866
-0.0551297180354595,0.2729144990444183,0.2222938984632492,-0.5585910677909851,0.0591290704905986,0.2220444679260254,0.0,0.0,0.4373722076416015,0.2935161590576172
-0.0527164451777935,0.2603951692581177,0.2298009693622589,-0.5569067597389221,0.0705377236008644,0.2281727790832519,0.0,0.0,0.2445192337036132,0.437938928604126
-0.0501796714961528,0.2479295283555984,0.2416149824857711,-0.5546369552612305,0.0824810713529586,0.2388667613267898,0.0,0.0,0.7381504774093628,0.1928390264511108
-0.0474629402160644,0.2359739691019058,0.2586795687675476,-0.5321252346038818,0.0953522101044654,0.2574231028556824,0.0,0.0,0.472069501876831,0.0179789066314697
-0.0445810332894325,0.2241538614034652,0.2744308114051819,-0.5262694954872131,0.1090100780129432,0.2731571197509765,0.0,0.0,0.6960368156433105,-0.5714563727378845
-0.0417593009769916,0.213073045015335,0.2670791447162628,-0.4936496317386627,0.1240024343132972,0.2998471856117248,0.0,0.0,0.8189830780029297,0.2018530368804931
-0.0389320366084575,0.2028354555368423,0.2672865092754364,-0.4563539624214172,0.1393650472164154,0.3072525560855865,0.0,0.0,0.0017197132110595,0.3426893949508667
-0.0360114090144634,0.1928086429834365,0.2761085629463196,-0.447208046913147,0.1552898734807968,0.3184965252876282,0.0,0.0,0.1233135461807251,0.1906205415725708
-0.0329824462532997,0.1827209591865539,0.2864444851875305,-0.4501401782035827,0.1717449724674224,0.3291020691394806,0.0,0.0,0.0692770481109619,0.6489123106002808
-0.0299221985042095,0.1727160960435867,0.2907451093196869,-0.4464978575706482,0.1870702058076858,0.3065049052238464,0.0,0.0,0.462741494178772,0.5388994216918945
-0.0268086437135934,0.1634717732667923,0.2967830300331116,-0.4127606451511383,0.2017176896333694,0.2929501235485077,0.0,0.0,-0.5743021965026855,0.1953030824661255
-0.0236204154789447,0.1538214087486267,0.3040842413902282,-0.4309828877449035,0.216578722000122,0.2972210049629211,0.0,0.0,0.0255117416381835,-0.1323000192642212
-0.0205390937626361,0.1444634348154068,0.2935815155506134,-0.418110191822052,0.2312960475683212,0.2943467497825622,0.0,0.0,0.1389939785003662,0.371429443359375
-0.0174352638423442,0.1354226022958755,0.2954127788543701,-0.4042393565177917,0.2465045154094696,0.3041697144508362,0.0,0.0,0.0280067920684814,-0.3243410587310791
-0.0144031522795557,0.1266427636146545,0.2882288992404938,-0.3927979171276092,0.2617724537849426,0.3053584992885589,0.0,0.0,0.1160285472869873,-0.3983873724937439
-0.0114816669374704,0.1181684136390686,0.2772733569145202,-0.3793689012527466,0.2769953310489654,0.3044574558734894,0.0,0.0,0.0789675712585449,-0.3645919561386108
-0.0085906032472848,0.1097508519887924,0.2741613686084747,-0.3770211338996887,0.2923563718795776,0.307220995426178,0.0,0.0,0.4003185033798218,-0.3110535740852356
-0.0058670998550951,0.1016168892383575,0.2577074468135834,-0.3645162880420685,0.3074731528759002,0.3023360669612884,0.0,0.0,0.447147011756897,-0.2351151704788208
-0.0033342360984534,0.0936732590198516,0.2390999495983123,-0.3561253845691681,0.3221932053565979,0.2944011092185974,0.0,0.0,0.2412575483322143,-0.2604875564575195
-0.0008231162792071,0.0861298143863678,0.2364383041858673,-0.3386064767837524,0.3374939858913421,0.3060154914855957,0.0,0.0,0.3822541236877441,0.5227508544921875
0.0017515182262286,0.0786611139774322,0.2435595989227295,-0.3352607488632202,0.3520709276199341,0.2915388643741607,0.0,0.0,0.2981530427932739,0.0557560920715332
0.0042998315766453,0.0716898068785667,0.2402959316968917,-0.3134740889072418,0.3673868775367737,0.3063192963600158,0.0,0.0,0.3711721897125244,0.0759822130203247
0.0066721914336085,0.0652042925357818,0.2226701080799102,-0.2920610606670379,0.3828263580799103,0.3087900876998901,0.0,0.0,0.3422470092773437,0.5313414335250854
0.0090118404477834,0.0593786090612411,0.2200726717710495,-0.2627223134040832,0.3976498544216156,0.2964700758457184,0.0,0.0,0.4577457904815674,0.3640244007110595
0.0112881660461425,0.0538935996592044,0.2133410274982452,-0.2478561848402023,0.412994921207428,0.3069013059139251,0.0,0.0,0.1988903284072876,0.0533336400985717
0.0133942607790231,0.0488139949738979,0.1962412893772125,-0.2300373017787933,0.4285252392292022,0.3106065392494201,0.0,0.0,0.0829287767410278,0.3804986476898193
0.0153940198943018,0.0440581180155277,0.1853505820035934,-0.2159100621938705,0.4444481432437897,0.3184585571289062,0.0,1.0,0.9977915287017822,0.9998272657394408
0.017319107428193,0.0406514257192611,0.1925021559000015,-0.1520186513662338,0.4425154328346252,-0.0415951386094093,0.0,1.0,0.9834411144256592,0.9790513515472412
0.018770694732666,0.0387011393904686,0.1634745001792907,-0.0810686722397804,0.4224608838558197,-0.4012815058231354,0.0,1.0,0.9578280448913574,-0.369315505027771
0.019780445843935,0.0377415530383586,0.1310387849807739,-0.0339969508349895,0.390074223279953,-0.6478168964385986,0.0,1.0,0.8717460632324219,-0.7787154912948608
0.0204009059816598,0.0373721234500408,0.0954757705330848,-0.007676635403186,0.3545756936073303,-0.7100331783294678,0.0,1.0,0.3205568790435791,-0.3732108473777771
0.0209232326596975,0.0371929518878459,0.0845118090510368,-0.0003710595483426,0.3207631707191467,-0.6762807369232178,0.0,1.0,0.3108010292053222,-0.0757773518562316
0.0214606281369924,0.0370655618607997,0.0854936689138412,0.0010300854919478,0.2878904342651367,-0.6574552655220032,0.0,0.0,-0.9998314380645752,-0.607243001461029
0.0220292098820209,0.0365282632410526,0.0877062976360321,-0.0181042179465293,0.2562563717365265,-0.6326812505722046,0.0,0.0,-0.999657392501831,-0.2001349925994873
0.0226678848266601,0.0355949960649013,0.094781681895256,-0.0363904684782028,0.2248280048370361,-0.6285680532455444,0.0,0.0,-0.9959182739257812,-0.4187943339347839
0.0233768466860055,0.0342654809355735,0.1018203943967819,-0.054675780236721,0.1936033964157104,-0.6244922876358032,0.0,0.0,-0.995305061340332,-0.7393283247947693
