x_pos,y_pos,x_vel,y_vel,angle,ang_vel,leg_1,leg_2,main_booster,lat_booster
-0.0014986038440838,1.4030300378799438,-0.1525101512670517,-0.350663959980011,0.0023712737020105,0.0468209013342857,0.0,0.0,0.2183601491286442,-0.9108667767578512
-0.0029984475113451,1.3950748443603516,-0.1547935158014297,-0.3535764813423157,0.0071270801126956,0.0951259359717369,0.0,0.0,-0.4749283824053445,0.8595590107238755
-0.0043873786926269,1.3865196704864502,-0.142216756939888,-0.3802475333213806,0.0104166027158498,0.0657961592078208,0.0,0.0,-0.4093240478701556,-0.6861381648705875
-0.0058108330704271,1.377367377281189,-0.1479360610246658,-0.406819075345993,0.0159428864717483,0.1105357781052589,0.0,0.0,0.8405436495109999,-0.5338560685331076
-0.0071039199829101,1.3687154054641724,-0.1370451599359512,-0.3846342265605926,0.0235955789685249,0.1530683189630508,0.0,0.0,-0.8363307540460008,0.7053857363532586
-0.0082962037995457,1.359471321105957,-0.1258496940135955,-0.4109724164009094,0.0301420222967863,0.1309411823749542,0.0,0.0,-0.1909088688630194,0.6239865474981171
-0.009407234378159,1.3496358394622805,-0.1171364337205886,-0.4372666180133819,0.0361072719097137,0.1193159967660904,0.0,0.0,-0.2954212700843455,0.6647216871303236
-0.0104179382324218,1.3392120599746704,-0.1060468554496765,-0.4634010195732116,0.0410357266664505,0.098578043282032,0.0,0.0,-0.1412355104969251,0.589596818048471
-0.0113469120115041,1.3282040357589722,-0.0973321869969368,-0.4893775284290313,0.0454235859215259,0.0877651274204254,0.0,0.0,-0.7520299885991732,0.8668704899749398
-0.0121705057099461,1.3166122436523438,-0.0856634154915809,-0.5152956247329712,0.0486982092261314,0.0654987320303917,0.0,0.0,-0.2183423476324484,-0.978309261410666
-0.0130215641111135,1.3044227361679075,-0.0907016545534133,-0.5419505834579468,0.0542380958795547,0.1108076944947242,0.0,0.0,-0.2371209559792135,-0.6644628856914776
-0.0138793941587209,1.2916347980499268,-0.0931580290198326,-0.5686397552490234,0.0615410134196281,0.1460718214511871,0.0,0.0,0.3378508133742597,-0.518412065691628
-0.01465864200145,1.2791112661361694,-0.087221436202526,-0.5570060610771179,0.0707468017935752,0.1841326653957367,0.0,0.0,0.5311498052031682,0.8894940463502479
-0.0152780534699559,1.2664941549301147,-0.0701551660895347,-0.5611671209335327,0.0788841098546981,0.1627615243196487,0.0,0.0,-0.4797812422514111,-0.6369980947445573
-0.0158946998417377,1.253286361694336,-0.0714372619986534,-0.5875521898269653,0.088584691286087,0.194029301404953,0.0,0.0,0.9879742231779935,0.6255122894050027
-0.0163107868283987,1.2400387525558472,-0.0511230155825614,-0.5893767476081848,0.0980301350355148,0.1889257878065109,0.0,0.0,0.2728936801328279,0.5400665613698923
-0.0165912620723247,1.2272119522094729,-0.0373152866959571,-0.570712685585022,0.1072423905134201,0.184262067079544,0.0,0.0,0.8184901657572745,-0.9967629856279978
-0.0167757030576467,1.2144153118133545,-0.0305667575448751,-0.5696561336517334,0.1192967295646667,0.2411084622144699,0.0,0.0,-0.9833507606848716,-0.752624028012763
-0.0169667247682809,1.2010254859924316,-0.0330449864268302,-0.5962727665901184,0.1331901252269745,0.277892917394638,0.0,0.0,0.6443277033602013,-0.7997959500496645
-0.0173392295837402,1.1878522634506226,-0.0531827993690967,-0.5869768857955933,0.1491003036499023,0.3182322978973388,0.0,0.0,-0.6298510360283223,0.901992413460175
-0.017582893371582,1.174114465713501,-0.0386668108403682,-0.6120650172233582,0.1634023785591125,0.2860671877861023,0.0,0.0,0.6447767925665953,0.6009474287000006
-0.0177943222224712,1.1604493856430054,-0.0348047949373722,-0.6088975667953491,0.1771127879619598,0.2742331027984619,0.0,0.0,-0.6974044757242279,-0.535149372620656
-0.0179935451596975,1.1461844444274902,-0.0349704287946224,-0.6358652114868164,0.1922386735677719,0.3025447428226471,0.0,0.0,0.8104381422788935,-0.6830697602644742
-0.0181842800229787,1.1318345069885254,-0.0361883416771888,-0.6400896906852722,0.2095067054033279,0.3453912138938904,0.0,0.0,0.2001615787699537,0.6870103858837062
-0.0184882171452045,1.1175636053085327,-0.0465029925107955,-0.6366194486618042,0.2258048355579376,0.3259918093681335,0.0,0.0,0.4552016158334193,0.6572056265167321
-0.0189702995121479,1.103562593460083,-0.0632535517215728,-0.62464439868927,0.2410676926374435,0.3052567541599273,0.0,0.0,0.4316607133813674,0.983652107901098
-0.019479464739561,1.0899239778518677,-0.0645075514912605,-0.6084519624710083,0.2549039423465729,0.276725023984909,0.0,0.0,0.5013226755819407,-0.9379922372832952
-0.020336341112852,1.0767149925231934,-0.1014905124902725,-0.5898990035057068,0.2710479199886322,0.322879284620285,0.0,0.0,0.6697906442641524,-0.5279959246633161
-0.0215348247438669,1.0639795064926147,-0.1367761939764022,-0.5692538022994995,0.2884325087070465,0.3476916849613189,0.0,0.0,-0.8948269595228027,-0.7588252076775848
-0.0227476116269826,1.0506269931793213,-0.1401993185281753,-0.5973043441772461,0.3079633712768554,0.3906179666519165,0.0,0.0,0.824570074069775,0.8851137979706145
-0.0241137500852346,1.0380750894546509,-0.1542299389839172,-0.5617057681083679,0.3262636661529541,0.3660063445568084,0.0,0.0,-0.875749945640564,0.9752988815307616
-0.0253715515136718,1.024962067604065,-0.1421456933021545,-0.5865951776504517,0.3433734178543091,0.3421951830387115,0.0,0.0,-0.4573693871498108,0.9832491874694824
-0.0265249256044626,1.011302828788757,-0.1304691284894943,-0.610765814781189,0.359266847372055,0.3178690075874328,0.0,0.0,-0.4537357687950134,0.9939141273498536
-0.0275674816220998,0.9970831274986268,-0.1180781498551368,-0.6355187296867371,0.3738716840744018,0.2920972108840942,0.0,0.0,-0.3565976023674011,0.9953181743621826
-0.0284929275512695,0.9823197722434998,-0.1047938019037246,-0.6594035029411316,0.3868881464004516,0.2603300511837005,0.0,0.0,-0.3765946626663208,0.9935028553009032
-0.0293034557253122,0.967019021511078,-0.0917224213480949,-0.6829787492752075,0.3982942700386047,0.2281225174665451,0.0,0.0,-0.6584480404853821,0.9984266757965088
-0.0300012584775686,0.9511666893959044,-0.0790507048368454,-0.7071722149848938,0.4082352817058563,0.198820099234581,0.0,0.0,-0.5043373703956604,0.9992184638977052
-0.0305831916630268,0.934780478477478,-0.0658178627490997,-0.7304988503456116,0.4164590835571289,0.1644763201475143,0.0,0.0,-0.4784919619560241,0.9973589181900024
-0.0310601238161325,0.917857825756073,-0.0539509952068328,-0.7539821863174438,0.4232178926467895,0.1351761519908905,0.0,0.0,-0.2402982115745544,0.9984637498855592
-0.031422235071659,0.900395393371582,-0.0408787205815315,-0.7775169610977173,0.4282766878604889,0.1011758223176002,0.0,0.0,-0.1707860231399536,0.999639630317688
-0.0316882133483886,0.88238924741745,-0.0301022380590438,-0.8013419508934021,0.4320754706859588,0.0759756416082382,0.0,0.0,0.0211180448532104,0.9999794960021972
-0.0318949706852436,0.8643375039100647,-0.0226008091121912,-0.8028997182846069,0.4341719448566437,0.0419297292828559,0.0,0.0,0.024070382118225,0.9980485439300536
-0.0320048332214355,0.8460437059402466,-0.0113707948476076,-0.8131741285324097,0.4345848858356476,0.0082591501995921,0.0,0.0,0.0285848379135131,0.999582290649414
-0.0320764556527137,0.827700674533844,-0.0059595773927867,-0.8148788213729858,0.4332833290100097,-0.0260310117155313,0.0,0.0,0.0331860780715942,0.9999171495437622
-0.0321419723331928,0.8090356588363647,-0.0038562763947993,-0.8287239670753479,0.4303449690341949,-0.0587671771645545,0.0,0.0,-0.0688734650611877,0.9998748302459716
-0.0320923812687397,0.7898224592208862,0.0093608330935239,-0.8525866866111755,0.4255702495574951,-0.0954943001270294,0.0,0.0,0.7280564308166504,0.9999511241912842
-0.0320628173649311,0.7707440257072449,0.0088560674339532,-0.846165120601654,0.4191794395446777,-0.1278161853551864,0.0,0.0,0.6496009826660156,0.990001916885376
-0.0323863998055458,0.7521939873695374,-0.0247238986194133,-0.8221943378448486,0.4109342694282532,-0.1649031192064285,0.0,0.0,-0.2044567465782165,0.9998784065246582
-0.0326241478323936,0.7330973744392395,-0.0148935094475746,-0.8461984395980835,0.4013916850090027,-0.1908518970012664,0.0,0.0,0.7366536855697632,0.9973766803741456
-0.0329898819327354,0.7141759991645813,-0.0259833931922912,-0.8379947543144226,0.3900670707225799,-0.226492553949356,0.0,0.0,0.5646789073944092,0.9992432594299316
-0.0333157554268837,0.6955467462539673,-0.0204125680029392,-0.8246896862983704,0.3771015405654907,-0.2593104243278503,0.0,0.0,0.32342529296875,0.9874228239059448
-0.0338096618652343,0.6771690845489502,-0.0354540310800075,-0.8131725788116455,0.3623354136943817,-0.295322448015213,0.0,0.0,0.1849665641784668,0.9898738861083984
-0.0342288017272949,0.6587340831756592,-0.0261830054223537,-0.8154473900794983,0.345770388841629,-0.3313004672527313,0.0,0.0,-0.1562362313270568,0.8903462886810303
-0.0345580093562603,0.6397529244422913,-0.0155117511749267,-0.8395329117774963,0.3275699317455292,-0.3640089631080627,0.0,0.0,-0.3105523586273193,-0.1136317253112793
-0.0348626151680946,0.6201825141906738,-0.0131253106519579,-0.8659756183624268,0.3095497190952301,-0.360404223203659,0.0,0.0,0.0980782508850097,-0.2336065173149109
-0.0352998748421669,0.6004409790039062,-0.0261490885168313,-0.8737599849700928,0.2913869321346283,-0.3632562756538391,0.0,0.0,0.9684935808181764,0.1617538928985595
-0.0358805656433105,0.5815222859382629,-0.0410246104001998,-0.8375173211097717,0.2738633751869201,-0.3504709899425506,0.0,0.0,0.7936551570892334,0.3482414484024048
-0.0364943519234657,0.5631317496299744,-0.0450107306241989,-0.8143853545188904,0.2571232616901397,-0.3348026275634765,0.0,0.0,0.8550186157226562,0.6391885280609131
-0.0371890068054199,0.5455518960952759,-0.0520342476665973,-0.7783682346343994,0.2393710017204284,-0.3550451695919037,0.0,0.0,-0.3545317649841308,0.6511603593826294
-0.0378230102360248,0.527403712272644,-0.0447865948081016,-0.8036673665046692,0.2204933315515518,-0.3775538206100464,0.0,0.0,0.5775630474090576,-0.3445647954940796
-0.0384700782597065,0.5091993808746338,-0.046234343200922,-0.8064260482788086,0.201836884021759,-0.3731288611888885,0.0,0.0,0.8622481822967529,0.6938096284866333
-0.0393271446228027,0.4915509223937988,-0.0654294863343238,-0.7817414402961731,0.1814556419849395,-0.4076252579689026,0.0,0.0,0.7898585796356201,0.2877715826034546
-0.0401397719979286,0.4741760790348053,-0.0614769235253334,-0.7699124813079834,0.1616239100694656,-0.3966346383094787,0.0,0.0,0.679401159286499,0.148150086402893
-0.0410165786743164,0.4571402668952942,-0.0678422451019287,-0.7551138997077942,0.1418014764785766,-0.3964484632015228,0.0,0.0,0.8881382942199707,0.4804751873016357
-0.041938304901123,0.440197229385376,-0.0721772015094757,-0.7512418627738953,0.1218872815370559,-0.3982837796211242,0.0,0.0,0.9369401931762696,-0.0529569387435913
-0.0430787093937397,0.42367023229599,-0.0931463465094566,-0.7329549193382263,0.1011376455426216,-0.4149930477142334,0.0,0.0,-0.406093955039978,0.5671701431274414
-0.0441650375723838,0.4065685272216797,-0.0863126739859581,-0.7587155103683472,0.0790199264883995,-0.4423545300960541,0.0,0.0,0.6111785173416138,-0.7988383769989014
-0.0452408790588378,0.3892983198165893,-0.0867708474397659,-0.766594648361206,0.0584256201982498,-0.4118863940238952,0.0,0.0,0.4249789714813232,-0.7398871779441833
-0.04638671875,0.3725472688674927,-0.0950302630662918,-0.7438438534736633,0.0390912927687168,-0.3866867125034332,0.0,0.0,0.1557608842849731,-0.2251431941986084
-0.047606848180294,0.3556993305683136,-0.1018429547548294,-0.7483901977539062,0.0191725119948387,-0.3983754515647888,0.0,0.0,0.2685600519180298,0.0735162496566772
-0.0489041320979595,0.3390403091907501,-0.1089112386107444,-0.740265965461731,-0.001378521323204,-0.4110206961631775,0.0,0.0,0.77815842628479,-0.5690522789955139
-0.0502080917358398,0.3227981328964233,-0.1104795336723327,-0.7220085859298706,-0.0210337433964014,-0.3931046724319458,0.0,0.0,0.7028231620788574,-0.4220883846282959
-0.0516255386173725,0.3072768151760101,-0.1208561509847641,-0.6902592182159424,-0.0416579246520996,-0.4124837815761566,0.0,0.0,0.4641923904418945,-0.0972653627395629
-0.0529567711055278,0.2919299304485321,-0.1121782511472702,-0.6827911138534546,-0.0623580291867256,-0.4140022397041321,0.0,0.0,0.5287798643112183,-0.8619571328163147
-0.0543701164424419,0.2765393257141113,-0.1216910034418106,-0.6849613785743713,-0.0817902162671089,-0.3886436820030212,0.0,0.0,0.9514458179473876,-0.8429304361343384
-0.0557337775826454,0.2611220777034759,-0.1182167902588844,-0.6863037347793579,-0.0997819304466247,-0.3598346412181854,0.0,0.0,0.9609112739562988,-0.8800830245018005
-0.057171631604433,0.2457242608070373,-0.1269046664237976,-0.6855621337890625,-0.1165400072932243,-0.3351615071296692,0.0,0.0,0.9264740943908693,-0.7993045449256897
-0.0585790649056434,0.2311342507600784,-0.1250296533107757,-0.6497450470924377,-0.1321767568588256,-0.3127350807189941,0.0,0.0,0.9491159915924072,-0.8949334025382996
-0.0598315224051475,0.2173871099948883,-0.111085757613182,-0.6123015284538269,-0.1462922990322113,-0.2823105752468109,0.0,0.0,0.8311680555343628,-0.8086909055709839
-0.0611555092036724,0.2044451981782913,-0.119136057794094,-0.5765522122383118,-0.1595449745655059,-0.2650538682937622,0.0,0.0,0.8154593706130981,-0.926895022392273
-0.0626583099365234,0.1914969235658645,-0.1381320804357528,-0.5768289566040039,-0.1717047989368438,-0.2431960999965667,0.0,0.0,0.9248166084289552,-0.90178781747818
-0.0640301704406738,0.1793312132358551,-0.1264510005712509,-0.5419716238975525,-0.1824673414230346,-0.2152507305145263,0.0,0.0,0.9717090129852296,-0.9486857056617736
-0.0654913932085037,0.1676438003778457,-0.1365427821874618,-0.5206502676010132,-0.1920887380838394,-0.1924278289079666,0.0,0.0,0.9641683101654052,-0.9197822213172911
-0.0669497475028038,0.1565961688756942,-0.1374475061893463,-0.4921164810657501,-0.200527548789978,-0.1687762886285781,0.0,0.0,0.9483022689819336,-0.8565214276313782
-0.0683350563049316,0.1461977809667587,-0.1312991976737976,-0.4631492793560028,-0.2078164219856262,-0.1457777619361877,0.0,0.0,0.9536252021789552,-0.7697197794914246
-0.0695394501090049,0.1362012177705764,-0.1144530326128006,-0.4451437592506408,-0.213856816291809,-0.1208079308271408,0.0,0.0,0.9768502712249756,-0.8255500793457031
-0.0707032233476638,0.1262157559394836,-0.111550249159336,-0.4445067346096039,-0.218736782670021,-0.0975991934537887,0.0,0.0,0.9922647476196288,-0.7889879941940308
-0.0717169791460037,0.1163239106535911,-0.0978241562843322,-0.4401673078536987,-0.2223280817270279,-0.0718258768320083,0.0,0.0,0.9890319108963012,-0.887454628944397
-0.0724707618355751,0.1068041399121284,-0.0734005719423294,-0.4233993589878082,-0.2243246585130691,-0.0399316996335983,0.0,0.0,0.9715704917907716,-0.8969347476959229
-0.0730248466134071,0.0973360836505889,-0.0549864768981933,-0.4208666086196899,-0.2247499674558639,-0.0085062030702829,0.0,0.0,0.9920499324798584,-0.4212803840637207
-0.073397159576416,0.0886023119091987,-0.0361993089318275,-0.3883230090141296,-0.2257941365242004,-0.0208835788071155,0.0,0.0,0.983800172805786,-0.4695563316345215
-0.0735430717468261,0.0805951654911041,-0.0131459459662437,-0.3560943007469177,-0.2272590696811676,-0.0292987767606973,0.0,0.0,0.8703620433807373,-0.5104193091392517
-0.0734262466430664,0.073064312338829,0.0122631350532174,-0.3347984850406647,-0.2278520166873932,-0.0118588777258992,0.0,0.0,0.9706575870513916,-0.8043834567070007
-0.0731714218854904,0.0654788091778755,0.0247979573905468,-0.3370261490345001,-0.2271475940942764,0.0140880392864346,0.0,0.0,0.887497067451477,-0.4995709657669067
-0.0728582367300987,0.0581713281571865,0.0314936712384223,-0.3248013257980346,-0.2273269295692443,-0.0035867192782461,0.0,0.0,0.9351155757904052,-0.8638925552368164
-0.072290614247322,0.0517446845769882,0.0556118488311767,-0.2854518890380859,-0.2261532992124557,0.0234726592898368,0.0,0.0,0.9270235300064088,-0.5611936450004578
-0.0716597586870193,0.0457204431295394,0.0614951662719249,-0.2675026655197143,-0.2245444804430008,0.0321765020489692,0.0,0.0,0.6769301891326904,-0.2383428215980529
-0.0709865540266037,0.0403266996145248,0.0669167935848236,-0.2396610230207443,-0.224136471748352,0.0081602409482002,0.0,0.0,0.4044314622879028,-0.4564988613128662
-0.070123478770256,0.0351834408938884,0.0861712917685508,-0.2285708338022232,-0.2240059226751327,0.0026110282633453,0.0,0.0,0.681887149810791,-0.8262033462524414
-0.0692262649536132,0.0306123830378055,0.0886626318097114,-0.2029960006475448,-0.2229328900575637,0.0214607678353786,0.0,0.0,0.1440620422363281,-0.925264298915863
-0.0683640465140342,0.0262604802846908,0.0839443355798721,-0.193073570728302,-0.2206249088048935,0.0461600311100482,0.0,0.0,0.362032413482666,-0.5975731015205383
-0.0674937218427658,0.0219380483031272,0.0842332616448402,-0.1916915327310562,-0.2177876383066177,0.0567455478012561,1.0,0.0,0.2398605346679687,-0.5469663143157959
-0.066604807972908,0.0186248403042554,0.0679851993918418,-0.1447243988513946,-0.1957890540361404,0.4412764012813568,1.0,0.0,0.6037825345993042,-0.0046033859252929
-0.0656566619873046,0.0161326751112937,0.0582464449107646,-0.1063722223043441,-0.1590253114700317,0.7353931665420532,1.0,0.0,0.3405293226242065,-0.113564133644104
-0.064484879374504,0.0141999097540974,0.0726943537592887,-0.0817715227603912,-0.1145978718996048,0.8886677622795105,1.0,0.0,0.4754312038421631,-0.03187096118927
-0.0632524490356445,0.0121373990550637,0.0800087004899978,-0.0889114439487457,-0.0717272385954856,0.8574128150939941,1.0,0.0,0.6957151889801025,0.1270774602890014
-0.0618143081665039,0.0106608960777521,0.0997522324323654,-0.0640875995159149,-0.0281722266227006,0.8711018562316895,0.0,0.0,-0.5603721737861633,-0.2269253134727478
-0.0603890419006347,0.0086151575669646,0.0990504175424575,-0.0906622111797332,0.0147478375583887,0.8584026098251343,0.0,0.0,0.0524406433105468,0.699134111404419
-0.0588257797062397,0.006826517637819,0.1148460060358047,-0.0804153904318809,0.0557317174971103,0.8196789026260376,0.0,0.0,-0.7345683574676514,0.5317479372024536
-0.057228185236454,0.0044682836160063,0.1202003955841064,-0.1067446619272232,0.0948846638202667,0.7830601930618286,0.0,1.0,0.872360110282898,0.9293544292449952
-0.0558308586478233,0.0034536577295511,0.1180299073457717,-0.0469849593937397,0.1144074276089668,0.3878414034843445,0.0,1.0,-0.5820955038070679,0.9704205989837646
-0.0546035766601562,0.0023975109215825,0.124730572104454,-0.0467983372509479,0.1123753637075424,-0.0406970903277397,0.0,1.0,-0.0994177460670471,0.2689697742462158
-0.0535826683044433,0.0012274598702788,0.1214062198996543,-0.0506754107773304,0.093164749443531,-0.3842769265174866,0.0,1.0,-0.2643458843231201,-0.2793639898300171
-0.0526910796761512,-0.0002251887344755,0.1194488406181335,-0.0629670843482017,0.0631062015891075,-0.601250946521759,0.0,1.0,0.0771865844726562,-0.4883356690406799
-0.0519394874572753,-0.0016801976598799,0.1088971719145774,-0.0636011734604835,0.0296925101429224,-0.6683570146560669,0.0,1.0,0.3955442905426025,-0.8003391027450562
-0.051268957555294,-0.0030327106360346,0.098246581852436,-0.0597879141569137,-0.0011160442372784,-0.6161972880363464,1.0,1.0,0.3728756904602051,-0.897514283657074
-0.050592802464962,-0.0038395547308027,0.0852918997406959,-0.0363031737506389,-0.0172195099294185,-0.32035031914711,1.0,0.0,-0.1679722666740417,-0.6947632431983948
-0.0498393066227436,-0.0046499036252498,0.0732184797525405,-0.0360057353973388,-0.0150724677368998,0.04300557076931,1.0,0.0,0.0981276035308837,-0.5860095620155334
-0.0490629188716411,-0.0046188617125153,0.0686380341649055,0.0014415648765861,-0.0061755245551466,0.1779455691576004,1.0,1.0,-0.7550649642944336,-0.8794190883636475
-0.0484641082584857,-0.0043517854064702,0.0528815872967243,0.0118802599608898,0.0007440433837473,0.1383974850177765,1.0,1.0,-0.5099778175354004,-0.4985233545303345
-0.048001479357481,-0.0038138770032674,0.0449816510081291,0.0239032190293073,0.0020197129342705,0.0255322754383087,1.0,1.0,-0.7258363366127014,-0.6715076565742493
