x_pos,y_pos,x_vel,y_vel,angle,ang_vel,leg_1,leg_2,main_booster,lat_booster
-0.0015843391884118,1.4029403924942017,-0.160687044262886,-0.3546539545059204,0.0020139913540333,0.0397466234862804,0.0,0.0,0.7255777535525643,0.7981952095106342
-0.0031093596480786,1.3950189352035522,-0.1532286256551742,-0.3520654737949371,0.0027278382331132,0.014279012568295,0.0,0.0,-0.4144446935817489,0.9906501139682158
-0.0046020508743822,1.3864059448242188,-0.1477720439434051,-0.3827965855598449,0.0012544288765639,-0.0294710304588079,0.0,0.0,0.7891429586999876,0.5296704082503274
-0.0062541961669921,1.3779186010360718,-0.1624641716480255,-0.3772131502628326,-0.0014707432128489,-0.0545088276267051,0.0,0.0,-0.1677434490727125,0.665454847215967
-0.0079068187624216,1.3687491416931152,-0.1610998213291168,-0.4075389802455902,-0.0055840355344116,-0.0822733491659164,0.0,0.0,0.6622632319475275,-0.7773017124939695
-0.0095300674438476,1.359713792800903,-0.1602426916360855,-0.4015879034996032,-0.0076371100731194,-0.041065264493227,0.0,0.0,0.9060823589887784,-0.559739000225282
-0.0112851141020655,1.3509942293167114,-0.1746707260608673,-0.3875412940979004,-0.0084541290998458,-0.0163420941680669,0.0,0.0,0.9270283422206912,0.7465814391556347
-0.0128517150878906,1.3427212238311768,-0.1550220847129821,-0.3676915764808655,-0.0100714964792132,-0.032350119203329,0.0,0.0,-0.5504917999960199,0.995095827893145
-0.0144074438139796,1.3337739706039429,-0.1522059738636016,-0.3976844549179077,-0.013405168429017,-0.0666796863079071,0.0,0.0,0.480059041631633,0.8554224662201564
-0.0159542076289653,1.325122952461243,-0.1498163044452667,-0.3845435678958893,-0.0182183496654033,-0.096272125840187,0.0,0.0,-0.998903853695914,-0.5340195051289232
-0.0176038742065429,1.3157892227172852,-0.1612379997968673,-0.4148846566677093,-0.0219079032540321,-0.0737978965044021,0.0,0.0,0.7350284120964188,0.5576263973847169
-0.0191852562129497,1.3065983057022097,-0.1537317931652069,-0.4085545241832733,-0.0262654460966587,-0.0871586352586746,0.0,0.0,-0.1254325128446358,-0.5630467787417703
-0.0208688732236623,1.2967276573181152,-0.1650600433349609,-0.4387618899345398,-0.0295305643230676,-0.0653083473443985,0.0,0.0,0.9287275923041078,0.8864026130434925
-0.0224496833980083,1.2867794036865234,-0.1534084975719452,-0.4422451853752136,-0.0341600887477397,-0.0925988033413887,0.0,0.0,0.0007311322941627,0.7094984290273354
-0.0239269249141216,1.2768951654434204,-0.1419167816638946,-0.4394406676292419,-0.0399066768586635,-0.1149421706795692,0.0,0.0,0.9445135711343652,0.5736627828691037
-0.0252763740718364,1.2668339014053345,-0.1285984218120575,-0.4473487138748169,-0.0461775362491607,-0.1254286468029022,0.0,0.0,0.9247690563006246,0.8470665342789961
-0.0264053344726562,1.2575753927230835,-0.105461798608303,-0.4117361903190613,-0.0535451024770736,-0.1473647058010101,0.0,0.0,0.018995641337631,0.9785817238741478
-0.0274079330265522,1.2479562759399414,-0.0910153537988662,-0.4278646409511566,-0.0626919940114021,-0.1829546391963958,0.0,0.0,-0.5557599315759274,0.967881460957248
-0.0283903125673532,1.2376554012298584,-0.0869621485471725,-0.4583316743373871,-0.0738577842712402,-0.223335862159729,0.0,0.0,0.9581851512919952,0.5157168963555616
-0.0294521339237689,1.2276819944381714,-0.0937908589839935,-0.4439248144626617,-0.0861474201083183,-0.2458152025938034,0.0,0.0,0.2696225049324443,-0.9026612582261396
-0.0304911620914936,1.2178901433944702,-0.093626283109188,-0.435810774564743,-0.0963522493839263,-0.2041148245334625,0.0,0.0,0.19621854267775,0.6893977216799254
-0.0315051078796386,1.2078807353973389,-0.0899704620242118,-0.4456387460231781,-0.1077138185501098,-0.227251723408699,0.0,0.0,0.353851333500883,-0.8181920709703081
-0.0324853882193565,1.1978435516357422,-0.0885865986347198,-0.4468019604682922,-0.1170967519283294,-0.1876754015684127,0.0,0.0,-0.5182701481721332,-0.579221843537518
-0.033575914800167,1.1871235370635986,-0.1008547991514206,-0.4771049916744232,-0.1252613961696624,-0.1633071452379226,0.0,0.0,0.6661960372784168,0.8819513986861192
-0.0347439758479595,1.1767055988311768,-0.1068153157830238,-0.4638920724391937,-0.1352371275424957,-0.1995327174663543,0.0,0.0,0.6166209559812355,-0.7770151297911452
-0.0361078269779682,1.16665518283844,-0.1278344690799713,-0.447478175163269,-0.1437482386827469,-0.1702218502759933,0.0,0.0,0.2895546068886845,0.9161244596763856
-0.0373848900198936,1.1567528247833252,-0.1175358891487121,-0.4411221742630005,-0.1538974642753601,-0.2029846906661987,0.0,0.0,-0.7827537747171056,-0.9274761705154336
-0.0388194099068641,1.1461970806121826,-0.1357447504997253,-0.4699617028236389,-0.1615990549325943,-0.1540320217609405,0.0,0.0,0.0022013654493737,-0.8732414002013288
-0.0404088981449604,1.1356995105743408,-0.1532014310359954,-0.4671916961669922,-0.1673565953969955,-0.1151501908898353,0.0,0.0,-0.2275290082232104,-0.7671857187699851
-0.04213123396039,1.1245306730270386,-0.1682464778423309,-0.4968449771404266,-0.1713516861200332,-0.0799017399549484,0.0,0.0,0.6990504652546712,-0.5696336563157732
-0.0437990203499794,1.113977074623108,-0.1641606539487838,-0.4693551063537597,-0.1739796549081802,-0.0525591969490051,0.0,0.0,0.7288122177124023,0.6888618469238281
-0.0454922690987587,1.1034215688705444,-0.1652860194444656,-0.4696132838726043,-0.1780265122652053,-0.0809371247887611,0.0,0.0,-0.5467972159385681,-0.1840071678161621
-0.0472562797367572,1.092181921005249,-0.172532707452774,-0.5000141263008118,-0.1819169521331787,-0.0778087750077247,0.0,0.0,0.7993433475494385,0.5382144451141357
-0.049051858484745,1.080841302871704,-0.174538716673851,-0.5046520829200745,-0.1869470179080963,-0.100601240992546,0.0,0.0,-0.573799729347229,0.8772808313369751
-0.0508481040596962,1.0687986612319946,-0.1729719936847686,-0.5360825657844543,-0.193640723824501,-0.1338740289211273,0.0,0.0,0.6392019987106323,-0.5783533453941345
-0.0525961890816688,1.057188630104065,-0.1695012301206588,-0.5167100429534912,-0.1989857256412506,-0.1068999990820884,0.0,0.0,0.6255948543548584,-0.0447398424148559
-0.0543521866202354,1.0455608367919922,-0.1703036874532699,-0.5175113081932068,-0.2043215036392212,-0.1067159920930862,0.0,0.0,0.132472276687622,0.5311331748962402
-0.0560036674141883,1.0339981317520142,-0.1589776575565338,-0.5147695541381836,-0.2105479389429092,-0.1245291382074356,0.0,0.0,0.8011419773101807,-0.7705584168434143
-0.0576385483145713,1.0231409072875977,-0.1588725447654724,-0.4832078218460083,-0.2152024507522583,-0.093090072274208,0.0,0.0,-0.3497875332832336,0.2590621709823608
-0.0593445785343647,1.0115995407104492,-0.1661112010478973,-0.5136095881462097,-0.2197523862123489,-0.0909988284111023,0.0,0.0,0.1339143514633178,0.8677470684051514
-0.0610209479928016,1.0001693964004517,-0.1614853590726852,-0.5089401006698608,-0.2259773015975952,-0.1244985088706016,0.0,0.0,0.5972461700439453,0.137311577796936
-0.0625390037894249,0.98875492811203,-0.1462897360324859,-0.5081599354743958,-0.231563314795494,-0.1117206439375877,0.0,0.0,-0.2773828506469726,-0.612210214138031
-0.0641689300537109,0.9766640067100524,-0.1585798114538192,-0.5380755662918091,-0.2360418885946273,-0.0895715728402137,0.0,0.0,-0.0935257673263549,-0.2024984359741211
-0.0658702850341796,0.9638890624046326,-0.165796011686325,-0.5684776902198792,-0.2404521852731704,-0.088205873966217,0.0,0.0,0.6747112274169922,-0.8230317234992981
-0.0676810294389724,0.9508950114250184,-0.1783383786678314,-0.5779640078544617,-0.2432294189929962,-0.0555445775389671,0.0,0.0,-0.1272068619728088,-0.8267791867256165
-0.069623090326786,0.937230348587036,-0.1930347084999084,-0.6075113415718079,-0.2444232404232025,-0.0238762684166431,0.0,0.0,0.6615400314331055,0.1289750337600708
-0.0714683532714843,0.9235134720802308,-0.1836723685264587,-0.6097845435142517,-0.2452948093414306,-0.017430942505598,0.0,0.0,-0.5215824842453003,-0.374657392501831
-0.0733851417899131,0.9091122150421144,-0.1908504068851471,-0.6401860117912292,-0.24613818526268,-0.0168676394969224,0.0,0.0,-0.1435486674308776,0.1464118957519531
-0.0753734558820724,0.8940271735191345,-0.1980162560939788,-0.6705875396728516,-0.2469638884067535,-0.0165140219032764,0.0,0.0,-0.7035700678825378,-0.4604858756065368
-0.0774331092834472,0.8782579302787781,-0.2051686942577362,-0.700989305973053,-0.2477825582027435,-0.0163732431828975,0.0,0.0,0.4368150234222412,-0.9292223453521729
-0.079375647008419,0.862501323223114,-0.1954183131456375,-0.7000997066497803,-0.2465981543064117,0.0236879903823137,0.0,0.0,-0.6611610651016235,-0.6992135643959045
-0.0814474076032638,0.8460873365402222,-0.2098435461521148,-0.7290626168251038,-0.2438770085573196,0.0544228553771972,0.0,0.0,-0.1226425170898437,-0.7994832992553711
-0.0836411491036415,0.8290039896965027,-0.2233259230852127,-0.7586114406585693,-0.2398638874292373,0.0802626386284828,0.0,0.0,0.1828416585922241,-0.5619276165962219
-0.085810087621212,0.8120890855789185,-0.2219404429197311,-0.7509634494781494,-0.2347442507743835,0.10239277780056,0.0,0.0,0.3983149528503418,0.0145860910415649
-0.087831400334835,0.7950486540794373,-0.2077136784791946,-0.7564761638641357,-0.2290886044502258,0.1131133437156677,0.0,0.0,0.4132012128829956,0.1538783311843872
-0.0899117439985275,0.7779414653778076,-0.2131866514682769,-0.7595342993736267,-0.2238692790269851,0.1043869033455848,0.0,0.0,0.727832555770874,-0.088295042514801
-0.0917818993330001,0.7613369822502136,-0.192556545138359,-0.7371466755867004,-0.2182642519474029,0.1121003180742263,0.0,0.0,0.4484990835189819,-0.0818674564361572
-0.0934764891862869,0.7448757886886597,-0.1754785180091858,-0.7307320833206177,-0.2121794819831848,0.1216950863599777,0.0,0.0,0.1720151901245117,0.7183828353881836
-0.0950032249093055,0.7285579442977905,-0.1572500765323639,-0.7245878577232361,-0.2075593769550323,0.0924020186066627,0.0,0.0,-0.3365190625190735,-0.0009440183639526
-0.0966001525521278,0.711556613445282,-0.1641730368137359,-0.7549932599067688,-0.2030405104160308,0.090377576649189,0.0,0.0,0.3579596281051636,0.2194401025772094
-0.098164364695549,0.6943061947822571,-0.1609927266836166,-0.7660630345344543,-0.1984387040138244,0.0920360758900642,0.0,0.0,0.7753473520278931,0.3329293727874756
-0.0997552871704101,0.6775127053260803,-0.1630469858646392,-0.7458560466766357,-0.1944573670625686,0.0796263664960861,0.0,0.0,0.5065503120422363,-0.151273488998413
-0.1012138351798057,0.6606970429420471,-0.1502033174037933,-0.7467969655990601,-0.190087229013443,0.0874026641249656,0.0,0.0,0.495965838432312,0.4512612819671631
-0.102615550160408,0.6440094113349915,-0.1444739252328872,-0.7411250472068787,-0.1857604831457138,0.0865348801016807,0.0,0.0,0.8171762228012085,0.1318960189819336
-0.1039958968758583,0.627285897731781,-0.1422280073165893,-0.7427446246147156,-0.1815457493066787,0.0842945948243141,0.0,0.0,0.8798625469207764,-0.0549584031105041
-0.1054613143205642,0.6109094023704529,-0.1499369740486145,-0.7274389266967773,-0.1781438887119293,0.0680370852351188,0.0,0.0,0.6661231517791748,-0.211961567401886
-0.1068201065063476,0.5951176285743713,-0.1391958892345428,-0.7014621496200562,-0.174812451004982,0.0666286200284957,0.0,0.0,0.5324993133544922,-0.2582200765609741
-0.1081235855817794,0.5790231823921204,-0.1338490396738052,-0.7149001955986023,-0.1713083386421203,0.070082351565361,0.0,0.0,0.908004641532898,0.2737361192703247
-0.1092946082353591,0.5636945366859436,-0.1205525025725364,-0.6808801293373108,-0.167848140001297,0.0692039206624031,0.0,0.0,0.2323635816574096,-0.0024815797805786
-0.1105413436889648,0.5482222437858582,-0.1276143938302993,-0.6873323321342468,-0.1649094372987747,0.0587744712829589,0.0,0.0,0.7616991996765137,0.3852576017379761
-0.1118309944868087,0.5331587791442871,-0.1312426477670669,-0.6692346334457397,-0.1626286655664444,0.0456152856349945,0.0,0.0,0.7770891189575195,0.0009622573852539
-0.1130435019731521,0.5183947086334229,-0.1234711408615112,-0.6559411883354187,-0.1604078412055969,0.0444168373942375,0.0,0.0,0.2466638088226318,-0.415805459022522
-0.1143131256103515,0.5039139986038208,-0.1285145282745361,-0.6434211134910583,-0.1588573604822158,0.0310094561427831,0.0,0.0,-0.2435703873634338,0.6679021120071411
-0.1155862808227539,0.4887356758117676,-0.1271301954984665,-0.6746110916137695,-0.1590351462364196,-0.0035558559466153,0.0,0.0,0.8578028678894043,0.2332943677902221
-0.1168879494071006,0.4735340774059295,-0.1295738965272903,-0.675686240196228,-0.1596237570047378,-0.0117721231654286,0.0,0.0,0.8902876377105713,0.0887684822082519
-0.11811313778162,0.4581812620162964,-0.122047409415245,-0.682397723197937,-0.1600948870182037,-0.0094227558001875,0.0,0.0,0.9400697946548462,-0.4993753433227539
-0.1193696036934852,0.442744106054306,-0.1247468963265419,-0.6861947178840637,-0.1609869003295898,-0.0178402755409479,0.0,0.0,0.9872336387634276,-0.0078228116035461
-0.1205395683646202,0.4280383586883545,-0.1158040016889572,-0.6537153720855713,-0.1621813476085662,-0.0238889250904321,0.0,0.0,0.9881024360656738,-0.6787160038948059
-0.1215560883283615,0.4140970408916473,-0.1018221229314804,-0.6195977330207825,-0.1620102971792221,0.0034210588783025,0.0,0.0,0.8117725849151611,-0.0772738456726074
-0.1226026564836502,0.4008287489414215,-0.1039920076727867,-0.5897706747055054,-0.1626769304275512,-0.0133323492482304,0.0,0.0,0.4874212741851806,-0.3867292404174804
-0.1237671822309494,0.3873468935489654,-0.1149760857224464,-0.5993598103523254,-0.1641567647457122,-0.0295964535325765,0.0,0.0,0.6458077430725098,-0.6039479970932007
-0.1248558983206749,0.3743532001972198,-0.108436144888401,-0.5775449872016907,-0.1645994186401367,-0.0088530769571661,0.0,0.0,0.5077693462371826,0.3190901279449463
-0.1259968727827072,0.3614760339260101,-0.1129462867975235,-0.5724467635154724,-0.1657557040452957,-0.0231258608400821,0.0,0.0,0.6751638650894165,0.269489049911499
-0.1271241158246994,0.3489460349082947,-0.1110128536820411,-0.5570805072784424,-0.1674605458974838,-0.0340968072414398,0.0,0.0,-0.1871915459632873,0.0830169916152954
-0.1282935142517089,0.3357327580451965,-0.1149415522813797,-0.5874866843223572,-0.169462189078331,-0.0400329902768135,0.0,0.0,-0.4244288802146911,-0.6281296014785767
-0.1295442581176757,0.3218469321727752,-0.1238578334450721,-0.6172884106636047,-0.1706896871328354,-0.0245497040450572,0.0,0.0,0.5906200408935547,-0.0427799820899963
-0.1307534277439117,0.3077591061592102,-0.1194905415177345,-0.6262899041175842,-0.1721189022064209,-0.0285840332508087,0.0,0.0,0.9776065349578856,-0.0508757233619689
-0.1318044662475586,0.2936717271804809,-0.1038839817047119,-0.6262486577033997,-0.1733468174934387,-0.0245584230870008,0.0,0.0,0.9901306629180908,-0.0783010125160217
-0.1325931549072265,0.2798714935779571,-0.0781439766287803,-0.6134269833564758,-0.174072265625,-0.014508843421936,0.0,0.0,0.996373414993286,-0.3968832492828369
-0.1331609785556793,0.2660483121871948,-0.0565176084637641,-0.6143965125083923,-0.1743406504392624,-0.0053678802214562,0.0,0.0,0.9987350702285768,-0.5420710444450378
-0.1336443871259689,0.2529014348983764,-0.0488064065575599,-0.5842538475990295,-0.1738685667514801,0.0094417240470647,0.0,0.0,0.99965238571167,-0.3825281858444214
-0.1339529007673263,0.2404178529977798,-0.0311669763177633,-0.5547882318496704,-0.173554852604866,0.0062746675685048,0.0,0.0,0.9965531826019288,-0.7139280438423157
-0.1340351998805999,0.2284172922372818,-0.0100315231829881,-0.5331472158432007,-0.1717445254325866,0.0362062230706214,0.0,0.0,0.9953138828277588,0.1112722158432006
-0.1339439451694488,0.2162849754095077,0.0070971795357763,-0.5389807820320129,-0.1697112917900085,0.0406646467745304,0.0,0.0,0.9926478862762452,-0.5155156850814819
-0.1338654458522796,0.2044032961130142,0.005331287626177,-0.5277877449989319,-0.1671940237283706,0.0503453500568866,0.0,0.0,0.977087378501892,0.1139698028564453
-0.1335219442844391,0.1933403611183166,0.0317183621227741,-0.4913942515850067,-0.1645573526620865,0.0527335181832313,0.0,0.0,0.9711272716522216,-0.2870235443115234
-0.1330976486206054,0.1826057285070419,0.040278423577547,-0.476855456829071,-0.1624024957418441,0.0430972017347812,0.0,0.0,0.9587159156799316,-0.2126277685165405
-0.1326658278703689,0.1726197600364685,0.0420705899596214,-0.4436993598937988,-0.1612872034311294,0.0223059523850679,0.0,0.0,0.8013882637023926,-0.4217654466629028
-0.1320138871669769,0.1630541384220123,0.0639998465776443,-0.425007164478302,-0.1600938141345977,0.0238682311028242,0.0,0.0,0.9268059730529784,-0.8016155362129211
-0.1313438415527343,0.1541381925344467,0.0647169426083564,-0.396018236875534,-0.1578031033277511,0.0458138659596443,0.0,0.0,0.7495245933532715,-0.8182653188705444
-0.1306963860988617,0.1457574665546417,0.0613549426198005,-0.372119277715683,-0.1544197350740432,0.0676672309637069,0.0,0.0,0.3111382722854614,-0.839093029499054
-0.1300616264343261,0.1372972130775451,0.0588021352887153,-0.3755345344543457,-0.1497523337602615,0.0933479219675064,0.0,0.0,0.6310571432113647,-0.5864694118499756
-0.129488855600357,0.1290733367204666,0.0520987696945667,-0.3649949431419372,-0.1445917189121246,0.1032121628522872,0.0,0.0,0.6801841259002686,-0.5235471725463867
-0.1290210783481598,0.1210002526640892,0.0413799062371254,-0.3582911789417267,-0.1392088830471038,0.1076566949486732,0.0,0.0,0.6325329542160034,0.2259227037429809
-0.1283269822597503,0.1132772043347358,0.0639035254716873,-0.3427416086196899,-0.1337223947048187,0.1097297519445419,0.0,0.0,0.7422219514846802,-0.4973257780075073
-0.1274898499250412,0.1054367125034332,0.0782861560583114,-0.347990334033966,-0.1283198446035385,0.1080511361360549,0.0,0.0,0.6626682281494141,0.3479973077774048
-0.1263798773288726,0.0980274528264999,0.1052767038345336,-0.3288211226463318,-0.1226277351379394,0.1138420924544334,0.0,0.0,0.4848392009735107,-0.4459545016288757
-0.1251725256443023,0.0909771770238876,0.1154949814081192,-0.3129229545593261,-0.1174188181757927,0.1041785478591919,0.0,0.0,0.267444372177124,0.0231088399887084
-0.1237446814775466,0.0842012017965316,0.1374205350875854,-0.3007444143295288,-0.1120937466621398,0.1065014600753784,0.0,0.0,0.7226986885070801,-0.6057313084602356
-0.1221744567155838,0.0776367262005806,0.1506182253360748,-0.2912855446338653,-0.1057375073432922,0.1271248012781143,0.0,0.0,0.1701138019561767,-0.6642228364944458
-0.1205612197518348,0.0712678059935569,0.1539917141199112,-0.2825609445571899,-0.0984558016061782,0.1456339508295059,0.0,0.0,0.2051620483398437,-0.0184398889541625
-0.1188057884573936,0.0650671795010566,0.1683911234140396,-0.2751325666904449,-0.0913650393486023,0.1418150961399078,0.0,0.0,0.5558185577392578,-0.6114258170127869
-0.1169338226318359,0.0588209256529808,0.179027259349823,-0.2771331965923309,-0.0832659527659416,0.1619816720485687,0.0,0.0,0.3149034976959228,-0.5218988656997681
-0.1151220351457595,0.0526468381285667,0.1725983470678329,-0.2739506661891937,-0.0747644677758216,0.1700296849012375,0.0,0.0,0.6171929836273193,-0.1440069079399109
-0.1133507713675499,0.0465577207505703,0.1695227324962616,-0.2702668905258178,-0.0672437772154808,0.1504138857126236,0.0,0.0,0.4735510349273681,-0.2611969709396362
-0.1115162819623947,0.0405399911105632,0.1763363480567932,-0.2671501338481903,-0.0602124817669391,0.1406259685754776,0.0,0.0,0.5776222944259644,-0.1116669178009033
-0.1095764189958572,0.0345997177064418,0.1871695071458816,-0.2637553513050079,-0.0534678436815738,0.1348925530910492,0.0,0.0,0.786895751953125,-0.7757945656776428
-0.1074715629220008,0.0285444352775812,0.2021870613098144,-0.2688505053520202,-0.0452642329037189,0.1640725284814834,0.0,0.0,0.7946279048919678,-0.7358463406562805
-0.1052231788635253,0.0229187346994876,0.2151922881603241,-0.2497678697109222,-0.0357458814978599,0.1903669685125351,0.0,0.0,0.8922834396362305,-0.888660192489624
-0.1029265373945236,0.0180060714483261,0.2185850888490677,-0.2181102633476257,-0.0248025469481945,0.2188666611909866,0.0,0.0,0.8585565090179443,-0.9190186262130736
