x_pos,y_pos,x_vel,y_vel,angle,ang_vel,leg_1,leg_2,main_booster,lat_booster
-0.0016305923927575,1.4030886888504028,-0.1649754047393798,-0.3480610847473144,0.0017097897361963,0.0337232276797294,0.0,0.0,-0.4386806488037109,0.8433796167373657
-0.0032987594604492,1.3947408199310305,-0.1665128618478775,-0.3710161447525024,0.0014153076335787,-0.0058894110843539,0.0,0.0,0.1728107929229736,0.2618112564086914
-0.0049831392243504,1.3862870931625366,-0.1684345453977584,-0.3757223784923553,0.0014099136460572,-0.0001081204245565,0.0,0.0,0.1641554832458496,0.4227292537689209
-0.0068641663528978,1.3778252601623535,-0.1875019967555999,-0.3760766983032226,0.0008181719458661,-0.0118357166647911,0.0,0.0,0.467024564743042,0.9232401847839355
-0.0086564067751169,1.3696995973587036,-0.1767387837171554,-0.361146479845047,-0.0016406526556238,-0.049181081354618,0.0,0.0,-0.2798553705215454,0.0603718757629394
-0.0105633735656738,1.361038088798523,-0.1879883110523224,-0.3849622905254364,-0.0043138121254742,-0.0534681752324104,0.0,0.0,-0.2196110486984253,0.98720383644104
-0.0125114442780613,1.351840615272522,-0.1899585574865341,-0.4087969362735748,-0.0090987710282206,-0.0957084149122238,0.0,0.0,-0.2196414470672607,0.7744128704071045
-0.0145002361387014,1.342109203338623,-0.1918586194515228,-0.4325666427612304,-0.0160412080585956,-0.1388615518808365,0.0,0.0,-0.1564257144927978,0.7266383171081543
-0.0165508277714252,1.3318495750427246,-0.1963419467210769,-0.45610511302948,-0.0246531888842582,-0.1722556799650192,0.0,0.0,-0.1772632598876953,0.7816550731658936
-0.018658448010683,1.321057915687561,-0.2002276480197906,-0.4798316061496734,-0.0350855514407157,-0.208666518330574,0.0,0.0,-0.2625922560691833,0.866441011428833
-0.0208078380674123,1.3097290992736816,-0.2021221369504928,-0.5038524270057678,-0.0477684177458286,-0.2536804676055908,0.0,0.0,-0.2450260519981384,0.9347496032714844
-0.0229955669492483,1.2978595495224,-0.2035584151744842,-0.5280907154083252,-0.0628236383199691,-0.3011324405670166,0.0,0.0,-0.8218429088592529,0.848098874092102
-0.0252228733152151,1.2854548692703247,-0.2051652669906616,-0.5521537661552429,-0.0802383422851562,-0.3483262658119201,0.0,0.0,-0.4666423797607422,-0.0067786574363708
-0.027571965008974,1.2725188732147217,-0.2170275449752807,-0.5759904384613037,-0.0979791656136512,-0.3548489809036255,0.0,0.0,0.1566208600997924,0.5862817764282227
-0.029831314459443,1.259896755218506,-0.206774353981018,-0.5623500943183899,-0.1170304864645004,-0.3810612559318542,0.0,0.0,-0.662021279335022,0.1634950637817382
-0.0322134010493755,1.2467442750930786,-0.2187465727329254,-0.586201548576355,-0.1364320069551468,-0.3880652487277984,0.0,0.0,0.2313505411148071,-0.710473895072937
-0.0345724113285541,1.2340048551559448,-0.2177041471004486,-0.567966103553772,-0.1546161770820617,-0.3637166619300842,0.0,0.0,-0.0474119186401367,-0.7632206082344055
-0.0371016487479209,1.220738410949707,-0.2355483025312423,-0.5915108323097229,-0.1720135062932968,-0.3479780256748199,0.0,0.0,0.1720057725906372,-0.1173688769340515
-0.0395898818969726,1.2077652215957642,-0.2314457446336746,-0.5786969661712646,-0.189471960067749,-0.3492008447647095,0.0,0.0,-0.2896153926849365,-0.8247508406639099
-0.0422755256295204,1.194280982017517,-0.2527104020118713,-0.6014030575752258,-0.205449640750885,-0.3195827603340149,0.0,0.0,0.4234554767608642,-0.9076563119888306
-0.044901181012392,1.1812063455581665,-0.2482865750789642,-0.5831340551376343,-0.2198768407106399,-0.2885698080062866,0.0,0.0,0.12355637550354,-0.7493553161621094
-0.0476365089416503,1.1680524349212646,-0.2603864669799804,-0.5866382122039795,-0.2332050204277038,-0.2665876150131225,0.0,0.0,0.0808956623077392,-0.9344328045845032
-0.05038957670331,1.1548750400543213,-0.2636352181434631,-0.5875527262687683,-0.2450832426548004,-0.2375859767198562,0.0,0.0,0.3697303533554077,-0.64171302318573
-0.0531949996948242,1.1415296792984009,-0.2698651552200317,-0.594943642616272,-0.2559835314750671,-0.2180251181125641,0.0,0.0,0.5344738960266113,-0.4938294291496277
-0.056103803217411,1.12856924533844,-0.2792048752307892,-0.5781047344207764,-0.2679327428340912,-0.2390049397945404,0.0,0.0,0.0438716411590576,-0.9648320078849792
-0.0592049583792686,1.1157779693603516,-0.2999888360500335,-0.5703958868980408,-0.2783206105232239,-0.2077575176954269,0.0,0.0,0.6449244022369385,-0.8857883214950562
-0.0622975341975688,1.1035292148590088,-0.3004510998725891,-0.5460895299911499,-0.287354052066803,-0.180668830871582,0.0,0.0,-0.2359394431114196,-0.6812631487846375
-0.065579317510128,1.0907819271087646,-0.3206088840961456,-0.5680579543113708,-0.2951576709747314,-0.1560723185539245,0.0,0.0,-0.6630883812904358,0.1305363178253173
-0.068989560008049,1.0775015354156494,-0.3330120742321014,-0.5918830037117004,-0.3034289479255676,-0.165425419807434,0.0,0.0,-0.4691832661628723,-0.7495501041412354
-0.0725872069597244,1.0637130737304688,-0.352835863828659,-0.6142939329147339,-0.3105983138084411,-0.1433878242969513,0.0,0.0,0.6210440397262573,-0.4098376035690307
-0.0760421752929687,1.0505691766738892,-0.3381986916065216,-0.5857461094856262,-0.3181629478931427,-0.1512934267520904,0.0,0.0,0.2103288173675537,-0.4909043312072754
-0.0795794501900672,1.0373767614364624,-0.3457393646240234,-0.5881108641624451,-0.3264771699905395,-0.1662842482328415,0.0,0.0,-0.4132108688354492,-0.0128019452095031
-0.0832456573843956,1.0236515998840332,-0.3581674695014953,-0.6119384169578552,-0.3352826535701751,-0.1761105209589004,0.0,0.0,0.242879033088684,-0.4353787302970886
-0.0869965553283691,1.0098018646240234,-0.3659837543964386,-0.6176832914352417,-0.3448064625263214,-0.1904759556055069,0.0,0.0,-0.4997924566268921,-0.8587005734443665
-0.0909374207258224,0.9954549074172974,-0.3861840367317199,-0.6395677924156189,-0.3531178832054138,-0.1662286520004272,0.0,0.0,0.7371717691421509,0.4311113357543945
-0.0947142615914344,0.9816848039627076,-0.3693902790546417,-0.6140706539154053,-0.3618467152118683,-0.1745772957801818,0.0,0.0,0.2317016124725341,-0.2589472532272339
-0.098517894744873,0.9678689241409302,-0.3715311288833618,-0.6162968873977661,-0.3711762130260467,-0.1865906864404678,0.0,0.0,-0.239613652229309,-0.362064003944397
-0.1024500876665115,0.9535210132598876,-0.3839358687400818,-0.6401281952857971,-0.3810199201107025,-0.1968748867511749,0.0,0.0,0.3084504604339599,0.136074423789978
-0.1062913909554481,0.9395875334739684,-0.3742685914039612,-0.6219273209571838,-0.3915258944034576,-0.2101196348667144,0.0,0.0,0.0999307632446289,-0.4395508766174316
-0.1100890189409256,0.9256729483604432,-0.3695446848869324,-0.6212797164916992,-0.4024665355682373,-0.2188129723072052,0.0,0.0,-0.2929432392120361,0.1747808456420898
-0.1140147224068641,0.9112268090248108,-0.3819053769111633,-0.645115077495575,-0.4139322936534881,-0.2293154001235962,0.0,0.0,0.9504022598266602,0.0406571626663208
-0.1176862716674804,0.8970102667808533,-0.3566719591617584,-0.6349552273750305,-0.4252524971961975,-0.2264041006565094,0.0,0.0,0.8962169885635376,-0.8206896781921387
-0.12128696590662,0.8827101588249207,-0.3509361445903778,-0.6383426785469055,-0.4351704716682434,-0.1983594596385955,0.0,0.0,0.9417093992233276,-0.2684468030929565
-0.1246474236249923,0.8686498999595642,-0.3269450664520263,-0.6277459859848022,-0.4450830817222595,-0.1982520520687103,0.0,0.0,0.6696107387542725,-0.785282552242279
-0.1281058341264724,0.8545217514038086,-0.3377088904380798,-0.6305328011512756,-0.4539871513843536,-0.1780820786952972,0.0,0.0,0.9789321422576904,-0.6449231505393982
-0.131509780883789,0.8403900265693665,-0.3331756293773651,-0.6304523944854736,-0.4619408547878265,-0.159073919057846,0.0,0.0,0.8885087966918945,0.4398505687713623
-0.1347501724958419,0.8263658881187439,-0.316638708114624,-0.6257758736610413,-0.4701139628887176,-0.1634619981050491,0.0,0.0,0.8717145919799805,-0.4077274799346924
-0.1378021240234375,0.8131599426269531,-0.2968056797981262,-0.5898047685623169,-0.4794202148914337,-0.186124786734581,0.0,0.0,0.7876143455505371,-0.8765665292739868
-0.1407852172851562,0.8007213473320007,-0.2909008860588074,-0.5554159879684448,-0.4876784086227417,-0.1651637554168701,0.0,0.0,0.8167273998260498,-0.6228179335594177
-0.1436968743801117,0.7885425686836243,-0.2844098508358001,-0.5436868071556091,-0.4952386021614074,-0.1512045562267303,0.0,0.0,0.8021204471588135,-0.7581217885017395
-0.1463390290737152,0.7765747904777527,-0.2587253451347351,-0.5338989496231079,-0.5014083981513977,-0.1233946532011032,0.0,0.0,0.8702638149261475,-0.9123803973197936
-0.1488277465105056,0.7652804255485535,-0.2445265501737594,-0.5035661458969116,-0.5063127279281616,-0.0980870202183723,0.0,0.0,0.8148154020309448,-0.7856787443161011
-0.1511433571577072,0.7540403604507446,-0.2284144461154937,-0.5007312297821045,-0.5098631978034973,-0.0710091665387153,0.0,0.0,0.66725754737854,-0.9124139547348022
-0.1532447785139084,0.743378758430481,-0.2082333266735077,-0.4745604395866394,-0.5120217800140381,-0.0431710630655288,0.0,0.0,0.4707608222961426,-0.8828243613243103
-0.1551858931779861,0.7326903939247131,-0.1935028731822967,-0.4752680659294128,-0.5127224922180176,-0.0140141006559133,0.0,0.0,0.8342223167419434,-0.9042187929153442
-0.1571564674377441,0.7222885489463806,-0.1974610090255737,-0.4621516168117523,-0.5122607350349426,0.0092356894165277,0.0,0.0,0.6631109714508057,-0.8913751244544983
-0.1588194817304611,0.7123842835426331,-0.1680281460285186,-0.4395491182804107,-0.5103151798248291,0.0389114841818809,0.0,0.0,0.4143393039703369,-0.9285941123962402
-0.1602638214826584,0.702661395072937,-0.1474840641021728,-0.4309969544410705,-0.5068623423576355,0.0690567344427108,0.0,0.0,0.8984392881393433,-0.7513191103935242
-0.161333754658699,0.69362872838974,-0.1111536026000976,-0.3999176919460296,-0.502169132232666,0.0938642024993896,0.0,0.0,0.8353683948516846,-0.9012418389320374
-0.1622408926486969,0.6853371858596802,-0.0959561914205551,-0.3666062355041504,-0.4962720870971679,0.11794064193964,0.0,0.0,0.8906475305557251,-0.935122013092041
-0.1630710661411285,0.6770718097686768,-0.0896238386631012,-0.3649864196777344,-0.488872617483139,0.147989422082901,0.0,0.0,0.9160199165344238,-0.8947835564613342
-0.1638058722019195,0.669495701789856,-0.0810939818620681,-0.3340412676334381,-0.4803673923015594,0.1701044589281082,0.0,0.0,0.7707638740539551,-0.754936695098877
-0.1643210351467132,0.6620646119117737,-0.0603478848934173,-0.3272302746772766,-0.4705521464347839,0.1963046342134475,0.0,0.0,0.8194422721862793,-0.7794830799102783
-0.1646686494350433,0.6550280451774597,-0.0446757599711418,-0.3094087541103363,-0.4596051573753357,0.2189394235610962,0.0,0.0,0.0767542123794555,-0.7991246581077576
-0.1650609076023101,0.6478444933891296,-0.0501995608210563,-0.3156989514827728,-0.4475533664226532,0.2410357892513275,0.0,0.0,-0.11832857131958,-0.811245322227478
-0.1656278669834137,0.6401805281639099,-0.0690937787294387,-0.3367154002189636,-0.4340201020240783,0.2706658542156219,0.0,0.0,0.5758012533187866,-0.3175956010818481
-0.1659365594387054,0.6330839991569519,-0.0429158881306648,-0.3117336332798004,-0.4209522902965545,0.2613561749458313,0.0,0.0,-0.0619629621505737,-0.2043614387512207
-0.1663465499877929,0.6254569888114929,-0.0525951273739337,-0.3355746567249298,-0.4084444940090179,0.2501557469367981,0.0,0.0,0.3172882795333862,-0.604504406452179
-0.1666047126054763,0.6182565093040466,-0.0381741970777511,-0.3165087699890136,-0.3951916396617889,0.2650570273399353,0.0,0.0,0.0682026147842407,0.0030478239059448
-0.1668972074985504,0.610984206199646,-0.040882471948862,-0.3200300931930542,-0.3827798664569855,0.2482354938983917,0.0,0.0,0.002577781677246,-0.6380501389503479
-0.1672338545322418,0.6038187146186829,-0.0460111573338508,-0.3152055442333221,-0.3696656823158264,0.2622839510440826,0.0,0.0,-0.4736491441726684,0.2138947248458862
-0.1676601469516754,0.5961222648620605,-0.0545251853764057,-0.3390446603298187,-0.3571105897426605,0.2511019706726074,0.0,0.0,0.1348397731781005,-0.1146368980407714
-0.1680530607700348,0.5887562036514282,-0.0503132119774818,-0.3246834874153137,-0.3455235362052917,0.2317408770322799,0.0,0.0,-0.2937226295471191,0.0858904123306274
-0.1685288399457931,0.5808585286140442,-0.058107852935791,-0.3485187590122223,-0.3344948589801788,0.2205737084150314,0.0,0.0,-0.4102381467819214,-0.5472375154495239
-0.1691273748874664,0.572447657585144,-0.0710232481360435,-0.371275395154953,-0.3228470087051391,0.2329569309949875,0.0,0.0,0.207712173461914,-0.1882692575454712
-0.1696780174970626,0.5638194680213928,-0.0659684985876083,-0.3810890316963196,-0.3115266561508178,0.226406842470169,0.0,0.0,-0.1400602459907531,-0.0132084488868713
-0.1702990531921386,0.5546592473983765,-0.0724999755620956,-0.4049223661422729,-0.3007631003856659,0.2152708768844604,0.0,0.0,0.745867133140564,-0.6080583333969116
-0.1707910597324371,0.546198844909668,-0.0602719709277153,-0.373773992061615,-0.2893365323543548,0.2285313308238983,0.0,0.0,0.2507264614105224,0.333961009979248
-0.1711092889308929,0.5380682349205017,-0.0426762849092483,-0.3592455685138702,-0.2781849205493927,0.2230319231748581,0.0,0.0,-0.9031816124916076,-0.0897903442382812
-0.171483039855957,0.5294054746627808,-0.0477155186235904,-0.3830771446228027,-0.2675874829292297,0.211948961019516,0.0,0.0,-0.667762041091919,0.2726889848709106
-0.1719068586826324,0.5202104449272156,-0.052207987755537,-0.4069072604179382,-0.2575429379940033,0.200891375541687,0.0,0.0,-0.5406448841094971,0.1140898466110229
-0.1723751127719879,0.510482668876648,-0.056131113320589,-0.4307360351085663,-0.2480497360229492,0.1898638904094696,0.0,0.0,-0.5804709196090698,0.4774775505065918
-0.1728818863630294,0.5002222061157227,-0.0594639778137207,-0.4545634686946869,-0.2391061186790466,0.1788723170757293,0.0,0.0,0.4549319744110107,0.5087664127349854
-0.173290729522705,0.4903047382831573,-0.0480225346982479,-0.4396343827247619,-0.2318647801876068,0.144826591014862,0.0,0.0,-0.4295811653137207,0.4057891368865967
-0.173725888133049,0.4798539280891418,-0.0501202568411827,-0.4634580314159393,-0.2251683473587036,0.1339286267757415,0.0,0.0,0.2278366088867187,0.2698934078216553
-0.1740211546421051,0.4694800078868866,-0.0359027795493602,-0.46010223031044,-0.2187141180038452,0.1290846765041351,0.0,0.0,0.0842291116714477,0.1719534397125244
-0.1742658615112304,0.458896279335022,-0.0303897950798273,-0.469519555568695,-0.2127263396978378,0.1197553053498268,0.0,0.0,0.4695661067962646,0.7423019409179688
-0.1742956191301345,0.4482510685920715,-0.0070507833734154,-0.472543329000473,-0.2086189240217209,0.0821486636996269,0.0,0.0,0.7875139713287354,0.5796411037445068
-0.1739861518144607,0.4379111230373382,0.0281057655811309,-0.4591576159000397,-0.2057554572820663,0.0572693422436714,0.0,0.0,-0.1003863215446472,0.0722708702087402
-0.1736702024936676,0.4270369410514831,0.0292748603969812,-0.4829760789871216,-0.203415960073471,0.0467895083129406,0.0,0.0,0.2301317453384399,-0.7696501612663269
-0.1732914894819259,0.4164756238460541,0.0345268249511718,-0.468934565782547,-0.2000481337308883,0.0673564076423645,0.0,0.0,0.1110091209411621,-0.225571870803833
-0.1727713644504547,0.4061238765716553,0.0490842573344707,-0.459687203168869,-0.1970945000648498,0.0590727515518665,0.0,0.0,-0.1485981345176696,-0.6301942467689514
-0.1722633391618728,0.3952516913414001,0.0473612062633037,-0.4827537834644317,-0.1936373561620712,0.0691428706049919,0.0,0.0,0.5056091547012329,-0.626335620880127
-0.1716167479753494,0.3842620849609375,0.0602570585906505,-0.4878568649291992,-0.1892054826021194,0.0886373743414878,0.0,0.0,0.348109483718872,0.327970027923584
-0.1708953827619552,0.3733625113964081,0.0684080272912979,-0.4839552044868469,-0.1854544579982757,0.0750202089548111,0.0,0.0,0.5516815185546875,-0.0975590944290161
-0.1699016541242599,0.3631011545658111,0.0957367271184921,-0.4556089043617248,-0.1818067878484726,0.0729537308216095,0.0,0.0,-0.2374997735023498,-0.0951157212257385
-0.1688573807477951,0.3523054420948028,0.1012418270111084,-0.4794258177280426,-0.1786172091960907,0.0637916401028633,0.0,0.0,0.5843367576599121,-0.5591002702713013
-0.167790800333023,0.3421522378921509,0.1031208410859108,-0.450829803943634,-0.1750676035881042,0.0709921494126319,0.0,0.0,-0.7120556235313416,-0.3970640301704407
-0.1666627824306488,0.3314644694328308,0.109689213335514,-0.4746459424495697,-0.1719464212656021,0.0624236539006233,0.0,0.0,-0.7067163586616516,-0.765446662902832
-0.1655323952436447,0.3202645778656006,0.1086580976843833,-0.4972745180130005,-0.1675631254911422,0.0876658260822296,0.0,0.0,0.2833187580108642,-0.3544714450836181
-0.1642970144748687,0.3094063401222229,0.1198493987321853,-0.4821769595146179,-0.1638702303171157,0.0738577544689178,0.0,0.0,0.1968746185302734,-0.5854556560516357
-0.1629922837018966,0.2985615730285644,0.1260149031877517,-0.4815046191215515,-0.1594144254922866,0.0891164019703865,0.0,0.0,0.1645444631576538,-0.6229967474937439
-0.1616790741682052,0.287844181060791,0.1261022835969925,-0.4757790863513946,-0.1542021185159683,0.1042462214827537,0.0,0.0,0.3864080905914306,-0.1263487935066223
-0.1603386849164962,0.2772726118564605,0.1297282427549362,-0.4694089889526367,-0.1499034315347671,0.0859738513827323,0.0,0.0,-0.010976493358612,-0.416434645652771
-0.158910185098648,0.2661661207675934,0.1388558000326156,-0.4932231903076172,-0.1459102928638458,0.0798631981015205,0.0,0.0,0.1000970602035522,-0.6708940267562866
-0.1573613137006759,0.2548851072788238,0.1497669368982315,-0.500886857509613,-0.140806570649147,0.1020744293928146,0.0,0.0,0.8424856662750244,-0.4329355955123901
-0.1554376631975174,0.2442987561225891,0.1867496520280838,-0.4699836075305938,-0.1352082937955856,0.1119656711816787,0.0,0.0,0.501295804977417,-0.8621509671211243
-0.1534105241298675,0.2342514097690582,0.1956132352352142,-0.4459227621555328,-0.1281405538320541,0.1413550674915313,0.0,0.0,-0.013179063796997,-0.6411327123641968
-0.1513196974992752,0.2236842960119247,0.2011841535568237,-0.4689958989620209,-0.1202895492315292,0.1570203602313995,0.0,0.0,0.1456071138381958,-0.4883687496185303
-0.149024099111557,0.2131714671850204,0.2215848714113235,-0.4666147530078888,-0.1123613268136978,0.1585645228624344,0.0,0.0,0.4388830661773681,-0.7544262409210205
-0.1466076821088791,0.2032027393579483,0.2322838008403778,-0.4423783123493194,-0.1030730083584785,0.1857663094997406,0.0,0.0,0.2515976428985595,0.0536369085311889
-0.143975168466568,0.193582683801651,0.2537836134433746,-0.4269313216209411,-0.093678168952465,0.187896579504013,0.0,0.0,-0.0743030309677124,-0.8738827109336853
-0.1412912309169769,0.1834324151277542,0.2574642300605774,-0.4504722952842712,-0.0828507021069526,0.2165493965148925,0.0,0.0,0.1549912691116333,-0.2900067567825317
-0.1385435163974762,0.1734048277139663,0.2642849385738373,-0.4451236128807068,-0.072461649775505,0.2077810317277908,0.0,0.0,0.7933131456375122,-0.926292896270752
-0.1358677893877029,0.163701444864273,0.2554687261581421,-0.4307178258895874,-0.0604911670088768,0.2394098341464996,0.0,0.0,0.5821452140808105,-0.8055714964866638
-0.1331289261579513,0.1542802453041076,0.260168194770813,-0.4182223677635193,-0.046934925019741,0.2711251676082611,0.0,0.0,0.5527315139770508,-0.9084019660949708
-0.1302923262119293,0.1450788378715515,0.2680192291736603,-0.4085370302200317,-0.0314848162233829,0.3090020716190338,0.0,0.0,0.805349588394165,-0.8130736947059631
-0.1272311210632324,0.1359224915504455,0.2884390950202942,-0.4066649079322815,-0.0140263875946402,0.3491687476634979,0.0,0.0,0.8803632259368896,-0.7105531096458435
-0.1239736527204513,0.1274040788412094,0.306227445602417,-0.3785250782966614,0.0052423276938498,0.3853744566440582,0.0,0.0,0.769378662109375,-0.7726418972015381
-0.1206297874450683,0.1196584329009056,0.3131133317947387,-0.3444609940052032,0.0262496694922447,0.4201464653015136,0.0,0.0,0.8125483989715576,-0.4179984331130981
