x_pos,y_pos,x_vel,y_vel,angle,ang_vel,leg_1,leg_2,main_booster,lat_booster
-0.0014122009743005,1.4031476974487305,-0.1421865075826645,-0.3454435169696808,0.0008588585187681,0.0168748162686824,0.0,0.0,-0.3071836233139038,0.3807029724121094
-0.0027123452164232,1.3949215412139893,-0.1300180256366729,-0.365608274936676,0.0008519554976373,-0.0001372089463984,0.0,0.0,-0.5274442434310913,0.3401589393615722
-0.0039003372658044,1.3862179517745972,-0.1179334968328476,-0.38682422041893,-1.7052285556928837e-06,-0.0170748587697744,0.0,0.0,0.130184531211853,0.4706318378448486
-0.0050574303604662,1.37755024433136,-0.1135869175195694,-0.385234534740448,-0.0020971894264221,-0.0419135875999927,0.0,0.0,-0.051580786705017,-0.0426777601242065
-0.0061018941923975,1.3684056997299194,-0.1014674752950668,-0.4064319729804992,-0.005047595128417,-0.0590139999985694,0.0,0.0,-0.2142238616943359,0.3958580493927002
-0.0070337294600903,1.3587846755981443,-0.0893342271447181,-0.4276241958141327,-0.0088575109839439,-0.0762049704790115,0.0,0.0,-0.4391497373580932,0.2721815109252929
-0.0078528402373194,1.348686933517456,-0.0771885365247726,-0.4488178193569183,-0.0135304611176252,-0.0934674516320228,0.0,0.0,-0.4821534156799316,-0.3741493225097656
-0.008559226989746,1.3381130695343018,-0.0650322288274765,-0.4700128138065338,-0.019069917500019,-0.1107992902398109,0.0,0.0,-0.3967107534408569,-0.844076931476593
-0.0092203142121434,1.3270740509033203,-0.0613589361310005,-0.49069344997406,-0.0237731225788593,-0.0940727069973945,0.0,0.0,0.3797287940979004,-0.8587652444839478
-0.0098224636167287,1.3164761066436768,-0.0562975332140922,-0.471086174249649,-0.0276489648967981,-0.0775236189365387,0.0,0.0,-0.30998295545578,-0.8581950068473816
-0.0103696826845407,1.305404782295227,-0.0513959228992462,-0.4921285510063171,-0.0309431590139865,-0.0658895820379257,0.0,0.0,-0.8297876715660095,-0.830339252948761
-0.0108618736267089,1.2938580513000488,-0.0464742258191108,-0.5132482647895813,-0.0336633026599884,-0.0544077940285205,0.0,0.0,-0.5696724653244019,-0.92045259475708
-0.0112981796264648,1.2818424701690674,-0.0414287336170673,-0.5340736508369446,-0.035833366215229,-0.0434052534401416,0.0,0.0,-0.8241816759109497,-0.9435171484947203
-0.0116877555847167,1.2693451642990112,-0.0375445634126663,-0.5554629564285278,-0.0372311472892761,-0.0279582776129245,0.0,0.0,-0.2835856080055237,-0.8545660972595215
-0.0120161054655909,1.2563832998275757,-0.0318357981741428,-0.5761051177978516,-0.0382150337100029,-0.0196797009557485,0.0,0.0,-0.8928276300430298,-0.8449093699455261
-0.0122865680605173,1.2429383993148804,-0.0265431888401508,-0.5975688099861145,-0.0387163273990154,-0.0100266207009553,0.0,0.0,-0.242799162864685,-0.892609179019928
-0.0124985696747899,1.2290304899215698,-0.0211804062128067,-0.6181255578994751,-0.0387392304837703,-0.000458115566289,0.0,0.0,-0.6567087173461914,-0.8672192096710205
-0.0126506807282567,1.21464204788208,-0.0156134916469454,-0.6394808292388916,-0.0383398048579692,0.0079893488436937,0.0,0.0,-0.6800945401191711,-0.9648955464363098
-0.0127540584653615,1.1997897624969482,-0.0114726750180125,-0.6600671410560608,-0.0372248627245426,0.0223008431494236,0.0,0.0,-0.5442774295806885,-0.8379947543144226
-0.012820434756577,1.184464931488037,-0.0087652774527668,-0.6810475587844849,-0.0351173803210258,0.0421536117792129,0.0,0.0,-0.8485857248306274,-0.6171501874923706
-0.0128129962831735,1.168670415878296,-0.001470404327847,-0.7019304633140564,-0.0329391174018383,0.0435693673789501,0.0,0.0,-0.4765242338180542,-0.6742967963218689
-0.0127461431547999,1.1523983478546145,0.0040583540685474,-0.7231519818305969,-0.0303443912416696,0.0518994405865669,0.0,0.0,-0.5315557718276978,-0.9146342873573304
-0.0126244546845555,1.1356509923934937,0.0090145291760563,-0.7442601919174194,-0.0272219944745302,0.0624533519148826,0.0,0.0,-0.6019180417060852,-0.3147419691085815
-0.0123912813141942,1.1184273958206177,0.021068911999464,-0.7654563784599304,-0.0249990597367286,0.044462576508522,0.0,0.0,-0.4695724248886108,-0.5090158581733704
-0.0120965959504246,1.100730538368225,0.0268663801252841,-0.7864852547645569,-0.0224245525896549,0.0514946989715099,0.0,0.0,0.2001113891601562,-0.8113871216773987
-0.0118651390075683,1.0833133459091189,0.019909843802452,-0.774054765701294,-0.0192358270287513,0.0637748464941978,0.0,0.0,-0.4327318668365478,-0.6627202033996582
-0.0115749360993504,1.0654253959655762,0.0253730155527591,-0.7949807643890381,-0.0156371518969535,0.0719735473394393,0.0,0.0,-0.5410559177398682,0.249974250793457
-0.011174201965332,1.0470608472824097,0.03733941167593,-0.8161742687225342,-0.0129379807040095,0.0539832599461078,0.0,0.0,-0.4756131768226623,-0.5205209255218506
-0.0107132913544774,1.028225064277649,0.0429901257157325,-0.8371217846870422,-0.0098782274872064,0.061195008456707,0.0,0.0,-0.1284636855125427,-0.4187198877334595
-0.0101425172761082,1.0089126825332642,0.0548902451992034,-0.8583145141601562,-0.0077168350107967,0.0432280860841274,0.0,0.0,0.3944923877716064,-0.5447418093681335
-0.0094825746491551,0.9902018904685974,0.0635739415884018,-0.8315755128860474,-0.0053301732987165,0.0477331690490245,0.0,0.0,-0.7092646360397339,0.3614484071731567
-0.0087135313078761,0.971014440059662,0.0753946751356124,-0.8527676463127136,-0.0038401875644922,0.0297998245805501,0.0,0.0,-0.4817589521408081,-0.4136247634887695
-0.0078358650207519,0.9513503909111024,0.0871701687574386,-0.8739593625068665,-0.0032458007335662,0.0118875000625848,0.0,0.0,-0.3228588700294494,-0.9177042245864868
-0.0069302557967603,0.9312016367912292,0.0888178497552871,-0.8954995274543762,-0.0015279226936399,0.0343574658036232,0.0,0.0,-0.4944661259651184,-0.2020851969718933
-0.0059170722961425,0.9105760455131532,0.1004902273416519,-0.9166911840438844,-0.0007031218265183,0.0164960194379091,0.0,0.0,0.5331723690032959,-0.8659138679504395
-0.004845714662224,0.8905330300331116,0.1054262891411781,-0.8907989263534546,0.0009780963882803,0.0336241908371448,0.0,0.0,-0.0585023760795593,-0.8067663908004761
-0.0037345886230468,0.8700090646743774,0.1086170524358749,-0.9121793508529664,0.0034435873385518,0.0493097566068172,0.0,0.0,-0.6863023042678833,-0.4190508723258972
-0.0025177001953125,0.8490082621574402,0.1200979501008987,-0.9333708882331848,0.0050210654735565,0.0315493792295455,0.0,0.0,0.4245988130569458,-0.1555702090263366
-0.0012331962352618,0.828620195388794,0.1279070079326629,-0.9061363339424132,0.0055556404404342,0.0106917638331651,0.0,0.0,-0.3048364520072937,-0.803425133228302
9.498596045887098e-05,0.8077558875083923,0.1316277086734771,-0.9273098111152648,0.0067291194573044,0.0234696697443723,0.0,0.0,-0.5228831768035889,-0.6878259181976318
0.0014624595642089,0.7864199876785278,0.1348200440406799,-0.948279082775116,0.008631476201117,0.0380472354590892,0.0,0.0,0.2196689844131469,-0.8606516122817993
0.0029660225845873,0.7651852965354919,0.1475180685520172,-0.9437820315361024,0.0114376079291105,0.0561223328113555,0.0,0.0,0.4863131046295166,-0.93629390001297
0.0045932768844068,0.7438870072364807,0.1587727665901184,-0.9466212391853333,0.0153344767168164,0.0779374837875366,0.0,0.0,0.8212752342224121,-0.9771506190299988
0.0063568116165697,0.7229852080345154,0.1711339056491851,-0.9290326833724976,0.0204883385449647,0.1030772775411605,0.0,0.0,0.3313549757003784,-0.971269965171814
0.0081000328063964,0.7019476890563965,0.168049082159996,-0.935102105140686,0.0266848132014274,0.123929463326931,0.0,0.0,0.7696273326873779,-0.9794052839279176
0.0099095348268747,0.6809594035148621,0.1734883189201355,-0.9329621195793152,0.0340443588793277,0.1471911370754242,0.0,0.0,0.7633647918701172,-0.9623348116874696
0.0117959976196289,0.6602045297622681,0.1800216734409332,-0.9226634502410888,0.0425654090940952,0.170421153306961,0.0,0.0,0.8765759468078613,-0.961673617362976
0.0135191921144723,0.640389084815979,0.1628569662570953,-0.8809864521026611,0.0519085489213466,0.1868626326322555,0.0,0.0,0.4013607501983642,-0.8256429433822632
0.0151087762787938,0.6210911870002747,0.1488652825355529,-0.8580673336982727,0.0618835836648941,0.1995008885860443,0.0,0.0,0.6676681041717529,0.4403648376464844
0.016736889258027,0.6020836234092712,0.1536822617053985,-0.8451840877532959,0.0709141641855239,0.1806118637323379,0.0,0.0,0.6526470184326172,0.2097268104553222
0.0185574535280466,0.5834694504737854,0.1731081455945968,-0.8277450203895569,0.0797687619924545,0.1770919859409332,0.0,0.0,0.4481725692749023,-0.1814368367195129
0.0203639026731252,0.5653380155563354,0.1727909296751022,-0.8062794804573059,0.0875565111637115,0.1557551175355911,0.0,0.0,0.1067957878112793,-0.4043185114860534
0.0223029144108295,0.5471842885017395,0.1865398436784744,-0.8072836399078369,0.0948565155267715,0.146000251173973,0.0,0.0,0.8189489841461182,-0.5403346419334412
0.0242029186338186,0.5298642516136169,0.1823742985725402,-0.7702824473381042,0.1024233251810073,0.15133598446846,0.0,0.0,0.2001805305480957,0.0663205385208129
0.0262553207576274,0.5126121640205383,0.1979220360517501,-0.7672792077064514,0.1096797809004783,0.1451292484998703,0.0,0.0,0.1180572509765625,-0.6834628582000732
0.0282245632261037,0.495334267616272,0.189144879579544,-0.7684947848320007,0.117415651679039,0.1547173410654068,0.0,0.0,0.2783846855163574,0.2720382213592529
0.0302693359553813,0.4785106182098388,0.1971524655818939,-0.7483117580413818,0.1246950402855873,0.1455877125263214,0.0,0.0,0.6800045967102051,-0.2173971533775329
0.0324404723942279,0.4622564315795898,0.2099333107471466,-0.7230236530303955,0.1318406760692596,0.1429126560688018,0.0,0.0,0.0140174627304077,-0.2052357196807861
0.0346599593758583,0.4462852478027344,0.2153359651565551,-0.7104310989379883,0.1384263485670089,0.1317136436700821,0.0,0.0,-0.1306859850883484,-0.5637407898902893
0.036895178258419,0.429830938577652,0.2164123356342315,-0.7319806218147278,0.1455181986093521,0.1418370455503463,0.0,0.0,0.6198434829711914,-0.7122384309768677
0.0391395576298236,0.4134315550327301,0.216543823480606,-0.7296527028083801,0.1534005999565124,0.15764781832695,0.0,0.0,0.853478193283081,-0.9242694973945618
0.0411267280578613,0.3976806998252868,0.1899219453334808,-0.7009668350219727,0.1621825993061065,0.1756403446197509,0.0,0.0,0.8503055572509766,0.6681928634643555
0.0432747825980186,0.3823570609092712,0.2077217400074005,-0.6818411946296692,0.1692729443311691,0.1418067812919616,0.0,0.0,0.9045188426971436,0.0090190172195434
0.0453816428780555,0.3676072061061859,0.2041866481304168,-0.656303346157074,0.1757841408252716,0.1302239000797271,0.0,0.0,0.6460561752319336,0.1447682380676269
0.0474732406437397,0.3529713451862335,0.2033179104328155,-0.6511863470077515,0.1816428750753402,0.1171745881438255,0.0,0.0,0.7153403759002686,-0.6972984671592712
0.0493047721683979,0.3387104272842407,0.1769065111875534,-0.6345977783203125,0.187921792268753,0.1255784332752227,0.0,0.0,0.6109931468963623,0.7227261066436768
0.051096249371767,0.3252318799495697,0.1749554574489593,-0.5995856523513794,0.1921371966600418,0.0843084678053855,0.0,0.0,0.515866756439209,-0.3787277936935425
0.0529441833496093,0.3116917312145233,0.1808827072381973,-0.6022951602935791,0.1960680931806564,0.0786181539297103,0.0,0.0,0.729095458984375,-0.8174415826797485
0.0546131134033203,0.2989875078201294,0.1619171351194381,-0.5652997493743896,0.2010793685913086,0.1002256125211715,0.0,0.0,0.4857664108276367,0.505267858505249
0.0561717972159385,0.2864133715629577,0.1527174413204193,-0.5592817068099976,0.2042539417743683,0.0634916126728057,0.0,0.0,0.7051117420196533,-0.0547415018081665
0.0575156211853027,0.2743586599826813,0.1322256326675415,-0.5360649824142456,0.2064233422279358,0.0433880686759948,0.0,0.0,0.9426586627960204,-0.0500083565711975
0.0587595924735069,0.2629111409187317,0.1226236820220947,-0.509025514125824,0.2082176357507705,0.035885814577341,0.0,0.0,0.9675157070159912,0.2197341918945312
0.0596556663513183,0.2524139881134033,0.0890403911471366,-0.4666211009025574,0.2087854743003845,0.0113570773974061,0.0,0.0,0.918797492980957,0.8468552827835083
0.060574721544981,0.2424727082252502,0.0933310315012931,-0.4416345357894897,0.2073470652103424,-0.0287685394287109,0.0,0.0,0.9680979251861572,0.4657753705978393
0.0613588318228721,0.2327248454093933,0.0804849416017532,-0.4329494535923004,0.2052607834339141,-0.0417258143424987,0.0,0.0,0.9979009628295898,0.3981482982635498
0.062138844281435,0.2231015115976333,0.0801300704479217,-0.4274120628833771,0.2031219452619552,-0.0427769348025321,0.0,0.0,0.9978580474853516,-0.0555832982063293
0.062789537012577,0.2135918289422989,0.0677641853690147,-0.4222851991653442,0.2004035860300064,-0.054366935044527,0.0,0.0,0.9349887371063232,-0.6873013973236084
0.0631771087646484,0.2049567550420761,0.0404791757464408,-0.3835489153861999,0.1986642181873321,-0.0347869768738746,0.0,0.0,0.9897400140762328,0.8974632024765015
0.063524343073368,0.1973498612642288,0.0383800007402896,-0.3375963568687439,0.194982573390007,-0.0736332535743713,0.0,0.0,0.9533772468566896,-0.231292724609375
0.0635313019156456,0.1906492114067077,0.005274096969515,-0.2972134947776794,0.1903811395168304,-0.0920287519693374,0.0,0.0,0.8822076320648193,0.2160539627075195
0.0632948875427246,0.1839853078126907,-0.0181057881563901,-0.2954722046852112,0.1848257035017013,-0.1111090183258056,0.0,0.0,0.6004782915115356,0.8447268009185791
0.0629938095808029,0.1780115664005279,-0.0227038227021694,-0.2645968198776245,0.1774002313613891,-0.1485094875097274,0.0,0.0,0.4171748161315918,0.8308389186859131
0.0625384300947189,0.1722816526889801,-0.036146380007267,-0.2535653114318847,0.1679849922657013,-0.1883053481578827,0.0,0.0,-0.2134848833084106,0.555077314376831
0.062082577496767,0.1660881787538528,-0.0349890328943729,-0.2741006910800934,0.1573909819126129,-0.2118801176548004,0.0,0.0,-0.4410896301269531,0.9146773815155028
0.0616530403494834,0.159440740942955,-0.0304086953401565,-0.2941641807556152,0.1448694616556167,-0.2504306435585022,0.0,0.0,-0.1283718347549438,-0.7647665143013
0.0611257553100585,0.1523071378469467,-0.0413927361369133,-0.3159862458705902,0.1335613280534744,-0.2261627167463302,0.0,0.0,-0.0271496176719665,-0.2429933547973632
0.0605483055114746,0.1446983218193054,-0.0463246032595634,-0.3371874392032623,0.1221952438354492,-0.2273217141628265,0.0,0.0,-0.1638275980949401,-0.0900542736053466
0.0599176399409771,0.1366142779588699,-0.0516150705516338,-0.3583891987800598,0.1108074188232421,-0.227756455540657,0.0,0.0,-0.1615121364593505,-0.1504768133163452
0.0592305175960063,0.1280552446842193,-0.0572473034262657,-0.3795913457870483,0.0994338691234588,-0.2274712026119232,0.0,0.0,0.3854588270187378,-0.1420553922653198
0.0585678108036518,0.1195321902632713,-0.0553993359208107,-0.3781164288520813,0.088650994002819,-0.21565742790699,0.0,0.0,0.4046899080276489,-0.3384366035461426
0.0577817931771278,0.1114875674247741,-0.0677756965160369,-0.3569291830062866,0.0779309645295143,-0.214400365948677,0.0,0.0,-0.1306848526000976,-0.7358753681182861
0.0568759925663471,0.1029667928814888,-0.0812726691365242,-0.3782431483268738,0.0687193125486373,-0.1842332780361175,0.0,0.0,0.7567121982574463,-0.3660095334053039
0.0559867843985557,0.0950454771518707,-0.0803827419877052,-0.351689875125885,0.0602737069129943,-0.1689120382070541,0.0,0.0,0.5103194713592529,-0.1916562914848327
0.0551025383174419,0.0871034935116767,-0.0805021077394485,-0.3526768386363983,0.0524411238729953,-0.1566516906023025,0.0,0.0,0.4751791954040527,-0.5607754588127136
0.054028321057558,0.0793576315045356,-0.1007297784090042,-0.3440417945384979,0.0458237901329994,-0.1323467195034027,0.0,0.0,0.9144110679626464,0.2844864130020141
0.0529330261051654,0.07264044880867,-0.1035386174917221,-0.2983720898628235,0.0399100221693515,-0.1182754039764404,0.0,0.0,0.8028957843780518,0.211108922958374
0.0517126098275184,0.0663763135671615,-0.1162248998880386,-0.2782599627971649,0.0341585762798786,-0.1150288805365562,0.0,0.0,0.2141427993774414,0.7489635944366455
0.0503508560359478,0.0605170838534832,-0.1290392875671386,-0.2602635622024536,0.0271103475242853,-0.1409646123647689,0.0,0.0,0.1765886545181274,-0.0690752267837524
0.0489591583609581,0.0549295768141746,-0.1326587349176406,-0.2482330352067947,0.0206859149038791,-0.1284886747598648,0.0,0.0,0.6136207580566406,0.1468794345855713
0.0474202148616313,0.0499631278216838,-0.1475124806165695,-0.2206554561853408,0.0143834818154573,-0.1260487139225006,0.0,0.0,0.1487460136413574,0.7021986246109009
0.0457828529179096,0.0453063808381557,-0.1562559455633163,-0.2069153636693954,0.0069995070807635,-0.1476795971393585,0.0,0.0,0.0834832191467285,0.6318542957305908
0.0440921783447265,0.0406617261469364,-0.160700649023056,-0.206413060426712,-0.0012505941558629,-0.1650019586086273,0.0,0.0,0.4452521800994873,0.4709470272064209
0.0422163978219032,0.0363304950296878,-0.179182693362236,-0.192528948187828,-0.0095355780795216,-0.1656998693943023,0.0,0.0,0.5200920104980469,0.7445189952850342
0.0401660911738872,0.0322458855807781,-0.1953292936086654,-0.1816267669200897,-0.0191124007105827,-0.1915367096662521,0.0,0.0,0.4513804912567138,0.7765504121780396
0.0382073409855365,0.0286322683095932,-0.1852618008852005,-0.160770758986473,-0.0295942779630422,-0.2096374928951263,0.0,0.0,0.0722354650497436,0.2764413356781006
0.0362086296081543,0.0249003507196903,-0.1899548321962356,-0.1660874933004379,-0.0393919572234153,-0.1959536373615265,0.0,0.0,0.238730788230896,0.6037287712097168
0.0343127250671386,0.021544799208641,-0.1791986376047134,-0.1494391411542892,-0.0496575199067592,-0.2053112685680389,0.0,0.0,-0.0146535634994506,0.2956234216690063
0.0323283188045024,0.0177134610712528,-0.1885988861322403,-0.1706369966268539,-0.0593867897987365,-0.1945852190256118,0.0,0.0,0.3503501415252685,-0.0560561418533325
0.0304125789552927,0.0144414519891142,-0.1828455030918121,-0.1457943469285965,-0.0680236592888832,-0.1727375239133834,0.0,0.0,-0.0229489803314209,0.2881182432174682
0.0284068100154399,0.0106930108740925,-0.1924187839031219,-0.1669885665178299,-0.0760921165347099,-0.1613693535327911,0.0,0.0,0.2072044610977172,0.6648867130279541
0.02640276029706,0.0073617077432572,-0.1914931088685989,-0.148533895611763,-0.0849084258079528,-0.1763264387845993,1.0,0.0,0.6574134826660156,0.8627231121063232
0.0247275345027446,0.0050836540758609,-0.1682950109243393,-0.1014037504792213,-0.0834403559565544,0.0302903912961483,1.0,0.0,0.4160219430923462,0.9296395778656006
0.0234234817326068,0.0033091760706156,-0.1450523436069488,-0.0781226605176925,-0.068906657397747,0.2907139658927917,1.0,0.0,0.2446086406707763,0.9735820293426514
0.0222537033259868,0.0020765399094671,-0.1407514363527298,-0.0538697317242622,-0.0453586988151073,0.4710065424442291,1.0,0.0,0.1535829305648803,0.9179692268371582
0.0211234092712402,0.0010476803872734,-0.1396906226873397,-0.0451390780508518,-0.018982246518135,0.5275779962539673,1.0,0.0,0.0770002603530883,0.9479154348373412
0.0200383178889751,6.742239202139899e-05,-0.1320827752351761,-0.0434322729706764,0.0042955898679792,0.4655561447143554,1.0,0.0,-0.023133099079132,0.9897222518920898
0.0189387314021587,-0.0006945753120817,-0.1123739033937454,-0.0338737405836582,0.0066757933236658,0.0476068928837776,0.0,1.0,-0.2229464650154113,0.8464052677154541
0.0178162567317485,-0.0013481401838362,-0.0957499593496322,-0.0290584862232208,-0.0096212700009346,-0.3259461522102356,0.0,1.0,-0.1656862497329712,0.4972853660583496
0.0168801303952932,-0.0017908120062202,-0.0904117599129676,-0.0197289064526557,-0.0127008119598031,-0.0614814572036266,1.0,1.0,-0.7627890110015869,0.9931864738464355
0.0161684993654489,-0.0017111683264374,-0.0712827891111373,0.0034264349378645,-0.0121343350037932,0.0118843745440244,1.0,1.0,-0.9587920308113098,0.99544095993042
0.015688419342041,-0.0011884236009791,-0.0520211681723594,0.0232564993202686,-0.008164114318788,0.0794192403554916,1.0,1.0,-0.9221900701522828,0.9979610443115234
