x_pos,y_pos,x_vel,y_vel,angle,ang_vel,leg_1,leg_2,main_booster,lat_booster
-0.0015263557434082,1.4029169082641602,-0.1539758145809173,-0.3557036817073822,0.0011928241001442,0.0234872698783874,0.0,0.0,-0.0924021005630493,0.6418546438217163
-0.0030010223854333,1.3942259550094604,-0.1466700136661529,-0.3862625658512115,0.0004018244508188,-0.0158206671476364,0.0,0.0,-0.0126175284385681,0.565375804901123
-0.004424381069839,1.3848228454589844,-0.1395819932222366,-0.4179198443889618,-0.0023223543539643,-0.0544886402785778,0.0,0.0,0.4260857105255127,0.8334112167358398
-0.0059000016190111,1.3753565549850464,-0.1424026191234588,-0.4207413792610168,-0.0074247615411877,-0.102057471871376,0.0,0.0,0.1902389526367187,-0.0388268828392028
-0.0072822570800781,1.3658864498138428,-0.1329592615365982,-0.4209270179271698,-0.0126369018107652,-0.1042525023221969,0.0,0.0,0.1003451347351074,-0.1641439795494079
-0.0085719106718897,1.3562499284744265,-0.1235777884721756,-0.4283464252948761,-0.0179616063833236,-0.1065039858222007,0.0,0.0,0.3179981708526611,0.4185377359390259
-0.0098747257143259,1.3465975522994995,-0.1242674738168716,-0.4290754199028015,-0.0239141229540109,-0.1190610155463218,0.0,0.0,0.3778842687606811,-0.6233189105987549
-0.0110806468874216,1.3370459079742432,-0.1155786141753196,-0.4246089160442352,-0.0288776494562625,-0.0992795303463935,0.0,0.0,-0.4401204586029053,-0.0735936164855957
-0.0122906686738133,1.326786994934082,-0.1154513508081436,-0.4560688436031341,-0.0343683324754238,-0.1098238974809646,0.0,0.0,-0.2872854471206665,0.1078077554702758
-0.0135049819946289,1.3158210515975952,-0.1153600662946701,-0.4875230491161346,-0.040376354008913,-0.1201711073517799,0.0,0.0,0.4035921096801758,0.126680850982666
-0.0146304126828908,1.304900884628296,-0.1063015460968017,-0.4855264723300934,-0.0465457588434219,-0.1233995929360389,0.0,0.0,0.2348765134811401,-0.7533825039863586
-0.0157419200986623,1.2938634157180786,-0.1060026884078979,-0.490718275308609,-0.0516457892954349,-0.1020101308822631,0.0,0.0,0.2908235788345337,0.0972375869750976
-0.0167289730161428,1.2829298973083496,-0.0935417041182518,-0.4861256778240204,-0.0567546971142292,-0.1021876335144043,0.0,0.0,-0.5981618165969849,-0.87779301404953
-0.0177832599729299,1.271286129951477,-0.1013433560729026,-0.5176597833633423,-0.0608015246689319,-0.0809440836310386,0.0,0.0,-0.2582844495773315,-0.6664039492607117
-0.0188836101442575,1.2589458227157593,-0.1065064892172813,-0.548602819442749,-0.0643017441034317,-0.0700105652213096,0.0,0.0,0.2650820016860962,-0.9349676966667176
-0.0199530608952045,1.2462258338928225,-0.1048726066946983,-0.5654211640357971,-0.0663468390703201,-0.0409056767821311,0.0,0.0,0.4254511594772339,-0.7325974702835083
-0.0209060665220022,1.2339043617248535,-0.0944891721010208,-0.5476581454277039,-0.0671539381146431,-0.0161433275789022,0.0,0.0,-0.6011374592781067,-0.5758912563323975
-0.0219016075134277,1.2208741903305054,-0.0991867929697036,-0.5791437029838562,-0.067520372569561,-0.0073293866589665,0.0,0.0,-0.6716062426567078,-0.4077056050300598
-0.0229052547365427,1.2071365118026731,-0.0995768755674362,-0.610595166683197,-0.068305104970932,-0.0156961269676685,0.0,0.0,-0.4377570152282715,-0.2512033581733703
-0.0239175800234079,1.192691683769226,-0.1000295877456665,-0.6420491337776184,-0.0694940164685249,-0.0237803719937801,0.0,0.0,0.4533747434616089,-0.8198974132537842
-0.0248317718505859,1.1785287857055664,-0.0916480273008346,-0.6294490098953247,-0.0692621618509292,0.0046372795477509,0.0,0.0,-0.6759277582168579,-0.6834088563919067
-0.0258086211979389,1.163660168647766,-0.098884992301464,-0.6607772707939148,-0.0680740401148796,0.0237644501030445,0.0,0.0,-0.7495617270469666,-0.1252204179763794
-0.0267956741154193,1.1480841636657717,-0.0995437055826187,-0.692229151725769,-0.0672453418374061,0.0165756065398454,0.0,0.0,-0.1770801544189453,-0.403815746307373
-0.0277934074401855,1.1318007707595823,-0.1002714484930038,-0.7236830592155457,-0.0667594522237777,0.0097185280174016,0.0,0.0,0.0481026172637939,-0.6175074577331543
-0.0289254188537597,1.1154378652572632,-0.1144651919603347,-0.7271852493286133,-0.0654980838298797,0.0252296440303325,0.0,0.0,0.176263689994812,0.2998354434967041
-0.0301408767700195,1.0991065502166748,-0.1220190078020095,-0.7258157730102539,-0.0650260373950004,0.0094406586140394,0.0,0.0,0.6457237005233765,-0.353446364402771
-0.0313178077340126,1.0831506252288818,-0.1178953051567077,-0.7091444134712219,-0.064827986061573,0.003961191046983,0.0,0.0,-0.1047646403312683,0.0799176692962646
-0.0325077064335346,1.066487193107605,-0.1189121827483177,-0.7405974268913269,-0.0649035945534706,-0.0015119488816708,0.0,0.0,0.8108072280883789,-0.5871244668960571
-0.0338548645377159,1.0504114627838137,-0.135156363248825,-0.7144591212272644,-0.0644729658961296,0.0086125098168849,0.0,0.0,0.3505107164382934,-0.5560622215270996
-0.0352531448006629,1.0342289209365845,-0.1410985738039016,-0.7191734313964844,-0.063213400542736,0.025191307067871,0.0,0.0,0.3399227857589721,0.8815336227416992
-0.0365351662039756,1.018368363380432,-0.1275089085102081,-0.7049415707588196,-0.063908539712429,-0.0139025868847966,0.0,0.0,0.6563863754272461,-0.4043024182319641
-0.0378822311758995,1.0024654865264893,-0.1334391683340072,-0.7068465352058411,-0.0651630237698555,-0.0250897221267223,0.0,0.0,0.5767431259155273,-0.7886934876441956
-0.039344310760498,0.987022340297699,-0.1461982429027557,-0.6863635182380676,-0.0651741400361061,-0.0002223470946773,0.0,0.0,0.2962114810943603,0.3611910343170166
-0.0408542640507221,0.9713001251220704,-0.1505808681249618,-0.6987841725349426,-0.065576285123825,-0.0080430693924427,0.0,0.0,-0.8511121869087219,0.1584944725036621
-0.0423810966312885,0.9548704028129578,-0.1521255075931549,-0.7302364706993103,-0.066118523478508,-0.0108450120314955,0.0,0.0,0.1186361312866211,0.1061210632324218
-0.0438791289925575,0.9384983777999878,-0.1491884291172027,-0.7276744842529297,-0.0667242780327797,-0.0121151776984334,0.0,0.0,-0.613832950592041,-0.1408067345619201
-0.0453950874507427,0.9214187860488892,-0.1508811861276626,-0.759126603603363,-0.0674308836460113,-0.0141323003917932,0.0,0.0,-0.2954471111297607,-0.4771870374679565
-0.0469294562935829,0.903631627559662,-0.1526467949151992,-0.7905785441398621,-0.0682188123464584,-0.015758391469717,0.0,0.0,0.7498191595077515,-0.6640373468399048
-0.0485191345214843,0.8864896893501282,-0.1593360006809234,-0.7618474364280701,-0.067851111292839,0.0073538040742278,0.0,0.0,0.4334554672241211,-0.2194718718528747
-0.0500680916011333,0.869426965713501,-0.1553349196910858,-0.7583249807357788,-0.0674125999212265,0.0087701901793479,0.0,0.0,-0.4152871370315552,-0.1247550249099731
-0.0516369827091693,0.8516566157341003,-0.1573124527931213,-0.7897766828536987,-0.0669977292418479,0.0082976333796978,0.0,0.0,0.5414016246795654,-0.3551193475723266
-0.0530788414180278,0.8338979482650757,-0.1451358050107956,-0.7892304062843323,-0.0660550519824028,0.0188535191118717,0.0,0.0,0.378490686416626,-0.0715348124504089
-0.0544434562325477,0.815815269947052,-0.1378099918365478,-0.803615391254425,-0.0647237971425056,0.0266248919069767,0.0,0.0,0.7670788764953613,0.6249895095825195
-0.0556295402348041,0.7978540658950806,-0.1190186515450477,-0.7982574105262756,-0.064319297671318,0.008090048097074,0.0,0.0,0.4605090618133545,-0.1165953874588012
-0.056856632232666,0.7795782685279846,-0.1230020374059677,-0.8122420907020569,-0.0640316680073738,0.0057526277378201,0.0,0.0,0.8113514184951782,0.301256775856018
-0.0580324158072471,0.761138379573822,-0.1181667447090148,-0.8195245265960693,-0.0634444057941436,0.0117450738325715,0.0,0.0,0.8301810026168823,0.5719449520111084
-0.0590825080871582,0.7427175641059875,-0.1047296673059463,-0.8187142014503479,-0.063715711236,-0.0054261898621916,0.0,0.0,0.5789873600006104,-0.0708617568016052
-0.0602121353149414,0.7247922420501709,-0.1122886165976524,-0.796714186668396,-0.0643841475248336,-0.0133685078471899,0.0,0.0,0.7229695320129395,0.2683861255645752
-0.0614504814147949,0.7074028253555298,-0.1226309388875961,-0.7729173302650452,-0.0655770227313041,-0.0238575916737318,0.0,0.0,0.7032999992370605,0.3498368263244629
-0.0627001747488975,0.6900926232337952,-0.1237937435507774,-0.7693935632705688,-0.0667399317026138,-0.0232581719756126,0.0,0.0,0.3863896131515503,-0.2120599746704101
-0.0638220757246017,0.6727797389030457,-0.1117251515388488,-0.7694791555404663,-0.0672003701329231,-0.0092084631323814,0.0,0.0,0.5963351726531982,-0.1574708223342895
-0.0649763122200965,0.6558300256729126,-0.1148584112524986,-0.753345251083374,-0.0677582547068595,-0.0111578833311796,0.0,0.0,0.2882046699523926,0.4688963890075683
-0.0660469979047775,0.6386826038360596,-0.1070749163627624,-0.7621060609817505,-0.0677483156323432,0.0001988065487239,0.0,0.0,0.8701226711273193,-0.3498678803443908
-0.0670782104134559,0.6221783757209778,-0.1033293753862381,-0.7335143685340881,-0.0675349757075309,0.0042668618261814,0.0,0.0,0.6029927730560303,0.2754518985748291
-0.0679586380720138,0.605659544467926,-0.0891420096158981,-0.7341187000274658,-0.0664537400007247,0.0216247700154781,0.0,0.0,0.1047354936599731,-0.0513985157012939
-0.0689077377319336,0.5889108777046204,-0.0959186106920242,-0.7443408370018005,-0.0654569789767265,0.0199350286275148,0.0,0.0,0.845484733581543,-0.0702654123306274
-0.0697198882699012,0.5727766752243042,-0.0829331651329994,-0.717004120349884,-0.0637519210577011,0.0341011323034763,0.0,0.0,0.6465003490447998,0.5155235528945923
-0.070327952504158,0.5569248795509338,-0.0621403455734252,-0.7044674158096313,-0.0624383725225925,0.0262710191309452,0.0,0.0,0.5522689819335938,0.2555007934570312
-0.0708442702889442,0.5415168404579163,-0.0535254552960395,-0.6847256422042847,-0.0605565533041954,0.0376362316310405,0.0,0.0,0.3835486173629761,0.4454009532928467
-0.0714109390974044,0.5263920426368713,-0.0585295148193836,-0.6721417307853699,-0.0587166100740432,0.0367988869547843,0.0,0.0,-0.1383975148200988,0.4167333841323852
-0.0720044150948524,0.5105593800544739,-0.0614751577377319,-0.7035921216011047,-0.0566144026815891,0.0420441552996635,0.0,0.0,0.7464253902435303,0.3638381958007812
-0.0726886764168739,0.4951382875442505,-0.0703320354223251,-0.6853101849555969,-0.0547316446900367,0.0376553460955619,0.0,0.0,0.6716502904891968,0.8218531608581543
-0.073168471455574,0.4797743856906891,-0.0487488321959972,-0.6828126907348633,-0.0539633519947528,0.0153657849878072,0.0,0.0,0.8754779100418091,0.3559131622314453
-0.0736110657453537,0.4647425711154938,-0.0454510785639286,-0.668035089969635,-0.0527849160134792,0.0235688854008913,0.0,0.0,0.7910680770874023,0.6539363861083984
-0.073997214436531,0.4496442377567291,-0.0388152450323104,-0.6710297465324402,-0.0525930598378181,0.0038371984846889,0.0,0.0,0.9425771236419678,0.3235357999801636
-0.0745195373892784,0.4348904490470886,-0.052041970193386,-0.6557296514511108,-0.0527746304869651,-0.0036312895826995,0.0,0.0,0.93314790725708,0.956539273262024
-0.07491235435009,0.420931726694107,-0.0375384874641895,-0.6204498410224915,-0.0545034669339656,-0.0345767363905906,0.0,0.0,0.4769665002822876,0.9393703937530518
-0.0751610770821571,0.4066326916217804,-0.0216263718903064,-0.635633647441864,-0.0577080287039279,-0.0640913844108581,0.0,0.0,0.9159283638000488,0.3650689125061035
-0.0753485709428787,0.3931057155132293,-0.0159719306975603,-0.6013101935386658,-0.0604512616991996,-0.0548645555973053,0.0,0.0,0.7762525081634521,-0.2882266044616699
-0.0756333321332931,0.3796419501304626,-0.0255615748465061,-0.5985063910484314,-0.0633417069911956,-0.0578089132905006,0.0,0.0,0.3240606784820556,-0.3633779287338257
-0.0759842842817306,0.3662897646427154,-0.0321600511670112,-0.5935561060905457,-0.0662476941943168,-0.0581194087862968,0.0,0.0,0.8736791610717773,0.6233130693435669
-0.0762288123369216,0.3532787561416626,-0.0206974633038043,-0.578437864780426,-0.0699678212404251,-0.0744027271866798,0.0,0.0,0.978184700012207,-0.3324761986732483
-0.0765833854675293,0.3410893082618713,-0.0313058570027351,-0.5419550538063049,-0.0740697681903839,-0.0820390358567237,0.0,0.0,0.8765778541564941,0.4855557680130005
-0.0768326744437217,0.329163908958435,-0.0215172003954648,-0.5301902294158936,-0.0774512439966201,-0.0676294416189193,0.0,0.0,-0.7682644128799438,-0.4559884071350097
-0.0771084800362587,0.3165306448936462,-0.0244995523244142,-0.5616404414176941,-0.0804960578680038,-0.0608961805701255,0.0,0.0,0.9818832874298096,-0.7965755462646484
-0.0773539543151855,0.3037609755992889,-0.0236119963228702,-0.5675922632217407,-0.0814198777079582,-0.0184765867888927,0.0,0.0,0.9363799095153807,-0.8330461382865906
-0.0776994675397872,0.2908827066421509,-0.0355506464838981,-0.5723124146461487,-0.0804309695959091,0.0197780467569828,0.0,0.0,0.921135663986206,0.4472835063934326
-0.0780061706900596,0.2786766588687897,-0.0319677516818046,-0.5424215197563171,-0.0791459828615188,0.0256998427212238,0.0,0.0,0.847834587097168,-0.236530065536499
-0.0781767815351486,0.2671164274215698,-0.0191185250878334,-0.5136843323707581,-0.0771051049232482,0.0408174842596054,0.0,0.0,0.7889118194580078,-0.5537983179092407
-0.0784767121076583,0.2561972439289093,-0.0331584736704826,-0.4851331412792206,-0.0739742442965507,0.0626172125339508,0.0,0.0,0.0616894960403442,0.8837037086486816
-0.0788140296936035,0.2448826879262924,-0.0354582034051418,-0.5027852654457092,-0.0722702518105506,0.0340799577534198,0.0,0.0,0.1408473253250122,0.6149612665176392
-0.0790561661124229,0.2336737066507339,-0.0250935964286327,-0.4981373250484466,-0.0714011415839195,0.0173821840435266,0.0,0.0,0.6419692039489746,0.8117331266403198
-0.079328253865242,0.2226174175739288,-0.0266017820686101,-0.4914182424545288,-0.0720017105340957,-0.0120114050805568,0.0,0.0,0.7407158613204956,0.3889364004135132
-0.0796296149492263,0.2119278460741043,-0.0296032913029193,-0.4751165211200714,-0.0725301206111908,-0.0105681512504816,0.0,0.0,0.0784953832626342,0.6334933042526245
-0.0798790007829666,0.2012120336294174,-0.0234645493328571,-0.4763329625129699,-0.0739925429224968,-0.0292483232915401,0.0,0.0,0.9162026643753052,0.0371057987213134
-0.079999640583992,0.1907863914966583,-0.0113925635814666,-0.4633945226669311,-0.074651338160038,-0.0131760584190487,0.0,0.0,0.7145715951919556,0.6056578159332275
-0.0800411254167556,0.1801699250936508,-0.0026658980641514,-0.4719192385673523,-0.0761181786656379,-0.0293368753045797,0.0,0.0,0.8795902729034424,-0.0975560545921325
-0.079963207244873,0.1695184856653213,0.0084537649527192,-0.4734286963939667,-0.0767660811543464,-0.0129581494256854,0.0,0.0,0.8990294933319092,-0.2213549613952636
-0.079686164855957,0.1591213792562484,0.0272410996258258,-0.4620723128318786,-0.076303981244564,0.0092420121654868,0.0,0.0,0.7839335203170776,-0.6597931385040283
-0.079285904765129,0.148635521531105,0.037508051842451,-0.4659117460250854,-0.0738128423690795,0.0498228296637535,0.0,0.0,0.8812658786773682,-0.1952518224716186
-0.0788473114371299,0.1387221366167068,0.0410504974424839,-0.4404565691947937,-0.0710309371352195,0.0556379184126853,0.0,0.0,0.7432475090026855,-0.436639666557312
-0.0783368125557899,0.129295065999031,0.0477718152105808,-0.4188298285007477,-0.0677814185619354,0.0649902671575546,0.0,0.0,0.7590423822402954,5.4836273193359375e-05
-0.0776623710989952,0.1202096790075302,0.063223049044609,-0.4036110043525696,-0.0636063441634178,0.0835014805197715,0.0,0.0,0.6347073316574097,-0.7314795851707458
-0.076931856572628,0.1108876764774322,0.0668310523033142,-0.4140610992908478,-0.0574517287313938,0.1230924725532531,0.0,0.0,0.8707809448242188,-0.4621791839599609
-0.0762421637773513,0.1017268970608711,0.0627153441309928,-0.4069186151027679,-0.0512699112296104,0.1236362680792808,0.0,0.0,0.9656600952148438,0.285749077796936
-0.0754127502441406,0.0933888033032417,0.0759079232811927,-0.3703557550907135,-0.0443251579999923,0.1388952434062957,0.0,0.0,0.7893040180206299,0.3907723426818847
-0.0745937377214431,0.0852689370512962,0.074694700539112,-0.3606869876384735,-0.0372057780623436,0.1423877477645874,0.0,0.0,0.8230565786361694,0.3955028057098388
-0.0738906860351562,0.07776540517807,0.0634620487689971,-0.3333374559879303,-0.0304360520094633,0.1353943794965744,0.0,0.0,0.4942654371261596,0.9403258562088012
-0.0730144530534744,0.0704981163144111,0.0822795182466507,-0.322892278432846,-0.0251631624996662,0.1054579764604568,0.0,0.0,0.5369601249694824,0.7701796293258667
-0.0721237212419509,0.0635752975940704,0.0851006209850311,-0.3076186180114746,-0.0212431065738201,0.0784009546041488,0.0,0.0,0.4002398252487182,0.0337952375411987
-0.0712972655892372,0.0568989627063274,0.0787370949983596,-0.29667729139328,-0.0173815079033374,0.0772320479154586,0.0,0.0,0.3364613056182861,0.4407187700271606
-0.070490263402462,0.0501196943223476,0.0766284167766571,-0.3012565076351166,-0.0133541701361536,0.0805465579032898,0.0,0.0,0.8352118730545044,0.923587441444397
-0.0697497352957725,0.0436372607946395,0.0718179196119308,-0.2880913913249969,-0.0111557394266128,0.0439688637852668,0.0,0.0,0.9001462459564209,0.8433108329772949
-0.0691290870308876,0.037350807338953,0.0616765804588794,-0.2793956100940704,-0.0107720764353871,0.0076730297878384,0.0,0.0,0.8041578531265259,0.8853216171264648
-0.0683039650321006,0.0315357074141502,0.0834420099854469,-0.2584547102451324,-0.0116873895749449,-0.0183062590658664,0.0,0.0,0.6180438995361328,-0.1966855525970459
-0.0674150437116622,0.0255538802593946,0.0893004834651947,-0.2658615708351135,-0.0120968194678425,-0.008188440464437,0.0,0.0,0.9342303276062012,0.5146420001983643
-0.0662940964102745,0.0202040523290634,0.1127816289663314,-0.2377753257751464,-0.0127707356587052,-0.01347819250077,0.0,0.0,0.6491751670837402,-0.7545968890190125
-0.065245434641838,0.0153162814676761,0.1038575172424316,-0.2172249406576156,-0.0117811569944024,0.0197916105389595,0.0,0.0,0.7145702838897705,0.6204187870025635
-0.0639735236763954,0.0110544301569461,0.1268417984247207,-0.1894114017486572,-0.0114297308027744,0.0070282979868352,0.0,0.0,0.437466025352478,-0.6904267072677612
-0.0626714676618576,0.0068411445245146,0.1281264871358871,-0.1872448176145553,-0.0093783801421523,0.0410269424319267,0.0,0.0,0.4161891937255859,-0.6738184690475464
-0.0614157691597938,0.0029776191804558,0.1219671741127967,-0.1716945469379425,-0.0058144875802099,0.0712778121232986,0.0,0.0,0.5301607847213745,-0.2511063814163208
-0.0600906386971473,-0.0004997396608814,0.1284583956003189,-0.1545402556657791,-0.0018147855298593,0.0799939706921577,0.0,0.0,0.3596668243408203,-0.5615506768226624
-0.0586301796138286,-0.0034744525328278,0.1226070672273635,-0.1323410123586654,0.0213140826672315,0.4625769257545471,1.0,1.0,0.9372353553771972,0.5599005222320557
-0.0574197769165039,-0.0052748229354619,0.1064418777823448,-0.080522283911705,0.034365925937891,0.2592898905277252,1.0,1.0,0.4054068326950073,-0.8553612232208252
-0.0565876960754394,-0.0062082670629024,0.076015681028366,-0.041672296822071,0.0414403304457664,0.1414532661437988,1.0,1.0,-0.5217244029045105,-0.8682888150215149
-0.0559605583548545,-0.0068398378789424,0.0578799769282341,-0.0282142683863639,0.0462045148015022,0.0952552109956741,1.0,1.0,-0.5023044347763062,-0.05057954788208
-0.0554590225219726,-0.0071173571050167,0.0480210557579994,-0.0124033894389867,0.0482919290661811,0.041725005954504,1.0,1.0,-0.3206634521484375,0.1575262546539306
-0.0550827980041503,-0.0070420764386653,0.0381712801754474,0.0033601443283259,0.0477285832166671,-0.0112857110798358,1.0,1.0,-0.3350151777267456,-0.1006311774253845
-0.0548307411372661,-0.0066208625212311,0.0283830612897872,0.0188155658543109,0.0445764176547527,-0.0630590319633483,1.0,1.0,-0.3564014434814453,-0.1211085319519043
-0.0546176917850971,-0.0059970524162054,0.0259157456457614,0.0278639663010835,0.0400016531348228,-0.0915312319993972,1.0,1.0,-0.4459309577941894,-0.2615571618080139
