x_pos,y_pos,x_vel,y_vel,angle,ang_vel,leg_1,leg_2,main_booster,lat_booster
-0.0015394210349768,1.4029085636138916,-0.1552295684814453,-0.3560622632503509,0.0011513867648318,0.0226668547838926,0.0,0.0,0.2144303321838379,0.7293514013290405
-0.0029949187301099,1.394709825515747,-0.1446310579776764,-0.36439049243927,0.0002483237185515,-0.018062237650156,0.0,0.0,-0.0335740447044372,0.3779435157775879
-0.0044662477448582,1.3857945203781128,-0.1455557644367218,-0.3962296843528747,-0.001307152560912,-0.0311126895248889,0.0,0.0,0.3802487850189209,0.8548221588134766
-0.0059983255341649,1.3767870664596558,-0.1491132229566574,-0.4003371000289917,-0.0053608273155987,-0.0810810700058937,0.0,0.0,0.141614556312561,0.3307018280029297
-0.0074545862153172,1.3677393198013306,-0.1412746012210846,-0.4021458625793457,-0.0096595678478479,-0.0859828814864158,0.0,0.0,-0.0408428311347961,-0.1303146481513977
-0.0089263916015625,1.3579760789871216,-0.1421423256397247,-0.4339620471000671,-0.0146412132307887,-0.0996418595314025,0.0,0.0,0.1373176574707031,-0.3598866462707519
-0.0104233743622899,1.3480942249298096,-0.1438856124877929,-0.4392593204975128,-0.0203875061124563,-0.114936277270317,0.0,0.0,0.4024027585983276,0.4312775135040283
-0.0117976190522313,1.3383169174194336,-0.1315177679061889,-0.4346391856670379,-0.0262278318405151,-0.1168174147605896,0.0,0.0,0.2454876899719238,-0.0423133969306945
-0.0131795881316065,1.3287707567214966,-0.1315304338932037,-0.4244011342525482,-0.0328178666532039,-0.1318127959966659,0.0,0.0,-0.0820186734199523,0.1535236835479736
-0.0145764350891113,1.3185096979141235,-0.132306307554245,-0.4562221169471741,-0.0401202552020549,-0.1460610926151275,0.0,0.0,0.0577855110168457,0.0379842519760131
-0.0159175880253314,1.3081012964248655,-0.1262762695550918,-0.4628230929374695,-0.047879833728075,-0.1552059352397918,0.0,0.0,-0.1314178705215454,-0.2729815244674682
-0.0172733310610055,1.2969783544540403,-0.1269969791173935,-0.4946469664573669,-0.0563643015921115,-0.1697048991918563,0.0,0.0,-0.0161818861961364,-0.3976595401763916
-0.0186431892216205,1.2851413488388062,-0.1276865601539611,-0.5264661908149719,-0.065578669309616,-0.184304341673851,0.0,0.0,-0.0929641127586364,0.4447858333587646
-0.0200270656496286,1.272590398788452,-0.1283439844846725,-0.5582872629165649,-0.075527936220169,-0.1990034580230713,0.0,0.0,0.5624251365661621,-0.3320295810699463
-0.0212326049804687,1.26047682762146,-0.110412023961544,-0.5389236211776733,-0.085588127374649,-0.2012222558259964,0.0,0.0,-0.4496423006057739,0.4446103572845459
-0.0224514007568359,1.2476494312286377,-0.1110025271773338,-0.5707584023475647,-0.0963925421237945,-0.2161072939634323,0.0,0.0,0.3958278894424438,-0.8929551243782043
-0.0235510822385549,1.2351893186569214,-0.1002808362245559,-0.5544367432594299,-0.1060236617922782,-0.1926398575305938,0.0,0.0,-0.7010412216186523,-0.8978098034858704
-0.0247178077697753,1.222016453742981,-0.1076077595353126,-0.5861300826072693,-0.1150451526045799,-0.180445984005928,0.0,0.0,0.5377578735351562,-0.9292848110198976
-0.0257817264646291,1.2092468738555908,-0.0985586196184158,-0.5681520104408264,-0.1228418350219726,-0.1559479683637619,0.0,0.0,0.0772310495376586,-0.9305779933929444
-0.0269473083317279,1.1963372230529783,-0.1098363399505615,-0.5743259191513062,-0.1295397877693176,-0.1339714229106903,0.0,0.0,0.0850504636764526,-0.9756680130958556
-0.0280372612178325,1.183450698852539,-0.1034416556358337,-0.5732223987579346,-0.1350706368684768,-0.1106271594762802,0.0,0.0,-0.6056404709815979,-0.9637189507484436
-0.029212761670351,1.1698596477508545,-0.1131388768553733,-0.604448676109314,-0.1394825577735901,-0.0882458314299583,0.0,0.0,-0.0106450319290161,-0.9348180890083312
-0.0304566379636526,1.155565619468689,-0.1206722632050514,-0.6356520056724548,-0.1431974619626999,-0.0743045210838317,0.0,0.0,0.69167160987854,-0.9778319001197816
-0.0316632278263568,1.1410202980041504,-0.1182254180312156,-0.6466954946517944,-0.1456278413534164,-0.048611719161272,0.0,0.0,0.2967705726623535,-0.805608332157135
-0.0329944603145122,1.126554012298584,-0.1313889324665069,-0.643118143081665,-0.147355630993843,-0.0345590226352214,0.0,0.0,-0.2515268921852112,-0.909995973110199
-0.0344250686466693,1.1113766431808472,-0.1428266912698745,-0.6745742559432983,-0.1475942134857177,-0.0047717383131384,0.0,0.0,0.2873435020446777,-0.9076680541038512
-0.0358484275639057,1.0963455438613892,-0.1431480944156646,-0.667968213558197,-0.1467883884906768,0.0161165073513984,0.0,0.0,0.0351946353912353,-0.1990056633949279
-0.0372857078909873,1.0813857316970823,-0.1433733701705932,-0.6649236679077148,-0.14713916182518,-0.0070155696012079,0.0,0.0,0.902327299118042,-0.4704283475875854
-0.0387487411499023,1.0670678615570068,-0.1444754302501678,-0.636526346206665,-0.1489644795656204,-0.0365063585340976,0.0,0.0,0.9209206104278564,-0.6977108120918274
-0.0402158722281456,1.0528923273086548,-0.1454353630542755,-0.6301472187042236,-0.1502410769462585,-0.0255323853343725,0.0,0.0,0.4625612497329712,-0.1976847052574157
-0.0415612235665321,1.0391106605529783,-0.1325521469116211,-0.6127219796180725,-0.1522235721349716,-0.0396499708294868,0.0,0.0,-0.1860741376876831,-0.0800832509994506
-0.042912770062685,1.0246148109436035,-0.1323905736207962,-0.6445422768592834,-0.1549899131059646,-0.0553268268704414,0.0,0.0,-0.7436397075653076,-0.8434333801269531
-0.0443440452218055,1.0094304084777832,-0.141497403383255,-0.6750349402427673,-0.1566178202629089,-0.032558150589466,0.0,0.0,0.5500936508178711,-0.9501603841781616
-0.0458695404231548,0.9940581321716307,-0.1519610434770584,-0.6832730770111084,-0.1572104841470718,-0.0118534192442893,0.0,0.0,-0.3356829881668091,-0.7339558601379395
-0.0474551208317279,0.9779866337776184,-0.158602774143219,-0.7142860293388367,-0.1571602076292038,0.0010056095197796,0.0,0.0,0.7938060760498047,-0.6728374361991882
-0.0489467605948448,0.9624301195144652,-0.1498263627290725,-0.6913335919380188,-0.1564978510141372,0.0132471229881048,0.0,0.0,0.113470435142517,-0.8519628643989563
-0.0504810325801372,0.9466304183006288,-0.1550005376338958,-0.7020458579063416,-0.1549292355775833,0.0313718654215335,0.0,0.0,-0.1601046919822693,0.0766819715499877
-0.0520178787410259,0.930116593837738,-0.154462531208992,-0.733866274356842,-0.1541501432657241,0.0155814411118626,0.0,0.0,0.3863472938537597,-0.5809886455535889
-0.0535283088684082,0.913961946964264,-0.1521199941635131,-0.7178743481636047,-0.1530719101428985,0.0215650033205747,0.0,0.0,-0.0653814077377319,0.6800758838653564
-0.0549841895699501,0.8970810770988464,-0.1444562673568725,-0.7503753304481506,-0.1542083770036697,-0.0227292291820049,0.0,0.0,0.2012561559677124,-0.5289881229400635
-0.0564785972237587,0.8803589344024658,-0.148405909538269,-0.7433146834373474,-0.1552463769912719,-0.0207599811255931,0.0,0.0,-0.6971322894096375,-0.6753208041191101
-0.0580151565372943,0.8629311919212341,-0.1528948247432708,-0.7746524214744568,-0.1560021638870239,-0.015115350484848,0.0,0.0,0.2378653287887573,-0.6182234287261963
-0.0594837181270122,0.8451231718063354,-0.1466880589723587,-0.791483461856842,-0.1561789065599441,-0.0035349621903151,0.0,0.0,0.2202112674713134,-0.7998132705688477
-0.0608702674508094,0.827173113822937,-0.1393585205078125,-0.7977012395858765,-0.1554722189903259,0.0141337187960743,0.0,0.0,0.3945245742797851,-0.6989098191261292
-0.0623093619942665,0.8088909983634949,-0.14516182243824,-0.8124114274978638,-0.1542273610830307,0.0248971227556467,0.0,0.0,0.4605425596237182,-0.5835944414138794
-0.063703253865242,0.7903271317481995,-0.1411052346229553,-0.8248816728591919,-0.1525106430053711,0.0343342497944831,0.0,0.0,0.9483273029327391,0.2302676439285278
-0.0649428367614746,0.7718140482902527,-0.1252170503139495,-0.8226706385612488,-0.1512522548437118,0.0251675695180892,0.0,0.0,0.8264992237091064,-0.3559217453002929
-0.0661625862121582,0.7539818286895752,-0.1218720450997352,-0.7925512194633484,-0.1513593792915344,-0.0021421057172119,0.0,0.0,0.3049393892288208,-0.8494850397109985
-0.0674680694937706,0.7364082932472229,-0.1312410235404968,-0.7809764742851257,-0.1506636291742324,0.0139148142188787,0.0,0.0,0.4610155820846557,-0.3160018920898437
-0.068719670176506,0.7187918424606323,-0.1249778419733047,-0.7829714417457581,-0.1508439779281616,-0.0036068665795028,0.0,0.0,0.9167674779891968,-0.1597766280174255
-0.0697017684578895,0.7014062404632568,-0.0980095267295837,-0.7727144360542297,-0.1510431766510009,-0.0039839027449488,0.0,0.0,0.2863497734069824,-0.5995154976844788
-0.0706868171691894,0.68418288230896,-0.0986293107271194,-0.7654716968536377,-0.1509213894605636,0.0024357757065445,0.0,0.0,0.2661619186401367,-0.5194006562232971
-0.071564957499504,0.666736364364624,-0.0883820205926895,-0.7753403782844543,-0.15034981071949,0.0114314425736665,0.0,0.0,0.5661545991897583,-0.83384108543396
-0.0723838806152343,0.6497188806533813,-0.0833547860383987,-0.7561857104301453,-0.1488862633705139,0.029270876199007,0.0,0.0,0.5750576257705688,-0.8113471865653992
-0.073033906519413,0.6326528787612915,-0.0675675719976425,-0.7582340240478516,-0.1463297605514526,0.0511299557983875,0.0,0.0,0.2698009014129638,-0.5474434494972229
-0.0737457275390625,0.6154349446296692,-0.0738937258720398,-0.7649831771850586,-0.1436278522014618,0.0540380477905273,0.0,0.0,0.7659726142883301,-0.4717930555343628
-0.0742278099060058,0.5987458229064941,-0.0506012514233589,-0.7415084838867188,-0.141241118311882,0.0477347373962402,0.0,0.0,0.320513367652893,-0.4326475858688354
-0.074516013264656,0.5821197628974915,-0.0309444703161716,-0.7387350797653198,-0.1391219943761825,0.0423826090991497,0.0,0.0,0.2275564670562744,-0.740018367767334
-0.0747052207589149,0.5656949877738953,-0.0218260213732719,-0.7297240495681763,-0.1362221837043762,0.0579960234463214,0.0,0.0,-0.0240106582641601,-0.5949085354804993
-0.0749367699027061,0.5485718846321106,-0.0266375299543142,-0.7607124447822571,-0.1327534914016723,0.069374144077301,0.0,0.0,0.8204026222229004,-0.784199595451355
-0.0751051902770996,0.5313345789909363,-0.0212578419595956,-0.7657151818275452,-0.1283632814884185,0.0878042727708816,0.0,0.0,0.7463910579681396,-0.4896997213363647
-0.0752735137939453,0.5145065188407898,-0.0199790690094232,-0.7476499676704407,-0.1252295523881912,0.0626741349697113,0.0,0.0,0.7023526430130005,-0.8194432854652405
-0.0752895325422287,0.4977408945560455,-0.005883511621505,-0.7447836399078369,-0.1209699586033821,0.0851919427514076,0.0,0.0,0.7993576526641846,-0.5756763219833374
-0.0752318352460861,0.4812591969966888,0.0010250103659927,-0.7321408987045288,-0.1162454560399055,0.0944900959730148,0.0,0.0,0.8860378265380859,-0.3457401990890503
-0.0751006156206131,0.464743435382843,0.0090759675949811,-0.7337249517440796,-0.1122334375977516,0.0802403911948204,0.0,0.0,0.9093337059020996,-0.5829638838768005
-0.0750786811113357,0.448565125465393,-0.0018307706341147,-0.7187408208847046,-0.1082296445965766,0.0800758525729179,0.0,0.0,0.9291054010391236,-0.7431171536445618
-0.0749674811959266,0.4331762790679931,0.0062791132368147,-0.683607280254364,-0.1034203171730041,0.0961863696575164,0.0,0.0,0.8815426826477051,-0.5539019107818604
-0.0747546181082725,0.4175547361373901,0.0157844312489032,-0.6939195990562439,-0.0979641452431678,0.1091232895851135,0.0,0.0,0.8478740453720093,0.2460964918136596
-0.0744055733084678,0.402639627456665,0.0299903508275747,-0.6625765562057495,-0.0930985063314437,0.0973129421472549,0.0,0.0,0.8782428503036499,-0.269101619720459
-0.0741003006696701,0.3878287076950073,0.026858776807785,-0.658041775226593,-0.0894507467746734,0.0729551240801811,0.0,0.0,0.9145774841308594,-0.5638446807861328
-0.0738685578107833,0.3734987676143646,0.0193929783999919,-0.6366629004478455,-0.085714541375637,0.0747241601347923,0.0,0.0,0.872799277305603,-0.3914135694503784
-0.0735282897949218,0.3595039844512939,0.0308016892522573,-0.6218099594116211,-0.0825230926275253,0.0638289675116539,0.0,0.0,0.9349839687347412,-0.5977849364280701
-0.0733000785112381,0.3463054597377777,0.0195543374866247,-0.5864265561103821,-0.0792783871293068,0.0648940131068229,0.0,0.0,0.6842845678329468,0.1651995182037353
-0.072936438024044,0.3332633972167969,0.033423937857151,-0.5794950127601624,-0.0763729512691497,0.0581087991595268,0.0,0.0,0.5988831520080566,-0.5574407577514648
-0.0726089477539062,0.3200771808624267,0.0294642783701419,-0.5858887434005737,-0.073121502995491,0.0650290101766586,0.0,0.0,0.6588667631149292,-0.6054311394691467
-0.0722177475690841,0.3066551685333252,0.035106536000967,-0.5963436365127563,-0.0691479966044426,0.0794704109430313,0.0,0.0,0.9069292545318604,0.3786659240722656
-0.0718210190534591,0.2931082248687744,0.0364744141697883,-0.6019425988197327,-0.065990962088108,0.0631408616900444,0.0,0.0,0.9281332492828368,-0.4564357995986938
-0.0713580101728439,0.280232697725296,0.0437919311225414,-0.5721370577812195,-0.0635117813944816,0.0495835915207862,0.0,0.0,0.884075403213501,0.0642663240432739
-0.0707296356558799,0.2680259943008423,0.0605308599770069,-0.5424242615699768,-0.0612267032265663,0.0457014180719852,0.0,0.0,0.7470054626464844,-0.5930258631706238
-0.0702065452933311,0.2564199864864349,0.0497424937784671,-0.5157173871994019,-0.0586875639855861,0.0507829114794731,0.0,0.0,0.6229331493377686,-0.5509204864501953
-0.0698285102844238,0.2445962280035019,0.0350677855312824,-0.5253954529762268,-0.0559850297868251,0.0540508851408958,0.0,0.0,0.8172321319580078,-0.3902762532234192
-0.0693414658308029,0.233355775475502,0.0463314764201641,-0.4994912445545196,-0.0536360032856464,0.0469803698360919,0.0,0.0,0.6939340829849243,-0.3451988697052002
-0.0689101219177246,0.2222921252250671,0.0417875535786151,-0.4916689693927765,-0.0523040629923343,0.0266387648880481,0.0,0.0,0.6165180206298828,-0.2058162689208984
-0.0684809684753418,0.2115107923746109,0.0423356182873249,-0.4791500866413116,-0.0517327859997749,0.0114257158711552,0.0,0.0,0.8043187856674194,-0.8169179558753967
-0.0680741295218467,0.2011683285236358,0.0389847606420517,-0.4596052169799804,-0.0500501170754432,0.0336532816290855,0.0,0.0,0.5673670768737793,-0.6816271543502808
-0.067585751414299,0.190934881567955,0.0460342057049274,-0.4547313153743744,-0.0472843199968338,0.0553161427378654,0.0,0.0,0.3983644247055053,0.358777642250061
-0.0670460686087608,0.1804186850786209,0.0515088327229023,-0.4673104882240295,-0.0448559485375881,0.0485672801733017,0.0,0.0,0.8572742938995361,-0.3524420261383056
-0.0663640052080154,0.1698583662509918,0.0656658485531807,-0.4692740738391876,-0.0423444733023643,0.0502297356724739,0.0,0.0,0.7145119905471802,-0.8893346190452576
-0.065539076924324,0.1594641953706741,0.0782454758882522,-0.4618473351001739,-0.0381563827395439,0.0837619453668594,0.0,0.0,0.7049477100372314,-0.8021677136421204
-0.0645852088928222,0.148953303694725,0.0895660817623138,-0.4670128226280212,-0.0324096418917179,0.114934965968132,0.0,0.0,0.7431759834289551,-0.6724002957344055
-0.0636462196707725,0.1389234811067581,0.087038904428482,-0.445634663105011,-0.0256363153457641,0.1354665756225586,0.0,0.0,0.8241399526596069,-0.5127919912338257
-0.0626707077026367,0.1294387727975845,0.0898173376917839,-0.4214328229427337,-0.0179961360991001,0.1528036594390869,0.0,0.0,0.6346986293792725,-0.1569229960441589
-0.0615403167903423,0.1202256977558136,0.1049440875649452,-0.4093942046165466,-0.010006221011281,0.1597981452941894,0.0,0.0,0.8048464059829712,-0.8663153052330017
-0.060333251953125,0.1108228042721748,0.110827162861824,-0.4178642332553863,-0.000253201695159,0.1950604021549224,0.0,0.0,0.8813338279724121,-0.0425043702125549
-0.0591653808951377,0.1015754789113998,0.1073286682367324,-0.4110223054885864,0.0090834712609648,0.1867332756519317,0.0,0.0,0.9615721702575684,-0.4762310981750488
-0.0578854568302631,0.0931514129042625,0.1181638240814209,-0.3744924664497375,0.0187870785593986,0.1940720379352569,0.0,0.0,0.883658766746521,-0.3652870655059814
-0.0566230788826942,0.0849852636456489,0.1165941134095192,-0.3630901873111725,0.0283118691295385,0.1904957592487335,0.0,0.0,0.8012115955352783,0.2092766761779785
-0.0554992668330669,0.0773991197347641,0.1033920273184776,-0.3373557031154632,0.037195648998022,0.1776753813028335,0.0,0.0,0.7882199287414551,0.9828715324401855
-0.0541984550654888,0.0702455639839172,0.1228806003928184,-0.3181322515010834,0.044305570423603,0.1421989053487777,0.0,0.0,0.6518200635910034,0.5336326360702515
-0.0529236793518066,0.0635038465261459,0.1214411407709121,-0.2998237013816833,0.0502710528671741,0.1193097084760665,0.0,0.0,0.5176105499267578,-0.0680485963821411
-0.0517366416752338,0.0570715516805648,0.1129122748970985,-0.2860828042030334,0.0559977702796459,0.1145344376564025,0.0,0.0,0.4076805114746094,-0.3229421377182007
-0.0505713447928428,0.0505578629672527,0.1106751412153244,-0.2897298038005829,0.0617801211774349,0.115646943449974,0.0,0.0,0.9180078506469728,-0.5436506867408752
-0.0496122352778911,0.044357594102621,0.0891947299242019,-0.2758591771125793,0.0684212893247604,0.1328234523534774,0.0,0.0,0.8524265289306641,0.9590301513671876
-0.0487810149788856,0.0383073911070823,0.0784140229225158,-0.269118994474411,0.0730826929211616,0.0932279452681541,0.0,0.0,0.6549239158630371,-0.0934087038040161
-0.0478724464774131,0.0326305478811264,0.0853785723447799,-0.2525796294212341,0.0785049200057983,0.1084446534514427,0.0,0.0,0.808112382888794,0.8861939907073975
-0.0468268394470214,0.0268517825752496,0.1004237681627273,-0.2570578455924988,0.0826010182499885,0.0819219797849655,0.0,0.0,0.900216817855835,0.51634681224823
-0.0456124320626258,0.0217004399746656,0.1174692884087562,-0.2291698604822158,0.086531788110733,0.0786154493689537,0.0,0.0,0.856670618057251,0.4618211984634399
-0.044474221765995,0.0171340331435203,0.1096013560891151,-0.2032027244567871,0.0907169729471206,0.0837040394544601,0.0,0.0,0.8690311908721924,-0.0421164035797119
-0.0432376861572265,0.013318714685738,0.1182683557271957,-0.1699072569608688,0.0960533320903778,0.1067268103361129,0.0,0.0,0.5248503684997559,0.2362391948699951
-0.0419571883976459,0.0095975259318947,0.121909961104393,-0.1657945215702057,0.1021491661667823,0.1219166293740272,0.0,1.0,0.9665801525115968,0.9118361473083496
-0.0407567024230957,0.0070214606821537,0.1249683499336242,-0.1143823713064193,0.0965613573789596,-0.1126794666051864,0.0,1.0,0.5056538581848145,0.2031519412994384
-0.0397087112069129,0.0051939464174211,0.1228354796767234,-0.0801625549793243,0.0786750316619873,-0.3577572405338287,0.0,1.0,0.2633979320526123,-0.0429683923721313
-0.0387406349182128,0.0034581280779093,0.1240870133042335,-0.0759516954421997,0.0516507588326931,-0.5405418276786804,0.0,1.0,-0.0233749747276306,-0.4093890190124511
-0.0377975478768348,0.0011937356321141,0.1263929158449173,-0.0998451933264732,0.0199207700788974,-0.6346491575241089,0.0,1.0,0.23846435546875,-0.8328232169151306
-0.0370232574641704,-0.0012263321550562,0.1070673018693924,-0.1074228137731552,-0.0093358624726533,-0.5851327776908875,0.0,1.0,0.5740042924880981,-0.4485755562782287
-0.0361787788569927,-0.0028387331403791,0.0949825495481491,-0.0717799663543701,-0.0196708682924509,-0.2066028118133545,1.0,0.0,0.0862826108932495,-0.7088884711265564
-0.0352417007088661,-0.0039672995917499,0.0834166705608367,-0.0500730872154235,-0.0094404909759759,0.2046886980533599,1.0,0.0,-0.3847032785415649,-0.8964798450469971
-0.0344671234488487,-0.0046700024977326,0.0664789453148841,-0.0312638543546199,0.0013103140518069,0.2149118930101394,1.0,1.0,0.3972470760345459,-0.6065322160720825
-0.0337804779410362,-0.0041516567580401,0.0597235187888145,0.022885063663125,0.0096966894343495,0.1671611964702606,1.0,1.0,-0.31851327419281,0.1522606611251831
-0.0332462303340435,-0.0033543251920491,0.0505575910210609,0.0354070141911506,0.0125405024737119,0.0568890646100044,1.0,1.0,-0.8250632286071777,-0.8559202551841736
