x_pos,y_pos,x_vel,y_vel,angle,ang_vel,leg_1,leg_2,main_booster,lat_booster
-0.0015749931335449,1.4032217264175415,-0.1588333994150161,-0.3421517610549927,0.0011883480474352,0.0233990624547004,0.0,0.0,-0.4041070342063904,0.4748024940490722
-0.0032060623634606,1.3951436281204224,-0.1636674851179123,-0.3590250015258789,0.0017371493158861,0.0109778642654418,0.0,0.0,0.2599761486053467,0.8720231056213379
-0.004712295718491,1.387118577957153,-0.1489253342151641,-0.3566674590110779,6.972693518036976e-05,-0.033351931720972,0.0,0.0,-0.3589887619018554,0.5869650840759277
-0.0062452317215502,1.3786888122558594,-0.150081068277359,-0.3746609687805176,-0.0031191003508865,-0.0637825354933738,0.0,0.0,0.1135027408599853,-0.449883222579956
-0.0077578546479344,1.37051522731781,-0.1478786766529083,-0.3632776439189911,-0.0064717582426965,-0.0670592188835144,0.0,0.0,-0.1556921601295471,0.1117087602615356
-0.0093423845246434,1.3619390726089478,-0.1544875204563141,-0.3811849355697632,-0.0103948665782809,-0.0784692019224166,0.0,0.0,-0.5344179272651672,0.74556565284729
-0.0109460828825831,1.3529598712921145,-0.1544020473957061,-0.3991340100765228,-0.0162974745035171,-0.1180628910660743,0.0,0.0,-0.101134717464447,0.9378247261047364
-0.0125370025634765,1.3435791730880735,-0.1502236276865005,-0.4170424342155456,-0.0250629782676696,-0.1753259599208831,0.0,0.0,0.1227314472198486,0.7639570236206055
-0.0141455652192235,1.3346562385559082,-0.1499142497777938,-0.3967919051647186,-0.0358829349279403,-0.2164196223020553,0.0,0.0,-0.3811453580856323,0.8698633909225464
-0.0157717708498239,1.3253343105316162,-0.1494243443012237,-0.414674311876297,-0.0489436909556388,-0.2612391412258148,0.0,0.0,-0.6412578821182251,0.1029664278030395
-0.0174875259399414,1.3156123161315918,-0.1578735411167144,-0.4325864017009735,-0.0625093951821327,-0.2713389098644256,0.0,0.0,-0.5310680866241455,0.3708689212799072
-0.0192959792912006,1.3054907321929932,-0.1666641682386398,-0.4505032002925873,-0.0765653625130653,-0.2811451554298401,0.0,0.0,-0.2935009598731994,0.1250021457672119
-0.0212002750486135,1.2949695587158203,-0.1757837682962417,-0.4684229791164398,-0.0910946652293205,-0.2906127572059631,0.0,0.0,-0.6361061334609985,-0.2089320421218872
-0.0232034679502248,1.284049153327942,-0.1852209866046905,-0.4863446950912475,-0.1060796529054641,-0.2997273206710815,0.0,0.0,-0.6195258498191833,-0.3097128868103027
-0.0253080371767282,1.272729516029358,-0.1949638128280639,-0.5042684078216553,-0.121501475572586,-0.3084650039672851,0.0,0.0,-0.3131240606307983,-0.202976644039154
-0.0275170318782329,1.2610108852386477,-0.204999953508377,-0.5221942663192749,-0.1373400688171386,-0.3168007731437683,0.0,0.0,0.1158263683319091,-0.4529337882995605
-0.0296613685786724,1.2497328519821167,-0.1986245959997177,-0.5027773976325989,-0.1531370133161544,-0.3159678876399994,0.0,0.0,-0.3036035299301147,-0.7399425506591797
-0.0319598205387592,1.2380597591400146,-0.2148112952709198,-0.5204200148582458,-0.1681818813085556,-0.3009248971939087,0.0,0.0,-0.1597301959991455,-0.780690610408783
-0.0344198234379291,1.2260075807571411,-0.2319756746292114,-0.537297248840332,-0.1822616159915924,-0.2816199958324432,0.0,0.0,-0.9299766421318054,-0.539509654045105
-0.0370411872863769,1.2135686874389648,-0.2490405142307281,-0.5545018911361694,-0.1954399198293686,-0.2635901272296905,0.0,0.0,0.0208989381790161,-0.1885195970535278
-0.0396108627319335,1.2013906240463257,-0.2439813166856765,-0.5430141687393188,-0.208547294139862,-0.2621706128120422,0.0,0.0,0.4017502069473266,-0.7502977848052979
-0.0422684662044048,1.1893739700317385,-0.2540377974510193,-0.5357680916786194,-0.2204013764858245,-0.2371031045913696,0.0,0.0,-0.560674786567688,-0.6811456680297852
-0.045086957514286,1.1769698858261108,-0.2709978520870209,-0.552959144115448,-0.2314198613166809,-0.2203891277313232,0.0,0.0,0.3561550378799438,-0.8365124464035034
-0.0479708686470985,1.1645301580429075,-0.279059499502182,-0.5543652772903442,-0.2408967316150665,-0.1895548403263092,0.0,0.0,0.5771539211273193,-0.4622020721435547
-0.0509630218148231,1.1526329517364502,-0.2891194820404053,-0.5304530262947083,-0.2511777579784393,-0.2056389302015304,0.0,0.0,-0.4430150985717773,-0.859382152557373
-0.0541641227900981,1.1403493881225586,-0.3120152652263641,-0.5473434329032898,-0.2594389021396637,-0.1652230471372604,0.0,0.0,0.4543230533599853,0.0056488513946533
-0.057324219495058,1.128590106964111,-0.3078403174877167,-0.5241010189056396,-0.2677930891513824,-0.1670833975076675,0.0,0.0,-0.7266935706138611,-0.2572511434555053
-0.0606119148433208,1.116429567337036,-0.3205420970916748,-0.5420076847076416,-0.276220828294754,-0.1685546636581421,0.0,0.0,-0.2689063549041748,-0.8010330200195312
-0.0641009360551834,1.1039044857025146,-0.3425903916358948,-0.5578703284263611,-0.2827039062976837,-0.1296615302562713,0.0,0.0,-0.1069116592407226,0.4840841293334961
-0.0677198395133018,1.0909775495529177,-0.3555845618247986,-0.5757731795310974,-0.2891882658004761,-0.1296874284744262,0.0,0.0,0.1496293544769287,-0.2063136100769043
-0.0712889656424522,1.0784895420074463,-0.3507209420204162,-0.5562670826911926,-0.2955767512321472,-0.1277698576450348,0.0,0.0,0.2855199575424194,-0.0283291935920715
-0.0749485045671463,1.066114902496338,-0.3595601916313171,-0.5513009428977966,-0.3021724224090576,-0.1319134831428527,0.0,0.0,-0.6487061977386475,0.1917808055877685
-0.0787404999136924,1.053337335586548,-0.3729317486286163,-0.5692011117935181,-0.3086581528186798,-0.1297143846750259,0.0,0.0,0.4747991561889648,-0.255156397819519
-0.0826222449541091,1.0406432151794434,-0.3817997574806213,-0.5655521750450134,-0.3152601718902588,-0.1320406198501587,0.0,0.0,-0.5252819061279297,-0.2239260673522949
-0.0866377800703048,1.0275461673736572,-0.3953853249549866,-0.5834502577781677,-0.3216788470745086,-0.1283727437257766,0.0,0.0,-0.4869539737701416,-0.1289638876914978
-0.0907879844307899,1.0140458345413208,-0.4090674817562103,-0.6013470888137817,-0.3278782069683075,-0.1239872574806213,0.0,0.0,-0.063363492488861,0.6446423530578613
-0.0950281172990799,1.0001157522201538,-0.4171102046966553,-0.6206969618797302,-0.3350865542888641,-0.1441671550273895,0.0,0.0,-0.4089284539222717,0.1428911685943603
-0.0994039550423622,0.9857823252677916,-0.43096724152565,-0.6385924220085144,-0.3420064449310303,-0.1383984386920929,0.0,0.0,-0.3428077697753906,0.7162072658538818
-0.103864386677742,0.9710264801979064,-0.4384586811065674,-0.6576405167579651,-0.3499667346477508,-0.1592055857181549,0.0,0.0,0.0111737251281738,0.7693771123886108
-0.1082578673958778,0.9563508629798888,-0.4306196570396423,-0.6544011831283569,-0.3591444492340088,-0.1835543811321258,0.0,0.0,0.5329537391662598,0.621337890625
-0.1125879287719726,0.9423222541809082,-0.4232643544673919,-0.6259654760360718,-0.3694406747817993,-0.2059243619441986,0.0,0.0,0.2008852958679199,0.4805289506912231
-0.1168342605233192,0.92837393283844,-0.4156892299652099,-0.6222633123397827,-0.3789099454879761,-0.1893853843212127,0.0,0.0,-0.0210816860198974,0.7318780422210693
-0.1211579293012619,0.9139772653579712,-0.4222360253334045,-0.6425737142562866,-0.3897014558315277,-0.2158310860395431,0.0,0.0,0.3770712614059448,0.7492808103561401
-0.1253124177455902,0.8997008800506592,-0.4044632315635681,-0.6375539898872375,-0.4014492332935333,-0.2349557429552078,0.0,0.0,0.7766761779785156,0.392632246017456
-0.1295212805271148,0.8854837417602539,-0.4102222919464111,-0.6349287033081055,-0.4129102826118469,-0.229220300912857,0.0,0.0,-0.1945084333419799,-0.1092495918273925
-0.1338683068752288,0.8708627820014954,-0.4245660901069641,-0.6528210043907166,-0.4238598346710205,-0.2189911603927612,0.0,0.0,0.7384464740753174,0.587826132774353
-0.1380563676357269,0.8564067482948303,-0.4082527160644531,-0.6457092761993408,-0.4353293478488922,-0.2293901443481445,0.0,0.0,0.7848862409591675,0.537692666053772
-0.1420805901288986,0.8428322076797485,-0.3910736441612243,-0.6068848967552185,-0.4477110803127289,-0.2476348429918289,0.0,0.0,0.8994567394256592,-0.0683127641677856
-0.1459885537624359,0.8301776051521301,-0.3794034123420715,-0.5661255717277527,-0.4602283239364624,-0.2503445148468017,0.0,0.0,0.2739146947860718,-0.1791507601737976
-0.1498757302761078,0.8176564574241638,-0.3778583407402038,-0.5601289868354797,-0.4722342789173126,-0.2401193678379058,0.0,0.0,0.7080273628234863,0.2842593193054199
-0.1535013169050216,0.8054180145263672,-0.3529206812381744,-0.547252893447876,-0.4829521775245666,-0.2143578231334686,0.0,0.0,0.7776685953140259,-0.581041693687439
-0.1569958627223968,0.793908417224884,-0.3413496613502502,-0.514396071434021,-0.4919964671134949,-0.1808860003948211,0.0,0.0,0.7637968063354492,-0.1869592666625976
-0.1603027284145355,0.7825376987457275,-0.3236659467220306,-0.5078920722007751,-0.4998716115951538,-0.1575029790401458,0.0,0.0,0.6592671871185303,-0.3288496732711792
-0.1633622199296951,0.7718133330345154,-0.2995523512363434,-0.4789949059486389,-0.5070906281471252,-0.144378662109375,0.0,0.0,0.9209388494491576,-0.3811302781105041
-0.1661347448825836,0.7612994909286499,-0.2721529006958008,-0.4691810011863708,-0.5128558278083801,-0.115303635597229,0.0,0.0,0.815335750579834,-0.6826828718185425
-0.1689392030239105,0.751175582408905,-0.2769961357116699,-0.4512517750263214,-0.5167756676673889,-0.0783971846103668,0.0,0.0,0.9254145622253418,0.3555831909179687
-0.1713294088840484,0.74177485704422,-0.2366025149822235,-0.4187299311161041,-0.5195167660713196,-0.0548215582966804,0.0,0.0,0.9896814823150636,-0.7818705439567566
-0.1733515709638595,0.732938289642334,-0.2022050619125366,-0.3927343487739563,-0.519527018070221,-0.0002045547589659,0.0,0.0,0.9719672203063964,-0.7958208918571472
-0.1749924719333648,0.7249552011489868,-0.1663632690906524,-0.3539380729198456,-0.5169469118118286,0.0516029521822929,0.0,0.0,0.937326431274414,-0.5629942417144775
-0.1764365136623382,0.717873752117157,-0.1481209844350814,-0.3133350908756256,-0.5127336978912354,0.084264650940895,0.0,0.0,0.964454174041748,-0.8824561834335327
-0.1778083741664886,0.710955798625946,-0.1432826220989227,-0.3051962256431579,-0.5058401823043823,0.1378708183765411,0.0,0.0,0.9665533304214478,-0.5414232611656189
-0.1790614128112793,0.7048516273498535,-0.1327448785305023,-0.26856729388237,-0.4974513351917267,0.167776882648468,0.0,0.0,0.9657738208770752,-0.8430777192115784
-0.1800768822431564,0.6990829706192017,-0.1115461811423301,-0.2528117597103119,-0.4862580299377441,0.223866268992424,0.0,0.0,0.8936851024627686,-0.5706639289855957
-0.1809159219264984,0.6938523054122925,-0.0957693010568618,-0.2283545583486557,-0.4730646312236786,0.2638680338859558,0.0,0.0,0.7325038909912109,-0.3417848348617553
-0.1816941201686859,0.6887723803520203,-0.0904425010085105,-0.2215313166379928,-0.4591076970100403,0.27913898229599,0.0,0.0,0.4759345054626465,-0.0993710160255432
-0.1824748069047927,0.6840713024139404,-0.0909922197461128,-0.2047502845525741,-0.4449319839477539,0.2835140228271484,0.0,0.0,0.2214200496673584,-0.4942385554313659
-0.1831060349941253,0.6798122525215149,-0.0768663957715034,-0.1849999874830246,-0.4299482405185699,0.2996746301651001,0.0,0.0,-0.0395302176475524,-0.1168059706687927
-0.1838739365339279,0.6751492023468018,-0.0913084894418716,-0.2028906643390655,-0.4142259955406189,0.3144449293613434,0.0,0.0,0.641897439956665,0.4315705299377441
-0.1844119131565094,0.6712313294410706,-0.0692231804132461,-0.169695645570755,-0.3976373374462127,0.3317726254463196,0.0,0.0,-0.2269701957702636,0.44544517993927
-0.1850852966308593,0.6669103503227234,-0.0835914313793182,-0.1875920593738556,-0.3803033232688904,0.3466805219650268,0.0,0.0,-0.2140073180198669,0.7442834377288818
-0.1858471930027008,0.6621618866920471,-0.0920175239443779,-0.2069146335124969,-0.3635172247886657,0.3357227444648742,0.0,0.0,0.4917635917663574,0.1761659383773803
-0.1865177154541015,0.6577836871147156,-0.0838335305452346,-0.190427079796791,-0.3458514213562011,0.353315532207489,0.0,0.0,-0.5457412004470825,0.6137895584106445
-0.1872848570346832,0.652990460395813,-0.0933865904808044,-0.2091258317232132,-0.3284128904342651,0.3487709760665893,0.0,0.0,-0.350075364112854,0.1915827989578247
-0.188185304403305,0.6477951407432556,-0.1075429469347,-0.2270288914442062,-0.3102186322212219,0.3638852536678314,0.0,0.0,-0.7624102830886841,0.541062593460083
-0.189180850982666,0.6421759128570557,-0.1168852224946022,-0.2461470663547516,-0.2923119962215423,0.358132928609848,0.0,0.0,-0.6369949579238892,0.0712095499038696
-0.1903084814548492,0.6361551880836487,-0.1308998763561248,-0.2640537917613983,-0.2736460566520691,0.3733187019824981,0.0,0.0,-0.5999415516853333,0.7068043947219849
-0.1915173530578613,0.6297053098678589,-0.1385542154312133,-0.2834645509719848,-0.255583643913269,0.3612487316131592,0.0,0.0,-0.8203358054161072,0.3908495903015136
-0.1928564012050628,0.6228545904159546,-0.1523980945348739,-0.3013742566108703,-0.2367593050003051,0.3764870762825012,0.0,0.0,-0.542320191860199,0.8308441638946533
-0.1942510604858398,0.6155848503112793,-0.1569269001483917,-0.3203910291194916,-0.2190643399953842,0.3538989424705505,0.0,0.0,-0.7837436199188232,0.9094555377960204
-0.1957155168056488,0.6079040765762329,-0.1632599532604217,-0.3389703631401062,-0.2020886838436126,0.3395130336284637,0.0,0.0,0.3169238567352295,0.943018913269043
-0.1972990930080413,0.6002138257026672,-0.1740376949310302,-0.3397299349308014,-0.1863208562135696,0.3153567016124725,0.0,0.0,0.4192653894424438,0.9331545829772948
-0.198770523071289,0.5930994153022766,-0.1617853492498397,-0.3144153654575348,-0.1716206967830658,0.2940035164356231,0.0,0.0,-0.5682627558708191,0.9818851947784424
-0.2003028392791748,0.5855666995048523,-0.1670520305633545,-0.3332487046718597,-0.1577925682067871,0.2765624821186065,0.0,0.0,0.0270392894744873,0.9312175512313844
-0.2018592804670334,0.5782522559165955,-0.1684023588895797,-0.3237808048725128,-0.1450496762990951,0.2548578679561615,0.0,0.0,-0.9670005440711976,0.998034119606018
-0.2034602165222168,0.5705239176750183,-0.1716863065958023,-0.3423965871334076,-0.1334961503744125,0.231070801615715,0.0,0.0,0.9778372049331664,0.9302935600280762
-0.2049014121294021,0.5633910298347473,-0.1548379212617874,-0.3160926103591919,-0.1228239983320236,0.2134429961442947,0.0,0.0,0.3248991966247558,0.997560977935791
-0.2063275277614593,0.5562357902526855,-0.1521153748035431,-0.317253977060318,-0.1133756265044212,0.1889674961566925,0.0,0.0,0.8536386489868164,0.98907470703125
-0.2076259553432464,0.5493109822273254,-0.1383100301027298,-0.3071532547473907,-0.1049647480249404,0.1682175397872924,0.0,0.0,0.9860492944717408,0.9998221397399902
-0.2086924016475677,0.5429636836051941,-0.1142141073942184,-0.2815921008586883,-0.0974568277597427,0.1501585394144058,0.0,0.0,0.2804596424102783,0.96648108959198
-0.2096397429704666,0.5366326570510864,-0.1011805310845375,-0.2809717357158661,-0.0910657718777656,0.1278211325407028,0.0,0.0,-0.8106693029403687,0.8874571323394775
-0.2106261700391769,0.5298954248428345,-0.1040923744440078,-0.2991119623184204,-0.0856676176190376,0.1079631596803665,0.0,0.0,-0.2798993587493896,0.9654992818832396
-0.2116381675004959,0.5227518081665039,-0.1053696870803833,-0.3172589540481567,-0.0815347582101821,0.0826571509242057,0.0,0.0,-0.6635825634002686,0.9995867013931274
-0.2126577794551849,0.5151969194412231,-0.1044683083891868,-0.3356388211250305,-0.0790511071681976,0.0496729724109172,0.0,0.0,-0.5743993520736694,0.9681737422943116
-0.2136885672807693,0.5072178244590759,-0.1040630117058754,-0.3545759320259094,-0.0780715271830558,0.01959147490561,0.0,0.0,0.5779914855957031,0.997743844985962
-0.214755967259407,0.4995571374893188,-0.1064147129654884,-0.3404916524887085,-0.0783912613987922,-0.0063948603346943,0.0,0.0,-0.6287453174591064,0.9991910457611084
-0.2158252745866775,0.4914942979812622,-0.1050717830657959,-0.3584477007389068,-0.0802331566810607,-0.0368378423154354,0.0,0.0,-0.8960059881210327,0.9652748107910156
-0.2169098854064941,0.4830187857151031,-0.1054858341813087,-0.3768497407436371,-0.0831824094057083,-0.0589849427342414,0.0,0.0,-0.1843706965446472,0.9926836490631104
-0.2180161029100418,0.4741411805152893,-0.1068072095513343,-0.394776314496994,-0.0869604870676994,-0.0755615532398223,0.0,0.0,-0.2603219747543335,0.9614150524139404
-0.2191149294376373,0.4648537933826446,-0.1045982092618942,-0.4130895733833313,-0.0921960622072219,-0.1047116518020629,0.0,0.0,0.1003464460372924,0.8262240886688232
-0.2202183753252029,0.455912172794342,-0.1041155606508255,-0.3977999091148376,-0.0983655452728271,-0.1233896240592002,0.0,0.0,-0.8447065949440002,0.9879894256591796
-0.2213237732648849,0.4465647041797638,-0.1033437028527259,-0.4159369468688965,-0.105506882071495,-0.1428267359733581,0.0,0.0,-0.3298908472061157,0.9284054040908812
-0.2224235534667968,0.4367999732494354,-0.1017245054244995,-0.4345915615558624,-0.1137046217918396,-0.1639548242092132,0.0,0.0,-0.5163984298706055,0.6125001907348633
-0.2235429733991623,0.4266263246536255,-0.1034191399812698,-0.4528336226940155,-0.1221727579832077,-0.1693627387285232,0.0,0.0,-0.1269457340240478,0.7032389640808105
-0.2246735095977783,0.4160405397415161,-0.1041983589529991,-0.4712272584438324,-0.1309854984283447,-0.1762546002864837,0.0,0.0,-0.399904727935791,0.5611189603805542
-0.2257981747388839,0.4050449728965759,-0.1030060276389122,-0.4895497858524322,-0.140411302447319,-0.188516080379486,0.0,0.0,-0.945605218410492,0.4383543729782104
-0.2269624769687652,0.3936465084552765,-0.107680007815361,-0.5074484348297119,-0.1491398364305496,-0.1745705604553222,0.0,0.0,-0.3598791360855102,-0.2698920369148254
-0.2281596660614013,0.3818448781967163,-0.1116704568266868,-0.5253455638885498,-0.1571775674819946,-0.1607546508312225,0.0,0.0,-0.3579590320587158,-0.2596789598464966
-0.2293827533721923,0.3696398735046386,-0.114955648779869,-0.5432413816452026,-0.1645312756299972,-0.1470745801925659,0.0,0.0,-0.2926656007766723,-0.6115507483482361
-0.2306602001190185,0.3570472300052643,-0.1220112293958664,-0.560318648815155,-0.1702694594860077,-0.11476331949234,0.0,0.0,0.7920680046081543,0.6435918807983398
-0.2317045629024505,0.3449446856975555,-0.0983044430613517,-0.5386061072349548,-0.1764082312583923,-0.1227753162384033,0.0,0.0,0.4107749462127685,-0.5307489633560181
-0.2326776981353759,0.3334857821464538,-0.092902548611164,-0.5098153948783875,-0.1808335185050964,-0.0885056555271148,0.0,0.0,0.8988044261932373,0.5278234481811523
-0.2333702594041824,0.3229317665100097,-0.0646585375070571,-0.4696325361728668,-0.185444638133049,-0.0922223851084709,0.0,0.0,0.8608627319335938,0.4734745025634765
-0.2338673174381256,0.3127098977565765,-0.0461752042174339,-0.4547504186630249,-0.1889902502298355,-0.0709124878048896,0.0,0.0,0.9783930778503418,0.5261151790618896
-0.2343178242444992,0.3032075762748718,-0.0406494699418544,-0.4228931069374084,-0.1934169381856918,-0.08853380382061,0.0,0.0,0.976841926574707,-0.552096426486969
-0.2348266541957855,0.294265866279602,-0.0477354861795902,-0.3978227376937866,-0.1965815126895904,-0.0632919073104858,0.0,0.0,0.9363882541656494,0.5163426399230957
-0.2351590096950531,0.285887598991394,-0.0296008177101612,-0.3728574216365814,-0.2002435624599456,-0.0732408612966537,0.0,0.0,0.8415300846099854,-0.198652982711792
-0.2353038340806961,0.2779704928398132,-0.0115844365209341,-0.3522658944129944,-0.2031613439321518,-0.0583557970821857,0.0,0.0,0.8963750600814819,-0.2908655405044555
-0.2351704090833664,0.2702101767063141,0.0149503471329808,-0.3451267182826996,-0.2047849297523498,-0.0324715934693813,0.0,0.0,0.9009284973144532,-0.1858001351356506
-0.2347121238708496,0.2631666958332062,0.0463378652930259,-0.3131121098995209,-0.2052986174821853,-0.0102738756686449,0.0,0.0,0.9217337369918824,-0.2768810987472534
-0.2339721620082855,0.2570878863334656,0.0737957879900932,-0.2701421678066253,-0.2050963044166565,0.0040463432669639,0.0,0.0,0.3858027458190918,-0.3589347600936889
