x_pos,y_pos,x_vel,y_vel,angle,ang_vel,leg_1,leg_2,main_booster,lat_booster
-0.0014336586464196,1.4030240774154663,-0.1449578702449798,-0.350937008857727,0.0014258757000789,0.0281017161905765,0.0,0.0,-0.2204394340515136,0.8766529560089111
-0.0027036666870117,1.3945465087890625,-0.1262207329273224,-0.3767763674259186,0.0006471900851465,-0.0155745688825845,0.0,0.0,-0.4501041173934936,-0.0741962790489196
-0.0038865089882165,1.3854681253433228,-0.1172096952795982,-0.4034859538078308,-0.0004160627431701,-0.0212669093161821,0.0,0.0,-0.6385771632194519,0.2605254650115967
-0.0049839974381029,1.3757891654968262,-0.1083856970071792,-0.4301766753196716,-0.0017640925943851,-0.0269632786512374,0.0,0.0,-0.3370673656463623,-0.3306002616882324
-0.005998230073601,1.3655097484588623,-0.0997614413499832,-0.4568638503551483,-0.0033960912842303,-0.0326430164277553,0.0,0.0,-0.1308152675628662,0.4424371719360351
-0.0069311140105128,1.3546299934387207,-0.0913509577512741,-0.483550488948822,-0.0053114127367734,-0.0383102931082248,0.0,0.0,0.7081997394561768,0.0732229948043823
-0.0078053474426269,1.3440457582473757,-0.0850725695490837,-0.4704245924949646,-0.0076207863166928,-0.046191968023777,0.0,0.0,-0.5627568960189819,-0.5548394918441772
-0.0086357118561863,1.3328628540039062,-0.0812546014785766,-0.4970261454582214,-0.0093850139528512,-0.0352877378463745,0.0,0.0,0.3017406463623047,-0.5842241048812866
-0.0094424244016408,1.3220758438110352,-0.0797430798411369,-0.4794304072856903,-0.0102952290326356,-0.0182061772793531,0.0,0.0,-0.6041193008422852,-0.2054537534713745
-0.0101778032258152,1.3106882572174072,-0.0723398178815841,-0.5061253905296326,-0.0114854304119944,-0.0238059870898723,0.0,0.0,-0.1581242084503173,-0.7556310296058655
-0.0108960149809718,1.2987017631530762,-0.0716264769434928,-0.5327354073524475,-0.0116702895611524,-0.0036977678537368,0.0,0.0,0.3838249444961548,-0.1842433214187622
-0.0114844320341944,1.286777377128601,-0.0586629509925842,-0.5299707651138306,-0.0118522541597485,-0.0036394675262272,0.0,0.0,-0.7674949765205383,-0.5323563814163208
-0.0120437620207667,1.2742559909820557,-0.0563034489750862,-0.5565093159675598,-0.011481855995953,0.0074085160158574,0.0,0.0,-0.6987794637680054,-0.5258943438529968
-0.012581062503159,1.2611298561096191,-0.0547673217952251,-0.5833777189254761,-0.0104619050398468,0.0204007886350154,0.0,0.0,-0.7860490679740906,-0.8166297078132629
-0.0131125450134277,1.2474125623703003,-0.0551588721573352,-0.6096460819244385,-0.0084725059568881,0.0397914461791515,0.0,0.0,-0.6886478066444397,-0.8710615038871765
-0.0136487958952784,1.23308527469635,-0.0567956045269966,-0.6367491483688354,-0.0053391852416098,0.0626722499728202,0.0,0.0,-0.6029312610626221,-0.7053577303886414
-0.0141803743317723,1.218166470527649,-0.0571402311325073,-0.6630523204803467,-0.0013933709124103,0.078923188149929,0.0,0.0,-0.3610546588897705,-0.3157264590263366
-0.0146681787446141,1.20264732837677,-0.0524951145052909,-0.6897404789924622,0.0022877056617289,0.0736279711127281,0.0,0.0,-0.6586620211601257,0.0531752109527587
-0.0151162147521972,1.1865278482437134,-0.048254519701004,-0.7164283394813538,0.0057073109783232,0.0683979913592338,0.0,0.0,-0.7693776488304138,0.1281627416610717
-0.0155285838991403,1.1698081493377686,-0.0444296970963478,-0.7431161999702454,0.0088682975620031,0.0632252544164657,0.0,0.0,-0.3876503705978393,0.6606976985931396
-0.0158461574465036,1.152493596076965,-0.0330955535173416,-0.7695421576499939,0.0101834209635853,0.0263050012290477,0.0,0.0,0.1724653244018554,-0.7228468656539917
-0.016187572851777,1.135044813156128,-0.0366774946451187,-0.775520384311676,0.0126946391537785,0.0502288714051246,0.0,0.0,-0.4555887579917907,-0.0267762541770935
-0.0165061000734567,1.1169955730438232,-0.0341518223285675,-0.8022109866142273,0.0149566419422626,0.0452441163361072,0.0,0.0,0.3257079124450683,0.5656208992004395
-0.0167040824890136,1.098717451095581,-0.0208329446613788,-0.812362790107727,0.0159802250564098,0.0204738266766071,0.0,0.0,0.2112308740615844,-0.3917232751846313
-0.0169998165220022,1.0805442333221436,-0.0298743899911642,-0.8077060580253601,0.0162810459733009,0.0060166968032717,0.0,0.0,0.6151068210601807,-0.3835958242416382
-0.0174394603818655,1.062777757644653,-0.043362446129322,-0.7896141409873962,0.0156866777688264,-0.0118873938918113,0.0,0.0,0.3332415819168091,-0.6866071820259094
-0.0179342273622751,1.045293211936951,-0.0500281266868114,-0.7770987153053284,0.0162312146276235,0.0108908507972955,0.0,0.0,0.6631330251693726,-0.4788036942481994
-0.0185733791440725,1.0284509658813477,-0.0636237114667892,-0.7485406398773193,0.0159398224204778,-0.0058277319185435,0.0,0.0,0.041874885559082,-0.7953037023544312
-0.019383143633604,1.011743664741516,-0.0820152461528778,-0.7425577044487,0.0169687196612358,0.0205779615789651,0.0,0.0,0.8903685808181763,-0.1176888346672058
-0.020234489813447,0.9952720999717712,-0.0858484506607055,-0.7320811748504639,0.0176681205630302,0.0139880776405334,0.0,0.0,0.4184014797210693,-0.6820477247238159
-0.0211475379765033,0.979296863079071,-0.0932004228234291,-0.7100334763526917,0.0195418987423181,0.0374752543866634,0.0,0.0,-0.7526914477348328,0.1641162633895874
-0.022077178582549,0.9627212285995485,-0.0946566984057426,-0.7367182970046997,0.0212067477405071,0.0332971140742301,0.0,0.0,-0.3600279092788696,0.2003706693649292
-0.0230277068912982,0.9455450773239136,-0.0965284332633018,-0.763403058052063,0.0226675346493721,0.0292158164083957,0.0,0.0,-0.6908776164054871,0.237811803817749
-0.0240029338747262,0.9277685284614564,-0.0988049805164337,-0.7900876998901367,0.0239291973412036,0.0252333469688892,0.0,0.0,0.7243797779083252,0.3216619491577148
-0.0250056274235248,0.9103738069534302,-0.1014212965965271,-0.7731155157089233,0.0250753108412027,0.0229224544018507,0.0,0.0,-0.6405417919158936,0.2298833131790161
-0.0260406490415334,0.8923786878585815,-0.104471743106842,-0.7998000383377075,0.0260325148701667,0.0191437788307666,0.0,0.0,0.4027206897735595,-0.7874419689178467
-0.0272089950740337,0.8743552565574646,-0.1191673725843429,-0.8010795712471008,0.0283376723527908,0.0461032465100288,0.0,0.0,0.4023585319519043,0.8487222194671631
-0.0283315666019916,0.8567113280296326,-0.1127447485923767,-0.7841893434524536,0.0288185160607099,0.0096169095486402,0.0,0.0,0.6720669269561768,0.1290647983551025
-0.0295614246279001,0.8397435545921326,-0.1231051906943321,-0.7541191577911377,0.0289423540234565,0.0024766814894974,0.0,0.0,0.6786911487579346,0.1085109710693359
-0.0308263786137104,0.8231027126312256,-0.1265918314456939,-0.7395918369293213,0.0290319249033927,0.0017916560173034,0.0,0.0,-0.520444929599762,0.1037129163742065
-0.0321405418217182,0.8058614730834961,-0.1313398629426956,-0.7662762999534607,0.0289602447301149,-0.0014336085878312,0.0,0.0,-0.4530977010726928,0.8253223896026611
-0.0334280021488666,0.788021445274353,-0.1265100389719009,-0.7928529977798462,0.0267555024474859,-0.0440951511263847,0.0,0.0,-0.206523060798645,-0.2258573770523071
-0.0347702018916606,0.7695808410644531,-0.1318365484476089,-0.8195378184318542,0.024401681497693,-0.0470761880278587,0.0,0.0,0.9203547239303588,-0.1319679617881775
-0.0360694900155067,0.7514655590057373,-0.1279315203428268,-0.8050930500030518,0.0224391128867864,-0.0392516665160656,0.0,0.0,0.9626197814941406,0.7157609462738037
-0.0374316200613975,0.7332661747932434,-0.1325258463621139,-0.8088082075119019,0.0187903847545385,-0.0729742795228958,0.0,0.0,0.9840741157531738,0.364399790763855
-0.0388083457946777,0.7150700688362122,-0.1341089904308319,-0.8086802959442139,0.0152677232399582,-0.0704531446099281,0.0,0.0,0.8881962299346924,0.8334803581237793
-0.0401148796081543,0.697038471698761,-0.1254392713308334,-0.8013628125190735,0.0101203443482518,-0.1029475703835487,0.0,0.0,0.9550659656524658,0.2713669538497925
-0.041630744934082,0.6798847913742065,-0.1456397175788879,-0.7623614072799683,0.0042430255562067,-0.1175462454557418,0.0,0.0,0.3464370965957641,0.1907436847686767
-0.0433259010314941,0.6630938649177551,-0.1629458516836166,-0.7462578415870667,-0.0022414999548345,-0.1296905130147934,0.0,0.0,-0.5545397996902466,0.778245210647583
-0.0450318343937397,0.6457008719444275,-0.1624091267585754,-0.7730571627616882,-0.0103184375911951,-0.1615387946367263,0.0,0.0,-0.7429013848304749,0.1921875476837158
-0.0468096733093261,0.6277084350585938,-0.1695059090852737,-0.7997474670410156,-0.0184863694012165,-0.1633587032556533,0.0,0.0,-0.2188107371330261,0.4443888664245605
-0.0486609451472759,0.6091164350509644,-0.1767691671848297,-0.8264380097389221,-0.0267368610948324,-0.1650100499391555,0.0,0.0,0.9155921936035156,0.3986998796463012
-0.0504465103149414,0.5906927585601807,-0.1707313358783722,-0.8189918994903564,-0.0344748944044113,-0.1547604203224182,0.0,0.0,0.9901151657104492,-0.2090014815330505
-0.0522715561091899,0.5731096863746643,-0.1746141165494918,-0.7816702723503113,-0.042259968817234,-0.1557016670703888,0.0,0.0,0.5315858125686646,0.4427999258041382
-0.0540168769657611,0.5555956363677979,-0.1672493517398834,-0.7786251306533813,-0.0494618006050586,-0.144036591053009,0.0,0.0,0.9501148462295532,0.4325442314147949
-0.0559260360896587,0.5383235812187195,-0.1830615997314453,-0.7679266333580017,-0.0572316497564315,-0.155396819114685,0.0,0.0,0.8370621204376221,0.431448221206665
-0.0577599518001079,0.5217700600624084,-0.1759862601757049,-0.7360134720802307,-0.0645545423030853,-0.1464575231075287,0.0,0.0,0.856563925743103,0.6294378042221069
-0.0594097152352333,0.5057330131530762,-0.1567198932170868,-0.7131345272064209,-0.0727264881134033,-0.1634389460086822,0.0,0.0,-0.4574826955795288,0.2306605577468872
-0.0611411109566688,0.4890965223312378,-0.164874866604805,-0.7398251295089722,-0.0809152349829673,-0.1637749224901199,0.0,0.0,0.7732353210449219,0.7179138660430908
-0.0629185661673545,0.4731316566467285,-0.1678288578987121,-0.7101120352745056,-0.0907362103462219,-0.1964196115732193,0.0,0.0,-0.8625457286834717,0.6381229162216187
-0.0647250190377235,0.4565548896789551,-0.1693497896194458,-0.7374654412269592,-0.1019352152943611,-0.2239802330732345,0.0,0.0,-0.5382108092308044,0.6782693862915039
-0.0665705651044845,0.4393762350082397,-0.1721553802490234,-0.7643856406211853,-0.1142463237047195,-0.2462223321199417,0.0,0.0,0.6531200408935547,-0.2835490703582763
-0.0683187469840049,0.4223491549491882,-0.1630389541387558,-0.7577043771743774,-0.1259615272283554,-0.2343036830425262,0.0,0.0,0.8478571176528931,-0.5591656565666199
-0.0700818076729774,0.4057472050189972,-0.1657708585262298,-0.738785445690155,-0.1364470571279525,-0.2097102105617523,0.0,0.0,0.8837493658065796,-0.8475954532623291
-0.0719255432486534,0.3892306685447693,-0.1756097674369812,-0.7348923087120056,-0.1451779752969741,-0.1746182739734649,0.0,0.0,0.9465723037719728,-0.4646608829498291
-0.0738987922668457,0.3731799125671386,-0.1879551410675048,-0.7143072485923767,-0.1545286625623703,-0.1870144754648208,0.0,0.0,0.1567614078521728,-0.6671480536460876
-0.0759006515145301,0.3574336767196655,-0.1922629028558731,-0.7006776332855225,-0.1624533385038375,-0.1584931313991546,0.0,0.0,0.4579211473464966,-0.7457782626152039
-0.0779273062944412,0.3414555191993713,-0.1964395195245742,-0.710834264755249,-0.1686835587024688,-0.1246044263243675,0.0,0.0,0.9882612228393556,-0.8382864594459534
-0.0798975974321365,0.3264135420322418,-0.192656010389328,-0.6690347194671631,-0.1730690449476242,-0.0877093523740768,0.0,0.0,0.9910895824432372,-0.4817067384719848
-0.0819686874747276,0.3116435110569,-0.2023046910762787,-0.6570156812667847,-0.1778851151466369,-0.0963210612535476,0.0,0.0,0.965376615524292,0.4410282373428345
-0.0840921401977539,0.2974913120269775,-0.207149788737297,-0.6296202540397644,-0.1831031888723373,-0.1043610796332359,0.0,0.0,0.9369072914123536,0.4212626218795776
-0.0861349105834961,0.2838050425052643,-0.1993583291769027,-0.6088945865631104,-0.1880420893430709,-0.0987784191966056,0.0,0.0,0.8713253736495972,0.4430681467056274
-0.0882298499345779,0.2709688544273376,-0.2040298283100128,-0.5711990594863892,-0.1935349553823471,-0.1098574176430702,0.0,0.0,0.6694236993789673,0.2127476930618286
-0.090227410197258,0.2583698332309723,-0.1947683095932006,-0.560617208480835,-0.1985550224781036,-0.1004015207290649,0.0,0.0,0.7329323291778564,0.308779239654541
-0.0922664627432823,0.2457840591669082,-0.1988966315984726,-0.5600482821464539,-0.2036013007164001,-0.1009256243705749,0.0,0.0,0.5568641424179077,0.4140467643737793
-0.0942686051130294,0.2330283224582672,-0.1956416070461273,-0.567556619644165,-0.2082060426473617,-0.092095173895359,0.0,0.0,0.9188904762268066,0.5301392078399658
-0.09627465903759,0.2202446311712265,-0.1950263828039169,-0.568961501121521,-0.2138421982526779,-0.1127227172255516,0.0,0.0,0.9749538898468018,0.7809085845947266
-0.0981163010001182,0.2082411348819732,-0.1771771013736724,-0.5345150232315063,-0.2209093868732452,-0.1413441151380539,0.0,0.0,0.9416899681091307,-0.3420798778533935
-0.0997434630990028,0.1970096975564956,-0.1563283950090408,-0.5001479983329773,-0.2273753583431244,-0.1293191760778427,0.0,0.0,0.9203813076019288,-0.6081066727638245
-0.1014252677559852,0.1866353303194046,-0.162809669971466,-0.4619178473949432,-0.2328136414289474,-0.1087658554315567,0.0,0.0,0.7783972024917603,0.4319591522216797
-0.1032471656799316,0.1762290745973587,-0.176380306482315,-0.4634320437908172,-0.2387178838253021,-0.1180848628282547,0.0,0.0,0.9775149822235109,0.4689512252807617
-0.1048851981759071,0.1665842086076736,-0.1583926379680633,-0.4295520782470703,-0.2442148327827453,-0.1099389344453811,0.0,0.0,0.9462628364562988,-0.2670720815658569
-0.1065615639090538,0.1573687195777893,-0.1618729084730148,-0.4105453193187713,-0.2500747442245483,-0.1171989291906356,0.0,0.0,0.5368325710296631,-0.5263869166374207
-0.108260728418827,0.1485067754983902,-0.1652740240097046,-0.3946642875671386,-0.2548141181468963,-0.0947875306010246,0.0,0.0,0.9023300409317015,-0.4617134928703308
-0.1098561286926269,0.1402178853750229,-0.1550195515155792,-0.3691822290420532,-0.2594185471534729,-0.0920886471867561,0.0,0.0,0.8063218593597412,-0.3863122463226318
-0.1112813949584961,0.1322137415409088,-0.1386533081531524,-0.3564311563968658,-0.2633790671825409,-0.0792105421423912,0.0,0.0,0.7940833568572998,-0.9626622200012208
-0.11274204403162,0.1241561770439148,-0.14433354139328,-0.3584253191947937,-0.2651503980159759,-0.0354267619550228,0.0,0.0,0.9583410024642944,-0.0228192806243896
-0.1140558272600174,0.1161451637744903,-0.1303583085536956,-0.3562310338020324,-0.2662025094032287,-0.0210420694202184,0.0,0.0,0.9613041877746582,-0.7064324021339417
-0.1151473969221115,0.1084615290164947,-0.1101784706115722,-0.3413073718547821,-0.2651518583297729,0.0210132338106632,0.0,0.0,0.9316201210021972,-0.3092291355133056
-0.1160440444946289,0.1007802560925483,-0.0916447937488555,-0.3410355150699615,-0.2631299793720245,0.040437001734972,0.0,0.0,0.964303493499756,-0.353703498840332
-0.1167976409196853,0.0937941372394561,-0.0775139257311821,-0.3101069629192352,-0.2609190344810486,0.0442187935113906,0.0,0.0,0.8947708606719971,0.3114984035491943
-0.1173744201660156,0.087453968822956,-0.0602226145565509,-0.2813357412815094,-0.2583210170269012,0.0519604757428169,0.0,0.0,0.7781071662902832,-0.2082583904266357
-0.1177194565534591,0.0815024673938751,-0.0378821976482868,-0.2639184296131134,-0.2548775970935821,0.0688692182302475,0.0,0.0,0.8297076225280762,-0.5894572734832764
-0.1179843917489051,0.0754413232207298,-0.0315662883222103,-0.2685136795043945,-0.249703049659729,0.1034909263253212,0.0,0.0,0.6770826578140259,-0.5277016758918762
-0.1182970032095909,0.0695657804608345,-0.0374691151082515,-0.2600917816162109,-0.2433875352144241,0.1263107359409332,0.0,0.0,0.6833856105804443,-0.0491243600845336
-0.1183929443359375,0.0643383339047432,-0.0164270959794521,-0.2312167137861251,-0.2364414930343628,0.138920173048973,0.0,0.0,0.56557297706604,-0.4779078960418701
-0.1184619888663292,0.0593045800924301,-0.013877441175282,-0.2226182967424392,-0.2293644696474075,0.1415405422449112,0.0,0.0,0.4305825233459472,-0.1338167190551757
-0.1185564026236534,0.0547132827341556,-0.0161622837185859,-0.2030271589756012,-0.2225511819124221,0.1362656056880951,0.0,0.0,0.4310073852539062,0.1518611907958984
-0.1185197830200195,0.0503809079527854,-0.0036614560522139,-0.1914665400981903,-0.2151532620191574,0.1479587256908416,0.0,0.0,0.7183966636657715,-0.0904477834701538
-0.1184460669755935,0.0466095060110092,6.598272011615336e-05,-0.1665719598531723,-0.2077758759260177,0.1475478857755661,0.0,0.0,0.3438630104064941,-0.2914053201675415
-0.1183864623308181,0.0431524626910686,-0.0012889023637399,-0.1526435911655426,-0.2004718482494354,0.1460804939270019,0.0,0.0,0.3276929855346679,0.1504715681076049
-0.1183396354317665,0.0396894067525863,-0.0027204700745642,-0.1529315561056137,-0.1930216401815414,0.1490040719509124,0.0,0.0,0.3081554174423218,-0.2902556657791137
-0.1183638572692871,0.0363535247743129,-0.009644977748394,-0.1473350375890731,-0.1857595294713974,0.1452424377202987,0.0,0.0,0.1635571718215942,0.5814907550811768
-0.1184608489274978,0.0329796634614467,-0.0158161614090204,-0.1491995453834533,-0.1796241402626037,0.122707650065422,0.0,0.0,0.349827766418457,0.8805640935897827
-0.1183559447526931,0.0298316106200218,0.0057975659146904,-0.1393519192934036,-0.1749217808246612,0.0940471589565277,0.0,0.0,0.6270685195922852,-0.038167655467987
-0.11819639056921,0.0266039464622735,0.0107492860406637,-0.1428478807210922,-0.1697000116109848,0.1044353395700454,0.0,0.0,0.4673206806182861,0.7346560955047607
-0.1177903190255165,0.0237321238964796,0.036375518888235,-0.1271606087684631,-0.1654655486345291,0.0846893489360809,0.0,0.0,0.4560122489929199,0.4504892826080322
-0.1173567771911621,0.0212764367461204,0.0389763824641704,-0.1086620762944221,-0.1610846519470214,0.0876175686717033,0.0,0.0,0.0171059370040893,-0.1359677910804748
-0.116815946996212,0.0189778190106153,0.0490529648959636,-0.1016241982579231,-0.1560581177473068,0.1005308181047439,0.0,0.0,-0.2494754791259765,-0.4177771806716919
-0.1163374930620193,0.0160786733031272,0.0425740852952003,-0.1283080428838729,-0.1507927179336547,0.1053077429533004,0.0,0.0,0.5396820306777954,-0.2623423337936401
-0.115760900080204,0.0141820283606648,0.0410030782222747,-0.0827203094959259,-0.1340987235307693,0.3339887261390686,1.0,0.0,0.477310299873352,0.588390588760376
-0.1149845123291015,0.0127188302576541,0.0619621388614177,-0.0637078359723091,-0.1184428036212921,0.3131703436374664,1.0,0.0,0.1933536529541015,0.3963648080825805
-0.1141103729605674,0.0111411903053522,0.0713822394609451,-0.068927526473999,-0.1025160029530525,0.3185484707355499,1.0,0.0,0.1248753070831298,-0.0289099812507629
-0.1132756248116493,0.0096072172746062,0.0677924826741218,-0.067173957824707,-0.086974412202835,0.3108318448066711,1.0,0.0,0.1736505031585693,0.3859984874725342
-0.1124999076128006,0.0080342981964349,0.0623085089027881,-0.0690892040729522,-0.0718551948666572,0.3023845553398132,1.0,0.0,0.2595888376235962,0.4324991703033447
-0.1117095947265625,0.0065088365226984,0.0638323053717613,-0.0671399310231208,-0.0568123832345008,0.3008557856082916,1.0,0.0,0.4263176918029785,0.679010272026062
-0.110814668238163,0.0050674173980951,0.0755973160266876,-0.0635935515165329,-0.0430762581527233,0.274722695350647,0.0,0.0,-0.2050790786743164,0.9060858488082886
-0.1098919883370399,0.0030137037392705,0.0803407505154609,-0.0909748077392578,-0.0312972515821456,0.2355799376964569,0.0,0.0,0.3184281587600708,0.9750561714172364
-0.1088240593671798,0.0013038492761552,0.0930551886558532,-0.075763389468193,-0.0177380815148353,0.2711836397647857,1.0,0.0,0.4906928539276123,0.206404447555542
-0.1077206581830978,8.698463352629915e-05,0.096502885222435,-0.0539758317172527,-0.004074809141457,0.2732653021812439,1.0,0.0,0.1508952379226684,-0.5155805945396423
