x_pos,y_pos,x_vel,y_vel,angle,ang_vel,leg_1,leg_2,main_booster,lat_booster
-0.0015532493125647,1.4030320644378662,-0.1569556891918182,-0.3505798578262329,0.0014624851755797,0.0288268327713012,0.0,0.0,-0.109277069568634,0.8546068668365479
-0.0030690194107592,1.3945707082748413,-0.1508279144763946,-0.3760576248168945,0.0007111790473572,-0.015026880428195,0.0,0.0,-0.3250887989997864,0.1669678688049316
-0.0046257972717285,1.3855164051055908,-0.1545563638210296,-0.4024101197719574,-0.0003929348895326,-0.0220843069255352,0.0,0.0,0.2216295003890991,0.8634521961212158
-0.0062620164826512,1.3764210939407349,-0.1603329479694366,-0.4042383432388305,-0.0036558608990162,-0.0652648359537124,0.0,0.0,-0.0642828941345214,0.5269351005554199
-0.0078991893678903,1.3667351007461548,-0.158756285905838,-0.4305151700973511,-0.0085589326918125,-0.098070353269577,0.0,0.0,0.0133229494094848,0.8027952909469604
-0.0094277383759617,1.3569533824920654,-0.1459374576807022,-0.4347900748252868,-0.0153959486633539,-0.1367532163858413,0.0,0.0,0.3699731826782226,0.3398480415344238
-0.011028098873794,1.3472987413406372,-0.1526265442371368,-0.4291886985301971,-0.0227186251431703,-0.1464670002460479,0.0,0.0,0.2353355884552002,0.5453203916549683
-0.012516975402832,1.3377741575241089,-0.140242800116539,-0.4234766960144043,-0.031262569129467,-0.1708949953317642,0.0,0.0,-0.0821378231048584,0.4807112216949463
-0.014074707403779,1.3276581764221191,-0.1467069238424301,-0.4498152434825897,-0.0402220003306865,-0.1792049407958984,0.0,0.0,0.2597193717956543,0.2560911178588867
-0.0156832691282033,1.3177809715270996,-0.1513738185167312,-0.4392533302307129,-0.049608901143074,-0.1877556145191192,0.0,0.0,-0.1908273696899414,0.1875522136688232
-0.017367934808135,1.307313084602356,-0.1585609763860702,-0.4655976593494415,-0.0594287402927875,-0.1964146196842193,0.0,0.0,-0.1082521080970764,0.130993366241455
-0.0191322322934865,1.2962545156478882,-0.1660729199647903,-0.4919340908527374,-0.06968954205513,-0.2052346915006637,0.0,0.0,0.0908030271530151,0.6230205297470093
-0.0208014491945505,1.2852845191955566,-0.1550075113773346,-0.4881477355957031,-0.0814953446388244,-0.2361379116773605,0.0,0.0,0.4661365747451782,0.7121003866195679
-0.0224071498960256,1.2741742134094238,-0.1469253450632095,-0.4945924580097198,-0.095045655965805,-0.2710310518741607,0.0,0.0,-0.0054708123207092,0.1073637008666992
-0.0241008754819631,1.262474536895752,-0.1552722305059433,-0.5209416747093201,-0.1090576872229576,-0.2802662253379822,0.0,0.0,-0.0198568105697631,0.0115894079208374
-0.025885010138154,1.2501859664916992,-0.1638578921556472,-0.5472914576530457,-0.1235382854938507,-0.2896385192871094,0.0,0.0,-0.4876250028610229,-0.1536216735839843
-0.0277616493403911,1.2373086214065552,-0.1726637780666351,-0.5736434459686279,-0.1384932249784469,-0.2991262078285217,0.0,0.0,-0.0319342613220214,0.2214950323104858
-0.0297328941524028,1.2238425016403198,-0.1816723346710205,-0.5999982953071594,-0.1539282202720642,-0.3087276816368103,0.0,0.0,0.4689397811889648,-0.3819053769111633
-0.0316058173775672,1.2108261585235596,-0.1717912703752517,-0.5801774859428406,-0.169444277882576,-0.3103493154048919,0.0,0.0,0.224411129951477,-0.4579132795333862
-0.0335650444030761,1.197856903076172,-0.1796982735395431,-0.5783417820930481,-0.1857302784919738,-0.3257494866847992,0.0,0.0,-0.1238248348236084,-0.6948422193527222
-0.0356656089425087,1.184316635131836,-0.1944953501224517,-0.6038143634796143,-0.2014096677303314,-0.3136160671710968,0.0,0.0,0.7892458438873291,-0.9548118710517884
-0.0378322601318359,1.170905351638794,-0.2025605738162994,-0.5980328321456909,-0.2156540602445602,-0.2849132716655731,0.0,0.0,0.90659761428833,-0.8816166520118713
-0.0398740768432617,1.1577943563461304,-0.1916928142309188,-0.5845897793769836,-0.228316068649292,-0.2532629668712616,0.0,0.0,-0.0821420550346374,-0.9094665050506592
-0.0420832633972168,1.1441057920455933,-0.2095450609922409,-0.610185444355011,-0.2398751676082611,-0.2312022000551223,0.0,0.0,0.4279866218566894,-0.7933551073074341
-0.0444593429565429,1.1307119131088257,-0.2271522581577301,-0.5970240235328674,-0.2505348324775696,-0.2132125198841095,0.0,0.0,0.2240381240844726,-0.7353667616844177
-0.0469897277653217,1.117536544799805,-0.2434092015028,-0.5872466564178467,-0.2603608667850494,-0.1965204328298568,0.0,0.0,0.623429536819458,-0.2738698720932007
-0.0494401939213275,1.1048052310943604,-0.2349442690610885,-0.5676702857017517,-0.2706902027130127,-0.2065870016813278,0.0,0.0,-0.0137152671813964,-0.8139716386795044
-0.0520727150142192,1.0915238857269287,-0.254619687795639,-0.5919020175933838,-0.2795289158821106,-0.1767749488353729,0.0,0.0,0.947994351387024,-0.7013176679611206
-0.0547735206782817,1.0790668725967407,-0.2619750797748565,-0.5552206635475159,-0.287870705127716,-0.1668355613946914,0.0,0.0,0.2375659942626953,-0.536582887172699
-0.0575380325317382,1.0665690898895264,-0.2688578963279724,-0.5569781064987183,-0.2956904768943786,-0.1563952565193176,0.0,0.0,0.292536973953247,-0.1460253596305847
-0.0602059364318847,1.0544257164001465,-0.2587710320949554,-0.5413542985916138,-0.3039764761924743,-0.1657199561595916,0.0,0.0,-0.0014104843139648,-0.7035133242607117
-0.0630455017089843,1.0417171716690063,-0.2769922912120819,-0.5663002133369446,-0.3111863434314728,-0.1441975086927414,0.0,0.0,0.931260108947754,-0.7285186052322388
-0.065862275660038,1.0298378467559814,-0.2754133939743042,-0.5293289422988892,-0.3176866769790649,-0.1300064027309417,0.0,0.0,-0.497877299785614,-0.719550609588623
-0.0688521414995193,1.0173920392990112,-0.2937683165073395,-0.5543040037155151,-0.3231126070022583,-0.1085185632109642,0.0,0.0,0.7485873699188232,-0.7986372113227844
-0.0717851668596267,1.0053231716156006,-0.2891706824302673,-0.5373258590698242,-0.3274146020412445,-0.0860404223203659,0.0,0.0,0.7946780920028687,-0.5529683828353882
-0.0745872482657432,0.9938458800315856,-0.2767118811607361,-0.5108934640884399,-0.3310711681842804,-0.0731307491660118,0.0,0.0,0.5651295185089111,0.3465886116027832
-0.0773861855268478,0.982403039932251,-0.2757585942745209,-0.5095303654670715,-0.3353905081748962,-0.0863863453269004,0.0,0.0,0.538933277130127,-0.1070910096168518
-0.080031968653202,0.9713570475578308,-0.2600886225700378,-0.4919808804988861,-0.3400953114032745,-0.0940958261489868,0.0,0.0,-0.0728165507316589,-0.0292917490005493
-0.0827919021248817,0.959721565246582,-0.2709793746471405,-0.5183256268501282,-0.3453511893749237,-0.1051170229911804,0.0,0.0,0.3825641870498657,-0.0413436293601989
-0.0854717269539833,0.9482025504112244,-0.2625543773174286,-0.5132700204849243,-0.3510501086711883,-0.1139789223670959,0.0,0.0,0.3396188020706177,-0.6358660459518433
-0.0881843566894531,0.9370632767677308,-0.2663963437080383,-0.4962732195854187,-0.3561618328094482,-0.1022353619337081,0.0,0.0,0.0733143091201782,-0.726990282535553
-0.090860940515995,0.9257929921150208,-0.2637598216533661,-0.5018793940544128,-0.3602733612060547,-0.082229807972908,0.0,0.0,0.6889326572418213,-0.3594875335693359
-0.093446634709835,0.9143304228782654,-0.2545816600322723,-0.5104487538337708,-0.3644814193248749,-0.0841608494520187,0.0,0.0,0.951613187789917,-0.5690743327140808
-0.0958505645394325,0.9031096696853638,-0.2373176515102386,-0.4994825720787048,-0.3677283823490143,-0.0649396926164627,0.0,0.0,0.708118200302124,-0.1105505228042602
-0.0982996001839637,0.8917483687400818,-0.2411256283521652,-0.5059269666671753,-0.37172731757164,-0.0799788683652877,0.0,0.0,0.846484899520874,-0.4157279729843139
-0.1006806343793869,0.8802915811538696,-0.2340309619903564,-0.5102613568305969,-0.3760469257831573,-0.0863926410675048,0.0,0.0,0.7440210580825806,-0.2124149799346923
-0.1029441803693771,0.868867814540863,-0.2220394909381866,-0.5088587999343872,-0.3806273937225342,-0.0916095897555351,0.0,0.0,0.9798842668533324,-0.7179732918739319
-0.1051373481750488,0.8583658337593079,-0.2155613601207733,-0.4677663147449493,-0.3846243917942047,-0.0799399986863136,0.0,0.0,0.7825107574462891,-0.5462275743484497
-0.1073072403669357,0.8485710024833679,-0.2133838236331939,-0.4362972676753998,-0.3884619772434234,-0.076751634478569,0.0,0.0,0.9234790802001952,-0.9004067778587341
-0.1094597801566124,0.8390620946884155,-0.2128350436687469,-0.4232824742794037,-0.391052633523941,-0.0518129579722881,0.0,0.0,0.9274568557739258,-0.4362388849258423
-0.1113197356462478,0.8297919631004333,-0.1837693452835083,-0.4126210510730743,-0.3934286832809448,-0.0475208275020122,0.0,0.0,0.974773406982422,-0.7360818386077881
-0.1130788773298263,0.8212326169013977,-0.1744275391101837,-0.3808218240737915,-0.3950101435184479,-0.031628955155611,0.0,0.0,0.9597392082214355,-0.8517893552780151
-0.1146830543875694,0.8127662539482117,-0.1603254973888397,-0.3763072192668915,-0.3951162993907928,-0.0021232147701084,0.0,0.0,0.9011809825897216,-0.7847853899002075
-0.1161011680960655,0.8050212264060974,-0.1427286118268966,-0.3439747989177704,-0.3941416144371032,0.0194938518106937,0.0,0.0,0.8443756103515625,-0.8770292401313782
-0.1173215880990028,0.7973713874816895,-0.1244137734174728,-0.3393315970897674,-0.3915959894657135,0.050912506878376,0.0,0.0,0.8824084997177124,-0.9003123641014099
-0.1186303123831749,0.7899819612503052,-0.1342841982841491,-0.3274823725223541,-0.3879619240760803,0.0726815313100814,0.0,0.0,0.8952655792236328,-0.938948690891266
-0.1196646690368652,0.7832548022270203,-0.1083362475037574,-0.2976584434509277,-0.3827388286590576,0.1044616475701332,0.0,0.0,0.788497805595398,-0.8412767648696899
-0.1204500198364257,0.7769023776054382,-0.0848342254757881,-0.2806537449359894,-0.3760382533073425,0.1340116411447525,0.0,0.0,0.3368014097213745,-0.3139373660087585
-0.1210502609610557,0.770857036113739,-0.0660859942436218,-0.2671039402484894,-0.3696115612983703,0.1285343319177627,0.0,0.0,0.3693203926086426,-0.680762529373169
-0.1216444969177246,0.7652056217193604,-0.0662033557891845,-0.2494348585605621,-0.3624440431594848,0.1433505862951278,0.0,0.0,-0.079797625541687,-0.5892041325569153
-0.122395321726799,0.7589830756187439,-0.0823988020420074,-0.2747292518615722,-0.3547252416610718,0.1543762683868408,0.0,0.0,0.1799056529998779,-0.4272884726524353
-0.1231547370553016,0.752913236618042,-0.0824562385678291,-0.2681805491447449,-0.3478860259056091,0.1367844343185424,0.0,0.0,-0.4266654253005981,-0.0934604406356811
-0.1240297332406044,0.7462540864944458,-0.0935028940439224,-0.2945274710655212,-0.3415930569171905,0.1258599609136581,0.0,0.0,0.0563609600067138,-0.5837020874023438
-0.1249159798026084,0.7395748496055603,-0.0952863246202468,-0.2952956855297088,-0.3346248865127563,0.1393627673387527,0.0,0.0,-0.0360099673271179,-0.5695294141769409
-0.1259601563215255,0.7323241829872131,-0.1116755828261375,-0.3205962777137756,-0.3270531594753265,0.1514337360858917,0.0,0.0,0.1608577966690063,-0.3067150115966797
-0.1270683258771896,0.7251155376434326,-0.1171916350722312,-0.3189500868320465,-0.3204224407672882,0.1326140910387039,0.0,0.0,-0.1485565900802612,-0.6999747157096863
-0.1283400505781173,0.717350423336029,-0.1343764513731002,-0.3435425162315368,-0.3129410743713379,0.1496277153491974,0.0,0.0,-0.5021159052848816,-0.8408946990966797
-0.1297830641269683,0.7090128660202026,-0.1524184048175811,-0.3688324093818664,-0.3045222759246826,0.1683757901191711,0.0,0.0,0.7271424531936646,-0.729432225227356
-0.1310963630676269,0.7013830542564392,-0.1404743641614914,-0.3372177183628082,-0.2950744926929474,0.1889556050300598,0.0,0.0,0.3250859975814819,0.0037863254547119
-0.1324857771396637,0.6937417387962341,-0.1472448855638504,-0.3379544019699096,-0.2865006923675537,0.171476274728775,0.0,0.0,-0.0893926620483398,-0.6664602160453796
-0.1340463608503341,0.6855393052101135,-0.1654156595468521,-0.362744003534317,-0.2768851518630981,0.192311018705368,0.0,0.0,-0.513153612613678,-0.0223309993743896
-0.1357206404209137,0.6767475008964539,-0.1762919276952743,-0.3890909552574157,-0.2677855789661407,0.1819914728403091,0.0,0.0,0.3912900686264038,0.5385487079620361
-0.1373911798000335,0.6684303879737854,-0.1741270422935485,-0.3683733642101288,-0.2605506777763366,0.1446977704763412,0.0,0.0,-0.9801579117774964,0.2561902999877929
-0.1391745507717132,0.6595233082771301,-0.1849383562803268,-0.3947161436080932,-0.2538213431835174,0.1345867812633514,0.0,0.0,-0.7748302221298218,0.0691511631011962
-0.1410705596208572,0.6500260233879089,-0.1957131773233413,-0.4210579693317413,-0.2475917339324951,0.1245925053954124,0.0,0.0,-0.0541713237762451,0.4299315214157104
-0.1430787146091461,0.6399382948875427,-0.2064481228590011,-0.447398841381073,-0.241855502128601,0.114724576473236,0.0,0.0,0.3604433536529541,0.5233054161071777
-0.1451196670532226,0.629657506942749,-0.2081532776355743,-0.4562637209892273,-0.2377315759658813,0.0824785754084587,0.0,0.0,0.7769379615783691,-0.3936071395874023
-0.1470794677734375,0.6200329065322876,-0.1995376199483871,-0.4271935224533081,-0.2341284304857254,0.0720628648996353,0.0,0.0,0.0251805782318115,0.3716974258422851
-0.1489841490983963,0.610538899898529,-0.1937802284955978,-0.4214377403259277,-0.2307667285203933,0.0672338232398033,0.0,0.0,-0.882050633430481,0.6402019262313843
-0.1509576737880706,0.6004460453987122,-0.1991821676492691,-0.4482856690883636,-0.2289126366376876,0.0370816886425018,0.0,0.0,0.1869901418685913,0.6862802505493164
-0.1530366837978363,0.5901201367378235,-0.207779973745346,-0.4589473307132721,-0.2290335595607757,-0.0024184053763747,0.0,0.0,0.0178242921829223,0.9622042179107666
-0.1550089865922927,0.5798869729042053,-0.1947630643844604,-0.4551950991153717,-0.2315453290939331,-0.0502356514334678,0.0,0.0,-0.890209972858429,0.6115455627441406
-0.1570500433444976,0.5690489411354065,-0.20018370449543,-0.4823066890239715,-0.235515147447586,-0.0793962180614471,0.0,0.0,0.6994109153747559,0.1935265064239502
-0.1590897589921951,0.5586568713188171,-0.1993982940912246,-0.4626103937625885,-0.2401665151119232,-0.0930272117257118,0.0,0.0,-0.17000812292099,-0.4821044206619262
-0.1612352430820465,0.5476740598678589,-0.2095731943845749,-0.4889479577541351,-0.2452260851860046,-0.1011911630630493,0.0,0.0,-0.4913471341133117,-0.7202140688896179
-0.1635324507951736,0.5361181497573853,-0.2255888879299163,-0.5142899751663208,-0.2494363635778427,-0.0842059403657913,0.0,0.0,0.2228834629058838,0.8791208267211914
-0.1657853126525879,0.5242982506752014,-0.2190412580966949,-0.5264008641242981,-0.2557995021343231,-0.127262994647026,0.0,0.0,0.6396465301513672,-0.8025389909744263
-0.1680030822753906,0.5124472975730896,-0.2169372290372848,-0.5275620222091675,-0.2607337832450866,-0.0986855551600456,0.0,0.0,0.8509454727172852,-0.1020680665969848
-0.1699974089860916,0.5008688569068909,-0.1950190663337707,-0.5153902173042297,-0.2652536034584045,-0.0903964340686798,0.0,0.0,0.9806082248687744,0.6763333082199097
-0.1717435866594314,0.4892874360084533,-0.1689849346876144,-0.5157617926597595,-0.2710217535495758,-0.1153626888990402,0.0,0.0,0.9624404907226562,-0.8861066699028015
-0.1734219491481781,0.4784419536590576,-0.1636478751897812,-0.4828032255172729,-0.2753138840198517,-0.0858431905508041,0.0,0.0,0.9935508966445924,-0.2880190014839172
-0.1749117821455001,0.4683113396167755,-0.1446790993213653,-0.4510620534420013,-0.2797244489192962,-0.0882110744714737,0.0,0.0,0.9738699197769164,-0.1518681049346923
-0.1761328727006912,0.4586770534515381,-0.1182222589850425,-0.428941935300827,-0.2837164998054504,-0.0798410698771476,0.0,0.0,0.988611936569214,-0.6717569231987
-0.177263543009758,0.4489779770374298,-0.110585406422615,-0.4315536618232727,-0.2862659692764282,-0.050989668816328,0.0,0.0,0.99796462059021,-0.010018765926361
-0.1783715188503265,0.4396005570888519,-0.1078233569860458,-0.4173625409603119,-0.2893328368663788,-0.0613373927772045,0.0,0.0,0.9891304969787598,-0.4667081832885742
-0.1791736632585525,0.4310813546180725,-0.0774917528033256,-0.3791709244251251,-0.2921268939971924,-0.0558813884854316,0.0,0.0,0.9452056884765624,-0.905383050441742
-0.1799655854701995,0.4229766428470611,-0.0780528038740158,-0.3604408800601959,-0.2933097779750824,-0.0236574579030275,0.0,0.0,0.9763506650924684,-0.8199023604393005
-0.1807811707258224,0.4157520532608032,-0.0815549343824386,-0.3210929632186889,-0.2933084964752197,2.5715818992466662e-05,0.0,0.0,0.962315797805786,-0.9444848299026488
-0.1813983023166656,0.4091130495071411,-0.0636714100837707,-0.2946754992008209,-0.2912996709346771,0.0401770025491714,0.0,0.0,0.6931958198547363,-0.8240635991096497
-0.1819912940263748,0.4030466973781585,-0.0626805275678634,-0.2689423263072967,-0.2878040671348572,0.0699117630720138,0.0,0.0,0.7946624755859375,-0.6998605728149414
-0.1825728416442871,0.3976280689239502,-0.0626711994409561,-0.2399455904960632,-0.2831617593765259,0.0928461477160453,0.0,0.0,0.0257343053817749,-0.6916698813438416
-0.1832088530063629,0.3920909166336059,-0.0694406181573867,-0.2449769526720047,-0.2771602869033813,0.1200297325849533,0.0,0.0,-0.5289855003356934,-0.4014776945114136
-0.1839123666286468,0.3859617412090301,-0.0762079879641532,-0.2713074684143066,-0.2711571455001831,0.1200629025697708,0.0,0.0,-0.22413170337677,-0.2396535873413086
-0.1846798956394195,0.3792406320571899,-0.0826426371932029,-0.2976372838020324,-0.2651214897632599,0.1207130998373031,0.0,0.0,-0.2929633855819702,-0.1962507963180542
-0.1855074912309646,0.3719273507595062,-0.0887272506952285,-0.3239664733409881,-0.2590223848819732,0.1219818592071533,0.0,0.0,0.6519250869750977,0.1614656448364257
-0.1862374246120453,0.3645332455635071,-0.0793425515294075,-0.327518880367279,-0.2525452971458435,0.1295416802167892,0.0,0.0,0.535944938659668,0.0179457664489746
-0.1867115050554275,0.3575265407562256,-0.0545063912868499,-0.3102041482925415,-0.2453196495771408,0.1445130705833435,0.0,0.0,-0.1783612370491027,0.444972276687622
-0.1872333586215973,0.3499277234077453,-0.0594414472579956,-0.3365329504013061,-0.2379390746355056,0.1476111412048339,0.0,0.0,-0.4893119931221008,0.6043616533279419
-0.1877400428056717,0.3417224586009979,-0.0566359348595142,-0.3637250661849975,-0.2318767756223678,0.1212460547685623,0.0,0.0,0.4416919946670532,0.6205284595489502
-0.1880506575107574,0.3336211144924164,-0.0361678004264831,-0.3592691123485565,-0.2267031073570251,0.1034734025597572,0.0,0.0,0.7031939029693604,0.8605279922485352
-0.1881465911865234,0.3261453211307525,-0.0132302194833755,-0.3317027390003204,-0.2230294793844223,0.0734725669026374,0.0,0.0,-0.3438476324081421,0.797762393951416
-0.1882032454013824,0.3180603682994842,-0.0078201899304986,-0.359008252620697,-0.2208515256643295,0.043558795005083,0.0,0.0,0.1818844079971313,0.7352594137191772
-0.1880927085876464,0.3098181188106537,0.0100139742717146,-0.3661672174930572,-0.2197952717542648,0.0211251825094223,0.0,0.0,0.6811914443969727,-0.1008610129356384
-0.1879858970642089,0.3019442856311798,0.0098859369754791,-0.3498287200927734,-0.2189969420433044,0.0159665271639823,0.0,0.0,0.6493364572525024,0.0306885242462158
-0.1879071295261383,0.294271320104599,0.0073330113664269,-0.3409403562545776,-0.2184504121541977,0.0109305707737803,0.0,0.0,0.2169406414031982,0.3653362989425659
-0.1877634972333908,0.2866180837154388,0.0135380821302533,-0.3400188684463501,-0.2176144272089004,0.0167198590934276,0.0,0.0,0.0375136137008667,-0.0626007914543151
-0.1875361502170562,0.2788568437099457,0.0214491076767444,-0.3447571396827698,-0.2163196355104446,0.0258956551551818,0.0,0.0,-0.0107064843177795,0.0310121774673461
-0.1873085051774978,0.2705020904541015,0.0210869275033473,-0.371077686548233,-0.2146222591400146,0.0339474119246006,0.0,0.0,0.625796914100647,-0.2488284111022949
-0.1868384331464767,0.2625093162059784,0.0444653108716011,-0.3548672795295715,-0.212060734629631,0.051230389624834,0.0,0.0,0.2390153408050537,-0.2612673044204712
-0.1862125396728515,0.2548042237758636,0.0595347471535205,-0.3420137465000152,-0.208975151181221,0.0617116279900074,0.0,0.0,-0.3637464046478271,-0.5879020094871521
