x_pos,y_pos,x_vel,y_vel,angle,ang_vel,leg_1,leg_2,main_booster,lat_booster
-0.0015310287708416,1.4034768342971802,-0.1542348861694336,-0.3308087587356567,0.0010083105880767,0.0198339521884918,0.0,0.0,-0.1572402201764056,0.5251484297753336
-0.0030249594710767,1.395906686782837,-0.1484656035900116,-0.3364492356777191,9.223944653058425e-05,-0.0183225478976964,0.0,0.0,-0.5764354404541765,-0.6957241601252964
-0.0045689581893384,1.3881834745407104,-0.1537744104862213,-0.3432559370994568,-0.0005239137099124,-0.012324009090662,0.0,0.0,0.0982405094790201,0.9782205126534764
-0.0061376569792628,1.380807638168335,-0.1535090655088424,-0.3278177082538605,-0.0038486127741634,-0.0665003359317779,0.0,0.0,0.8552239656556195,0.926347911971522
-0.0074775693938136,1.374384522438049,-0.1282969713211059,-0.2854984402656555,-0.0094798253849148,-0.1126346215605735,0.0,0.0,0.1654427868091612,-0.5539399613545664
-0.0087579730898141,1.368387222290039,-0.1228794306516647,-0.2665933072566986,-0.014580151066184,-0.1020158305764198,0.0,0.0,0.7174581338615049,0.841960119971271
-0.0099965091794729,1.363142490386963,-0.1161664575338363,-0.2331938296556472,-0.0221792459487915,-0.1519961059093475,0.0,0.0,0.1987672269456777,-0.5929811797492384
-0.0111583713442087,1.358454346656799,-0.1091243773698806,-0.2084851264953613,-0.0291597321629524,-0.1396226435899734,0.0,0.0,-0.1514620014966372,0.5715132907723863
-0.012283039279282,1.3536241054534912,-0.1034912094473838,-0.2148822098970413,-0.0380351208150386,-0.1775242090225219,0.0,0.0,0.4823625662563295,0.9068058121776524
-0.0133190155029296,1.349626541137695,-0.092016652226448,-0.1780014038085937,-0.0494931638240814,-0.2291822880506515,0.0,0.0,0.8676349073391929,0.662732904018664
-0.014171409420669,1.346479415893555,-0.0718223825097084,-0.1403666138648986,-0.062777429819107,-0.2657095789909363,0.0,0.0,-0.436552362384881,0.9366241600404974
-0.0149481771513819,1.343178629875183,-0.061368279159069,-0.1474650353193283,-0.0789265558123588,-0.3230122923851013,0.0,0.0,0.5676705891487159,0.8565089435121688
-0.0154732707887887,1.340707778930664,-0.0339496359229087,-0.1109005138278007,-0.0973462536931037,-0.3684281706809997,0.0,0.0,-0.0295356364921972,0.6554937638255207
-0.0159473419189453,1.3380810022354126,-0.0266267247498035,-0.1182383820414543,-0.1180095896124839,-0.4133046567440033,0.0,0.0,-0.0854531626460555,0.8012663487646775
-0.0163489338010549,1.3353086709976196,-0.0166585966944694,-0.1252371072769165,-0.1414268761873245,-0.4683888554573059,0.0,0.0,0.5088421100567069,0.7169128760880126
-0.0165528301149606,1.3327579498291016,0.0050375121645629,-0.1159868761897087,-0.1668562293052673,-0.5086341500282288,0.0,0.0,-0.3751050394498467,-0.6150449522832606
-0.0167974475771188,1.3300859928131104,0.0006967749795876,-0.1217794194817543,-0.1921224594116211,-0.5053706765174866,0.0,0.0,-0.2523758308989352,-0.8547621200091724
-0.0170978549867868,1.3272840976715088,-0.0055192024447023,-0.1278978735208511,-0.216875746846199,-0.495110809803009,0.0,0.0,0.8013385906183246,0.9629111436782616
-0.0170231815427541,1.3255740404129028,0.0343557894229888,-0.0801857784390449,-0.2441641241312027,-0.5458175539970398,0.0,0.0,-0.5496914510857369,-0.724710678288428
-0.0170147903263568,1.3237510919570925,0.026689613237977,-0.0855399295687675,-0.2705844640731811,-0.5284544229507446,0.0,0.0,-0.9832238105486936,-0.9790310601640784
-0.0170668605715036,1.321823239326477,0.0196984093636274,-0.0905056893825531,-0.2962269783020019,-0.512896716594696,0.0,0.0,0.9772216313265304,-0.779503231538541
-0.017012596130371,1.3205342292785645,0.029362803325057,-0.0623541064560413,-0.3210457861423492,-0.4964205622673034,0.0,0.0,0.2768929002060771,0.7925394767541749
-0.016661262139678,1.3196237087249756,0.0610413923859596,-0.0464495010673999,-0.3481540977954864,-0.5422159433364868,0.0,0.0,0.240100960146629,0.873166759809507
-0.0161128994077444,1.3188341856002808,0.0829003304243087,-0.0421658530831337,-0.3778147101402282,-0.5932655334472656,0.0,0.0,-0.4275925518118453,-0.5656142194288521
-0.0156164169311523,1.3179428577423096,0.076784148812294,-0.047064121812582,-0.4068200290203094,-0.5801584720611572,0.0,0.0,-0.4659323847461736,0.930087818231632
-0.015074348077178,1.3168710470199585,0.0830943435430526,-0.0562563277781009,-0.4380684196949005,-0.6249676942825317,0.0,0.0,-0.6130440826051837,-0.8393251252305564
-0.01459083519876,1.315713882446289,0.075972244143486,-0.060359951108694,-0.468361347913742,-0.6058588624000549,0.0,0.0,-0.7185768826527199,0.6739822363061783
-0.0140683175995945,1.314403772354126,0.0811160877346992,-0.0683168992400169,-0.5005383491516113,-0.6435412764549255,0.0,0.0,0.066757627298555,0.6440062937564619
-0.0133424755185842,1.3136591911315918,0.1028994917869567,-0.0445579290390014,-0.5349477529525757,-0.6881894469261169,0.0,0.0,0.1788659412691995,-0.670702700558292
-0.0124978069216012,1.313285231590271,0.1136384010314941,-0.0285461768507957,-0.5687398910522461,-0.6758432984352112,0.0,0.0,-0.4417345486516428,-0.6978038348306566
-0.0116926189512014,1.3128310441970823,0.1085192933678627,-0.032509408891201,-0.6018543243408203,-0.6622892022132874,0.0,0.0,-0.7403864860534668,-0.9978016018867492
-0.010959530249238,1.3123162984848022,0.0993385687470436,-0.03516186773777,-0.6333291530609131,-0.6294969916343689,0.0,0.0,-0.731343686580658,-0.9815507531166076
-0.0102901458740234,1.3117544651031494,0.0910435393452644,-0.0371110923588275,-0.6631421446800232,-0.5962600708007812,0.0,0.0,-0.4624184370040893,-0.9764286279678344
-0.0096880914643406,1.311130404472351,0.0825249999761581,-0.0396675281226635,-0.6913852691650391,-0.5648630857467651,0.0,0.0,-0.2726390361785888,-0.9945285320281982
-0.0091405864804983,1.3104462623596191,0.0755234360694885,-0.0421513207256794,-0.7182681560516357,-0.5376574397087097,0.0,0.0,-0.705653965473175,-0.9766189455986024
-0.0086424825713038,1.30970561504364,0.0690917447209358,-0.0444132909178733,-0.7438105344772339,-0.5108470320701599,0.0,0.0,-0.2861615419387817,-0.9541261792182922
-0.0082009313628077,1.308905005455017,0.0619411692023277,-0.0467380546033382,-0.7679101824760437,-0.4819928705692291,0.0,0.0,-0.4811047315597534,-0.9291734099388124
-0.0078019141219556,1.3080439567565918,0.0564186200499534,-0.0491299889981746,-0.790810227394104,-0.4580003321170807,0.0,0.0,-0.3943490386009216,-0.8823803067207336
-0.0074468613602221,1.3071308135986328,0.0506965816020965,-0.051017127931118,-0.8123345375061035,-0.430485725402832,0.0,0.0,-0.4043428897857666,-0.9188746809959412
-0.0071352003142237,1.3061552047729492,0.0451695807278156,-0.0533880740404129,-0.8326294422149658,-0.4058985114097595,0.0,0.0,-0.6736846566200256,-0.9169158935546876
-0.0068732262589037,1.3051398992538452,0.0387451574206352,-0.0544777996838092,-0.8512053489685059,-0.3715182840824127,0.0,0.0,-0.6571217179298401,-0.9581164717674256
-0.00664863595739,1.304051637649536,0.0340858474373817,-0.0573579184710979,-0.8687908053398132,-0.3517100811004638,0.0,0.0,-0.1502424478530883,-0.8253255486488342
-0.0064609525725245,1.3028810024261477,0.0296351052820682,-0.0607297196984291,-0.8855453133583069,-0.3350902497768402,0.0,0.0,-0.3447350263595581,-0.6327544450759888
-0.0062973024323582,1.301618576049805,0.026716586202383,-0.064666524529457,-0.9018198847770692,-0.3254910409450531,0.0,0.0,-0.4247959852218628,-0.5456082224845886
-0.0061621665954589,1.3002667427062988,0.0232724361121654,-0.0684271156787872,-0.9174874424934388,-0.3133510053157806,0.0,0.0,0.0386592149734497,-0.6609645485877991
-0.0058720586821436,1.298985242843628,0.0380788631737232,-0.0649496391415596,-0.932337522506714,-0.2970011830329895,0.0,0.0,-0.0394145846366882,-0.7341519594192505
-0.0056114196777343,1.297624111175537,0.0344637334346771,-0.0681499615311622,-0.9463715553283693,-0.2806804776191711,0.0,0.0,-0.2891587615013122,-0.562774658203125
-0.0053744316101074,1.296189546585083,0.0314293205738067,-0.0710042566061019,-0.9595400094985962,-0.2633690237998962,0.0,0.0,-0.3569652438163757,-0.6525015830993652
-0.005166339688003,1.2946938276290894,0.0277307145297527,-0.0731335505843162,-0.971528708934784,-0.2397751361131668,0.0,0.0,-0.0206871628761291,-0.4410451650619507
-0.0049552917480468,1.2930593490600586,0.0282888226211071,-0.0797444134950637,-0.9842014908790588,-0.2534560561180115,0.0,0.0,-0.2900265455245971,-0.6584926247596741
-0.0047622681595385,1.2913333177566528,0.0260744038969278,-0.0835815668106079,-0.9963666796684264,-0.2433038502931594,0.0,0.0,-0.2880080938339233,-0.4178950786590576
-0.0045658112503588,1.2894682884216309,0.0266496650874614,-0.0901914983987808,-1.0091922283172607,-0.2565117478370666,0.0,0.0,-0.468812346458435,-0.3859752416610718
-0.0043655396439135,1.2874641418457031,0.0272311978042125,-0.0968014821410179,-1.0226649045944214,-0.2694525420665741,0.0,0.0,-0.1543956398963928,-0.5393474102020264
-0.0041794776916503,1.285375475883484,0.0253115855157375,-0.1002497747540474,-1.035489559173584,-0.2564952373504638,0.0,0.0,-0.4239522218704223,-0.2677507400512695
-0.0039891242049634,1.2831475734710691,0.0259075257927179,-0.1068580225110054,-1.048931360244751,-0.2688352167606354,0.0,0.0,-0.4534634351730346,-0.5049785375595093
-0.0038177489768713,1.280836820602417,0.0234675258398056,-0.1101414859294891,-1.06158185005188,-0.2530109286308288,0.0,0.0,-0.2007039785385131,-0.1886477470397949
-0.0036416053771972,1.2783859968185425,0.0240762345492839,-0.1167473420500755,-1.0748144388198853,-0.2646507620811462,0.0,0.0,-0.2220662832260131,-0.3601090908050537
-0.00346040725708,1.2757956981658936,0.0246885977685451,-0.1233525276184082,-1.0886094570159912,-0.2758992314338684,0.0,0.0,-0.4945966601371765,-0.2103489637374878
-0.0032739639282226,1.2730653285980225,0.0253039859235286,-0.1299568861722946,-1.1029458045959473,-0.2867273092269897,0.0,0.0,-0.4519438147544861,-0.1078444719314575
-0.0030817030929028,1.2701948881149292,0.0259217806160449,-0.136560246348381,-1.117801070213318,-0.2971047163009643,0.0,0.0,-0.1593614220619201,-0.2639262676239013
-0.0028833388350903,1.267184138298035,0.0265413764864206,-0.1431624293327331,-1.1331510543823242,-0.3070001602172851,0.0,0.0,-0.3863056898117065,-0.0145590305328369
-0.002678680466488,1.2640327215194702,0.0271621756255626,-0.1497631967067718,-1.148970127105713,-0.3163814544677734,0.0,0.0,-0.3482676744461059,0.1056350469589233
-0.0024671554565429,1.2607406377792358,0.0277836322784423,-0.1563623994588852,-1.1652308702468872,-0.3252158164978027,0.0,0.0,-0.5893056988716125,0.3339166641235351
-0.0022484778892248,1.257307529449463,0.0284051895141601,-0.1629597693681717,-1.181904435157776,-0.3334702849388122,0.0,0.0,-0.5578246712684631,0.3931963443756103
-0.0020224570762366,1.2537331581115725,0.0290263351052999,-0.1695550978183746,-1.1989600658416748,-0.3411117494106293,0.0,0.0,-0.2686361670494079,-0.0465478301048278
-0.0017887115245684,1.250017166137695,0.0296465810388326,-0.1761481314897537,-1.2163654565811155,-0.3481076955795288,0.0,0.0,-0.5880948901176453,0.4617700576782226
-0.0015469550853595,1.2461588382720947,0.0302654709666967,-0.1827386766672134,-1.2340867519378662,-0.3544264137744903,0.0,0.0,-0.3044167757034302,0.276819109916687
-0.001297092414461,1.242158055305481,0.0308825671672821,-0.1893264502286911,-1.2520886659622192,-0.3600375354290008,0.0,0.0,-0.6113424897193909,0.3894168138504028
-0.0010385513305664,1.2380142211914062,0.0314974710345268,-0.1959112584590912,-1.270334243774414,-0.3649125099182129,0.0,0.0,-0.5557875037193298,0.4042531251907348
-0.0007713317754678,1.2337267398834229,0.0321098081767559,-0.2024928927421569,-1.288785457611084,-0.3690251111984253,0.0,0.0,-0.6047288775444031,0.6681537628173828
-0.0004812240658793,1.22923481464386,0.034472357481718,-0.2126593887805938,-1.3088014125823977,-0.4003186821937561,0.0,0.0,-0.6618958115577698,0.7158834934234619
-0.0001658439578022,1.2245172262191772,0.0371060594916343,-0.2240610867738723,-1.3308078050613403,-0.4401285648345947,0.0,0.0,-0.5310596823692322,0.7973361015319824
0.0001772880495991,1.2195887565612793,0.0397587940096855,-0.2345959097146988,-1.3544490337371826,-0.4728258550167084,0.0,0.0,-0.6518862247467041,0.5222766399383545
0.0005414009210653,1.214450716972351,0.0415895842015743,-0.2449798732995987,-1.3795926570892334,-0.5028713941574097,0.0,0.0,-0.7290602326393127,0.7838759422302246
0.0009242057567462,1.2090845108032229,0.0431550219655036,-0.2564399838447571,-1.4065877199172974,-0.5399014949798584,0.0,0.0,-0.5585383176803589,0.7374134063720703
0.0013251304626464,1.2034800052642822,0.0445271842181682,-0.2684558928012848,-1.4355976581573486,-0.5801979899406433,0.0,0.0,-0.7763873338699341,0.8008008003234863
0.0017428398132324,1.1976432800292969,0.0455470494925975,-0.2800744175910949,-1.4664278030395508,-0.6166021823883057,0.0,0.0,-0.8540422320365906,0.8441005945205688
0.0021874427329748,1.1915671825408936,0.0474260635673999,-0.2921114265918731,-1.4992167949676514,-0.655779242515564,0.0,0.0,-0.8622370958328247,0.6930444240570068
0.0026570321060717,1.1852551698684692,0.0489326566457748,-0.3038591742515564,-1.5338077545166016,-0.6918198466300964,0.0,0.0,-0.8099274635314941,0.8615114688873291
0.0031517029274255,1.178715467453003,0.0502325892448425,-0.315058171749115,-1.5699502229690552,-0.7228502035140991,0.0,0.0,-0.898687481880188,0.7591500282287598
0.0036594390403479,1.171958088874817,0.0501593761146068,-0.3255688548088074,-1.607341766357422,-0.7478335499763489,0.0,0.0,-0.8994966745376587,0.8483797311782837
0.004188728518784,1.1649476289749146,0.0507594048976898,-0.3381407856941223,-1.6467214822769165,-0.7875970602035522,0.0,0.0,-0.9623312950134276,0.8408920764923096
0.0047338483855128,1.157705307006836,0.0506249777972698,-0.3493106663227081,-1.6875314712524414,-0.8162009119987488,0.0,0.0,-0.94818913936615,0.855513334274292
0.0052952766418457,1.1502214670181274,0.0503374263644218,-0.3609897792339325,-1.7299301624298096,-0.8479758501052856,0.0,0.0,-0.9520671963691713,0.837052583694458
0.0058713913895189,1.1424895524978638,0.0496757589280605,-0.3729214370250702,-1.7739859819412231,-0.8811179995536804,0.0,0.0,-0.9879724383354188,0.8941421508789062
0.0064547536894679,1.1344865560531616,0.0479544028639793,-0.3860951960086822,-1.8201631307601929,-0.9235450029373168,0.0,0.0,-0.9915148019790648,0.9051566123962402
0.0070384978316724,1.1262226104736328,0.0453609675168991,-0.3985497653484344,-1.8682053089141848,-0.9608457684516908,0.0,0.0,-0.9931390881538392,0.8772494792938232
0.0076206205412745,1.117688536643982,0.0422629043459892,-0.4113783836364746,-1.918248176574707,-1.0008572340011597,0.0,0.0,-0.996073305606842,0.9023354053497314
0.0081992149353027,1.1088696718215942,0.038675207644701,-0.4248548448085785,-1.9705240726470947,-1.045520544052124,0.0,0.0,-0.9959067702293396,0.8991320133209229
0.0087676048278808,1.099769115447998,0.0341635271906852,-0.4379572868347168,-2.0249385833740234,-1.0882924795150757,0.0,0.0,-0.9971466660499572,0.8765594959259033
0.0093381879851222,1.0904053449630735,0.0309271607547998,-0.4496877491474151,-2.080883741378784,-1.1189050674438477,0.0,0.0,-0.997686207294464,0.904927134513855
0.0099048614501953,1.0807687044143677,0.0268526580184698,-0.461754709482193,-2.1385152339935303,-1.1526296138763428,0.0,0.0,-0.9979620575904846,0.936712384223938
0.0104547496885061,1.070842742919922,0.0211258437484502,-0.4745499789714813,-2.198203563690185,-1.1937673091888428,0.0,0.0,-0.998849868774414,0.927208423614502
0.0109784128144383,1.0606389045715332,0.0143778380006551,-0.4864674806594848,-2.25976037979126,-1.23113751411438,0.0,0.0,-0.9987255930900574,0.9068812131881714
0.0114873889833688,1.0501765012741089,0.0090924147516489,-0.4969612658023834,-2.3225579261779785,-1.2559566497802734,0.0,0.0,-0.998698115348816,0.9261677265167236
0.0119727132841944,1.0394269227981567,0.0025231854524463,-0.5087233781814575,-2.3870954513549805,-1.2907521724700928,0.0,0.0,-0.999088168144226,0.9232051372528076
0.012433242984116,1.028412103652954,-0.0038649539928883,-0.5190204381942749,-2.452921867370605,-1.3165333271026611,0.0,0.0,-0.9991164207458496,0.9462563991546632
0.0128761287778615,1.017136812210083,-0.0092108454555273,-0.5287315845489502,-2.519706964492798,-1.3357023000717163,0.0,0.0,-0.9993143677711488,0.966651201248169
0.0132729532197117,1.005579948425293,-0.0179127678275108,-0.5394100546836853,-2.588174819946289,-1.3693641424179075,0.0,0.0,-0.9996312260627748,0.9593489170074464
0.0136338230222463,0.993756890296936,-0.0250142402946949,-0.5489174127578735,-2.657782793045044,-1.3921663761138916,0.0,0.0,-0.9996367692947388,0.9616680145263672
0.0139568326994776,0.9816723465919496,-0.0320469886064529,-0.5579220652580261,-2.7283971309661865,-1.4122897386550903,0.0,0.0,-0.9996631145477296,0.967435359954834
0.014226627536118,0.9693337678909302,-0.0405128002166748,-0.5664123892784119,-2.800171136856079,-1.4354838132858276,0.0,0.0,-0.999776303768158,0.9682230949401855
0.0144499782472848,0.9567469954490662,-0.0477285459637641,-0.5743170976638794,-2.8727753162384038,-1.4520902633666992,0.0,0.0,-0.9997518658638,0.9772087335586548
0.0146249774843454,0.9439208507537842,-0.0547017864882946,-0.581628143787384,-2.946084260940552,-1.4661815166473389,0.0,0.0,-0.999838888645172,0.9801688194274902
0.014715576544404,0.9308412671089172,-0.0657554939389228,-0.5894668102264404,-3.020925760269165,-1.496833562850952,0.0,0.0,-0.9998279213905334,0.9787976741790771
0.0147210117429494,0.9175304770469666,-0.0763388276100158,-0.5960309505462646,-3.0971217155456543,-1.5239219665527344,0.0,0.0,-0.999825656414032,0.9777090549468994
0.0146270748227834,0.9039790034294128,-0.0882145017385482,-0.6027904748916626,-3.1749303340911865,-1.5561751127243042,0.0,0.0,-0.9999113082885742,0.978308081626892
0.0144500732421875,0.8901945948600769,-0.0974106192588806,-0.6089913845062256,-3.2537996768951416,-1.577397108078003,0.0,0.0,-0.9998981356620787,0.9754409790039062
0.014163875952363,0.8761847019195557,-0.109211765229702,-0.6146361231803894,-3.3342554569244385,-1.6091270446777344,0.0,0.0,-0.9999051690101624,0.9774200916290284
0.013774013146758,0.861968457698822,-0.1197261437773704,-0.6192710399627686,-3.416099548339844,-1.6368896961212158,0.0,0.0,-0.999924659729004,0.9757182598114014
0.0132851600646972,0.8475422859191895,-0.1288621127605438,-0.6239805817604065,-3.4990596771240234,-1.6592109203338623,0.0,0.0,-0.999927282333374,0.9861847162246704
0.0126848220825195,0.8329223394393921,-0.1388742625713348,-0.6278504133224487,-3.583403825759888,-1.6868906021118164,0.0,0.0,-0.9999238848686218,0.98651385307312
0.0119714736938476,0.8181331157684326,-0.1484507024288177,-0.6305109858512878,-3.669246912002564,-1.7168699502944946,0.0,0.0,-0.9999456405639648,0.9870935678482056
0.0111633297055959,0.8031619787216187,-0.1548844575881958,-0.6339854598045349,-3.755911111831665,-1.7332942485809326,0.0,0.0,-0.9999460577964784,0.9893118143081664
0.010260010138154,0.7880218625068665,-0.1606938242912292,-0.636971116065979,-3.843414306640625,-1.7500759363174438,0.0,0.0,-0.9999533295631408,0.9882524013519288
0.0092483516782522,0.7727348208427429,-0.1674565374851226,-0.6389510631561279,-3.9321694374084473,-1.7751102447509766,0.0,0.0,-0.9999567866325378,0.9921809434890748
0.0081233028322458,0.7573195099830627,-0.1741224378347396,-0.6401175260543823,-4.022403240203857,-1.804689049720764,0.0,0.0,-0.9999602437019348,0.9919672012329102
0.0068796155974268,0.7418078780174255,-0.1807717382907867,-0.6398133635520935,-4.114569187164307,-1.8433319330215452,0.0,0.0,-0.9999672174453736,0.992194414138794
0.0055130003020167,0.7262001633644104,-0.1868876516819,-0.6397621035575867,-4.208566665649414,-1.879969596862793,0.0,0.0,-0.9999675750732422,0.9915859699249268
0.0040261270478367,0.7104958891868591,-0.1917692273855209,-0.6401663422584534,-4.304148197174072,-1.911637663841248,0.0,0.0,-0.9999741911888124,0.9920034408569336
0.0024303435347974,0.694723904132843,-0.1947503238916397,-0.6395388245582581,-4.401534080505371,-1.947728157043457,0.0,0.0,-0.9999718070030212,0.9930474758148192
