x_pos,y_pos,x_vel,y_vel,angle,ang_vel,leg_1,leg_2,main_booster,lat_booster
-0.0015867233742028,1.4034266471862793,-0.1601307690143585,-0.3330462276935577,0.0013127382844686,0.0258615966886281,0.0,0.0,-0.6892247519572241,0.906138031924396
-0.0031588554847985,1.395754098892212,-0.1560419052839279,-0.3410020172595978,0.0001484190288465,-0.0232878886163234,0.0,0.0,-0.7344054529934478,-0.7878588240622035
-0.0048412322066724,1.387877345085144,-0.1677872836589813,-0.3500761985778808,-0.0002958232944365,-0.008885676972568,0.0,0.0,0.2426709684369905,-0.8984124080472866
-0.0067589757964015,1.3803635835647583,-0.1925342381000518,-0.3339479267597198,0.0004657114914152,0.0152318999171257,0.0,0.0,-0.988754913490022,0.7049549470883146
-0.0086695672944188,1.3726539611816406,-0.189632698893547,-0.3426471650600433,-0.0009541510953567,-0.0283997561782598,0.0,0.0,-0.3757451691758176,-0.883859971134731
-0.0106933591887354,1.3647453784942627,-0.2018157541751861,-0.3514926731586456,-0.0015061654848977,-0.0110413404181599,0.0,0.0,0.4522157073250128,0.7359483451256696
-0.012738799676299,1.3574002981185913,-0.2019795924425125,-0.3264531195163727,-0.0040378221310675,-0.0506379604339599,0.0,0.0,0.5073223321806906,0.7052151736167793
-0.0146333696320652,1.3507434129714966,-0.1853057146072387,-0.2958720028400421,-0.0081385076045989,-0.0820215493440628,0.0,0.0,-0.233736213856927,0.899412373137227
-0.0165143013000488,1.3438981771469116,-0.1817030608654022,-0.3042858839035034,-0.0144582521170377,-0.1264064311981201,0.0,0.0,-0.6740496093519919,0.6954633278179333
-0.0183950420469045,1.3368589878082275,-0.179811492562294,-0.3129545748233795,-0.0226221177726984,-0.1632927805185318,0.0,0.0,0.5283084533778928,0.6271866032930931
-0.0201800353825092,1.3304435014724731,-0.168723002076149,-0.285305768251419,-0.0322924070060253,-0.1934237629175186,0.0,0.0,0.216252537995975,0.8787856549666091
-0.0218745227903127,1.3244067430496216,-0.1574907153844833,-0.268600195646286,-0.0441221855580806,-0.236617162823677,0.0,0.0,-0.8846243966585721,-0.9148046069692864
-0.0236749649047851,1.3181824684143066,-0.1690740436315536,-0.2769933044910431,-0.0549820251762867,-0.2172167599201202,0.0,0.0,0.0728551790396594,0.8463137390920377
-0.0253917686641216,1.312090277671814,-0.1585910320281982,-0.2712945640087127,-0.0679532811045646,-0.2594484686851501,0.0,0.0,-0.994033594880054,0.933815794560807
-0.0270632747560739,1.3058037757873535,-0.1513139903545379,-0.2801964879035949,-0.0836519971489906,-0.3140029907226562,0.0,0.0,-0.518906895469891,0.8219734933755203
-0.0287024490535259,1.2993043661117554,-0.1457192152738571,-0.2899774312973022,-0.1017195358872413,-0.3613839149475097,0.0,0.0,0.4926750722396054,-0.6072252045433606
-0.0302166938781738,1.293758749961853,-0.1343528032302856,-0.2477209568023681,-0.1186961457133293,-0.3395629823207855,0.0,0.0,0.4406547615063201,0.841543843023891
-0.031526755541563,1.2884629964828491,-0.1120454221963882,-0.2369902729988098,-0.1375894099473953,-0.3778997659683227,0.0,0.0,0.0671295674141709,0.7254996400532764
-0.0326730720698833,1.2837257385253906,-0.0939200967550277,-0.2125900834798813,-0.1582797765731811,-0.4138447642326355,0.0,0.0,0.7878420902783281,-0.9537171524933812
-0.0339263901114463,1.279744029045105,-0.1060472354292869,-0.1791330873966217,-0.17762191593647,-0.3868778944015503,0.0,0.0,0.9914910696240418,0.9559817056472976
-0.0348078720271587,1.2768504619598389,-0.0669310763478279,-0.1312764585018158,-0.1989601701498031,-0.4268037676811218,0.0,0.0,0.6731590221294994,-0.8157983104271214
-0.0356787666678428,1.274435043334961,-0.0672279521822929,-0.1101495027542114,-0.2190275937318802,-0.4013845026493072,0.0,0.0,-0.2035023119079761,0.8299062039048691
-0.0364962592720985,1.271801471710205,-0.059601567685604,-0.1204915195703506,-0.2415046393871307,-0.4495815336704254,0.0,0.0,0.562724323012594,-0.7816218770119105
-0.0372539535164833,1.2693946361541748,-0.055035512894392,-0.1105145439505577,-0.2626538276672363,-0.4230217933654785,0.0,0.0,0.9610938120147844,0.8442863064051342
-0.0379435531795024,1.2679519653320312,-0.0459901615977287,-0.0684112384915351,-0.2862455546855926,-0.4718771576881408,0.0,0.0,-0.3767957371248249,-0.698589875760596
-0.0387160293757915,1.2663311958312988,-0.055762805044651,-0.0764091983437538,-0.3084167540073395,-0.4434235990047455,0.0,0.0,-0.8476788687569476,0.7933407447216836
-0.0394380576908588,1.2644968032836914,-0.0490006804466247,-0.0866463482379913,-0.3325439989566803,-0.4825447201728821,0.0,0.0,-0.9100958861894376,-0.8194529985114278
-0.0402392372488975,1.262519121170044,-0.0587424859404563,-0.0929810032248497,-0.354944109916687,-0.4480019509792328,0.0,0.0,0.0256616702961469,0.7871511763674321
-0.0409053787589073,1.261051058769226,-0.0435868427157402,-0.0711231008172035,-0.3792839646339416,-0.4867978692054748,0.0,0.0,-0.1129331555955126,0.7774359156171764
-0.0415165908634662,1.2593592405319214,-0.0366038456559181,-0.0819341316819191,-0.4054659307003021,-0.5236397981643677,0.0,0.0,-0.0533578824218117,-0.8645538580836791
-0.0421809181571006,1.2575266361236572,-0.0435336455702781,-0.0882020816206932,-0.4301769733428955,-0.494221031665802,0.0,0.0,0.6191045735844678,0.6724768265252552
-0.0426863655447959,1.2561063766479492,-0.0262333750724792,-0.0707860141992569,-0.4567238986492157,-0.5309385061264038,0.0,0.0,-0.9607966636812176,0.9719091582321752
-0.0431174263358116,1.25446355342865,-0.0173412337899208,-0.0817291885614395,-0.4852533638477325,-0.5705891251564026,0.0,0.0,0.4105889508938514,-0.922217357897092
-0.0435100570321083,1.2531285285949707,-0.0153317674994468,-0.0679967850446701,-0.5121257901191711,-0.537449061870575,0.0,0.0,0.4334610859820933,-0.7630986762727601
-0.0436541549861431,1.252349853515625,0.0079137459397315,-0.043192483484745,-0.5375649929046631,-0.5087841749191284,0.0,0.0,0.6956569913386277,0.9044608910950828
-0.0432968139648437,1.2523186206817627,0.0594878606498241,-0.011102027259767,-0.5650738477706909,-0.5501772165298462,0.0,0.0,0.2578670788395765,0.7109400848717424
-0.0427005775272846,1.252509355545044,0.0844226256012916,-0.0023122392594814,-0.5943005084991455,-0.5845337510108948,0.0,0.0,-0.7823132017527237,-0.9259248862273896
-0.0421272292733192,1.252574443817139,0.0802120640873909,-0.0076880850829184,-0.621790885925293,-0.5498071312904358,0.0,0.0,-0.0070878582990321,-0.6491781454037096
-0.0415618903934955,1.2525030374526978,0.0778518244624137,-0.0136061292141675,-0.6478927135467529,-0.5220361351966858,0.0,0.0,-0.0819119259166234,0.8081259174864034
-0.040907859802246,1.25218403339386,0.0878288075327873,-0.0258029233664274,-0.6759384274482727,-0.5609138011932373,0.0,0.0,-0.0475950796133277,-0.8935857172145774
-0.0402755737304687,1.2517573833465576,0.083429217338562,-0.0300229508429765,-0.7017409801483154,-0.5160508155822754,0.0,0.0,0.1007595062255859,-0.985149383544922
-0.0393619537353515,1.251516342163086,0.1095790416002273,-0.0211977362632751,-0.7254948616027832,-0.4750792384147644,0.0,0.0,-0.0673027038574218,-0.9599999189376832
-0.0384570136666297,1.2511368989944458,0.1070366650819778,-0.0268367398530244,-0.7475154399871826,-0.4404119551181793,0.0,0.0,-0.4060022234916687,-0.9609081149101256
-0.0375539772212505,1.2506258487701416,0.1052203178405761,-0.0321034044027328,-0.7677618265151978,-0.4049273431301117,0.0,0.0,-0.5128861665725708,-0.9368896484375
-0.0366655364632606,1.249992609024048,0.1018702760338783,-0.036665204912424,-0.7857769727706909,-0.3603025376796722,0.0,0.0,-0.183654248714447,-0.815572202205658
-0.0357745178043842,1.24921977519989,0.1006888896226883,-0.0421993657946586,-0.8020804524421692,-0.3260700106620788,0.0,0.0,-0.0845268368721008,-0.9440602660179138
-0.0348823554813861,1.2483173608779907,0.0992489159107208,-0.0471149757504463,-0.8164240121841431,-0.2868707478046417,0.0,0.0,-0.2264854907989502,-0.9437745213508606
-0.0339937210083007,1.2473185062408447,0.0969382375478744,-0.0501853600144386,-0.8281369805335999,-0.2342589348554611,0.0,0.0,0.0352804660797119,-0.7047529816627502
-0.0327877029776573,1.2467916011810305,0.1274593025445938,-0.0284281205385923,-0.8381747603416443,-0.2007553279399871,0.0,0.0,-0.5623195171356201,-0.5200491547584534
-0.0315571799874305,1.246111512184143,0.1289168298244476,-0.0346063785254955,-0.8468756675720215,-0.1740183979272842,0.0,0.0,-0.161345362663269,-0.9011074900627136
-0.0303077697753906,1.245291829109192,0.1296143233776092,-0.0399860478937625,-0.8538774847984314,-0.1400368064641952,0.0,0.0,-0.1396111249923706,-0.7076457738876343
-0.0290401466190814,1.2443431615829468,0.1301260888576507,-0.0447511412203311,-0.8589470386505127,-0.1013915389776229,0.0,0.0,-0.3327606320381164,-0.9304956793785096
-0.0277575496584177,1.243257761001587,0.1303615570068359,-0.0498550161719322,-0.8621136546134949,-0.0633328109979629,0.0,0.0,-0.489124059677124,-0.6166401505470276
-0.0264456756412982,1.242029905319214,0.1322178989648819,-0.0553778745234012,-0.8636792302131653,-0.0313117839395999,0.0,0.0,-0.4710004329681396,-0.7083532214164734
-0.0251039508730173,1.2406468391418457,0.1342639029026031,-0.0615432262420654,-0.8638259768486023,-0.0029345816001296,0.0,0.0,-0.7356815934181213,-0.908303439617157
-0.0237581245601177,1.239152908325195,0.1329553425312042,-0.0651229470968246,-0.8613499999046326,0.0495193116366863,0.0,0.0,-0.7750303149223328,-0.6589286923408508
-0.0223773960024118,1.2375112771987915,0.1354299187660217,-0.0709227249026298,-0.8573573231697083,0.0798540860414505,0.0,0.0,-0.7507711052894592,-0.7869625091552734
-0.0209651943296194,1.2357242107391355,0.1374760568141937,-0.0765606835484504,-0.8517244458198547,0.1126574277877807,0.0,0.0,-0.8696027994155884,-0.9651522636413574
-0.0195294376462698,1.2338162660598757,0.1383224576711654,-0.08082115650177,-0.8438819646835327,0.1568498015403747,0.0,0.0,-0.9472106695175172,-0.9701613187789916
-0.0180830005556345,1.231807827949524,0.1374541968107223,-0.0839244797825813,-0.8332587480545044,0.2124640643596649,0.0,0.0,-0.9667805433273317,-0.8151268362998962
-0.0166157726198434,1.229658842086792,0.1381009519100189,-0.0892518237233161,-0.8206673860549927,0.2518270015716553,0.0,0.0,-0.9788042902946472,-0.96923828125
-0.0151412012055516,1.2274093627929688,0.1366980075836181,-0.0923883989453315,-0.8052065968513489,0.3092153370380401,0.0,0.0,-0.9916831851005554,-0.923317015171051
-0.013642025180161,1.2250208854675293,0.137584701180458,-0.0977347716689109,-0.7877862453460693,0.3484074771404266,0.0,0.0,-0.995681643486023,-0.8516042232513428
-0.0121210096403956,1.2225024700164795,0.1379905641078949,-0.102635733783245,-0.7682071924209595,0.3915816843509674,0.0,0.0,-0.9978697299957277,-0.8365727663040161
-0.0105820652097463,1.2198493480682373,0.1379130184650421,-0.1078220084309578,-0.7464660406112671,0.4348229765892029,0.0,0.0,-0.997328758239746,-0.8736250400543213
-0.0090347286313772,1.2170833349227903,0.1363811939954757,-0.1118607297539711,-0.7220445871353149,0.4884282052516937,0.0,0.0,-0.9986549019813538,-0.8422269821166992
-0.0074615478515625,1.2141926288604736,0.1369068771600723,-0.1167806237936019,-0.6954671144485474,0.531549334526062,0.0,0.0,-0.999297559261322,-0.7467007040977478
-0.0058611868880689,1.2111499309539795,0.1377788186073303,-0.1231630966067314,-0.6671404838562012,0.5665327310562134,0.0,0.0,-0.9989959597587584,-0.2515345811843872
-0.0041909217834472,1.2079148292541504,0.1439768373966217,-0.1319909542798996,-0.6384645104408264,0.5735203623771667,0.0,0.0,-0.9994950890541076,-0.2711943984031677
-0.0024505616165697,1.2044882774353027,0.1501957923173904,-0.1408216953277588,-0.6094332933425903,0.5806246995925903,0.0,0.0,-0.9989729523658752,-0.6263148784637451
-0.0006845474126748,1.2009207010269165,0.1506431996822357,-0.146818920969963,-0.5784772038459778,0.6191215515136719,0.0,0.0,-0.9996394515037536,-0.5796067714691162
0.0011172294616699,1.1972001791000366,0.1523498445749282,-0.153627261519432,-0.5459738969802856,0.650066077709198,0.0,0.0,-0.9996622800827026,-0.6284722089767456
0.0029423714149743,1.1933441162109375,0.1523666083812713,-0.1595851629972458,-0.511464536190033,0.6901878118515015,0.0,0.0,-0.9996662139892578,-0.6029801368713379
0.0048037529923021,1.1893324851989746,0.1540439575910568,-0.1667317450046539,-0.4754624962806701,0.7200407981872559,0.0,0.0,-0.9992142915725708,-0.3531954884529114
0.0067372322082519,1.185136318206787,0.1603229343891143,-0.1756067276000976,-0.4390839040279388,0.7275725603103638,0.0,0.0,-0.9989444017410278,-0.3273104429244995
0.008743000216782,1.1807563304901123,0.166616216301918,-0.1844864785671234,-0.402325302362442,0.7351720929145813,0.0,0.0,-0.9997255206108092,-0.5113016963005066
0.0107808113098144,1.1762138605117798,0.1678685545921325,-0.192183569073677,-0.3640767633914947,0.7649708986282349,0.0,0.0,-0.9994235038757324,-0.4810039401054382
0.0128907207399606,1.1714900732040403,0.1741841435432434,-0.2010796070098877,-0.3254427313804626,0.7726815938949585,0.0,0.0,-0.9994909763336182,0.0325840711593627
0.0150725366547703,1.1665856838226318,0.1805123388767242,-0.2099808007478714,-0.286420613527298,0.7804430723190308,0.0,0.0,-0.9996151328086852,-0.316056489944458
0.0173260681331157,1.16150164604187,0.1868526041507721,-0.2188871651887893,-0.2470081448554992,0.7882505059242249,0.0,0.0,-0.999039113521576,-0.2670503854751587
0.0196507461369037,1.1562387943267822,0.1932044625282287,-0.227798655629158,-0.2072031944990158,0.7960995435714722,0.0,0.0,-0.9986239671707152,0.8792722225189209
0.0221199989318847,1.1507816314697266,0.2087945193052292,-0.2376518994569778,-0.1688848733901977,0.7663670778274536,0.0,0.0,-0.9971215724945068,0.8456354141235352
0.0247140880674123,1.1451303958892822,0.2220576703548431,-0.2473470717668533,-0.1315791755914688,0.746114194393158,0.0,0.0,-0.9978288412094116,0.7351129055023193
0.0274305343627929,1.139291286468506,0.2350522577762603,-0.2566963136196136,-0.0952083840966224,0.7274166345596313,0.0,0.0,-0.9920823574066162,0.999385952949524
0.0302939414978027,1.1332643032073977,0.2511667609214782,-0.2659882009029388,-0.060388196259737,0.696404218673706,0.0,0.0,-0.987197756767273,0.9996432065963744
0.0333165153861045,1.1270465850830078,0.268918514251709,-0.2753307521343231,-0.027443965896964,0.65888512134552,0.0,0.0,-0.9817461967468262,0.999596357345581
0.0364896766841411,1.1206310987472534,0.2856276929378509,-0.2848411798477173,0.003836442483589,0.625608503818512,0.0,0.0,-0.9721871018409728,0.9997282028198242
0.0398223884403705,1.1140234470367432,0.3035050928592682,-0.2940136194229126,0.03322758898139,0.5878232717514038,0.0,0.0,-0.9194141626358032,0.9055882692337036
0.0433123596012592,1.1072330474853516,0.3211110830307007,-0.3026442229747772,0.060783427208662,0.5511173009872437,0.0,0.0,-0.8796236515045166,0.9662835597991944
0.0469646453857421,1.1002557277679443,0.3393589854240417,-0.3113542199134826,0.0863794088363647,0.5119197964668274,0.0,0.0,-0.8874430060386658,0.6255106925964355
0.0507331863045692,1.0931001901626587,0.3518857657909393,-0.3196503520011902,0.111147366464138,0.4953598082065582,0.0,0.0,-0.6076057553291321,-0.5613159537315369
0.0545271858572959,1.085753321647644,0.3530199229717254,-0.3287022411823272,0.137384608387947,0.524744987487793,0.0,0.0,-0.6208696961402893,0.4335393905639648
0.0583886131644248,1.0782185792922974,0.3594402968883514,-0.3375582098960876,0.1640304923057556,0.5329180359840393,0.0,0.0,-0.7789185643196106,0.571709394454956
0.0623698234558105,1.070502519607544,0.3724645972251892,-0.3459586799144745,0.1897517740726471,0.5144263505935669,0.0,0.0,-0.6832064390182495,0.4057869911193847
0.0664179772138595,1.062598705291748,0.3788794875144958,-0.3548137843608856,0.215881809592247,0.5226006507873535,0.0,0.0,-0.6768150925636292,-0.1253424286842346
0.0705327987670898,1.0545071363449097,0.3852910995483398,-0.3636712431907654,0.2424202412366867,0.5307692289352417,0.0,0.0,-0.0709905624389648,0.9052233695983888
0.0747808441519737,1.046251893043518,0.4000959396362304,-0.3711611628532409,0.2676100134849548,0.5037952661514282,0.0,0.0,-0.1786078214645385,-0.3969357013702392
0.0790950804948806,1.0378087759017944,0.4064957499504089,-0.3800157308578491,0.293207436800003,0.5119484663009644,0.0,0.0,0.1541410684585571,0.7438144683837891
0.0834561362862587,1.0299363136291504,0.4123755395412445,-0.3548528552055359,0.3177586793899536,0.4910248219966888,0.0,0.0,0.1915692090988159,0.5704448223114014
0.087715245783329,1.0226510763168335,0.4031794965267181,-0.3289531171321869,0.3414730131626129,0.4742859899997711,0.0,0.0,-0.0519059896469116,0.9706441164016724
0.0921007171273231,1.0152161121368408,0.4172390103340149,-0.3356533646583557,0.3638700246810913,0.4479400217533111,0.0,0.0,0.2857670783996582,0.9042749404907228
0.0964602455496788,1.00815749168396,0.4162068367004394,-0.3188724219799042,0.3848036229610443,0.4186718463897705,0.0,0.0,0.2757999897003174,0.9260252714157104
0.100681684911251,1.001536846160889,0.4040173590183258,-0.2992695271968841,0.404182493686676,0.3875774443149566,0.0,0.0,0.2628947496414184,0.9596995115280152
0.1047580689191818,0.995240330696106,0.3911580741405487,-0.2846520543098449,0.4219438731670379,0.3552274107933044,0.0,0.0,0.4354493618011474,0.9272032976150512
0.1088047996163368,0.9897199869155884,0.3896421790122986,-0.2499326169490814,0.4382587075233459,0.326296716928482,0.0,0.0,0.6873370409011841,0.895160436630249
0.1128861457109451,0.9846009016036988,0.3944487571716308,-0.2318636327981948,0.4532171189785003,0.2991680800914764,0.0,0.0,0.5608001947402954,0.6454979181289673
0.1168951988220214,0.980396330356598,0.3879175782203674,-0.1911513358354568,0.4675240814685821,0.2861399948596954,0.0,0.0,0.7125380039215088,0.6937322616577148
0.120630457997322,0.977100133895874,0.3616475462913513,-0.1505589187145233,0.4807082414627075,0.26368248462677,0.0,0.0,0.8108973503112793,0.854529619216919
0.1242063492536544,0.975030481815338,0.3467949032783508,-0.0957880839705467,0.4927707314491272,0.2412500381469726,0.0,0.0,0.9492486715316772,0.2503986358642578
0.1276027709245681,0.9737350344657898,0.328198105096817,-0.0617359280586242,0.5056377649307251,0.2573402822017669,0.0,0.0,0.9372955560684204,0.6409354209899902
0.1306335479021072,0.9735376238822936,0.2925937473773956,-0.0126931928098201,0.5175037384033203,0.2373189628124237,0.0,0.0,0.9846445322036744,0.9861993789672852
0.1333945244550705,0.974503755569458,0.2670633196830749,0.0394888892769813,0.5277765393257141,0.2054565846920013,0.0,0.0,0.9869074821472168,0.9340822696685792
0.1360982954502105,0.9761220812797546,0.2626320719718933,0.0688879489898681,0.5366358757019043,0.1771864891052246,0.0,0.0,0.9935632944107056,0.9660537242889404
0.1384082734584808,0.978441834449768,0.2249879091978073,0.1006995737552642,0.543548583984375,0.138254702091217,0.0,0.0,0.9883031845092772,0.8633773326873779
0.140374943614006,0.9812813997268676,0.1922302544116974,0.1244019493460655,0.5486754775047302,0.1025375351309776,0.0,0.0,0.983545422554016,0.9486613273620604
0.1420904099941253,0.9848272204399108,0.1685890853404998,0.1563750803470611,0.5521005988121033,0.0685028582811355,0.0,0.0,0.9743549823760986,0.9476318359375
0.1436264961957931,0.9890751242637634,0.152036041021347,0.1881565898656845,0.553925633430481,0.0365010723471641,0.0,0.0,0.9204529523849488,0.7706007957458496
0.1451983451843261,0.993832528591156,0.1564104408025741,0.2111261039972305,0.5548202395439148,0.0178918428719043,0.0,0.0,0.852362871170044,0.7019937038421631
0.1465733498334884,0.999511420726776,0.1374885737895965,0.2523866295814514,0.5548266768455505,0.0001285066391574,0.0,0.0,0.5233125686645508,0.4960718154907226
0.1476366966962814,1.005961298942566,0.1059430837631225,0.2864966094493866,0.5552877187728882,0.0092205088585615,0.0,0.0,0.2298203706741333,0.9485207796096802
0.1487510651350021,1.012604832649231,0.1124713793396949,0.2956991493701935,0.5540879964828491,-0.0239939149469137,0.0,0.0,0.0459543466567993,0.7950922250747681
