x_pos,y_pos,x_vel,y_vel,angle,ang_vel,leg_1,leg_2,main_booster,lat_booster
-0.0014795303577557,1.403523564338684,-0.1506983786821365,-0.3287301063537597,0.0024666204117238,0.0487084574997425,0.0,0.0,-0.1246532797813415,0.8970234394073486
-0.0028368949424475,1.396045446395874,-0.1369494944810867,-0.3323606550693512,0.0036636742297559,0.023944217711687,0.0,0.0,-0.3164615631103515,0.803276538848877
-0.0040702819824218,1.3884607553482056,-0.123309776186943,-0.3370994627475738,0.0036334684118628,-0.0006044518086127,0.0,0.0,-0.1115785241127014,0.9050455093383788
-0.0051986696198582,1.380772590637207,-0.1120624095201492,-0.3416963815689087,0.0028747504111379,-0.0151757802814245,0.0,0.0,-0.0656948685646057,0.6243844032287598
-0.0062184333801269,1.37298583984375,-0.1003995090723037,-0.3460748791694641,0.0013205140130594,-0.0310878790915012,0.0,0.0,-0.1819814443588256,0.4342348575592041
-0.0071882246993482,1.365098476409912,-0.0961107164621353,-0.3505547344684601,0.0004652790375985,-0.0171063039451837,0.0,0.0,-0.6355933547019958,0.1849148273468017
-0.0081071853637695,1.3571102619171145,-0.0917297005653381,-0.3550343215465545,0.0003029254439752,-0.0032476591877639,0.0,0.0,-0.6994890570640564,0.6215734481811523
-0.0089134220033884,1.3490229845046997,-0.0796028301119804,-0.3594318926334381,-0.000707511731889,-0.0202106442302465,0.0,0.0,-0.6109394431114197,-0.3428406715393066
-0.0096672056242823,1.3408349752426147,-0.0750468522310257,-0.3639115691184997,-0.001035988680087,-0.006570151541382,0.0,0.0,-0.8353003859519958,0.1347815990447998
-0.0103677753359079,1.3325462341308594,-0.0704131573438644,-0.3683911263942718,-0.0006902851746417,0.0069147101603448,0.0,0.0,-0.8943785429000854,0.1480073928833007
-0.0110146524384617,1.3241565227508545,-0.0657060742378234,-0.3728707730770111,0.0003226556873414,0.0202606711536645,0.0,0.0,-0.7888957858085632,-0.2315219044685363
-0.0116069791838526,1.3156661987304688,-0.0609297566115856,-0.3773505389690399,0.00199497747235,0.0334497392177581,0.0,0.0,-0.7611218094825745,0.4497438669204712
-0.0121442796662449,1.307075023651123,-0.0560883767902851,-0.3818305432796478,0.0043182303197681,0.0464693829417228,0.0,0.0,-0.9169382452964784,0.3633573055267334
-0.0126261711120605,1.2983834743499756,-0.0511858351528644,-0.3863109350204468,0.0072832638397812,0.0593060664832592,0.0,0.0,-0.8449931740760803,0.7137778997421265
-0.012982559390366,1.289599061012268,-0.0375125631690025,-0.3904213011264801,0.0091329896822571,0.0369982346892356,0.0,0.0,-0.9102941155433656,0.1544976234436035
-0.0132823940366506,1.2807141542434692,-0.0324931889772415,-0.3949019312858581,0.0116049796342849,0.0494445338845253,0.0,0.0,-0.959435760974884,-0.5117675065994263
-0.0135567663237452,1.2717339992523191,-0.0313376449048519,-0.399148166179657,0.0154698221012949,0.077303797006607,0.0,0.0,-0.8860708475112915,0.6116149425506592
-0.0137141225859522,1.262649655342102,-0.0187285672873258,-0.4037835299968719,0.0184311512857675,0.0592317208647728,0.0,0.0,-0.9421945214271544,-0.181211233139038
-0.0138139724731445,1.253464698791504,-0.0135649759322404,-0.4082650244235992,0.0219775885343551,0.0709351748228073,0.0,0.0,-0.9604106545448304,-0.294516921043396
-0.0138559341430664,1.244179368019104,-0.0083604464307427,-0.4127472043037414,0.0260936226695776,0.0823277831077575,0.0,0.0,-0.9820391535758972,-0.0583470463752746
-0.0138400075957179,1.2347936630249023,-0.0031168572604656,-0.4172298610210418,0.0307639967650175,0.0934157967567443,0.0,0.0,-0.9073296189308168,0.7843198776245117
-0.013702392578125,1.2253060340881348,0.0100984731689095,-0.4217475950717926,0.0343834422528743,0.0723954886198043,0.0,0.0,-0.9583233594894408,0.1052919626235961
-0.0135064125061035,1.2157182693481443,0.0154174836352467,-0.4262304902076721,0.0385234355926513,0.0828072801232338,0.0,0.0,-0.9654994010925292,0.5653934478759766
-0.0132018085569143,1.206026554107666,0.0270408447831869,-0.4308322370052337,0.0419098548591136,0.0677344501018524,0.0,0.0,-0.8939200043678284,-0.2133440971374511
-0.0128385545685887,1.1962345838546753,0.0324252769351005,-0.4353151619434356,0.0457769855856895,0.0773491412401199,0.0,0.0,-0.8164885640144348,0.8808969259262085
-0.0123631479218602,1.186329007148743,0.044512715190649,-0.4403414726257324,0.0487731844186782,0.0599236190319061,0.0,0.0,-0.8953596353530884,-0.2142456173896789
-0.0118288043886423,1.176323175430298,0.049963928759098,-0.4448218941688537,0.0522052235901355,0.0686407014727592,0.0,0.0,-0.8800427317619324,-0.3957544565200805
-0.0112355230376124,1.1662172079086304,0.0554415881633758,-0.4493025541305542,0.0560487508773803,0.0768702179193496,0.0,0.0,-0.8423559665679932,0.7850899696350098
-0.010535049252212,1.156021237373352,0.0670170933008194,-0.4532676041126251,0.0590526163578033,0.06007731705904,0.0,0.0,-0.7703425884246826,0.4391376972198486
-0.0097755435854196,1.1457250118255615,0.0725427269935607,-0.4577479958534241,0.0624147802591323,0.0672432407736778,0.0,0.0,-0.8458111882209778,0.7121198177337646
-0.0088996887207031,1.135341763496399,0.0853339284658432,-0.4615689814090729,0.0646430179476738,0.0445647351443767,0.0,0.0,-0.7645624876022339,-0.09788578748703
-0.007965087890625,1.1248581409454346,0.0909016579389572,-0.4660488963127136,0.0671705901622772,0.0505517125129699,0.0,0.0,-0.8828697204589844,-0.2257195711135864
-0.0069719315506517,1.1142741441726685,0.0964884310960769,-0.470528781414032,0.0699660181999206,0.0559084899723529,0.0,0.0,-0.9272197484970092,-0.1618382930755615
-0.00592041015625,1.1035897731781006,0.1020930036902427,-0.4750086963176727,0.0729965418577194,0.0606100559234619,0.0,0.0,-0.9172372221946716,0.5455718040466309
-0.0047663687728345,1.0928107500076294,0.1132577657699585,-0.4791675508022308,0.0751121267676353,0.0423118099570274,0.0,0.0,-0.9113101363182068,-0.2272208929061889
-0.0035544396378099,1.081931471824646,0.1188942566514015,-0.4836468398571014,0.0773939937353134,0.0456372983753681,0.0,0.0,-0.792473554611206,-0.5665444135665894
-0.0023311614058911,1.0709432363510132,0.1187067031860351,-0.48855721950531,0.0809847041964531,0.0718139037489891,0.0,0.0,-0.7372177839279175,0.4307161569595337
-0.0010501861106604,1.059854507446289,0.1243705973029136,-0.4930367469787597,0.0846694484353065,0.0736948400735855,0.0,0.0,-0.9518287777900696,0.5084202289581299
0.0003251075686421,1.048675775527954,0.1347168982028961,-0.4969998598098755,0.087462767958641,0.0558663494884967,0.0,0.0,-0.7122038006782532,-0.5515833497047424
0.001716136932373,1.0373914241790771,0.1351995468139648,-0.5017514824867249,0.0913230776786804,0.0772064179182052,0.0,0.0,-0.7736534476280212,-0.3286601305007934
0.0031638145446777,1.0260066986083984,0.1408961713314056,-0.5062304139137268,0.0951657593250274,0.0768538266420364,0.0,0.0,-0.8208574652671814,-0.298380970954895
0.0046680448576807,1.0145213603973389,0.1466014832258224,-0.5107091069221497,0.0989534854888916,0.0757543742656707,0.0,0.0,-0.8270708918571472,0.0322848558425903
0.0062283514998853,1.0029352903366089,0.1523143500089645,-0.5151873826980591,0.1026491671800613,0.0739135444164276,0.0,0.0,-0.8964128494262695,-0.6214603185653687
0.0078038214705884,0.991240918636322,0.1529158502817154,-0.520073652267456,0.1072515398263931,0.092047244310379,0.0,0.0,-0.8521736860275269,0.1737734079360962
0.0094349859282374,0.9794458746910096,0.1586405038833618,-0.5245517492294312,0.1116892546415329,0.0887546092271804,0.0,0.0,-0.9125463366508484,0.4994735717773437
0.0111212730407714,0.9675500392913818,0.1643692404031753,-0.5290294289588928,0.1159271895885467,0.0847586244344711,0.0,0.0,-0.9304366111755372,-0.3628623485565185
0.0128625873476266,0.9555533528327942,0.1701008379459381,-0.5335063934326172,0.1199310943484306,0.0800781697034835,0.0,0.0,-0.92187762260437,-0.7118229866027832
0.014591502957046,0.9434512257575988,0.167446106672287,-0.5383146405220032,0.1253505051136016,0.1083882898092269,0.0,0.0,-0.9388478994369508,0.0845766067504882
0.0163746830075979,0.9312483668327332,0.1731799244880676,-0.5427917838096619,0.1304708123207092,0.1024060845375061,0.0,0.0,-0.8961540460586548,-0.4523655772209167
0.0182119365781545,0.9189444184303284,0.178912729024887,-0.547268271446228,0.1352612823247909,0.095809519290924,0.0,0.0,-0.935021698474884,0.1272851228713989
0.0201027877628803,0.9065393209457396,0.1846432238817215,-0.5517439246177673,0.1396926492452621,0.0886273756623268,0.0,0.0,-0.7675324082374573,-0.847030520439148
0.0219737999141216,0.894023597240448,0.1811920553445816,-0.5568256378173828,0.1455889493227005,0.1179256439208984,0.0,0.0,-0.9642671942710876,0.5037494897842407
0.0239446647465229,0.8814139366149902,0.192789226770401,-0.5608529448509216,0.1498829424381256,0.0858799368143081,0.0,0.0,-0.8918642401695251,-0.7344376444816589
0.025910472497344,0.8686966896057129,0.191263809800148,-0.5657511949539185,0.155195876955986,0.1062585338950157,0.0,0.0,-0.7919349074363708,-0.0368306636810302
0.0279287341982126,0.8558781743049622,0.1969705671072006,-0.5702254772186279,0.1600464880466461,0.0970125868916511,0.0,0.0,-0.8464903235435486,0.2902441024780273
0.0299990661442279,0.8429582118988037,0.2026673257350921,-0.5746986865997314,0.164412572979927,0.0873216688632965,0.0,0.0,-0.9854876399040222,-0.4816267490386963
0.0321210846304893,0.8299365639686584,0.2083522975444793,-0.5791710615158081,0.1682732552289962,0.0772134736180305,0.0,0.0,-0.9446694850921632,-0.8066848516464233
0.0342458710074424,0.8168041706085205,0.2078994065523147,-0.5841885209083557,0.1728526353836059,0.0915879905223846,0.0,0.0,-0.8079044222831726,-0.83804851770401
0.0363635048270225,0.80356365442276,0.2062758952379226,-0.5891180634498596,0.1783546209335327,0.1100398078560829,0.0,0.0,-0.7653000950813293,0.4457244873046875
0.0385318771004676,0.7902212738990784,0.2119146585464477,-0.5935899615287781,0.1832964867353439,0.0988373905420303,0.0,0.0,-0.963408887386322,-0.3277810215950012
0.0407506935298442,0.7767772078514099,0.2175336182117462,-0.5980609655380249,0.1876624524593353,0.0873196572065353,0.0,0.0,-0.9622379541397096,-0.7602165341377258
0.0429502502083778,0.7632153630256653,0.2144290953874588,-0.603454053401947,0.1932148933410644,0.111048936843872,0.0,0.0,-0.6949647068977356,-0.2848137021064758
0.0451994910836219,0.7495518326759338,0.2200016975402832,-0.6079246997833252,0.1981632560491562,0.0989674031734466,0.0,0.0,-0.6638469696044922,-0.7937249541282654
0.0474387183785438,0.7357694506645203,0.2181054055690765,-0.6133371591567993,0.2040262669324875,0.1172602772712707,0.0,0.0,-0.7732117176055908,0.3350090980529785
0.0497268661856651,0.7218850255012512,0.2236210107803344,-0.6178070902824402,0.2092611044645309,0.1046967878937721,0.0,0.0,-0.5044658184051514,0.321532130241394
0.0520633682608604,0.7078984975814819,0.2291034162044525,-0.6222760081291199,0.2138571143150329,0.0919200778007507,0.0,0.0,-0.7737552523612976,-0.3693019151687622
0.054447840899229,0.6938095092773438,0.2345494031906128,-0.6267439723014832,0.2178044617176056,0.0789470300078392,0.0,0.0,-0.6396464109420776,-0.1804662942886352
0.0568799972534179,0.6796182990074158,0.2399554252624511,-0.6312111616134644,0.2210941165685653,0.065793476998806,0.0,0.0,-0.6267223954200745,-0.0414429306983947
0.0593589767813682,0.665324330329895,0.2453177720308303,-0.6356775164604187,0.2237178385257721,0.0524742379784584,0.0,0.0,-0.4383043050765991,-0.3107704520225525
0.0618845932185649,0.6509276628494263,0.2506323158740997,-0.6401433944702148,0.2256679981946945,0.0390030853450298,0.0,0.0,-0.3814095258712768,-0.7516589164733887
0.0643889456987381,0.6364083886146545,0.2474621534347534,-0.6457563638687134,0.2286805510520935,0.0602508671581745,0.0,0.0,-0.4945124983787536,-0.6138242483139038
0.0668935775756836,0.6217719912528992,0.2470157891511917,-0.6510462164878845,0.2321792989969253,0.0699749439954757,0.0,0.0,-0.5884377956390381,-0.6830918192863464
0.0693778991699218,0.6070177555084229,0.2440278828144073,-0.6564444303512573,0.236651211977005,0.0894383043050766,0.0,0.0,-0.6885530352592468,-0.4918292760848999
0.0719060897827148,0.5921608209609985,0.2491044253110885,-0.6609102487564087,0.2404253333806991,0.0754825249314308,0.0,0.0,-0.7839198708534241,-0.8423423767089844
0.0744102448225021,0.5771697163581848,0.2456298321485519,-0.6670619249343872,0.2452977895736694,0.0974490717053413,0.0,0.0,-0.8617212772369385,0.6544288396835327
0.0770135894417762,0.5620899796485901,0.2576828300952911,-0.6706544160842896,0.2479985207319259,0.0540144629776477,0.0,0.0,-0.4517151713371277,-0.6518911719322205
0.0796069130301475,0.5468811392784119,0.2560181021690368,-0.6765137910842896,0.2513803839683532,0.0676375329494476,0.0,0.0,-0.7025909423828125,-0.8722854852676392
0.0821718201041221,0.5315508842468262,0.2521217465400696,-0.682094931602478,0.2558288872241974,0.0889699235558509,0.0,0.0,-0.7385942339897156,0.5607918500900269
0.0848235115408897,0.5161421298980713,0.2627745270729065,-0.6852534413337708,0.2582707405090332,0.0488373227417469,0.0,0.0,-0.3408214449882507,-0.6789813041687012
0.0874507874250412,0.5006125569343567,0.2594530880451202,-0.6907855272293091,0.261616438627243,0.0669137313961982,0.0,0.0,0.0893821716308593,-0.5313254594802856
0.0899280533194542,0.4852381646633148,0.2442610710859298,-0.6839269995689392,0.265157014131546,0.0708116143941879,0.0,0.0,0.2135747671127319,-0.9186111688613892
0.0922508239746093,0.4705942869186401,0.2276959419250488,-0.6516740322113037,0.2698386907577514,0.0936337560415268,0.0,0.0,0.2953696250915527,-0.2934013605117798
0.0944109931588172,0.4564679265022278,0.2125147581100464,-0.6284893155097961,0.2734277248382568,0.0717805474996566,0.0,0.0,0.6246520280838013,0.4114632606506347
0.0963721275329589,0.443179190158844,0.1935662627220153,-0.5910909175872803,0.2760409712791443,0.0522646680474281,0.0,0.0,0.3675470352172851,0.9501062631607056
0.0982669815421104,0.4306530654430389,0.1895340830087661,-0.5567082762718201,0.2759881913661957,-0.0010557734640315,0.0,0.0,0.6076259613037109,0.5275349617004395
0.1001645103096962,0.4188947677612304,0.1913260817527771,-0.5222923159599304,0.2743752896785736,-0.0322582088410854,0.0,0.0,0.8765082359313965,0.6287010908126831
0.1020610779523849,0.4076205492019653,0.1931059062480926,-0.5004327893257141,0.2708397507667541,-0.07071053981781,0.0,0.0,0.6833326816558838,-0.5302331447601318
0.1039314270019531,0.3968560695648193,0.1898764669895172,-0.477896511554718,0.2679254412651062,-0.0582861304283142,0.0,0.0,0.7777061462402344,0.3466122150421142
0.1058155074715614,0.3869401216506958,0.1912460476160049,-0.440193623304367,0.2650150954723358,-0.0582062676548957,0.0,0.0,0.6730818748474121,-0.5215854644775391
0.1077228561043739,0.3775382339954376,0.1928640455007553,-0.4174768626689911,0.2628451883792877,-0.0433987155556678,0.0,0.0,0.456841230392456,-0.748817503452301
0.1094141006469726,0.3689728379249573,0.1704848706722259,-0.3804407715797424,0.261449784040451,-0.027907907962799,0.0,0.0,0.7128455638885498,-0.7273983359336853
0.1108963042497634,0.3614404797554016,0.1487922370433807,-0.3346732258796692,0.2608678340911865,-0.0116390688344836,0.0,0.0,0.6173150539398193,-0.7237645983695984
0.1122980117797851,0.3547833859920501,0.1397655159235,-0.2959397733211517,0.2612839341163635,0.0083218188956379,0.0,0.0,0.9173845052719116,-0.7333884239196777
0.1136815100908279,0.3485914766788482,0.1369106471538543,-0.2754572629928589,0.2627603709697723,0.0295285135507583,0.0,0.0,0.3378748893737793,-0.5046011805534363
0.1148844733834266,0.3428587913513183,0.1186540126800537,-0.2550793886184692,0.2644297182559967,0.0333866365253925,0.0,0.0,0.5012977123260498,-0.3915755748748779
0.1159628853201866,0.3381882309913635,0.106568656861782,-0.2078131586313247,0.2657346427440643,0.0260987486690282,0.0,0.0,0.4850531816482544,-0.2994173765182495
0.1168902367353439,0.3341465294361114,0.0922467112541198,-0.1797166317701339,0.2662245631217956,0.0097981430590152,0.0,0.0,-0.0064906477928161,0.2138819694519043
0.1178179755806922,0.330001562833786,0.092991255223751,-0.1841786801815033,0.2659987509250641,-0.0045162020251154,0.0,0.0,-0.1921697854995727,0.140865683555603
0.1187431365251541,0.3257534503936767,0.0934368669986724,-0.1886408179998397,0.2650596797466278,-0.0187816154211759,0.0,0.0,0.498021125793457,0.4394515752792358
0.1194377914071083,0.322367787361145,0.0712963193655014,-0.1501422822475433,0.2631852924823761,-0.0374877639114856,0.0,0.0,-0.246520459651947,0.7486400604248047
0.1201720237731933,0.3189040720462799,0.0772386491298675,-0.1532614678144455,0.2592909336090088,-0.0778873711824417,0.0,0.0,-0.0225660800933837,0.799954891204834
0.120953656733036,0.3153583407402038,0.0841853767633438,-0.1565375924110412,0.2531424760818481,-0.122969165444374,0.0,0.0,-0.1936714649200439,0.5974828004837036
0.121757224202156,0.3117249011993408,0.0880455821752548,-0.1601789146661758,0.2453178614377975,-0.1564922630786895,0.0,0.0,-0.6645023822784424,0.3455841541290283
0.1225433349609375,0.3079893589019775,0.0869858786463737,-0.164647489786148,0.2367947995662689,-0.1704612970352172,0.0,0.0,-0.145286738872528,0.5879508256912231
0.1233612075448036,0.3041746616363525,0.0922561362385749,-0.1678931564092636,0.2261789739131927,-0.212316632270813,0.0,0.0,-0.1615769863128662,0.4381341934204101
0.12415561825037,0.3002587258815765,0.0906197875738143,-0.1723671555519104,0.2148717492818832,-0.2261446267366409,0.0,0.0,-0.0093148946762084,0.7740514278411865
0.1249969452619552,0.2962722480297088,0.0979420989751815,-0.1752256751060485,0.2009393125772476,-0.2786491811275482,0.0,0.0,0.6533617973327637,0.6005274057388306
0.1256758719682693,0.293339341878891,0.0836819931864738,-0.1282851696014404,0.1850526183843612,-0.3177338242530823,0.0,0.0,-0.9688329696655272,0.742987871170044
0.1263933181762695,0.2903363406658172,0.0901108235120773,-0.1312766224145889,0.1666367202997207,-0.3683183491230011,0.0,0.0,-0.953615128993988,0.4086520671844482
0.1270766258239746,0.2872358560562134,0.0874265357851982,-0.13577301800251,0.1475455313920974,-0.3818238377571106,0.0,0.0,-0.8931379914283752,-0.2697690725326538
0.1277234107255935,0.2840382158756256,0.08450598269701,-0.1402726918458938,0.1277834475040435,-0.3952420651912689,0.0,0.0,-0.7645835876464844,-0.8094401359558105
0.1282737702131271,0.2807397544384002,0.0741316676139831,-0.1450757682323455,0.108805276453495,-0.3795632123947143,0.0,0.0,-0.912087857723236,-0.8098587393760681
0.1287287771701812,0.2773310542106628,0.0638776868581771,-0.1502603441476822,0.0905661433935165,-0.3647827506065368,0.0,0.0,-0.9747514128684998,-0.9631513953208924
0.1290496885776519,0.2738140821456909,0.0488494485616683,-0.1553818583488464,0.0739785805344581,-0.3317514061927795,0.0,0.0,-0.6791043281555176,-0.9852161407470704
0.1292324960231781,0.2701858580112457,0.0332785733044147,-0.1605782657861709,0.059119589626789,-0.2971795797348022,0.0,0.0,-0.7366024255752563,-0.9943684339523317
0.1292878091335296,0.2664512395858764,0.0191478114575147,-0.165499672293663,0.0456634350121021,-0.2691226899623871,0.0,0.0,-0.9856475591659546,-0.9914169907569884
0.1292207688093185,0.2626106739044189,0.0056549850851297,-0.1703581362962722,0.0334531888365745,-0.2442050278186798,0.0,0.0,-0.992441713809967,-0.984961986541748
0.1290440559387207,0.2586589455604553,-0.0062211314216256,-0.1754169762134552,0.0221419986337423,-0.2262237519025802,0.0,0.0,-0.8350445628166199,-0.970384955406189
0.1287526190280914,0.2546098828315735,-0.0186839345842599,-0.1798315346240997,0.0118174124509096,-0.2064916789531707,0.0,0.0,0.3767093420028686,-0.983055591583252
0.1283480674028396,0.2514780759811401,-0.0313610844314098,-0.1391484886407852,0.0028379319701343,-0.1795895993709564,0.0,0.0,-0.9995057582855223,-0.0220271348953247
0.1278909742832183,0.2482465356588363,-0.0359961465001106,-0.1436329036951065,-0.0067596524022519,-0.1919515877962112,0.0,0.0,-0.9972707033157348,-0.8263900279998779
0.1273254454135894,0.2449174523353576,-0.0476105213165283,-0.1480265259742736,-0.0155931077897548,-0.1766690462827682,0.0,0.0,-0.9989399909973145,-0.8214842677116394
