x_pos,y_pos,x_vel,y_vel,angle,ang_vel,leg_1,leg_2,main_booster,lat_booster
-0.0015982628101482,1.403403401374817,-0.1619580537080764,-0.3340691328048706,0.0019124371465295,0.0377356745302677,0.0,0.0,-0.1531364917755127,0.8501243591308594
-0.0031991959549486,1.3956851959228516,-0.1602193862199783,-0.3430324196815491,0.0020338944159448,0.0024300971999764,0.0,0.0,-0.096431016921997,0.61301589012146
-0.0048163412138819,1.3877413272857666,-0.160420760512352,-0.3530621230602264,0.0007501556538045,-0.025677153840661,0.0,0.0,-0.0543856024742126,0.2393233776092529
-0.0065085412934422,1.3795764446258545,-0.1679862439632415,-0.3628840744495392,-0.0004651566559914,-0.0243086107075214,0.0,0.0,-0.1197566986083984,0.4953402280807495
-0.0082756038755178,1.3711905479431152,-0.1755304187536239,-0.3727033734321594,-0.0016193492338061,-0.023086130619049,0.0,0.0,0.5109655857086182,0.9256577491760254
-0.0099014285951852,1.3633270263671875,-0.1598042547702789,-0.3494930565357208,-0.0043667266145348,-0.0549528822302818,0.0,0.0,-0.1600856184959411,0.3041234016418457
-0.011601448059082,1.3552424907684326,-0.1672743260860443,-0.3593182265758514,-0.0070640728808939,-0.0539516918361187,0.0,0.0,-0.2074779272079467,0.6802308559417725
-0.0133084300905466,1.3469388484954834,-0.1663153916597366,-0.3690857887268066,-0.0113979438319802,-0.0866853445768356,0.0,0.0,-0.2707235813140869,0.6531094312667847
-0.0150381084531545,1.3384206295013428,-0.1673478186130523,-0.3786383271217346,-0.0169593505561351,-0.1112385764718055,0.0,0.0,-0.2467573881149292,0.2901896238327026
-0.0168403629213571,1.3296819925308228,-0.1746392995119094,-0.3884592354297638,-0.0224860236048698,-0.1105434074997901,0.0,0.0,-0.1680110096931457,0.8461525440216064
-0.0186384208500385,1.3207210302352903,-0.1722979694604873,-0.3983965516090393,-0.0298992078751325,-0.1482773721218109,0.0,0.0,-0.3658585548400879,0.5824811458587646
-0.0204561240971088,1.311536431312561,-0.1729940325021743,-0.4084011018276214,-0.0385753102600574,-0.1735381782054901,0.0,0.0,-0.2287234663963318,0.8216536045074463
-0.0222648624330759,1.3021316528320312,-0.1701360642910003,-0.4182933568954468,-0.0492091961205005,-0.2126974612474441,0.0,0.0,-0.420246422290802,0.6878378391265869
-0.0240823738276958,1.292497158050537,-0.1694988012313842,-0.4286543130874634,-0.0613445825874805,-0.2427296936511993,0.0,0.0,-0.7351139187812805,0.4027912616729736
-0.0259676929563283,1.2826433181762695,-0.1762977391481399,-0.4384852945804596,-0.0734621286392211,-0.242372989654541,0.0,0.0,-0.7236273884773254,0.8013834953308105
-0.027845287695527,1.272553563117981,-0.1736665815114975,-0.4491923153400421,-0.0874490961432457,-0.2797648310661316,0.0,0.0,-0.3741649389266968,0.0473783016204834
-0.0297879222780466,1.2622452974319458,-0.1801994740962982,-0.4590277373790741,-0.1014219969511032,-0.2794832587242126,0.0,0.0,-0.2417587041854858,0.0267701148986816
-0.0317942611873149,1.251718521118164,-0.1865861713886261,-0.4688638150691986,-0.1153837963938713,-0.2792611718177795,0.0,0.0,-0.6477847099304199,-0.1010394692420959
-0.0338625907897949,1.2409735918045044,-0.1928149759769439,-0.4787002205848694,-0.1293355673551559,-0.2790608704090118,0.0,0.0,-0.7379674911499023,0.4278943538665771
-0.0359910950064659,1.230010151863098,-0.1988745033740997,-0.4885374307632446,-0.1432784050703048,-0.278882086277008,0.0,0.0,-0.788640022277832,-0.044558048248291
-0.0381781570613384,1.218828201293945,-0.2047529518604278,-0.4983752071857452,-0.1572130918502807,-0.278718888759613,0.0,0.0,-0.4298992156982422,0.1268041133880615
-0.0404214859008789,1.207427978515625,-0.2104386091232299,-0.508213460445404,-0.1711400598287582,-0.278564304113388,0.0,0.0,-0.0502963662147522,-0.7929295897483826
-0.0427679046988487,1.1958202123641968,-0.2220137864351272,-0.5173996090888977,-0.1838143765926361,-0.2535094022750854,0.0,0.0,-0.6157563924789429,-0.161243736743927
-0.0451664924621582,1.1839936971664429,-0.2272811830043792,-0.5272358059883118,-0.1964816600084304,-0.2533681392669678,0.0,0.0,-0.5782380104064941,-0.658085286617279
-0.0476778037846088,1.1719685792922974,-0.2402137219905853,-0.535942018032074,-0.2075059562921524,-0.2205057591199875,0.0,0.0,0.2127913236618042,-0.7308007478713989
-0.0503077507019043,1.160520315170288,-0.2534050047397613,-0.5101834535598755,-0.2171898484230041,-0.193677544593811,0.0,0.0,-0.1423951387405395,0.4766404628753662
-0.0529830940067768,1.1488525867462158,-0.2579770684242248,-0.5200079679489136,-0.2268658727407455,-0.1935204565525055,0.0,0.0,-0.746177077293396,-0.2490901947021484
-0.0557012557983398,1.136965274810791,-0.2622807621955871,-0.5298323631286621,-0.236532911658287,-0.1933406442403793,0.0,0.0,-0.8745455145835876,-0.2640717625617981
-0.0584592819213867,1.1248579025268557,-0.2663033008575439,-0.5396567583084106,-0.2461895048618316,-0.1931314915418625,0.0,0.0,-0.5397664308547974,-0.6670992374420166
-0.0613075271248817,1.1125482320785522,-0.276723176240921,-0.5484753251075745,-0.2544416487216949,-0.1650426685810089,0.0,0.0,0.1882996559143066,-0.4377707242965698
-0.0640233978629112,1.1008974313735962,-0.263573557138443,-0.5192239880561829,-0.2626172304153442,-0.1635114848613739,0.0,0.0,0.6691982746124268,-0.5785530209541321
-0.0667811408638954,1.0897152423858645,-0.2687393128871918,-0.4982660114765167,-0.2698205113410949,-0.1440657079219818,0.0,0.0,-0.2793657779693603,-0.8683127164840698
-0.0696398764848709,1.078351616859436,-0.2808180451393127,-0.5059942007064819,-0.2749965190887451,-0.1035201996564865,0.0,0.0,-0.4773959517478943,0.4668159484863281
-0.0725224465131759,1.066767334938049,-0.283242404460907,-0.5158128142356873,-0.2801501154899597,-0.1030720323324203,0.0,0.0,0.909706711769104,0.4142951965332031
-0.0752068534493446,1.055999517440796,-0.2635399997234344,-0.4795125126838684,-0.2851910889148712,-0.1008200868964195,0.0,0.0,0.4943567514419555,-0.2865409255027771
-0.0776996612548828,1.0459890365600586,-0.2444878816604614,-0.4458599388599396,-0.2901268005371094,-0.0987141281366348,0.0,0.0,-0.3009092807769775,-0.6118831038475037
-0.0802541747689247,1.0357762575149536,-0.2519489228725433,-0.4546017348766327,-0.2937353551387787,-0.0721708834171295,0.0,0.0,0.4999328851699829,-0.1312296390533447
-0.0825844779610633,1.0263197422027588,-0.2297194302082061,-0.4209567010402679,-0.2971469461917877,-0.0682326480746269,0.0,0.0,0.0815073251724243,-0.2448552846908569
-0.0847827941179275,1.0174448490142822,-0.2164515554904937,-0.3951343595981598,-0.3006363809108734,-0.0697888657450676,0.0,0.0,0.1827872991561889,-0.8193138837814331
-0.0868922248482704,1.008991837501526,-0.2092397511005401,-0.3760453164577484,-0.3023965358734131,-0.0352028459310531,0.0,0.0,0.4502458572387695,0.5747388601303101
-0.0888476371765136,1.001326084136963,-0.1925444155931472,-0.3413175046443939,-0.3054970204830169,-0.0620096027851104,0.0,0.0,0.7044847011566162,0.578967809677124
-0.090459443628788,0.9941288232803344,-0.1574312001466751,-0.3206744194030761,-0.3093747496604919,-0.0775548368692398,0.0,0.0,-0.078730821609497,-0.431563138961792
-0.0920592322945594,0.986710488796234,-0.1562946140766143,-0.3304910361766815,-0.3131917417049408,-0.0763396620750427,0.0,0.0,-0.2485389113426208,0.0285741090774536
-0.0936425179243087,0.9790712594985962,-0.154724508523941,-0.3403074145317077,-0.3169426321983337,-0.0750176161527633,0.0,0.0,-0.8645563721656799,-0.0531508326530456
-0.0952052101492881,0.9712108969688416,-0.1527169197797775,-0.3501235842704773,-0.3206218779087066,-0.0735851526260376,0.0,0.0,-0.8034722805023193,0.0546168088912963
-0.0967424362897872,0.963129460811615,-0.1502690017223358,-0.3599395453929901,-0.3242238163948059,-0.0720388442277908,0.0,0.0,-0.2290986776351928,0.3277783393859863
-0.0982501059770584,0.9548272490501404,-0.147379070520401,-0.3697552680969238,-0.3277426362037658,-0.0703755766153335,0.0,0.0,0.265021800994873,-0.6883445978164673
-0.0996585860848426,0.9472898840904236,-0.1387860476970672,-0.3354624211788177,-0.3298934996128082,-0.0430173240602016,0.0,0.0,-0.3997629284858703,-0.3599677085876465
-0.1010283455252647,0.9395313262939452,-0.1350118219852447,-0.3452771604061126,-0.3319490849971771,-0.0411118865013122,0.0,0.0,-0.2668008208274841,-0.2190666198730468
-0.1023551002144813,0.9315515160560608,-0.1307980418205261,-0.3550916016101837,-0.3339031636714935,-0.0390817113220691,0.0,0.0,0.0836368799209594,-0.4330713748931885
-0.1034225448966026,0.0,-0.1053991317749023,-0.3432744443416595,-0.3353142142295837,-0.028221059590578,0.0,0.0,0.4136699438095093,-0.5790337324142456
-0.1043233871459961,0.9168424010276794,-0.0898747593164444,-0.3108297288417816,-0.3355369567871094,-0.004454924724996,0.0,0.0,0.4389783143997192,-0.7911006808280945
-0.1049997359514236,0.0,-0.0692168995738029,-0.2970339357852936,-0.3338790237903595,0.0331587605178356,0.0,0.0,0.5011942386627197,-0.5380995273590088
-0.1054139137268066,0.9042891263961792,-0.0441893264651298,-0.2598856985569,-0.3309802711009979,0.0579752139747142,0.0,0.0,0.810920000076294,-0.3318732976913452
-0.1054351776838302,0.8988844752311707,-0.0057586221955716,-0.2393777072429657,-0.3271921575069427,0.0757623016834259,0.0,0.0,-0.4441348910331726,-0.8855195045471191
-0.1054649353027343,0.8932940363883972,-0.008754170499742,-0.2471738457679748,-0.3211719393730163,0.1204048544168472,0.0,0.0,-0.5374276041984558,-0.7043676376342773
-0.1054646521806716,0.8875107765197754,-0.0070872670039534,-0.2554735243320465,-0.3137845396995544,0.1477479338645935,0.0,0.0,-0.9610382318496704,-0.6199359893798828
-0.1054229736328125,0.8815266489982605,-0.0040338900871574,-0.2642073631286621,-0.3052667379379272,0.1703562289476394,0.0,0.0,-0.9791113138198853,0.2523016929626465
-0.105300523340702,0.8753219842910767,0.003855678718537,-0.2740260362625122,-0.2965888381004333,0.1735577881336212,0.0,0.0,-0.9728441834449768,0.4281446933746338
-0.1050938591361045,0.8688966631889343,0.0121060470119118,-0.283844918012619,-0.2877443432807922,0.1768890917301178,0.0,0.0,-0.9965464472770692,-0.1829540133476257
-0.104799173772335,0.8622509837150574,0.020705159753561,-0.2936639785766601,-0.2787268757820129,0.180349200963974,0.0,0.0,-0.9897921085357666,-0.0616275072097778
-0.104413129389286,0.8553847670555115,0.0296405851840972,-0.3034833371639251,-0.2695300281047821,0.1839369833469391,0.0,0.0,-0.9927756190299988,0.5155501365661621
-0.1038855537772178,0.8482772707939148,0.0448259674012661,-0.3144544064998626,-0.2614073455333709,0.1624534875154495,0.0,0.0,-0.997978925704956,0.6136488914489746
-0.1032114028930664,0.840930163860321,0.0605315156280994,-0.3253247141838074,-0.2543823421001434,0.1404999792575836,0.0,0.0,-0.9898822903633118,0.2276997566223144
-0.1024365425109863,0.833362340927124,0.0704001784324646,-0.335141509771347,-0.2471591830253601,0.1444630920886993,0.0,0.0,-0.9951645135879515,0.6101751327514648
-0.1015208214521408,0.8255597949028015,0.0852280780673027,-0.3457289338111877,-0.2407107651233673,0.1289685815572738,0.0,0.0,-0.9924716949462892,-0.5083358883857727
-0.1005352959036827,0.8175560832023621,0.0910180136561393,-0.3545152544975281,-0.2330577820539474,0.1530600041151046,0.0,0.0,-0.9987843036651612,-0.2508889436721802
-0.0994406715035438,0.8093313574790955,0.1017013639211654,-0.364332765340805,-0.2251888215541839,0.1573792994022369,0.0,0.0,-0.994612157344818,-0.7354172468185425
-0.0982871055603027,0.8009130358695984,0.1059561222791671,-0.3727432787418365,-0.2156763970851898,0.1902481168508529,0.0,0.0,-0.9992743134498596,0.1688780784606933
-0.0970193892717361,0.7922743558883667,0.1171181425452232,-0.3825635612010956,-0.2059369385242462,0.1947890818119049,0.0,0.0,-0.9934962391853333,0.3673322200775146
-0.0956354141235351,0.7834154963493347,0.1285014003515243,-0.3923842310905456,-0.1959651410579681,0.1994357407093048,0.0,0.0,-0.9990203380584716,-0.3293881416320801
-0.0941329002380371,0.7743364572525024,0.1400940716266632,-0.4022054970264435,-0.1857559382915496,0.2041844576597213,0.0,0.0,-0.997097909450531,-0.0112005472183227
-0.0925099402666091,0.7650374174118042,0.1518845856189727,-0.4120272696018219,-0.1753043681383133,0.2090312987565994,0.0,0.0,-0.9944003224372864,-0.1615824103355407
-0.0907645225524902,0.75551837682724,0.1638617813587188,-0.4218495786190033,-0.1646057516336441,0.2139722406864166,0.0,0.0,-0.9824668765068054,-0.5187609195709229
-0.0889379531145095,0.7457860112190247,0.1706041991710662,-0.4312559068202972,-0.1525609344244003,0.240896537899971,0.0,0.0,-0.9863771200180054,0.0579893589019775
-0.0869854912161827,0.7358342409133911,0.1829225718975067,-0.441081553697586,-0.1402603536844253,0.2460117042064666,0.0,0.0,-0.9944252371788024,-0.3630586862564087
-0.0849054306745529,0.7256631255149841,0.1953967362642288,-0.4509080350399017,-0.127700001001358,0.2512072920799255,0.0,0.0,-0.9909796714782716,0.4965553283691406
-0.0826962441205978,0.7152729034423828,0.2080172598361969,-0.4607352316379547,-0.1148760765790939,0.2564785182476043,0.0,0.0,-0.9984508752822876,-0.2545368671417236
-0.0803566947579383,0.7046636939048767,0.2207750529050827,-0.4705632627010345,-0.1017850488424301,0.2618206143379211,0.0,0.0,-0.9976887702941896,0.3897111415863037
-0.0778853446245193,0.693835437297821,0.2336615622043609,-0.4803921580314636,-0.0884236395359039,0.2672284543514251,0.0,0.0,-0.9991475343704224,0.0141137838363647
-0.075280949473381,0.6827884316444397,0.2466685324907302,-0.4902220070362091,-0.0747888013720512,0.2726969718933105,0.0,0.0,-0.9901776909828186,-0.4986430406570434
-0.0725424736738205,0.6715227365493774,0.2597882151603699,-0.5000527501106262,-0.0608777701854705,0.2782208323478699,0.0,0.0,-0.9981122016906738,-0.1354135274887085
-0.0696687698364257,0.6600385904312134,0.2730133533477783,-0.5098844170570374,-0.0466880574822425,0.2837945818901062,0.0,0.0,-0.997193455696106,-0.0088610053062438
-0.0666588768362999,0.6483361124992371,0.2863368391990661,-0.5197170972824097,-0.0322174318134784,0.2894127368927002,0.0,0.0,-0.9988770484924316,-0.7547175884246826
-0.0635726898908615,0.6364225745201111,0.292121559381485,-0.5292156338691711,-0.0159325283020734,0.3256978690624237,0.0,0.0,-0.9918333292007446,-0.2330596446990966
-0.0603486075997352,0.6242916584014893,0.3056221306324005,-0.5390544533729553,0.0006367723108269,0.3313862085342407,0.0,0.0,-0.9949742555618286,-0.2496067285537719
-0.056985855102539,0.6119434833526611,0.3192023932933807,-0.5488942861557007,0.0174918603152036,0.3371017575263977,0.0,0.0,-0.994058072566986,-0.2973107099533081
-0.0534836761653423,0.5993785262107849,0.3328568041324615,-0.5587354898452759,0.0346337780356407,0.3428385555744171,0.0,0.0,-0.8899962306022644,-0.881371259689331
-0.0498940460383892,0.5865941047668457,0.3399712443351745,-0.5687410831451416,0.0533881448209285,0.3750875294208526,0.0,0.0,-0.5102336406707764,-0.6965035200119019
-0.0462060943245887,0.5735853314399719,0.3484701216220855,-0.5790150165557861,0.0734967067837715,0.4021713733673095,0.0,0.0,-0.4643996953964233,-0.858586311340332
-0.0424456596374511,0.5603606104850769,0.3537043333053589,-0.5890118479728699,0.0956174656748771,0.4424152970314026,0.0,0.0,-0.3422138690948486,-0.8363081216812134
-0.038606833666563,0.5469197630882263,0.3597252964973449,-0.5990926027297974,0.1196051388978958,0.479753315448761,0.0,0.0,0.7737827301025391,-0.3143547773361206
-0.0345789901912212,0.5343568921089172,0.3777904808521271,-0.5605418682098389,0.1444983631372451,0.4978642463684082,0.0,0.0,0.9274799823760986,-0.4363205432891845
-0.030347442254424,0.5221728682518005,0.3974086940288543,-0.544212281703949,0.1702221035957336,0.5144751071929932,0.0,0.0,0.8838958740234375,-0.266577661037445
-0.0261310581117868,0.5106205344200134,0.3959927260875702,-0.5165807008743286,0.1959539353847503,0.5146366953849792,0.0,0.0,0.958871841430664,0.0102361440658569
-0.0218730922788381,0.5003913044929504,0.3995477557182312,-0.458322137594223,0.222433790564537,0.5295974016189575,0.0,0.0,0.7105958461761475,0.4112261533737182
-0.0176261905580759,0.4908053576946258,0.3984304368495941,-0.4302228987216949,0.2490841746330261,0.5330075025558472,0.0,0.0,0.5970215797424316,-0.1244647502899169
-0.0135427471250295,0.4820819497108459,0.3825235962867737,-0.3923048079013824,0.2754583954811096,0.5274847745895386,0.0,0.0,0.6223136186599731,-0.0349358320236206
-0.0094208717346191,0.4741717278957367,0.3859149813652038,-0.3567456305027008,0.3025058805942535,0.5409497022628784,0.0,0.0,0.8022087812423706,0.6659822463989258
-0.005411148071289,0.4672223627567291,0.3760982155799866,-0.3142470121383667,0.3283184766769409,0.5162518620491028,0.0,0.0,0.660231351852417,0.5328859090805054
-0.0015465735923498,0.4611106514930725,0.3628160059452057,-0.2771995663642883,0.3530753254890442,0.4951376914978027,0.0,0.0,0.8144726753234863,0.7849754095077515
0.0023025511763989,0.4555703401565552,0.3627965152263641,-0.2518465518951416,0.3764340281486511,0.4671741425991058,0.0,0.0,0.907884120941162,0.9098100662231444
0.0059678079560399,0.4507437944412231,0.3463547825813293,-0.2199782282114029,0.3979228138923645,0.4297761917114258,0.0,0.0,0.6412539482116699,0.7343184947967529
0.0094775203615427,0.4463592171669006,0.3324297666549682,-0.2001965790987014,0.4178445339202881,0.3984344601631164,0.0,0.0,0.4708007574081421,0.9010863304138184
0.0130317686125636,0.4427493810653686,0.3384583592414856,-0.1655742973089218,0.4362525939941406,0.3681611120700836,0.0,0.0,0.5296165943145752,0.7459495067596436
0.0166974067687988,0.4394592940807342,0.35081347823143,-0.1512203961610794,0.4534716606140136,0.3443804979324341,0.0,0.0,0.5283393859863281,0.016334056854248
0.0203183181583881,0.4369932413101196,0.3456905782222748,-0.1150377616286277,0.4715564250946045,0.3616946339607239,0.0,0.0,0.522960901260376,0.703420877456665
0.0237845424562692,0.4352942109107971,0.3315244019031524,-0.0807413011789321,0.4883544743061065,0.335961639881134,0.0,0.0,0.1923862695693969,0.0323514938354492
0.0271961204707622,0.4342687427997589,0.3255572319030761,-0.0512092486023902,0.5058606266975403,0.3501227796077728,0.0,0.0,-0.2312098145484924,0.5214817523956299
0.0307912826538085,0.4330605268478393,0.3449632227420807,-0.059168379753828,0.522350013256073,0.3297872245311737,0.0,0.0,0.1970107555389404,0.0338339805603027
0.0342302322387695,0.4324011504650116,0.3293072581291199,-0.0350011587142944,0.5390315651893616,0.3336308896541595,0.0,0.0,-0.0775845050811767,0.219057559967041
0.0378122329711914,0.4315255284309387,0.343586266040802,-0.0448471941053867,0.5559208989143372,0.3377861678600311,0.0,0.0,0.367047905921936,0.4359991550445556
0.0413936600089073,0.4309698343276977,0.3432323336601257,-0.0309745464473962,0.5733171701431274,0.3479253947734833,0.0,0.0,0.1711325645446777,0.3882009983062744
0.0448068603873252,0.4306797385215759,0.3267703652381897,-0.0192618872970342,0.5905014276504517,0.3436850905418396,0.0,0.0,0.1445962190628051,0.2859601974487304
0.0480898842215538,0.4305434823036194,0.3141090273857116,-0.0125047015026211,0.6074531674385071,0.3390344083309173,0.0,0.0,0.5103487968444824,0.7147833108901978
0.0512486472725868,0.4308537542819977,0.3030149340629577,0.0077421041205525,0.6229936480522156,0.3108100295066833,0.0,0.0,0.1218397617340087,0.4722746610641479
0.0543520934879779,0.4314038753509521,0.2974302768707275,0.0181667767465114,0.6387721300125122,0.3155704140663147,0.0,0.0,-0.1156306266784668,0.780221700668335
0.0576588623225688,0.4317967593669891,0.3194547295570373,0.0118271680548787,0.652641773223877,0.2773924469947815,0.0,0.0,0.4618703126907348,0.4575347900390625
0.0608078017830848,0.4327714443206787,0.3033629059791565,0.0373651012778282,0.6670418977737427,0.2880021035671234,0.0,0.0,-0.4065204858779907,0.7246463298797607
0.0641402229666709,0.4335878193378448,0.3230634927749634,0.0308712385594844,0.6798949241638184,0.2570604681968689,0.0,0.0,-0.1745903491973877,0.4335500001907348
0.0676128417253494,0.4341858625411987,0.3371011614799499,0.0210379604250192,0.6928521990776062,0.2591450810432434,0.0,0.0,0.4246703386306762,0.6303253173828125
