x_pos,y_pos,x_vel,y_vel,angle,ang_vel,leg_1,leg_2,main_booster,lat_booster
-0.0015720367664471,1.403120040893555,-0.1584828495979309,-0.3466700613498688,0.0011451229220256,0.0225426685065031,0.0,0.0,0.2319765688476651,-0.653801943474555
-0.0031989098060876,1.3953514099121094,-0.164536103606224,-0.3452731966972351,0.0029718850273638,0.0365394912660121,0.0,0.0,-0.9639728714153102,-0.7335588197921379
-0.0049142837524414,1.3870723247528076,-0.1738616228103637,-0.3679687082767486,0.0052734683267772,0.0460357367992401,0.0,0.0,-0.8936355565085843,0.7276450584735162
-0.0066246031783521,1.378286600112915,-0.1715355813503265,-0.3904750049114227,0.0057669561356306,0.0098708486184477,0.0,0.0,-0.3847717751699262,-0.9424405596935646
-0.0084316255524754,1.3689990043640137,-0.1820266395807266,-0.41279137134552,0.007077089510858,0.026204977184534,0.0,0.0,0.6674582925086698,-0.620485660207911
-0.0101775173097848,1.3600293397903442,-0.176891878247261,-0.3986683785915375,0.0093487435951828,0.0454373136162757,0.0,0.0,-0.4453830081331009,0.879836624562309
-0.0118901254609227,1.3505558967590332,-0.1712149828672409,-0.4210427403450012,0.0092966295778751,-0.0010420912876725,0.0,0.0,0.6458658862017386,-0.9300755140627556
-0.0135458949953317,1.3415488004684448,-0.166991040110588,-0.4003274738788605,0.0106970556080341,0.0280110351741313,0.0,0.0,0.052518769968066,-0.6940416932386086
-0.0152992252260446,1.3328430652618408,-0.1774918735027313,-0.3869355022907257,0.0128201534971594,0.0424658879637718,0.0,0.0,-0.3529215267741705,-0.9282470312654654
-0.0171521194279193,1.3236373662948608,-0.1886500418186187,-0.4091786742210388,0.0161464363336563,0.0665317699313163,0.0,0.0,-0.3046952558187203,-0.7140956486267571
-0.0190771110355854,1.3139264583587646,-0.1964452564716339,-0.4316377937793731,0.0200506020337343,0.0780903697013855,0.0,0.0,-0.7642885145563969,0.9834166485129442
-0.0209370609372854,1.3037117719650269,-0.1871050298213958,-0.4540028274059295,0.021146398037672,0.0219179559499025,0.0,0.0,-0.797156755836735,-0.6511319064625631
-0.0228566173464059,1.292994499206543,-0.1934577375650406,-0.4763449728488922,0.0226297080516815,0.02966870367527,0.0,0.0,0.0829456957133778,0.9661907296135688
-0.0246684066951274,1.2821171283721924,-0.1801022440195083,-0.4834227859973907,0.0215702895075082,-0.0211902391165494,0.0,0.0,0.5500338362569894,0.7802519339553009
-0.0263035781681537,1.2719098329544067,-0.1605331003665924,-0.4536163210868835,0.0186102855950593,-0.0592055395245552,0.0,0.0,-0.4081079977524993,-0.8933675200665699
-0.0280094146728515,1.261185646057129,-0.1684378385543823,-0.4765998125076294,0.0164931658655405,-0.0423458889126777,0.0,0.0,-0.954436421964773,0.854470416797015
-0.029643440619111,1.2499693632125854,-0.1585527956485748,-0.4984578490257263,0.0116900634020566,-0.0960708707571029,0.0,0.0,0.5143021448144882,0.7178016061125909
-0.0310899727046489,1.2387614250183103,-0.1380323320627212,-0.4980908632278442,0.0051457956433296,-0.1308971941471099,0.0,0.0,0.1240520955411397,0.780744271035725
-0.0324089042842388,1.2278772592544556,-0.1231706142425537,-0.4837279915809631,-0.0034738639369606,-0.1724089384078979,0.0,0.0,-0.2734286012560434,0.7875829590872405
-0.0336793884634971,1.2164891958236694,-0.116375133395195,-0.5061907768249512,-0.0140226855874061,-0.2109955102205276,0.0,0.0,0.9726072401665472,-0.7706019252519821
-0.0348365791141986,1.2059481143951416,-0.1064236015081405,-0.4686034917831421,-0.0232178680598735,-0.1839200556278228,0.0,0.0,0.499531229332709,-0.6176791020696404
-0.0360239967703819,1.1955034732818604,-0.1101535409688949,-0.464354008436203,-0.0317148976027965,-0.16995570063591,0.0,0.0,-0.7927398536879671,0.7392938514885355
-0.0371412262320518,1.1845515966415403,-0.1007758527994155,-0.4870150685310364,-0.0425393916666507,-0.216509461402893,0.0,0.0,-0.4491784404909749,0.6376148109710379
-0.0382015220820903,1.1730867624282837,-0.0931363925337791,-0.5099599957466125,-0.055306427180767,-0.2553634345531463,0.0,0.0,-0.8282865830043222,-0.8631320086955943
-0.0393438339233398,1.161129117012024,-0.1029722094535827,-0.531900942325592,-0.0664626136422157,-0.2231432646512985,0.0,0.0,-0.8776250106286065,-0.6800598601283254
-0.0405505187809467,1.1486579179763794,-0.1105873808264732,-0.5547558069229126,-0.0764349624514579,-0.1994466781616211,0.0,0.0,0.5597206862962127,-0.845668066756304
-0.041762925684452,1.136722207069397,-0.1123973503708839,-0.5309563279151917,-0.0851970165967941,-0.1752414107322693,0.0,0.0,-0.7951882130931229,0.6393721955868285
-0.0429302230477333,1.124285340309143,-0.1064144372940063,-0.5533718466758728,-0.0954174622893333,-0.2044084072113037,0.0,0.0,-0.913260758217152,0.719927616816825
-0.0440462119877338,1.111345887184143,-0.0997290462255477,-0.5758945941925049,-0.1072029545903205,-0.235709935426712,0.0,0.0,0.2158479053282436,-0.6861877005412607
-0.0451879501342773,1.0984482765197754,-0.1032376438379287,-0.5740498900413513,-0.1180662214756012,-0.2172654420137405,0.0,0.0,-0.3159853259758172,0.9749187717231969
-0.046241570264101,1.0850456953048706,-0.0920303910970687,-0.5967800617218018,-0.13133005797863,-0.2652765214443207,0.0,0.0,-0.2914090119951544,-0.8089569506831769
-0.0473581328988075,1.071150779724121,-0.0998029112815857,-0.6186326742172241,-0.1431460976600647,-0.2363204658031463,0.0,0.0,0.0622480254701243,0.815415510296888
-0.0483881011605262,1.0575268268585205,-0.0891615003347396,-0.6069039106369019,-0.1569595783948898,-0.2762694954872131,0.0,0.0,0.6903618596518923,0.8967902632678165
-0.0493526458740234,1.0439410209655762,-0.0804094821214675,-0.6055830121040344,-0.1730061322450637,-0.3209311366081238,0.0,0.0,-0.7265851590946661,-0.7132713202246972
-0.0503598228096962,1.0298703908920288,-0.0858155339956283,-0.6271703839302063,-0.1879544705152511,-0.2989667356014251,0.0,0.0,-0.1684370507893868,-0.6469757173379955
-0.0514034256339073,1.01531720161438,-0.0904926508665084,-0.6486228108406067,-0.2019044011831283,-0.2789986729621887,0.0,0.0,-0.8143612776930684,0.696146854964168
-0.0523838996887207,1.000243902206421,-0.0826674252748489,-0.6720998287200928,-0.2174282521009445,-0.3104771673679352,0.0,0.0,-0.8638104328431429,0.9330921468073072
-0.0532744415104389,0.9846521019935608,-0.0715501084923744,-0.695646345615387,-0.2351451814174652,-0.3543387949466705,0.0,0.0,0.9275195046911048,-0.969782909857959
-0.0540452003479003,0.9700490236282348,-0.0613309033215045,-0.6516212224960327,-0.2511503398418426,-0.3201029300689697,0.0,0.0,-0.7421521504607287,0.9850338734269046
-0.0547237396240234,0.9549168944358826,-0.0500216260552406,-0.6757060289382935,-0.2693739235401153,-0.364471971988678,0.0,0.0,0.7616125569448859,-0.8108753337114541
-0.0553492531180381,0.940566897392273,-0.0460685715079307,-0.6409011483192444,-0.2862850129604339,-0.3382215797901153,0.0,0.0,-0.9276010990142822,-0.972154438495636
-0.0560205467045307,0.9257399439811708,-0.0521712712943553,-0.6619918942451477,-0.3016956746578216,-0.308213472366333,0.0,0.0,-0.9995228052139282,-0.9618293046951294
-0.0567415244877338,0.910429298877716,-0.0587691254913806,-0.6832937598228455,-0.3155080080032348,-0.2762463688850403,0.0,0.0,-0.9659209847450256,-0.8727688193321228
-0.0575047507882118,0.8946415781974792,-0.0644747912883758,-0.7043042778968811,-0.3278335630893707,-0.2465115785598755,0.0,0.0,-0.9977136850357056,-0.876213788986206
-0.0583275780081748,0.8783766627311707,-0.0723363608121872,-0.7251757383346558,-0.3382228016853332,-0.2077847421169281,0.0,0.0,-0.9107388257980348,-0.9139139652252196
-0.0592032447457313,0.8616325259208679,-0.0793590396642685,-0.7461355924606323,-0.3468240797519684,-0.1720254123210907,0.0,0.0,-0.8906959295272827,-0.978751301765442
-0.0601338371634483,0.844414472579956,-0.0866757929325103,-0.7667996883392334,-0.3535244166851043,-0.1340069472789764,0.0,0.0,-0.2635961771011352,-0.9075551629066468
-0.0611305236816406,0.826744794845581,-0.0955468416213989,-0.7863404154777527,-0.3578663766384125,-0.0868393406271934,0.0,0.0,-0.3579621315002441,-0.9716896414756776
-0.0622021667659282,0.8086269497871399,-0.1055253893136978,-0.8056458830833435,-0.3595940470695495,-0.0345531478524208,0.0,0.0,0.1194013357162475,-0.987121045589447
-0.0632322281599044,0.7905349731445312,-0.1034817919135093,-0.8039686679840088,-0.3590920567512512,0.0100400503724813,0.0,0.0,-0.4837294816970825,-0.9883096218109132
-0.0643088370561599,0.7719686627388,-0.1098273247480392,-0.8246380686759949,-0.3568132221698761,0.0455767549574375,0.0,0.0,0.1868525743484497,-0.990757942199707
-0.0653096213936805,0.7537128925323486,-0.1044311970472335,-0.810284435749054,-0.3522294759750366,0.0916747227311134,0.0,0.0,0.153987169265747,-0.982111930847168
-0.0661848038434982,0.735377311706543,-0.0940649136900901,-0.8133302927017212,-0.34536212682724,0.1373469233512878,0.0,0.0,-0.0904540419578552,-0.8591424822807312
-0.0671151131391525,0.7165784239768982,-0.1015544384717941,-0.8334947228431702,-0.3364200890064239,0.1788408011198043,0.0,0.0,0.4289288520812988,-0.8760058879852295
-0.0678284615278244,0.6978303790092468,-0.0820968300104141,-0.8307726979255676,-0.3251968622207641,0.2244641482830047,0.0,0.0,0.3989338874816894,-0.2872344255447387
-0.0684865936636924,0.6791839599609375,-0.0765920132398605,-0.8263436555862427,-0.3139837980270386,0.2242618352174759,0.0,0.0,0.2757143974304199,-0.1252455115318298
-0.0688820853829383,0.6608777046203613,-0.051074169576168,-0.8111655116081238,-0.3020479679107666,0.2387165129184723,0.0,0.0,0.3030383586883545,-0.2666971683502197
-0.0690132156014442,0.6427804827690125,-0.0255573950707912,-0.8017855286598206,-0.2892001569271087,0.2569560408592224,0.0,0.0,0.3301645517349243,0.1765646934509277
-0.0688964873552322,0.6251067519187927,-0.0015146796358749,-0.7829400300979614,-0.2756453156471252,0.271097183227539,0.0,0.0,-0.0461149215698242,0.211683988571167
-0.0687799453735351,0.6069294214248657,-0.0020245385821908,-0.8053625226020813,-0.2616426050662994,0.2800541222095489,0.0,0.0,-0.2560391426086426,0.5924603939056396
-0.0686169639229774,0.5882239937782288,0.0033921771682798,-0.8291081786155701,-0.24847973883152,0.263257771730423,0.0,0.0,0.7768063545227051,0.0107898712158203
-0.0683759674429893,0.5701512694358826,0.0111632067710161,-0.8010992407798767,-0.2353329956531524,0.2629348933696747,0.0,0.0,0.3901982307434082,0.1171555519104003
-0.067936897277832,0.5521734356880188,0.0299637876451015,-0.7968493103981018,-0.2212070971727371,0.2825179696083069,0.0,0.0,-0.0082831382751464,0.533538818359375
-0.067461110651493,0.5336786508560181,0.0342034436762332,-0.8200452327728271,-0.20768404006958,0.2704612910747528,0.0,0.0,0.6548506021499634,0.1352767944335937
-0.0669021606445312,0.5152671933174133,0.0419040843844413,-0.8163796067237854,-0.1935978084802627,0.2817249298095703,0.0,0.0,0.6454143524169922,-0.096268355846405
-0.066360093653202,0.4972546100616455,0.0402199476957321,-0.7987899780273438,-0.1795420199632644,0.281115710735321,0.0,0.0,0.6056771278381348,0.2881665229797363
-0.0656596198678016,0.4799609184265136,0.0553836748003959,-0.7668949365615845,-0.164837896823883,0.2940821945667267,0.0,0.0,0.3437514305114746,0.4129554033279419
-0.0648663491010665,0.4625002443790436,0.0637441128492355,-0.7743768692016602,-0.1492619812488556,0.311517983675003,0.0,0.0,0.6937257051467896,0.7258874177932739
-0.0638691931962966,0.4458238482475281,0.0849114805459976,-0.7397511601448059,-0.1344971507787704,0.2952966094017029,0.0,0.0,0.6161834001541138,0.8290438652038574
-0.0628622993826866,0.4293368458747864,0.0871122330427169,-0.7315849661827087,-0.1209743022918701,0.2704569697380066,0.0,0.0,0.3538756370544433,-0.1771260499954223
-0.0618802085518837,0.4131867885589599,0.0843510180711746,-0.7167134881019592,-0.1072071939706802,0.27534219622612,0.0,0.0,0.8128174543380737,0.0724916458129882
-0.0608102791011333,0.3975472450256347,0.092346042394638,-0.6941074728965759,-0.0926831737160682,0.2904803454875946,0.0,0.0,0.680645227432251,0.734099268913269
-0.0597660057246685,0.3827082514762878,0.0909332409501075,-0.6587297916412354,-0.0793040916323661,0.2675817012786865,0.0,0.0,0.7504470348358154,0.3880387544631958
-0.0586177818477153,0.3682723939418793,0.100320890545845,-0.6408898234367371,-0.0649489238858223,0.2871033549308777,0.0,0.0,0.6695172786712646,0.8972393274307251
-0.0574351325631141,0.3539154827594757,0.1049797907471656,-0.6375643610954285,-0.051816426217556,0.2626500725746155,0.0,0.0,0.2131159305572509,0.8033038377761841
-0.0561454780399799,0.3393954336643219,0.1166069954633712,-0.6449509859085083,-0.0396044328808784,0.2442398071289062,0.0,0.0,0.5578012466430664,0.386000394821167
-0.0549000725150108,0.3248542249202728,0.1116706952452659,-0.6459844708442688,-0.0268950928002595,0.2541870176792145,0.0,0.0,0.7837162017822266,0.6614845991134644
-0.0536176674067974,0.3110987842082977,0.1160688400268554,-0.6111790537834167,-0.0148836690932512,0.2402285784482956,0.0,0.0,0.4684906005859375,0.8943278789520264
-0.0522035583853721,0.2979335784912109,0.1303038895130157,-0.5850441455841064,-0.0039118411950767,0.2194366008043289,0.0,0.0,0.5398848056793213,0.5100409984588623
-0.050890065729618,0.2854136526584625,0.1209018677473068,-0.5564425587654114,0.0064016091637313,0.2062688320875167,0.0,0.0,0.2703640460968017,0.7310916185379028
-0.0496657378971576,0.2727648019790649,0.1129474192857742,-0.5622423887252808,0.0157686118036508,0.1873399168252945,0.0,0.0,0.5789504051208496,0.822052001953125
-0.0483803749084472,0.2607556581497192,0.1199677735567092,-0.5338529944419861,0.0242283083498477,0.1691941916942596,0.0,0.0,0.3988728523254394,0.512795090675354
-0.0471952445805072,0.24897201359272,0.1105316653847694,-0.5238674879074097,0.0321058817207813,0.1575512588024139,0.0,0.0,0.4439840316772461,0.6347537040710449
-0.0460693351924419,0.2375757098197937,0.105326235294342,-0.5066745281219482,0.0392803288996219,0.1434891819953918,0.0,0.0,0.3400827646255493,0.2055612802505493
-0.0450147613883018,0.2265257239341735,0.0975729674100875,-0.4913394153118133,0.0470796674489975,0.1559866517782211,0.0,0.0,-0.2057339549064636,0.7340240478515625
-0.0439342483878135,0.214977279305458,0.1011670231819152,-0.5134974122047424,0.0538796111941337,0.1359991133213043,0.0,0.0,0.8002651929855347,0.6311379671096802
-0.0428379066288471,0.2034841924905777,0.1032713875174522,-0.5110456943511963,0.0601702034473419,0.1258119046688079,0.0,0.0,0.7027245759963989,0.6252057552337646
-0.0416570678353309,0.1921182721853256,0.1120434030890464,-0.5054059624671936,0.0661457851529121,0.1195117458701133,0.0,0.0,0.9439654350280762,-0.1173653006553649
-0.0403922088444232,0.1812720596790313,0.1189465373754501,-0.4824069738388061,0.0736022964119911,0.14913010597229,0.0,0.0,0.8010687828063965,-0.5471549034118652
-0.0390859618782997,0.1705751270055771,0.1208497062325477,-0.4759289026260376,0.0832824409008026,0.1936029642820358,0.0,0.0,0.5940234661102295,0.1509994268417358
-0.0378920547664165,0.1604586988687515,0.1089539676904678,-0.4502330124378204,0.0936213731765747,0.2067784816026687,0.0,0.0,0.1066298484802246,0.8262815475463867
-0.0367047302424907,0.1506175547838211,0.1092692166566848,-0.4380024671554565,0.1030081138014793,0.1877350062131881,0.0,0.0,0.4630889892578125,0.3440630435943603
-0.035517118871212,0.1411727517843246,0.1081001386046409,-0.4205389618873596,0.1135920882225036,0.2116793841123581,0.0,0.0,-0.0894723534584045,-0.1737207770347595
-0.0343791954219341,0.1312261223793029,0.1024544611573219,-0.442972719669342,0.12486432492733,0.2254448235034942,0.0,0.0,0.7331564426422119,0.8202754259109497
-0.0333540923893451,0.121571384370327,0.0922548174858093,-0.4299937784671783,0.1350769698619842,0.2042528688907623,0.0,0.0,0.8765373229980469,0.9285037517547609
-0.0323349945247173,0.1129185035824775,0.0926503688097,-0.3854357302188873,0.1443029940128326,0.1845204383134842,0.0,0.0,0.652531623840332,0.8714638948440552
-0.031407356262207,0.104617603123188,0.0846157371997833,-0.3697407841682434,0.1524370908737182,0.1626823544502258,0.0,0.0,0.4120814800262451,0.6707388162612915
-0.0306997299194335,0.0968139469623565,0.0634819418191909,-0.347592294216156,0.1597025245428085,0.1453087478876114,0.0,0.0,0.4558045864105224,0.926340103149414
-0.0299854278564453,0.089461475610733,0.065254770219326,-0.327454149723053,0.1658891439437866,0.1237325221300125,0.0,0.0,0.4767241477966308,0.827009916305542
-0.0294246673583984,0.0826073959469795,0.0509321019053459,-0.3052064180374145,0.1710333973169326,0.1028851121664047,0.0,0.0,0.3497953414916992,0.9647514820098876
-0.0290249828249216,0.0761614441871643,0.0361257418990135,-0.286936491727829,0.1748847961425781,0.0770279020071029,0.0,0.0,0.5997329950332642,0.9833252429962158
-0.0287137981504201,0.069934993982315,0.0285807941108942,-0.2770342528820038,0.177428513765335,0.0508744195103645,0.0,0.0,0.8071727752685547,0.9650344848632812
-0.0286388397216796,0.0641605257987976,0.0064090401865541,-0.256774753332138,0.1785123199224472,0.021675705909729,0.0,0.0,0.7841768264770508,0.98603618144989
-0.0288217552006244,0.0586882457137107,-0.0178306438028812,-0.2431556284427642,0.1780531406402588,-0.0091837141662836,0.0,0.0,0.787169337272644,0.9924522638320924
-0.0289949420839548,0.053921565413475,-0.0157364699989557,-0.2116644233465194,0.1764698177576065,-0.0316664204001426,0.0,0.0,0.7946590185165405,0.999565601348877
-0.029141616076231,0.0492759086191654,-0.0118852602317929,-0.2061456143856048,0.1736807078123092,-0.055782277137041,0.0,0.0,0.8307430744171143,0.9798290729522704
-0.029237937182188,0.0454506501555442,-0.0058339601382613,-0.1695721894502639,0.1698808073997497,-0.075997918844223,0.0,0.0,0.4815298318862915,0.985364556312561
-0.0294546131044626,0.0421734899282455,-0.0165689773857593,-0.1450760513544082,0.1647677570581436,-0.1022609621286392,0.0,0.0,0.2742360830307007,0.9274729490280152
-0.0296381004154682,0.0394290536642074,-0.0121245309710502,-0.121298648416996,0.1585442125797271,-0.1244708895683288,0.0,0.0,-0.2510279417037964,0.9227476119995116
-0.0297956466674804,0.0362018197774887,-0.0081246746703982,-0.1426383405923843,0.1509221643209457,-0.1524409353733062,0.0,0.0,0.36495041847229,0.9208070039749146
-0.0300451274961233,0.033496793359518,-0.0161485709249973,-0.1193565279245376,0.1421281844377517,-0.1758792698383331,0.0,0.0,-0.0112901329994201,0.9228103160858154
-0.0302705764770507,0.0303148366510868,-0.0123628340661525,-0.1404787600040435,0.1319777369499206,-0.2030087262392044,0.0,0.0,0.2238237857818603,0.9343619346618652
-0.0304522514343261,0.0271599143743515,-0.0067977495491504,-0.1392511874437332,0.1206651553511619,-0.2262518405914306,0.0,0.0,0.1744650602340698,0.8788895606994629
-0.0307719223201274,0.0241538379341363,-0.0194407068192958,-0.1326372474431991,0.1082248240709304,-0.2488068044185638,0.0,0.0,0.2156829833984375,0.8423488140106201
-0.0312270168215036,0.0212024077773094,-0.0318745598196983,-0.1302421987056732,0.0946965217590332,-0.2705657184123993,0.0,0.0,0.0012681484222412,0.9296321868896484
-0.0317090041935443,0.0182679984718561,-0.0333551913499832,-0.1295474022626876,0.0799881666898727,-0.2941672205924988,0.0,0.0,-0.035576581954956,0.8788415193557739
-0.0321701057255268,0.0148399928584694,-0.030065843835473,-0.1515746712684631,0.0641174688935279,-0.3174140155315399,0.0,0.0,0.1585876941680908,0.5646491050720215
-0.0325518622994422,0.0112979747354984,-0.0218386948108673,-0.1568044126033783,0.0479631572961807,-0.323086529970169,0.0,0.0,0.4416601657867431,0.2948092222213745
-0.0329266563057899,0.0081552835181355,-0.0221971236169338,-0.1392556279897689,0.032857421785593,-0.3021147549152374,0.0,0.0,0.0785017013549804,0.1515005826950073
-0.0333507545292377,0.0053015924058854,-0.027850966900587,-0.1265747547149658,0.0184778776019811,-0.2875905036926269,0.0,0.0,-0.0506168603897094,0.3709914684295654
-0.0338220596313476,0.00194629188627,-0.0332120470702648,-0.1490109711885452,0.0047438675537705,-0.2746804058551788,0.0,0.0,0.6460189819335938,0.370226502418518
