x_pos,y_pos,x_vel,y_vel,angle,ang_vel,leg_1,leg_2,main_booster,lat_booster
-0.0015233040321618,1.4030498266220093,-0.1544409394264221,-0.3497979044914245,0.0018795237410813,0.0370843335986137,0.0,0.0,0.9632019573355703,-0.5814909472027385
-0.0030271529685705,1.3954472541809082,-0.1537100970745086,-0.3379009664058685,0.0051751704886555,0.0659196823835372,0.0,0.0,-0.1401933329565454,-0.5799888067918174
-0.0045650480315089,1.387264847755432,-0.158146470785141,-0.3636822700500488,0.0094866957515478,0.0862382501363754,0.0,0.0,0.5378443621283666,0.9209904144993786
-0.0061580659821629,1.3792016506195068,-0.1617848724126815,-0.3583819270133972,0.0119362352415919,0.0489954575896263,0.0,0.0,0.6635252849124145,0.670195917516484
-0.0075626373291015,1.371553897857666,-0.1420761793851852,-0.3399099111557007,0.0135410139337182,0.0320984832942485,0.0,0.0,0.6813175303558012,-0.713031684856587
-0.0088752750307321,1.364161491394043,-0.1348181962966919,-0.3285939991474151,0.0170542765408754,0.0702719390392303,0.0,0.0,-0.5597894688648439,-0.6696178783094373
-0.0102392192929983,1.356192946434021,-0.1414967030286789,-0.354223370552063,0.0221010893583297,0.1009453535079956,0.0,0.0,0.6831378349050141,0.9481176990553568
-0.0113687515258789,1.348649263381958,-0.1165851354598999,-0.3353313207626343,0.025698784738779,0.0719604715704917,0.0,0.0,-0.6012453795222368,-0.6569509047859159
-0.0125470161437988,1.3405359983444214,-0.1229793056845665,-0.3606847524642944,0.030801435932517,0.1020624488592147,0.0,0.0,0.3119167384659893,0.8397025643661576
-0.0136733055114746,1.3327215909957886,-0.1162901371717453,-0.3473939001560211,0.0344242453575134,0.0724629014730453,0.0,0.0,0.7066423601487568,-0.7270203195795333
-0.0147761348634958,1.3252553939819336,-0.1158114522695541,-0.3319593369960785,0.0399009883403778,0.1095447093248367,0.0,0.0,-0.8046955922739976,-0.7936826009423477
-0.0159291271120309,1.3172101974487305,-0.1224492564797401,-0.3577713370323181,0.0469702631235122,0.1413983255624771,0.0,0.0,-0.9644392684898532,0.7267332255908028
-0.017007827758789,1.308599591255188,-0.1134456023573875,-0.3828815519809723,0.0524986758828163,0.1105784922838211,0.0,0.0,0.0602005243444716,-0.6177484753116051
-0.0180917736142873,1.299750566482544,-0.1155188903212547,-0.3935574889183044,0.0595458671450614,0.1409566849470138,0.0,0.0,0.4377784270680869,0.6007074229117576
-0.0190326683223247,1.291424036026001,-0.1005295366048812,-0.3703383505344391,0.0659279525279998,0.1276537030935287,0.0,0.0,-0.7989440951377926,0.6717586300199485
-0.0199054721742868,1.2825214862823486,-0.0923692286014556,-0.3959031999111175,0.0709748417139053,0.1009467020630836,0.0,0.0,-0.6052750384616934,0.8473223993480461
-0.0206914898008108,1.2730631828308103,-0.081856794655323,-0.4205258190631866,0.0741991996765136,0.0644929707050323,0.0,0.0,-0.0746523799814127,-0.5793932186324527
-0.0215068813413381,1.26302170753479,-0.0859381929039955,-0.4465113580226898,0.0785616561770439,0.0872570127248764,0.0,0.0,0.8774308050604303,-0.8088648432245348
-0.0223325733095407,1.2537846565246582,-0.0891121625900268,-0.410899817943573,0.0850517228245735,0.1298127621412277,0.0,0.0,0.065518277409373,-0.9305596046055792
-0.0233192443847656,1.2445011138916016,-0.1073560267686843,-0.4131109416484833,0.0936697423458099,0.1723763197660446,0.0,0.0,0.0078579198353592,-0.5551077037161543
-0.0243016239255666,1.2353395223617554,-0.108429729938507,-0.4078514277935028,0.1038005873560905,0.2026349753141403,0.0,0.0,-0.584058361585613,0.8140455448286152
-0.0252141002565622,1.2256101369857788,-0.1000727862119674,-0.4330505728721618,0.1125668510794639,0.1753409206867218,0.0,0.0,0.2530790860856284,0.7693302855671953
-0.0259978286921978,1.2159507274627686,-0.086056925356388,-0.4298992455005646,0.1202231645584106,0.153140053153038,0.0,0.0,0.8315808649931196,0.6161348717254183
-0.0266879089176654,1.2062500715255735,-0.0759855955839157,-0.4317235052585602,0.1271729320287704,0.1390080004930496,0.0,0.0,0.4022531382710561,0.627071617702522
-0.0275261886417865,1.1967742443084717,-0.0895894616842269,-0.4216522574424743,0.132916584610939,0.1148830503225326,0.0,0.0,-0.7734716897337115,-0.9396049623426695
-0.028451632708311,1.186690092086792,-0.1009628921747207,-0.4489588737487793,0.1413076221942901,0.1678206920623779,0.0,0.0,-0.1022987641225758,-0.9050567166326378
-0.0294455531984567,1.1760236024856567,-0.1099313646554946,-0.4751044511795044,0.1518186181783676,0.210219532251358,0.0,0.0,0.435619167764995,-0.999905136062422
-0.0307546611875295,1.1658105850219729,-0.1436581909656524,-0.4552579224109649,0.1645648181438446,0.2549239993095398,0.0,0.0,-0.1106945709137274,-0.9800512795554068
-0.0321565642952919,1.1550112962722778,-0.1556278318166732,-0.4817603826522827,0.1800323575735092,0.3093507885932922,0.0,0.0,0.7499257002498327,0.8734526125283872
-0.033606432378292,1.1444114446640017,-0.1589520871639251,-0.4728557467460632,0.1940527409315109,0.2804078459739685,0.0,0.0,-0.4137685013584058,-0.5193297592083659
-0.0350964553654193,1.1332348585128784,-0.1642743647098541,-0.4988106191158294,0.2094298899173736,0.3075432181358337,0.0,0.0,-0.9254317283630372,0.99249529838562
-0.0365201011300087,1.1215028762817385,-0.1562190949916839,-0.5234441757202148,0.2234290838241577,0.2799839675426483,0.0,0.0,-0.9408004879951476,0.9617754220962524
-0.0378832817077636,1.1092300415039062,-0.148818165063858,-0.5474034547805786,0.2361111789941787,0.2536419034004211,0.0,0.0,-0.9055495262145996,0.9927406311035156
-0.0391794219613075,1.096401333808899,-0.1406987756490707,-0.5719844698905945,0.2473772168159485,0.2253211736679077,0.0,0.0,-0.8488600254058838,0.9965280294418336
-0.0404010787606239,1.0830321311950684,-0.1315602511167526,-0.5957991480827332,0.2569464445114136,0.1913847029209137,0.0,0.0,-0.9423546195030212,0.8599920272827148
-0.0415607467293739,1.069123387336731,-0.1239372119307518,-0.6195922493934631,0.2650955021381378,0.1629812121391296,0.0,0.0,-0.8779541850090027,0.9665778875350952
-0.0426543243229389,1.054665446281433,-0.1158683076500892,-0.643760085105896,0.2717596888542175,0.1332832872867584,0.0,0.0,-0.9183079600334167,0.98492693901062
-0.0436759963631629,1.039675235748291,-0.106964111328125,-0.6671318411827087,0.2766815423965454,0.0984369292855262,0.0,0.0,-0.8413378000259399,0.9971864223480223
-0.0446362495422363,1.0241525173187256,-0.0993456691503524,-0.6905285716056824,0.2800941467285156,0.0682519599795341,0.0,0.0,-0.9389375448226928,0.9940841197967528
-0.0455260276794433,1.008091926574707,-0.0906295552849769,-0.714124858379364,0.281789630651474,0.033910147845745,0.0,0.0,-0.7458541989326477,0.9910144805908204
-0.0463648810982704,0.9914928078651428,-0.0843117013573646,-0.7378218770027161,0.2822221517562866,0.0086506241932511,0.0,0.0,-0.4392679929733276,0.9963185787200928
-0.0471228584647178,0.9743577241897584,-0.0742380544543266,-0.7612590789794922,0.2806240320205688,-0.0319626033306121,0.0,0.0,0.2371164560317993,0.9976966381072998
-0.0477974899113178,0.9570454955101012,-0.0643546134233474,-0.7688370943069458,0.2774293720722198,-0.0638936385512352,0.0,0.0,0.5780606269836426,0.9868314266204834
-0.0484443679451942,0.939962923526764,-0.060126282274723,-0.7583693265914917,0.2727545797824859,-0.0934959203004837,0.0,0.0,0.4668264389038086,0.9847695827484132
-0.0491382591426372,0.9226884841918944,-0.063265636563301,-0.7666191458702087,0.2664766311645508,-0.125559002161026,0.0,0.0,0.4479377269744873,0.2434275150299072
-0.0498855598270893,0.9052810072898864,-0.0691747814416885,-0.77266925573349,0.2608020901679992,-0.1134913116693496,0.0,0.0,0.6847782135009766,0.9837932586669922
-0.0506229400634765,0.8880131840705872,-0.0667290836572647,-0.7662345767021179,0.2536478340625763,-0.1430848836898803,0.0,0.0,0.5809266567230225,0.9689545631408693
-0.0516237244009971,0.8713241219520569,-0.0914142653346061,-0.7402626872062683,0.2448164969682693,-0.1766267716884613,0.0,0.0,-0.6823449730873108,0.9693589210510254
-0.0525869354605674,0.8540927767753601,-0.0865426883101463,-0.7642412185668945,0.2348771542310714,-0.1987865269184112,0.0,0.0,-0.3011912703514099,0.8671424388885498
-0.0535056106746196,0.8363099098205566,-0.0808231756091117,-0.7886222004890442,0.2236804515123367,-0.2239340096712112,0.0,0.0,-0.637107253074646,0.5802211761474609
-0.0543903335928916,0.8179740309715271,-0.076391264796257,-0.8131378889083862,0.2114672213792801,-0.2442647963762283,0.0,0.0,0.1461974382400512,0.9766981601715088
-0.0553768165409565,0.7998321652412415,-0.0850081443786621,-0.804410994052887,0.1977200955152511,-0.2749426960945129,0.0,0.0,-0.8901962637901306,0.797370433807373
-0.0563135147094726,0.7811371088027954,-0.0785582661628723,-0.8289477229118347,0.1825183480978012,-0.3040349185466766,0.0,0.0,-0.2969074249267578,-0.4336633086204529
-0.0572753921151161,0.7618712782859802,-0.0814679712057113,-0.8545191884040833,0.1677534282207489,-0.295298308134079,0.0,0.0,0.8400330543518066,-0.4823653697967529
-0.0581907257437706,0.742878794670105,-0.0779747366905212,-0.8426350355148315,0.1541945785284042,-0.2711764574050903,0.0,0.0,-0.0186054110527038,0.3221545219421386
-0.0591335296630859,0.7233148217201233,-0.0811388790607452,-0.8682019114494324,0.141075775027275,-0.262376606464386,0.0,0.0,0.9882240295410156,0.7907559871673584
-0.0600571632385253,0.7046499252319336,-0.0783128514885902,-0.8282788395881653,0.1270904093980789,-0.2797074615955353,0.0,0.0,-0.0659705996513366,0.7726656198501587
-0.0609363541007041,0.6854314208030701,-0.0723962634801864,-0.8529102802276611,0.1116494983434677,-0.308818519115448,0.0,0.0,0.9719183444976808,0.6257435083389282
-0.0618128776550293,0.6671373248100281,-0.0715348422527313,-0.8119398355484009,0.0956587269902229,-0.3198156356811523,0.0,0.0,-0.234066367149353,-0.4594279527664184
-0.0627216324210167,0.6482723355293274,-0.0751895681023597,-0.8375107049942017,0.0801124349236488,-0.3109257519245147,0.0,0.0,0.8346683979034424,-0.2856316566467285
-0.0636400207877159,0.629457950592041,-0.0768514722585678,-0.8354635238647461,0.0652742013335228,-0.2967645823955536,0.0,0.0,-0.5215451121330261,-0.5397259593009949
-0.064642809331417,0.6100695133209229,-0.0869919881224632,-0.8611778020858765,0.0521342083811759,-0.2627999782562256,0.0,0.0,0.994487762451172,0.4016036987304687
-0.065564826130867,0.591055691242218,-0.0800553783774375,-0.8446800708770752,0.0401296019554138,-0.2400919497013092,0.0,0.0,0.9966946840286256,-0.4793187379837036
-0.066524788737297,0.5725811123847961,-0.0844284445047378,-0.8208214640617371,0.0287024844437837,-0.2285426408052444,0.0,0.0,0.9771403074264526,-0.565778911113739
-0.0675710663199424,0.5542470216751099,-0.0946711674332618,-0.8146871328353882,0.0188753418624401,-0.1965427100658416,0.0,0.0,0.6939282417297363,0.8442634344100952
-0.0687414184212684,0.5362469553947449,-0.1055807471275329,-0.7998980283737183,0.0075723333284258,-0.2260602712631225,0.0,0.0,0.8549054861068726,0.4502627849578857
-0.0699346512556076,0.519115149974823,-0.1084415093064308,-0.7613891959190369,-0.0031746178865432,-0.2149389237165451,0.0,0.0,-0.0399477481842041,0.6646139621734619
-0.0711090117692947,0.5014021396636963,-0.1054778546094894,-0.7873134613037109,-0.0149795748293399,-0.2360991537570953,0.0,0.0,0.1435185670852661,0.0346897840499877
-0.0722976699471473,0.4840018451213836,-0.1074383854866027,-0.7735012769699097,-0.0262551493942737,-0.2255115956068039,0.0,0.0,0.8013544082641602,-0.0412899255752563
-0.073617935180664,0.4668060839176178,-0.1205828413367271,-0.7644903063774109,-0.0375638045370578,-0.2261730730533599,0.0,0.0,0.6846303939819336,0.8240478038787842
-0.074994184076786,0.4500778913497925,-0.1247820854187011,-0.7438461780548096,-0.0502544604241848,-0.2538128495216369,0.0,0.0,-0.490304946899414,0.3311561346054077
-0.0764149650931358,0.4327765703201294,-0.1296846270561218,-0.7694038152694702,-0.0625068023800849,-0.2450468242168426,0.0,0.0,0.7843822240829468,-0.5132275223731995
-0.0780118927359581,0.4162909388542175,-0.1483562737703323,-0.7332054972648621,-0.073725126683712,-0.2243662774562835,0.0,0.0,0.2393755912780761,0.5851936340332031
-0.0795163139700889,0.3998680114746094,-0.1384891420602798,-0.7305360436439514,-0.0855622664093971,-0.2367431372404098,0.0,0.0,-0.2059094905853271,0.0636789798736572
-0.081067755818367,0.38287153840065,-0.1436338871717453,-0.7560905814170837,-0.0969682484865188,-0.2281194925308227,0.0,0.0,0.8511781692504883,0.0526551008224487
-0.0825557708740234,0.3658342361450195,-0.1380968540906906,-0.7579450011253357,-0.1075936034321785,-0.2125076055526733,0.0,0.0,0.9839119911193848,-0.7159040570259094
-0.0841461196541786,0.3488391637802124,-0.1500933915376663,-0.7560020685195923,-0.1164695844054222,-0.177519142627716,0.0,0.0,0.9748034477233888,-0.8043059706687927
-0.085748866200447,0.3327022194862366,-0.1533628553152084,-0.7177496552467346,-0.1233402788639068,-0.1374140977859497,0.0,0.0,0.9858946800231934,-0.0950272679328918
-0.0871853828430175,0.3174323737621307,-0.1376153528690338,-0.6791726350784302,-0.1293489336967468,-0.12017323076725,0.0,0.0,0.9691970348358154,-0.5611000061035156
-0.0887311920523643,0.3030781149864197,-0.1496757566928863,-0.6384007930755615,-0.1342315077781677,-0.0976514667272567,0.0,0.0,0.8911445140838623,-0.0504360795021057
-0.0904242545366287,0.2887419462203979,-0.1641279757022857,-0.6376360058784485,-0.139391228556633,-0.1031942814588546,0.0,0.0,0.96669602394104,0.5685080289840698
-0.0919427871704101,0.2752135396003723,-0.1460974961519241,-0.6018130779266357,-0.1451361030340194,-0.1148973703384399,0.0,0.0,0.7884507179260254,0.1315323114395141
-0.0935322791337966,0.2620584964752197,-0.1530737578868866,-0.5852528810501099,-0.150991290807724,-0.117103710770607,0.0,0.0,0.8846417665481567,0.5878643989562988
-0.0950780883431434,0.2494820654392242,-0.1477537155151367,-0.5596621632575989,-0.1578125357627868,-0.1364249289035797,0.0,0.0,0.0024443864822387,0.0568395853042602
-0.0966177955269813,0.2369607985019683,-0.1475042402744293,-0.5572003722190857,-0.1642831116914749,-0.1294114589691162,0.0,0.0,0.3928310871124267,0.1258026361465454
-0.0980587974190712,0.2245722115039825,-0.1383469700813293,-0.5512498021125793,-0.1700365543365478,-0.1150690093636512,0.0,0.0,0.899547815322876,0.8080737590789795
-0.0993962287902832,0.2121588140726089,-0.126810997724533,-0.5525170564651489,-0.1769822090864181,-0.1389132440090179,0.0,0.0,0.9651995897293092,0.2351496219635009
-0.100595474243164,0.19984832406044,-0.1138772740960121,-0.547865629196167,-0.1830563247203827,-0.1214824169874191,0.0,0.0,0.982446312904358,-0.5673854351043701
-0.101585105061531,0.1879341006278991,-0.0949305444955825,-0.5300237536430359,-0.1871016025543213,-0.0809057503938674,0.0,0.0,0.993657112121582,-0.0922544002532959
-0.1023765578866005,0.1760988980531692,-0.0762377679347992,-0.5263800024986267,-0.1900259852409362,-0.0584872551262378,0.0,0.0,0.993155598640442,-0.7849507927894592
-0.1031203269958496,0.1650484204292297,-0.0733537152409553,-0.4912646412849426,-0.1910549700260162,-0.0205801278352737,0.0,0.0,0.9907371997833252,-0.0914723873138427
-0.1037103682756424,0.1547578126192093,-0.0584710910916328,-0.4574302434921264,-0.1915895044803619,-0.0106907729059457,0.0,0.0,0.8456717729568481,-0.6739072203636169
-0.1041197776794433,0.1449638158082962,-0.0424269922077655,-0.4350989460945129,-0.1900950819253921,0.0298885740339756,0.0,0.0,0.9622671604156494,0.1562905311584472
-0.1043953895568847,0.1351314187049865,-0.0298937372863292,-0.4366967380046844,-0.1877480447292328,0.0469408072531223,0.0,0.0,0.9734004735946656,-0.5008004903793335
-0.1047189682722091,0.1256482005119323,-0.0357676409184932,-0.4210460782051086,-0.1843137741088867,0.0686854645609855,0.0,0.0,0.8846964836120605,0.3167192935943603
-0.1048247367143631,0.1170145571231842,-0.0147135304287076,-0.3832095563411712,-0.1801607310771942,0.0830609947443008,0.0,0.0,0.8620352745056152,-0.2680302262306213
-0.1048992127180099,0.1087594330310821,-0.0117259100079536,-0.3663834035396576,-0.175871193408966,0.0857903584837913,0.0,0.0,0.750429630279541,-0.5102017521858215
-0.105061337351799,0.1012259349226951,-0.0213658325374126,-0.3342223465442657,-0.1707114279270172,0.1031952500343322,0.0,0.0,0.5690057277679443,-0.259071946144104
-0.1050876602530479,0.0940760970115661,-0.0083961896598339,-0.3171197474002838,-0.1649419218301773,0.1153902560472488,0.0,0.0,0.5207110643386841,0.3004286289215088
-0.1051075905561447,0.0873854458332061,-0.0077448645606637,-0.2967373132705688,-0.1591893285512924,0.1150518208742141,0.0,0.0,0.6072616577148438,-0.1167504787445068
-0.1051500290632247,0.0812179446220398,-0.0098246978595852,-0.2735233008861542,-0.1536150872707367,0.1114849671721458,0.0,0.0,0.4718018770217895,0.6194431781768799
-0.1051590889692306,0.0751255378127098,-0.0053657786920666,-0.2703202366828918,-0.1491565853357315,0.0891703367233276,0.0,0.0,0.2686830759048462,0.5389823913574219
-0.1052128821611404,0.0691560804843902,-0.0087151965126395,-0.2649776935577392,-0.1458236575126648,0.0666585490107536,0.0,0.0,0.4395220279693603,0.7588956356048584
-0.1053445786237716,0.0633060038089752,-0.0149020599201321,-0.2598347067832947,-0.1440977156162262,0.0345185175538063,0.0,0.0,0.784621000289917,0.8523960113525391
-0.1052316650748252,0.0579965226352214,0.0109208673238754,-0.2359418272972107,-0.1437249779701233,0.0074547743424773,0.0,0.0,0.5974138975143433,0.5777637958526611
-0.1050186157226562,0.0526130758225917,0.0218348745256662,-0.2393138855695724,-0.1442542672157287,-0.0105859320610761,0.0,0.0,0.4636064767837524,-0.1574759483337402
-0.1046402901411056,0.0476303212344646,0.03769201785326,-0.2214433699846267,-0.1441107094287872,0.0028712952043861,0.0,0.0,0.4789493083953857,0.1542443037033081
-0.1042414680123329,0.0431081876158714,0.0397805944085121,-0.2009702175855636,-0.1440042704343795,0.0021287300623953,0.0,0.0,0.3278645277023315,0.2004370689392089
-0.1036894768476486,0.0390061251819133,0.0545248575508594,-0.1822498440742492,-0.1433309465646743,0.0134664652869105,0.0,0.0,0.2712583541870117,-0.374712586402893
-0.1030745506286621,0.0349788032472133,0.0605336055159568,-0.1789008229970932,-0.1423709839582443,0.0191991236060857,0.0,0.0,0.4099241495132446,-0.3643066883087158
-0.1024255752563476,0.0314126126468181,0.0639745146036148,-0.1584099233150482,-0.1414458900690078,0.0185023192316293,0.0,0.0,0.2634481191635132,-0.153829276561737
-0.1017043143510818,0.0281562656164169,0.0710151866078376,-0.1446207463741302,-0.1403340399265289,0.0222367271780967,0.0,0.0,0.3277120590209961,-0.7242217063903809
-0.1009751334786415,0.0248658042401075,0.0702911615371704,-0.1459991186857223,-0.1377198845148086,0.0522832572460174,0.0,0.0,0.1500005722045898,-0.0984615683555603
-0.1003293022513389,0.0216577388346195,0.0624203197658062,-0.1423831582069397,-0.1355700343847274,0.0429969131946563,0.0,0.0,0.126855731010437,-0.3440968990325928
-0.0997806563973426,0.0184146985411643,0.053205668926239,-0.1439868807792663,-0.1339166611433029,0.033067513257265,0.0,0.0,0.5852653980255127,-0.2248201370239257
-0.0992377251386642,0.0154052590951323,0.0528392419219017,-0.1336214393377304,-0.1324710696935653,0.0289115514606237,0.0,0.0,0.3576550483703613,0.3685246706008911
-0.0985885635018348,0.0131976222619414,0.0457221493124961,-0.0965226590633392,-0.1133726462721824,0.3819681704044342,1.0,0.0,0.3446956872940063,0.0327051877975463
-0.09779854118824,0.0108525129035115,0.0589128658175468,-0.1028218418359756,-0.0934318080544471,0.3988165855407715,1.0,0.0,0.2444288730621338,0.090080976486206
-0.0968870148062706,0.0086969109252095,0.0706814900040626,-0.0946503803133964,-0.073152057826519,0.4055949747562408,1.0,0.0,0.2904884815216064,-0.2092559933662414
-0.0959095954895019,0.0069124195724725,0.0771449580788612,-0.0784295722842216,-0.0527823939919471,0.4073931574821472,1.0,0.0,-0.0823477506637573,0.1450320482254028
-0.0949320793151855,0.0045586917549371,0.0771416798233985,-0.1040102317929267,-0.0324133299291133,0.4073814749717712,0.0,0.0,0.7955653667449951,0.9182679653167723
