x_pos,y_pos,x_vel,y_vel,angle,ang_vel,leg_1,leg_2,main_booster,lat_booster
-0.0016663551796227,1.4031422138214111,-0.1684070229530334,-0.3456788659095764,0.0015939336735755,0.0314287617802619,0.0,0.0,0.8757784278063105,-0.9025165826115328
-0.0034826279152184,1.3956866264343262,-0.1848786920309066,-0.3313629925251007,0.0048147877678275,0.0644237324595451,0.0,0.0,-0.5423718457304654,0.7297523954681864
-0.0053714751265943,1.387743592262268,-0.1901426017284393,-0.3530291616916656,0.0060514397919178,0.024735253304243,0.0,0.0,0.7680091104848403,0.8358672225846806
-0.0074806213378906,1.3801169395446775,-0.2100067436695099,-0.3389564454555511,0.0051583321765065,-0.0178638715296983,0.0,0.0,0.8045560002660943,0.9603339713708646
-0.0095024108886718,1.3730813264846802,-0.1994678378105163,-0.3126882016658783,0.00247179181315,-0.0537360422313213,0.0,0.0,0.8830440840055314,0.9170647579372412
-0.0114218713715672,1.366491675376892,-0.1875930726528167,-0.2928708493709564,-0.0018264413811266,-0.0859724730253219,0.0,0.0,0.7976010073103112,-0.5830954899491463
-0.0135525707155466,1.3603626489639282,-0.2097244560718536,-0.2724050879478454,-0.0051445835269987,-0.0663687884807586,0.0,0.0,0.8939988025078802,0.7234857496865441
-0.015576934441924,1.354864478111267,-0.1980282962322235,-0.244386151432991,-0.0095021724700927,-0.0871596783399581,0.0,0.0,0.0061772374552067,0.8739992429607348
-0.0176753997802734,1.349657416343689,-0.2036429345607757,-0.2314737737178802,-0.0156251043081283,-0.1224700435996055,0.0,0.0,-0.2958703180942708,0.7921513986452002
-0.0198495872318744,1.3439724445343018,-0.2096416503190994,-0.2527684569358825,-0.0233148969709873,-0.1538101732730865,0.0,0.0,-0.7335323365320503,-0.8668807544998792
-0.0222196578979492,1.337808609008789,-0.2307539284229278,-0.2740567922592163,-0.0294979438185691,-0.123672142624855,0.0,0.0,-0.4573411344385674,0.9533642832625736
-0.0246424674987792,1.3311575651168823,-0.2339552342891693,-0.2957823872566223,-0.0377256497740745,-0.1645692884922027,0.0,0.0,0.9042701885917612,-0.9878089430495904
-0.02708101272583,1.3252336978912354,-0.2379241436719894,-0.2634481191635132,-0.0436029769480228,-0.1175573319196701,0.0,0.0,0.0045869816983625,-0.9509880990271954
-0.0296696666628122,1.3191438913345337,-0.2549447417259216,-0.2707735300064087,-0.0474778488278389,-0.0775045454502105,0.0,0.0,0.2009715273977774,-0.7322375656144142
-0.0323050506412982,1.313473343849182,-0.2614086270332336,-0.252091497182846,-0.0495851673185825,-0.0421502366662025,0.0,0.0,0.7037448622594573,-0.8881292408106548
-0.0350026115775108,1.3077651262283323,-0.2698271870613098,-0.2536955177783966,-0.0495173297822475,0.0013572077732533,0.0,0.0,-0.916885699188831,-0.929995733392024
-0.0378880500793457,1.3015896081924438,-0.2902849614620209,-0.2744082510471344,-0.0477882809937,0.034583993256092,0.0,0.0,0.4931042225584126,0.6436110303401334
-0.0406964309513568,1.2954201698303225,-0.2818719744682312,-0.2741698622703552,-0.0467704944312572,0.0203577727079391,0.0,0.0,-0.0395948013215043,0.6740970982363368
-0.0435719490051269,1.288770079612732,-0.2873143553733825,-0.2955608963966369,-0.0470089726150035,-0.0047698626294732,0.0,0.0,-0.2330334880696511,-0.9651862811354476
-0.0466615669429302,1.2816433906555176,-0.3112475872039795,-0.3166675865650177,-0.0447458513081073,0.0452663823962211,0.0,0.0,0.3975138644067191,-0.5297852216446333
-0.0497739799320697,1.2749865055084229,-0.3152391910552978,-0.2957484424114227,-0.0407957918941974,0.0790083110332489,0.0,0.0,0.9566562027623464,0.7816882749720244
-0.0529131889343261,1.2686234712600708,-0.3167564272880554,-0.2827254831790924,-0.0379856936633586,0.0562072321772575,0.0,0.0,0.2945620132535611,-0.7458918900858348
-0.0561038963496685,1.2624136209487915,-0.3239679932594299,-0.2758783996105194,-0.033132754266262,0.0970673263072967,0.0,0.0,-0.1430492949074882,-0.8776889837626498
-0.0594775192439556,1.2557151317596436,-0.344253659248352,-0.2975732982158661,-0.0263105370104312,0.1364564150571823,0.0,0.0,-0.6242487123167602,-0.6085698879054
-0.0630299597978591,1.2485392093658447,-0.3641201555728912,-0.3187956511974334,-0.0175420809537172,0.175384908914566,0.0,0.0,0.2885147710172278,0.7889498418889722
-0.066756822168827,1.241690158843994,-0.3803015351295471,-0.304337590932846,-0.0100167468190193,0.1505064815282821,0.0,0.0,0.2346884248281624,0.5783720252756159
-0.0705443397164344,1.2351765632629397,-0.3857090175151825,-0.2894570529460907,-0.0031452160328626,0.1374305784702301,0.0,0.0,0.8946067918626548,0.9239867026326464
-0.0745342224836349,1.2296111583709717,-0.4042972028255462,-0.2473522722721099,0.0021015042439103,0.1049341186881065,0.0,0.0,0.0579960780349186,0.671196942940038
-0.0786772742867469,1.2243133783340454,-0.4187032282352447,-0.2354696840047836,0.0064384345896542,0.0867388099431991,0.0,0.0,-0.3743908765787869,0.5706114648406264
-0.0828844085335731,1.2185319662094116,-0.4245397448539734,-0.2569702565670013,0.0102165760472416,0.0755629017949104,0.0,0.0,0.5342178867075249,0.574356481336434
-0.0871400833129882,1.2134555578231812,-0.4288416802883148,-0.2256482094526291,0.0134460292756557,0.064589224755764,0.0,0.0,-0.9397028684616088,0.9849880933761596
-0.091429516673088,1.207892894744873,-0.4310590326786041,-0.2472553700208664,0.0155302481725811,0.0416842848062515,0.0,0.0,-0.9574453234672546,0.9698030948638916
-0.0957512855529785,1.201858639717102,-0.4331814646720886,-0.2681922614574432,0.0165200661867856,0.0197962559759616,0.0,0.0,-0.9072274565696716,0.935377836227417
-0.1001017540693283,1.195335865020752,-0.4349493980407715,-0.2899059057235718,0.0164264552295207,-0.0018724491819739,0.0,0.0,-0.6657000184059143,0.9916883707046508
-0.1044628173112869,1.1883349418640137,-0.4345547258853912,-0.3111307024955749,0.0148944873362779,-0.0306394454091787,0.0,0.0,-0.7295750975608826,0.9312734603881836
-0.108835220336914,1.1808608770370483,-0.4343588352203369,-0.3321534395217895,0.0120482705533504,-0.0569242909550666,0.0,0.0,-0.6606928706169128,0.983422040939331
-0.1132161170244216,1.1729013919830322,-0.4339196681976318,-0.3537301123142242,0.0079318014904856,-0.0823295041918754,0.0,0.0,-0.930658221244812,0.923762321472168
-0.1175977736711502,1.1644680500030518,-0.4326279759407043,-0.3747908771038055,0.0024669107515364,-0.1092977970838546,0.0,0.0,-0.7086912989616394,0.8303309679031372
-0.1219916343688964,1.1555627584457395,-0.4329048991203308,-0.3957974314689636,-0.0039323740638792,-0.1279854029417038,0.0,0.0,-0.8592023253440857,0.8718301057815552
-0.1263817846775055,1.14617657661438,-0.4313192963600158,-0.4172016978263855,-0.0115344347432255,-0.1520410031080246,0.0,0.0,-0.7135636210441589,0.988388180732727
-0.1307706832885742,1.1363162994384766,-0.4301844537258148,-0.4383244216442108,-0.0201384350657463,-0.1720801889896392,0.0,0.0,-0.8373614549636841,0.9968104362487792
-0.1351222991943359,1.1259700059890747,-0.4246478676795959,-0.4600164592266083,-0.0305148046463727,-0.2075272053480148,0.0,0.0,-0.7265826463699341,0.9642622470855712
-0.139437198638916,1.1151282787322998,-0.4193512499332428,-0.4821502864360809,-0.0425020530819892,-0.2397451847791671,0.0,0.0,-0.860737144947052,0.9590742588043212
-0.1437092721462249,1.1037986278533936,-0.4134542942047119,-0.5039881467819214,-0.0560941435396671,-0.2718418538570404,0.0,0.0,-0.8968577980995178,0.9861899614334106
-0.1479481756687164,1.0919713973999023,-0.4089210927486419,-0.5262875556945801,-0.0709007754921913,-0.2961326837539673,0.0,0.0,-0.8069096207618713,0.7674643993377686
-0.1521546393632888,1.0796494483947754,-0.4046533107757568,-0.5484631061553955,-0.086736686527729,-0.3167183995246887,0.0,0.0,-0.774709939956665,0.9831678867340088
-0.1563015878200531,1.0668320655822754,-0.397164911031723,-0.5707653760910034,-0.1041153445839881,-0.3475731611251831,0.0,0.0,-0.8709580898284912,0.9765008687973022
-0.1604036390781402,1.0535366535186768,-0.3917375206947326,-0.5922947525978088,-0.122459165751934,-0.3668766915798187,0.0,0.0,-0.930201768875122,0.8884576559066772
-0.1644618958234787,1.0397605895996094,-0.3866174817085266,-0.6139574646949768,-0.1415695548057556,-0.3822081387042999,0.0,0.0,-0.9231404662132264,0.5572335720062256
-0.1684818267822265,1.0254956483840942,-0.3823875188827514,-0.6359801888465881,-0.1611447930335998,-0.3915051519870758,0.0,0.0,-0.7809320092201233,0.8201675415039062
-0.172418788075447,1.0107330083847046,-0.3727372586727142,-0.6585188508033752,-0.1821451634168625,-0.4200074076652527,0.0,0.0,-0.6213214993476868,0.3065216541290283
-0.1763446778059005,0.9954925179481506,-0.3722975254058838,-0.6799727082252502,-0.2025399655103683,-0.4078957140445709,0.0,0.0,-0.5803422927856445,0.8696668148040771
-0.1801729202270507,0.9797448515892028,-0.3611806035041809,-0.7030029296875,-0.2244008332490921,-0.437217652797699,0.0,0.0,0.2742036581039428,0.0804768800735473
-0.1838355958461761,0.964418351650238,-0.3453370034694671,-0.6845065951347351,-0.2456506639719009,-0.4249962866306305,0.0,0.0,-0.0236324667930603,0.0170899629592895
-0.1874649971723556,0.9486133456230164,-0.3426810503005981,-0.7059580087661743,-0.2663039863109588,-0.4130666255950928,0.0,0.0,0.7627516984939575,0.409676194190979
-0.1910196244716644,0.9330976009368896,-0.3354454636573791,-0.6933665871620178,-0.286835640668869,-0.4106329381465912,0.0,0.0,0.7965147495269775,-0.6071415543556213
-0.1942208260297775,0.9183281660079956,-0.302270233631134,-0.6600381135940552,-0.3052584528923034,-0.3684562742710113,0.0,0.0,0.6750149726867676,-0.6825888752937317
-0.1970677375793457,0.9040144681930542,-0.2691526710987091,-0.6395066976547241,-0.3213731646537781,-0.3222939372062683,0.0,0.0,0.738662838935852,-0.1571981310844421
-0.1995055228471756,0.8904153108596802,-0.2292236983776092,-0.6077111959457397,-0.3365404903888702,-0.3033471703529358,0.0,0.0,0.7343771457672119,-0.2349962592124939
-0.2016791403293609,0.8775418400764465,-0.2030824124813079,-0.5755543112754822,-0.351497083902359,-0.299132376909256,0.0,0.0,0.974966287612915,-0.9004402160644531
-0.203632116317749,0.8648037314414978,-0.1835183650255203,-0.5690613389015198,-0.363912433385849,-0.2483068704605102,0.0,0.0,0.9869832992553712,-0.8899160623550415
-0.2053937017917633,0.8528773784637451,-0.1664593815803527,-0.5325595736503601,-0.3741718232631683,-0.2051880657672882,0.0,0.0,0.9330086708068848,-0.727456271648407
-0.2067578732967376,0.8412559032440186,-0.1290458142757415,-0.5184608101844788,-0.3820026218891144,-0.1566158235073089,0.0,0.0,0.9664292335510254,-0.9398991465568542
-0.207799956202507,0.8301907777786255,-0.099257692694664,-0.4931201934814453,-0.3872708082199096,-0.1053635329008102,0.0,0.0,0.9123413562774658,-0.9794183373451232
-0.2086360901594162,0.8193163275718689,-0.0811043679714202,-0.4839867949485779,-0.3899448215961456,-0.0534800477325916,0.0,0.0,0.8617253303527832,-0.8875942826271057
-0.2093264609575271,0.8090088963508606,-0.0685254707932472,-0.458244264125824,-0.390490174293518,-0.0109067847952246,0.0,0.0,0.9789185523986816,-0.9483566880226136
-0.2095627337694168,0.799674928188324,-0.0255377348512411,-0.4143200516700744,-0.3884525597095489,0.0407515279948711,0.0,0.0,0.654607892036438,-0.8548287749290466
-0.2095606327056884,0.7902397513389587,-0.0039996174164116,-0.4182047843933105,-0.3839646577835083,0.0897582247853279,0.0,0.0,0.5946826934814453,-0.947792947292328
-0.209177017211914,0.781501293182373,0.0317314304411411,-0.386604905128479,-0.3769186437129974,0.140920028090477,0.0,0.0,-0.7557709813117981,-0.8441733717918396
-0.2087503373622894,0.7723180055618286,0.0336046405136585,-0.4057903885841369,-0.3673123121261596,0.1921264678239822,0.0,0.0,-0.524163544178009,-0.7221742868423462
-0.2082651555538177,0.7626892328262329,0.0372706800699234,-0.4251022636890411,-0.3554389476776123,0.2374675273895263,0.0,0.0,-0.4450764060020447,-0.2595589756965637
-0.2076580077409744,0.7525776624679565,0.048890333622694,-0.4465239346027374,-0.3430160582065582,0.2484570443630218,0.0,0.0,-0.5356660485267639,-0.1655778884887695
-0.2069260627031326,0.7419835925102234,0.0607940033078193,-0.4679472744464874,-0.3300460875034332,0.2593995332717895,0.0,0.0,-0.826334536075592,0.6737995147705078
-0.206010490655899,0.7308780550956726,0.0800664648413658,-0.4909954369068146,-0.318076491355896,0.2393918931484222,0.0,0.0,-0.7347529530525208,-0.0270494818687438
-0.2049651145935058,0.7192900776863098,0.0924746319651603,-0.5124191641807556,-0.305564284324646,0.250244677066803,0.0,0.0,-0.6948831081390381,0.003857135772705
-0.2037877142429351,0.7072200179100037,0.1051044315099716,-0.5338447093963623,-0.2925116419792175,0.2610536217689514,0.0,0.0,-0.5195525884628296,-0.0547811388969421
-0.2024761736392974,0.6946679949760437,0.1179377883672714,-0.5552720427513123,-0.2789207100868225,0.2718190848827362,0.0,0.0,-0.7210937142372131,0.05817711353302
-0.2010287344455719,0.6816344261169434,0.1309578716754913,-0.5767012238502502,-0.2647936344146728,0.2825413346290588,0.0,0.0,-0.4665831327438354,0.5041376352310181
-0.1993991881608963,0.6681064963340759,0.1497127413749694,-0.5989062190055847,-0.2512843906879425,0.2701850831508636,0.0,0.0,-0.7885790467262268,0.0567386150360107
-0.1976305991411209,0.6540972590446472,0.1630618870258331,-0.6203365325927734,-0.2372432649135589,0.2808224856853485,0.0,0.0,-0.6506174802780151,-0.2074286937713623
-0.1957214325666427,0.6396067142486572,0.1765545904636383,-0.6417688131332397,-0.2226724177598953,0.2914170324802398,0.0,0.0,-0.7552656531333923,-0.0609825253486633
-0.1936702728271484,0.6246355772018433,0.1901786774396896,-0.6632031202316284,-0.2075739949941635,0.3019682168960571,0.0,0.0,-0.7014825940132141,0.0275124311447143
-0.1914760619401931,0.6091839671134949,0.2039229422807693,-0.6846393942832947,-0.1919502317905426,0.3124754130840301,0.0,0.0,-0.5271958112716675,0.4209762811660766
-0.1891373693943023,0.5932521224021912,0.2177771031856537,-0.7060777544975281,-0.1758033633232116,0.3229376971721649,0.0,0.0,-0.2524986267089844,0.6437340974807739
-0.1866042166948318,0.5768304467201233,0.2379399985074997,-0.7281051874160767,-0.1603984981775283,0.308097243309021,0.0,0.0,-0.2879650592803955,0.5085278749465942
-0.1838796585798263,0.5599175095558167,0.2576962113380432,-0.7501559853553772,-0.1456405371427536,0.2951588630676269,0.0,0.0,-0.1426401138305664,-0.251670777797699
-0.1810081452131271,0.5425243973731995,0.2718284726142883,-0.7715943455696106,-0.1303663849830627,0.3054828345775604,0.0,0.0,0.1065019369125366,-0.1513004899024963
-0.1778924018144607,0.5250406861305237,0.2954155802726745,-0.7757227420806885,-0.114291176199913,0.3215041756629944,0.0,0.0,0.5693360567092896,0.2501676082611084
-0.1744275987148285,0.5078621506690979,0.3291159868240356,-0.7622528672218323,-0.0970584973692894,0.3446533977985382,0.0,0.0,0.181470513343811,-0.3961579203605652
-0.1706873923540115,0.4906116724014282,0.3556500077247619,-0.7656002044677734,-0.0788564160466194,0.3640417158603668,0.0,0.0,0.1272598505020141,-0.130437433719635
-0.1667613089084625,0.4736499488353729,0.3737236857414245,-0.7529653310775757,-0.0601667985320091,0.3737925589084625,0.0,0.0,-0.6492889523506165,-0.4878305196762085
-0.1626853048801422,0.4562104940414428,0.3881790339946747,-0.7744187116622925,-0.0409747399389743,0.383841335773468,0.0,0.0,0.0348409414291381,-0.7964478135108948
-0.1584138870239257,0.438921570777893,0.4055662155151367,-0.7679416537284851,-0.019665403291583,0.426186740398407,0.0,0.0,0.6674506664276123,-0.6214118599891663
-0.1539245545864105,0.4216428995132446,0.4253202974796295,-0.767795979976654,0.0036388854496181,0.4660859704017639,0.0,0.0,0.7819507122039795,-0.3042129874229431
-0.1493431031703949,0.4047130346298218,0.4343113303184509,-0.7526649832725525,0.0271731577813625,0.4706856608390808,0.0,0.0,0.9279872179031372,-0.027822732925415
-0.1445390731096267,0.3888226151466369,0.4556190371513366,-0.7068708539009094,0.0516526252031326,0.4895893633365631,0.0,0.0,0.7811145782470703,0.1186774969100952
-0.1396406143903732,0.373375654220581,0.4647252559661865,-0.6875824332237244,0.0765002146363258,0.4969516396522522,0.0,0.0,0.8829398155212402,-0.1285443902015686
-0.1348014771938324,0.3587950468063354,0.4590182304382324,-0.6494864821434021,0.1011720448732376,0.4934369623661041,0.0,0.0,0.834864616394043,0.7165348529815674
-0.1297287046909332,0.3449254333972931,0.4831646084785461,-0.6182347536087036,0.1251301914453506,0.4791625440120697,0.0,0.0,0.3861856460571289,-0.1114037632942199
-0.1246275901794433,0.3315106630325317,0.4858153462409973,-0.5984318256378174,0.1493517458438873,0.4844313263893127,0.0,0.0,0.6333804130554199,-0.1978353261947631
-0.1195657700300216,0.3187021613121032,0.4818707108497619,-0.5718826651573181,0.1736611723899841,0.4861883223056793,0.0,0.0,0.4366002082824707,-0.0628327131271362
-0.1144485473632812,0.3060546517372131,0.4871590733528137,-0.5651692152023315,0.198331281542778,0.4934018552303314,0.0,0.0,0.8520424365997314,0.6244844198226929
-0.1094018965959549,0.2938990294933319,0.4813718199729919,-0.5435426831245422,0.2218394428491592,0.4701630473136902,0.0,0.0,0.7372753620147705,0.8023114204406738
-0.1044325828552246,0.2820368707180023,0.4752380847930908,-0.5306199193000793,0.2438538968563079,0.4402889609336853,0.0,0.0,0.8543529510498047,0.7034206390380859
-0.0993282347917556,0.2709448933601379,0.4895207285881042,-0.4965878427028656,0.2651866376399994,0.426655113697052,0.0,0.0,0.7213418483734131,0.8785452842712402
-0.0940360054373741,0.259982019662857,0.509602963924408,-0.4909124374389648,0.2852970659732818,0.4022086560726166,0.0,0.0,0.4748516082763672,0.7181193828582764
-0.0885931998491287,0.2496137470006942,0.5255453586578369,-0.4645979702472687,0.3046190440654754,0.3864401280879974,0.0,0.0,0.5442712306976318,0.27028489112854
-0.0832365974783897,0.2397980839014053,0.516730010509491,-0.4403412640094757,0.3242611885070801,0.39284348487854,0.0,0.0,0.4784402847290039,0.6295835971832275
-0.0777943581342697,0.2306912243366241,0.5259779691696167,-0.4089511036872864,0.3433055281639099,0.3808870315551758,0.0,0.0,0.7426698207855225,0.2601407766342163
-0.0723306685686111,0.2220129519701004,0.5275212526321411,-0.3903162777423858,0.3631223440170288,0.3963364958763122,0.0,0.0,0.8793070316314697,0.2721154689788818
-0.0670532211661338,0.2141574472188949,0.5087093114852905,-0.3540911078453064,0.383291095495224,0.4033752381801605,0.0,0.0,0.8438191413879395,0.4034831523895263
-0.0618906021118164,0.2070875763893127,0.4967357218265533,-0.3196072280406952,0.4041516482830047,0.4172112941741943,0.0,0.0,0.6758627891540527,-0.0086475610733032
-0.0566849708557128,0.2002326399087906,0.5005248785018921,-0.3105303943157196,0.4257569313049316,0.4321056306362152,0.0,0.0,0.8620116710662842,0.3456863164901733
-0.0517420768737793,0.1937697231769561,0.474696397781372,-0.2933127582073211,0.4470787346363067,0.4264366030693054,0.0,0.0,0.9066274166107178,0.4943748712539673
-0.0470393188297748,0.1875395625829696,0.4511992931365967,-0.2831441760063171,0.4680561125278473,0.4195481240749359,0.0,0.0,0.746713399887085,0.4724160432815552
-0.0424757003784179,0.1816168874502182,0.4372894763946533,-0.2698088586330414,0.4892545938491821,0.4239696860313415,0.0,0.0,0.4678709506988525,0.4603598117828369
-0.0379647240042686,0.1758632957935333,0.4318688511848449,-0.2627018690109253,0.5108709335327148,0.4323271811008453,0.0,0.0,0.4385664463043213,0.4092475175857544
-0.0333582870662212,0.1701282411813736,0.4409229755401611,-0.2624329030513763,0.5333083868026733,0.4487473368644714,0.0,0.0,0.3162792921066284,0.3268356323242187
-0.0288131721317768,0.164681851863861,0.4345067143440246,-0.2501242458820343,0.5563831329345703,0.4614943563938141,0.0,0.0,0.5157537460327148,0.3121589422225952
-0.0244909282773733,0.1597221195697784,0.4121845364570617,-0.228933036327362,0.579824686050415,0.4688321053981781,0.0,0.0,0.2163076400756836,0.6918796300888062
-0.0200546272099018,0.1546571850776672,0.4248772263526916,-0.2334750592708587,0.6020956635475159,0.4454198479652405,0.0,0.0,0.2538657188415527,0.5858786106109619
