x_pos,y_pos,x_vel,y_vel,angle,ang_vel,leg_1,leg_2,main_booster,lat_booster
-0.0015840530395507,1.4034613370895386,-0.1606400310993194,-0.331504613161087,0.0020035379566252,0.0395394787192344,0.0,0.0,0.1752290530097635,0.8909019700970594
-0.0031110763084143,1.3963507413864136,-0.1531165540218353,-0.3160313963890075,0.0024093112442642,0.0081171505153179,0.0,0.0,0.944715862819916,-0.5905488303764286
-0.0045675276778638,1.389785647392273,-0.1479291766881942,-0.2917843461036682,0.0046639903448522,0.0450982227921485,0.0,0.0,0.984835368212277,-0.9862200257450652
-0.0063061714172363,1.3839528560638428,-0.1779925525188446,-0.2592516243457794,0.0087468978017568,0.0816656574606895,0.0,0.0,0.9321915115650494,0.610699077163166
-0.0078794481232762,1.379105567932129,-0.1608811020851135,-0.2154590785503387,0.0122618982568383,0.0703064352273941,0.0,0.0,0.1755033316579795,-0.8953939708393108
-0.009444904513657,1.3746744394302368,-0.1621211022138595,-0.1969975978136062,0.0177858565002679,0.1104892119765281,0.0,0.0,0.0163596482923595,0.5318616399840304
-0.0110141756013035,1.3706138134002686,-0.1615864783525467,-0.1805300563573837,0.022396795451641,0.0922269597649574,0.0,0.0,-0.852613942795829,-0.7917250383379049
-0.0126474378630518,1.3663911819458008,-0.1693471670150756,-0.1877735257148742,0.0283517707139253,0.1191102638840675,0.0,0.0,0.2014139782186381,-0.5262258386117118
-0.0143591882660985,1.362922191619873,-0.1783988773822784,-0.1543384045362472,0.0354852862656116,0.1426837295293808,0.0,0.0,-0.9377221815973408,-0.8395930745492133
-0.0161405559629201,1.3592922687530518,-0.1871913373470306,-0.1615682542324066,0.0444371588528156,0.1790543496608734,0.0,0.0,0.3802668123562847,0.5433337992404714
-0.0178194995969533,1.3562530279159546,-0.1761887371540069,-0.1353466957807541,0.0526464954018592,0.1642016917467117,0.0,0.0,-0.523985328146888,0.788986632583667
-0.0194182395935058,1.353055119514465,-0.1665417551994323,-0.142379492521286,0.0592505931854248,0.1320939511060714,0.0,0.0,0.7479472782269774,0.7362369547247768
-0.0208350177854299,1.3508250713348389,-0.1473488360643386,-0.0993504524230957,0.064866192638874,0.1123221740126609,0.0,0.0,0.4945416163380984,0.9077469816655376
-0.0221056938171386,1.3489184379577637,-0.131128579378128,-0.0849296674132347,0.0689009502530098,0.080702468752861,0.0,0.0,0.3194471332163215,-0.9135196812475562
-0.0233331676572561,1.3478493690490725,-0.1288838684558868,-0.0478038750588893,0.0749793872237205,0.1215798407793045,0.0,0.0,0.8430239258836005,-0.7612032854689779
-0.0244740489870309,1.3471131324768066,-0.1221757531166076,-0.0331458933651447,0.0829899832606315,0.1602266281843185,0.0,0.0,-0.6733695117063698,0.6433705366416693
-0.0255090706050395,1.3462297916412354,-0.1100990027189254,-0.0396426282823085,0.0895380899310112,0.1309739500284195,0.0,0.0,-0.3634197685042546,-0.7084560822845021
-0.0265357978641986,1.3451721668243408,-0.110460564494133,-0.0474864579737186,0.0972707793116569,0.1546681076288223,0.0,0.0,0.0265743526711956,-0.8525611842518576
-0.0275514610111713,1.3447057008743286,-0.1111540347337722,-0.021382562816143,0.106804072856903,0.1906833201646804,0.0,0.0,0.069435296115919,-0.8215012854770902
-0.0286694522947073,1.3446033000946045,-0.1230868101119995,-0.0053950445726513,0.1180393546819686,0.224725529551506,0.0,0.0,-0.1246463880771027,-0.5641140484068317
-0.029755687341094,1.3443373441696167,-0.1208672672510147,-0.0128284357488155,0.1302430331707,0.2440954744815826,0.0,0.0,0.0634200429121911,0.5896528004775223
-0.0307520870119333,1.3443411588668823,-0.1107745170593261,-0.0008390348521061,0.1413600146770477,0.2223594188690185,0.0,0.0,0.147640359128615,0.9256988159202696
-0.0315474495291709,1.344781517982483,-0.0889070034027099,0.0186517722904682,0.1507189273834228,0.1871950328350067,0.0,0.0,-0.2729938782665941,-0.8425421185708368
-0.0323188789188861,1.3450372219085691,-0.08804302662611,0.0102321309968829,0.1616345643997192,0.2183325290679931,0.0,0.0,0.447924260953072,-0.5886497877817798
-0.0332755073904991,1.3459244966506958,-0.1074782833456993,0.0381022728979587,0.1734816581010818,0.2369630634784698,0.0,0.0,-0.41731660059074,0.5768363653546823
-0.0341066345572471,1.346641182899475,-0.094098076224327,0.0305227432399988,0.1844979524612426,0.2203255444765091,0.0,0.0,0.1976762214752554,-0.5132162734319639
-0.0349786765873432,1.3479654788970947,-0.0992273539304733,0.0573250129818916,0.1965883523225784,0.2418079674243927,0.0,0.0,0.2210201494580028,-0.602363818054892
-0.0360258109867572,1.3499871492385864,-0.1177594810724258,0.0880652442574501,0.2097328454256057,0.2628897726535797,0.0,0.0,-0.8648022774370727,0.9921466253066266
-0.0369148254394531,1.3518747091293335,-0.1003777384757995,0.0822258740663528,0.2213332056999206,0.2320072948932647,0.0,0.0,-0.0434941274307432,-0.8346387527929295
-0.0377676002681255,1.3535758256912231,-0.0984676256775856,0.0735699385404586,0.2346927523612976,0.2671907842159271,0.0,0.0,0.9847520618863328,-0.8094120927539852
-0.0387919433414936,1.3565952777862549,-0.1172459125518798,0.1317690014839172,0.2497396916151046,0.3009384870529175,0.0,0.0,-0.8723536133766174,0.9554221630096436
-0.0396449081599712,1.3594731092453003,-0.0983945801854133,0.1256196498870849,0.2631111145019531,0.2674288153648376,0.0,0.0,-0.8786309361457825,0.9636317491531372
-0.0403267852962017,1.362223982810974,-0.0795972868800163,0.120173692703247,0.2747837007045746,0.2334520071744918,0.0,0.0,-0.7822524309158325,0.9187970161437988
-0.0408334732055664,1.364831566810608,-0.0604081824421882,0.1140296533703804,0.2847826778888702,0.199979692697525,0.0,0.0,-0.8547313809394836,0.6865854263305664
-0.0411738380789756,1.3673017024993896,-0.042338341474533,0.1081428602337837,0.2933239042758941,0.1708253920078277,0.0,0.0,-0.8741158843040466,0.529070258140564
-0.0413589477539062,1.3696318864822388,-0.02568344399333,0.1020979210734367,0.3007195293903351,0.1479125916957855,0.0,0.0,-0.894457221031189,0.3662786483764648
-0.0414277091622352,1.3717992305755615,-0.0139773013070225,0.0948420464992523,0.3080722093582153,0.1470535397529602,0.0,0.0,-0.925915539264679,0.1025831699371337
-0.0413785949349403,1.373803973197937,-0.0021248655393719,0.0875864923000335,0.3153726756572723,0.1460092514753341,0.0,0.0,-0.9595887064933776,0.1594891548156738
-0.0412103645503521,1.375645875930786,0.0098613472655415,0.0803312808275222,0.3226116001605987,0.144778624176979,0.0,0.0,-0.8538029193878174,0.8423469066619873
-0.0408562645316123,1.3773587942123413,0.0302579905837774,0.0749738439917564,0.3279781341552734,0.1073311939835548,0.0,0.0,-0.8540760278701782,0.1267486810684204
-0.0403808578848838,1.378908634185791,0.0424773097038269,0.0677211582660675,0.3332644999027252,0.1057273745536804,0.0,0.0,-0.8553856015205383,0.7021061182022095
-0.0397198684513568,1.3803263902664185,0.0627771466970443,0.0622354857623577,0.3367331624031067,0.0693739876151084,0.0,0.0,-0.9187791347503662,-0.0738410353660583
-0.0389357581734657,1.3815803527832031,0.0751911178231239,0.0549846999347209,0.3401032090187073,0.0674008652567863,0.0,0.0,-0.8760830163955688,0.6254251003265381
-0.0379733070731163,1.3826985359191897,0.0945433899760246,0.0492906086146831,0.3418755829334259,0.0354478321969509,0.0,0.0,-0.9107843041419984,0.996169924736023
-0.0368147864937782,1.3836785554885864,0.1160789728164672,0.0436092466115951,0.3416427671909332,-0.0046565486118197,0.0,0.0,-0.8812471628189087,0.9993014335632324
-0.0354488380253315,1.3845278024673462,0.1390224397182464,0.0383204109966754,0.3390940725803375,-0.0509740822017192,0.0,0.0,-0.8051560521125793,0.9998916387557985
-0.033874224871397,1.3852516412734983,0.1621746718883514,0.0332681611180305,0.3341639935970306,-0.0986014530062675,0.0,0.0,-0.8337019085884094,-0.9999989867210388
-0.032263945788145,1.3857760429382324,0.1635748147964477,0.0238906741142272,0.3315066993236542,-0.0531457439064979,0.0,0.0,-0.7851722240447998,0.9982805252075196
-0.0304709430783987,1.3861749172210691,0.1835232973098755,0.0186904985457658,0.3270986378192901,-0.0881613045930862,0.0,0.0,-0.6591181755065918,0.9999949932098388
-0.0284783355891704,1.386444091796875,0.2055383920669555,0.0133727733045816,0.3205654621124267,-0.1306637227535247,0.0,0.0,-0.5360842943191528,0.9966124296188354
-0.0262660030275583,1.3865960836410522,0.2301010340452194,0.0086856456473469,0.3113498091697693,-0.1843128353357315,0.0,0.0,-0.5065067410469055,-1.0
-0.0240095146000385,1.3865517377853394,0.232566088438034,-0.0005100102862343,0.30418860912323,-0.1432238519191742,0.0,0.0,-0.4290446043014526,1.0
-0.0215350147336721,1.386380910873413,0.2568749189376831,-0.0056543522514402,0.2944502234458923,-0.1947681158781051,0.0,0.0,-0.3348343968391418,0.9999923706054688
-0.0188584327697753,1.3860907554626465,0.2792887985706329,-0.0105848247185349,0.2824751138687134,-0.2395019978284835,0.0,0.0,-0.1125677824020385,0.9998908042907716
-0.0159583091735839,1.385676622390747,0.3043237924575805,-0.0157026294618845,0.2677829265594482,-0.2938435971736908,0.0,0.0,-0.3992851972579956,0.7403396368026733
-0.0128819467499852,1.385118007659912,0.3234433531761169,-0.0220181141048669,0.2516374588012695,-0.3229092061519623,0.0,0.0,-0.0564751625061035,-0.6294797658920288
-0.0097185131162405,1.38438880443573,0.3313576579093933,-0.0299141705036163,0.2363607585430145,-0.3055341243743896,0.0,0.0,-0.155924916267395,0.6472381353378296
-0.0063656806014478,1.38352370262146,0.3521406352519989,-0.0358342714607715,0.2192723155021667,-0.3417685627937317,0.0,0.0,-0.3257623314857483,-0.884168267250061
-0.0029449462890625,1.3824872970581057,0.3576631844043731,-0.0438270941376686,0.2035272866487503,-0.3149005770683288,0.0,0.0,0.0067152976989746,-0.558025598526001
0.0004136085626669,1.381969332695007,0.3506524562835693,-0.0210593119263649,0.1886145174503326,-0.2982549369335174,0.0,0.0,0.2658692598342895,-0.9455766677856444
0.0038206099998205,1.381691813468933,0.3538587689399719,-0.0107117658481001,0.1754083931446075,-0.2641224861145019,0.0,0.0,0.0612534284591674,-0.915829300880432
0.007131481077522,1.3818838596343994,0.3426535725593567,0.0098609318956732,0.1638226360082626,-0.2317153662443161,0.0,0.0,-0.0947839617729187,-0.9984359741210938
0.0105104446411132,1.3818960189819336,0.3481180965900421,0.0016326551558449,0.1536043137311935,-0.2043664008378982,0.0,0.0,-0.0284278392791748,0.1181135177612304
0.0140192033722996,1.3817459344863892,0.3613403439521789,-0.00562564143911,0.1431598514318466,-0.2088892161846161,0.0,0.0,-0.1062555313110351,-0.9680345058441162
0.0175838470458984,1.3814103603363037,0.3652466535568237,-0.0141022810712456,0.1344005018472671,-0.1751867681741714,0.0,0.0,0.1274014711380005,-0.6498813033103943
0.0210792534053325,1.3814823627471924,0.3573867082595825,0.0038881276268512,0.1265844404697418,-0.1563208401203155,0.0,0.0,-0.0279018878936767,-0.2449408769607544
0.0247045513242483,1.381391525268555,0.3706261217594147,-0.0033670382108539,0.1185351908206939,-0.1609851419925689,0.0,0.0,-0.0945454835891723,-0.8544580340385437
0.0284028053283691,1.3811174631118774,0.3766712546348572,-0.0116509227082133,0.1117280423641204,-0.1361427307128906,0.0,0.0,-0.1651064753532409,0.3430759906768799
0.0322309508919715,1.3806804418563845,0.3899144232273102,-0.0189051255583763,0.1046839952468872,-0.1408810913562774,0.0,0.0,-0.4038397073745727,-0.952405333518982
0.0361028686165809,1.3800628185272217,0.3923105001449585,-0.0271052792668342,0.0995991379022598,-0.1016972213983535,0.0,0.0,0.0523723363876342,-0.0147193074226379
0.0400035865604877,1.379917025566101,0.3957163691520691,-0.006115942262113,0.0940037295222282,-0.1119082123041153,0.0,0.0,-0.5110700130462646,-0.8506749868392944
0.0439705848693847,1.3796005249023438,0.4009634852409363,-0.0138000808656215,0.0897753909230232,-0.0845666602253913,0.0,0.0,-0.0882827043533325,0.2524679899215698
0.0480674728751182,1.379120945930481,0.4141953885555267,-0.0210523065179586,0.0853046327829361,-0.0894152373075485,0.0,0.0,-0.2166659832000732,-0.5447468757629395
0.0522563941776752,1.3784732818603516,0.4226887226104736,-0.0285745952278375,0.0815432518720626,-0.0752275139093399,0.0,0.0,-0.2572211027145386,-0.9103678464889526
0.0564994812011718,1.3776459693908691,0.4264296889305115,-0.0366600789129734,0.0794545263051986,-0.0417746007442474,0.0,0.0,0.0106321573257446,-0.8099084496498108
0.0608417503535747,1.376942157745361,0.4349445402622223,-0.0312440097332,0.0787464082241058,-0.0141624314710497,0.0,0.0,-0.1620672941207885,-0.9616384506225586
0.0652342811226844,1.3760557174682615,0.4381704330444336,-0.039447147399187,0.0798108652234077,0.0212893038988113,0.0,0.0,-0.3165822029113769,-0.8462368249893188
0.0696879401803016,1.3750056028366089,0.4428187310695648,-0.0468121282756328,0.0823354423046112,0.0504917204380035,0.0,0.0,-0.489795446395874,-0.8441749811172485
0.0742126479744911,1.373793363571167,0.4486947655677795,-0.0540886856615543,0.0860684290528297,0.0746598839759826,0.0,0.0,-0.5176370739936829,-0.9103338718414308
0.0787805542349815,1.3724161386489868,0.451106458902359,-0.061550099402666,0.0917026251554489,0.112683929502964,0.0,0.0,-0.4155666828155517,-0.9425718784332277
0.0833875685930252,1.3708539009094238,0.4529706835746765,-0.069928154349327,0.0993740856647491,0.1534292697906494,0.0,0.0,-0.5189577341079712,-0.8861700296401978
0.0880575180053711,1.3691272735595703,0.4578557014465332,-0.0773767754435539,0.1084427237510681,0.1813727915287017,0.0,0.0,-0.6998739838600159,-0.9326409697532654
0.0927700027823448,1.3672242164611816,0.4601824879646301,-0.085418090224266,0.1194361373782157,0.2198683768510818,0.0,0.0,-0.65188068151474,-0.8296558260917664
0.0975390449166297,1.3651502132415771,0.4642860293388366,-0.0932383611798286,0.1319860219955444,0.2509977221488952,0.0,0.0,-0.3685525059700012,-0.9221653342247008
0.1023613959550857,1.3629047870635986,0.4680133461952209,-0.1011133641004562,0.1461635679006576,0.2835510373115539,0.0,0.0,-0.6203728914260864,-0.8665433526039124
0.1072530746459961,1.3604860305786133,0.4737253189086914,-0.1090872809290885,0.1615740954875946,0.3082106709480285,0.0,0.0,-0.8145649433135986,-0.8453488945960999
0.1122088432312011,1.3578834533691406,0.478813499212265,-0.117586649954319,0.1783665865659713,0.3358499407768249,0.0,0.0,-0.7758908867835999,-0.3529796004295349
0.1172908768057823,1.3551205396652222,0.4917344152927398,-0.1248588114976883,0.1949105709791183,0.330879271030426,0.0,0.0,-0.6640329360961914,-0.8477405309677124
0.122449018061161,1.3521828651428225,0.4983732104301452,-0.1329614222049713,0.2124929726123809,0.3516483902931213,0.0,0.0,-0.859296441078186,-0.649944543838501
0.1276946067810058,1.34906804561615,0.5064252614974976,-0.1411492526531219,0.2308361679315567,0.3668643832206726,0.0,0.0,-0.7683504819869995,-0.5144965648651123
0.1330243051052093,1.3457834720611572,0.5141283273696899,-0.1490492671728134,0.2499759644269943,0.3827959299087524,0.0,0.0,-0.7779421806335449,-0.0451058745384216
0.1384779959917068,1.3423395156860352,0.5268548130989075,-0.156326562166214,0.2688688933849334,0.3778590857982635,0.0,0.0,-0.7227472066879272,-0.0421009063720703
0.1440548002719879,1.338736057281494,0.5395203232765198,-0.1636025756597519,0.2875156700611114,0.3729363679885864,0.0,0.0,-0.9286166429519652,-0.8256323337554932
0.1497040688991546,1.334941864013672,0.5457339286804199,-0.1725387275218963,0.3073216080665588,0.3961186707019806,0.0,0.0,-0.9016539454460144,-0.5000292062759399
0.1554345190525055,1.330967903137207,0.5531424283981323,-0.1809665411710739,0.3279917240142822,0.4134023189544678,0.0,0.0,-0.8643514513969421,-0.0460829734802246
0.161285787820816,1.326835036277771,0.5655934810638428,-0.1882465481758117,0.3484181761741638,0.4085296094417572,0.0,0.0,-0.8541643023490906,-0.5735050439834595
0.1672127693891525,1.3225191831588743,0.5723993182182312,-0.1968809515237808,0.3698234558105469,0.4281056821346283,0.0,0.0,-0.7299559116363525,-0.8747550845146179
0.1731792390346527,1.3180075883865356,0.5747015476226807,-0.2063584327697754,0.3931489586830139,0.4665107131004333,0.0,0.0,-0.7038793563842773,0.2088927030563354
0.1792631149291992,1.313338279724121,0.586878776550293,-0.2136456370353698,0.4162342250347137,0.4617055356502533,0.0,0.0,-0.4350380301475525,0.0079388618469238
0.1854632347822189,1.3085108995437622,0.5989460945129395,-0.220931202173233,0.4390807151794433,0.456930011510849,0.0,0.0,-0.1536590456962585,-0.3812652826309204
0.1917786598205566,1.30352520942688,0.6108940243721008,-0.2282151579856872,0.4616900086402893,0.452186107635498,0.0,0.0,0.2896022796630859,-0.4638482332229614
0.1980172097682953,1.2988899946212769,0.603741466999054,-0.2128464132547378,0.4839739501476288,0.4456793665885925,0.0,0.0,0.7237696647644043,0.4990112781524658
0.2039684355258941,1.2948437929153442,0.5759548544883728,-0.1866975724697113,0.5054611563682556,0.4297443330287933,0.0,0.0,0.6989932060241699,-0.2786468267440796
0.2096344977617263,1.291232705116272,0.5484951734542847,-0.167318508028984,0.5260007977485657,0.4107927680015564,0.0,0.0,0.7000293731689453,-0.2508995532989502
0.2151329070329666,1.2885031700134275,0.5317128896713257,-0.128481313586235,0.5468146204948425,0.416276216506958,0.0,0.0,0.7845189571380615,0.1240512132644653
0.2205882966518402,1.286176323890686,0.527566134929657,-0.11087017506361,0.5677069425582886,0.4178470075130462,0.0,0.0,0.8346074819564819,-0.4950204491615295
0.2258295118808746,1.2848910093307495,0.5059484243392944,-0.0650198683142662,0.5891184210777283,0.4282290935516357,0.0,0.0,0.9458012580871582,0.1934989690780639
0.2306440323591232,1.284563064575195,0.4638168215751648,-0.022584730759263,0.6101815700531006,0.4212636351585388,0.0,0.0,0.9682494401931764,0.3088713884353637
0.2351155281066894,1.285473108291626,0.4293250441551208,0.0319531187415123,0.631809651851654,0.4325616955757141,0.0,0.0,0.9476144313812256,0.3834898471832275
0.2393546998500824,1.2871298789978027,0.4062124192714691,0.0648138895630836,0.6536348462104797,0.4365035891532898,0.0,0.0,0.938251495361328,-0.3717372417449951
0.2431008368730545,1.289759635925293,0.3573956191539764,0.1079103872179985,0.6752046346664429,0.4313954412937164,0.0,0.0,0.9902420043945312,0.5131365060806274
0.246436595916748,1.2934528589248655,0.3175264000892639,0.1554140746593475,0.6956514120101929,0.4089359641075134,0.0,0.0,0.985647678375244,0.6381738185882568
0.2496286332607269,1.2977641820907593,0.3044577538967132,0.1832591444253921,0.7147457599639893,0.3818866610527038,0.0,0.0,0.978410005569458,-0.2208970785140991
0.252312570810318,1.3026087284088137,0.2545627057552337,0.2071760594844818,0.7329548597335815,0.3641822934150696,0.0,0.0,0.9815897941589355,0.90207839012146
0.2545956671237945,1.3078781366348269,0.2165478467941284,0.2270349115133285,0.7486725449562073,0.3143543601036072,0.0,0.0,0.9756430387496948,-0.0344709157943725
0.2564826905727386,1.3136993646621704,0.177345335483551,0.2515889108181,0.7640692591667175,0.3079341351985931,0.0,0.0,0.982457399368286,0.8061919212341309
0.2580746710300445,1.3201491832733154,0.1494247615337371,0.2803317606449127,0.7775296568870544,0.2692077159881592,0.0,0.0,0.9742069244384766,0.6439156532287598
0.2595968246459961,1.3271183967590332,0.1434216797351837,0.303915798664093,0.7897654175758362,0.2447150945663452,0.0,0.0,0.9710681438446044,0.63038170337677
0.2607302665710449,1.3349710702896118,0.1055804118514061,0.3437454998493194,0.8006901741027832,0.2184949219226837,0.0,0.0,0.9415688514709472,0.5965099334716797
0.2613004744052887,1.3437365293502808,0.0503723919391632,0.3849811255931854,0.8101469874382019,0.189136117696762,0.0,0.0,0.9032150506973268,0.6076080799102783
0.2617615759372711,1.3528406620025637,0.0404876284301281,0.4006533920764923,0.8182471990585327,0.1620042026042938,0.0,0.0,0.8251321315765381,0.6785814762115479
0.2618973851203918,1.3626652956008911,0.0090004205703735,0.4333750903606415,0.8248727917671204,0.1325122863054275,0.0,0.0,0.6651971340179443,0.1206002235412597
