x_pos,y_pos,x_vel,y_vel,angle,ang_vel,leg_1,leg_2,main_booster,lat_booster
-0.001504898071289,1.4032955169677734,-0.1527643799781799,-0.3388687074184418,0.0020435061305761,0.0403309389948844,0.0,0.0,0.4542293736110936,0.7389276691344564
-0.0028819083236157,1.3959710597991943,-0.1386169791221618,-0.3255341649055481,0.0029480550438165,0.0180932227522134,0.0,0.0,0.7682853869873816,0.6069274812137662
-0.004037857055664,1.3889621496200562,-0.1160049065947532,-0.3115090727806091,0.0033473863732069,0.0079874619841575,0.0,0.0,-0.9795653659983226,-0.8274728015246454
-0.0052496911957859,1.3816211223602295,-0.1238406896591186,-0.3262756764888763,0.0059757437556982,0.0525719001889228,0.0,0.0,0.9744087772504072,-0.6187294008208692
-0.006327343173325,1.3751235008239746,-0.1124084815382957,-0.2888132631778717,0.0105679500848054,0.0918527990579605,0.0,0.0,-0.7438111718025193,-0.9418525855498336
-0.0074383737519383,1.3682948350906372,-0.1174670830368995,-0.3035535514354706,0.0168586280196905,0.12582528591156,0.0,0.0,-0.3247105966526704,-0.7966863952817242
-0.0085898395627737,1.361136555671692,-0.1234117373824119,-0.3182618916034698,0.0250382404774427,0.1636071801185608,0.0,0.0,0.9185734128156676,-0.5972295541009391
-0.0095965387299656,1.3547838926315308,-0.1109177246689796,-0.2825350165367126,0.0351807959377765,0.2028699219226837,0.0,0.0,0.981713550614608,-0.9502229583732814
-0.0107031818479299,1.349614500999451,-0.1230327039957046,-0.2300928086042404,0.0474130325019359,0.2446672469377517,0.0,0.0,-0.9909103178353212,0.7126486445221399
-0.0117271421477198,1.3441262245178225,-0.1135556250810623,-0.2443110942840576,0.058467399328947,0.2211076319217682,0.0,0.0,-0.0681901891295719,0.8552975632436257
-0.0126463891938328,1.338318109512329,-0.1013602465391159,-0.2585303783416748,0.0678115710616111,0.1869004070758819,0.0,0.0,0.0042431445203006,0.6358546320376826
-0.01345996838063,1.3326716423034668,-0.0898008942604065,-0.2513557374477386,0.0761715620756149,0.1672153174877166,0.0,0.0,0.3072211525361534,0.9090389916296016
-0.0140970228239893,1.3275513648986816,-0.0706279501318931,-0.2279366105794906,0.0830371752381324,0.1373248696327209,0.0,0.0,0.2237281775385158,-0.7281313516846591
-0.014725113287568,1.3224893808364868,-0.0714825987815857,-0.2254727333784103,0.0916349589824676,0.1719716936349868,0.0,0.0,0.3766196530823786,0.5638587828063537
-0.0152143482118844,1.318155288696289,-0.0569400265812873,-0.1931355446577072,0.0996004492044448,0.1593244820833206,0.0,0.0,-0.6853745287141897,-0.6993766109552613
-0.0157167427241802,1.3134784698486328,-0.0595977790653705,-0.2085072249174118,0.1089002266526222,0.1860125958919525,0.0,0.0,0.5120963907222673,-0.5846354317486693
-0.0161831863224506,1.3096634149551392,-0.0576684549450874,-0.1703969538211822,0.119871400296688,0.2194436341524124,0.0,0.0,0.0855283833655491,-0.6478107836791807
-0.0165924075990915,1.3058923482894895,-0.0535418204963207,-0.1686661094427108,0.1324454098939895,0.2515027821063995,0.0,0.0,-0.4203351804659023,-0.7748420572520913
-0.0170206073671579,1.301792025566101,-0.0568988211452961,-0.1835448443889618,0.1464803367853164,0.2807237505912781,0.0,0.0,0.0976996656257813,0.5948589062226282
-0.017483901232481,1.2979203462600708,-0.0592398643493652,-0.1733940094709396,0.1593957841396331,0.2583326399326324,0.0,0.0,0.3444641900908172,0.7339516530447376
-0.0178398136049509,1.2946749925613403,-0.047333501279354,-0.1455461084842682,0.1711670607328415,0.2354465425014495,0.0,0.0,-0.8540991360499541,0.7196650153385602
-0.0181044582277536,1.2911131381988523,-0.036867581307888,-0.1595382690429687,0.1816158294677734,0.2089941799640655,0.0,0.0,0.2093764875303254,0.8678201595747814
-0.0182313919067382,1.287858963012695,-0.0215541571378707,-0.1457355469465255,0.1905290186405182,0.1782797574996948,0.0,0.0,-0.4392462584523346,0.84612252899842
-0.018249224871397,1.2842888832092283,-0.0088890176266431,-0.1595977395772934,0.1976814866065979,0.1430619060993194,0.0,0.0,0.4846538105152858,0.7932938066450951
-0.0184243209660053,1.2812198400497437,-0.0229147654026746,-0.1371260583400726,0.2031429409980774,0.1092389225959777,0.0,0.0,-0.2755511234907342,-0.9912251776163198
-0.0186569206416606,1.2777777910232544,-0.0312413908541202,-0.1541042178869247,0.2111868411302566,0.1608780175447464,0.0,0.0,0.9621730515438304,-0.6252589705930476
-0.0190788265317678,1.2752631902694702,-0.0515089742839336,-0.113119252026081,0.2206021100282669,0.1883052587509155,0.0,0.0,0.4377715081388451,-0.604033513952728
-0.0197906494140625,1.2734224796295166,-0.0814999714493751,-0.0833984613418579,0.2310619056224823,0.2091960161924362,0.0,0.0,0.4767680577038955,-0.8410672414215339
-0.0208181384950876,1.2722043991088867,-0.1146292686462402,-0.056042306125164,0.2431264966726303,0.24129219353199,0.0,0.0,-0.7088270605714211,0.8020467485586045
-0.0217495914548635,1.2706785202026367,-0.1035405993461608,-0.0695685893297195,0.2537094950675964,0.2116601020097732,0.0,0.0,0.0890590849493537,0.5229065089896291
-0.0227326396852731,1.2696621417999268,-0.1077183485031127,-0.0468339137732982,0.2633249163627624,0.1923083215951919,0.0,0.0,-0.971946120262146,0.995847463607788
-0.0236118324100971,1.2683392763137815,-0.0956710949540138,-0.060213815420866,0.2712528109550476,0.1585576236248016,0.0,0.0,-0.9882808923721312,0.9942429065704346
-0.0243907924741506,1.2667243480682373,-0.0839730948209762,-0.072914108633995,0.2774880528450012,0.1247048750519752,0.0,0.0,-0.945974588394165,0.9948155879974364
-0.0250635147094726,1.264801263809204,-0.0716364234685897,-0.0863074883818626,0.2819746434688568,0.0897316262125969,0.0,0.0,-0.9711862206459044,0.9793684482574464
-0.0256231315433979,1.2625846862792969,-0.0583820417523384,-0.0989856496453285,0.2844569981098175,0.0496469289064407,0.0,0.0,-0.991964876651764,0.9731712341308594
-0.0260709766298532,1.2600796222686768,-0.0452447012066841,-0.1114285513758659,0.2849282026290893,0.0094239730387926,0.0,0.0,-0.9965581297874452,0.9652107954025269
-0.026410674676299,1.257271647453308,-0.0326205715537071,-0.1245378628373146,0.2835537791252136,-0.0274886675179004,0.0,0.0,-0.9928554892539978,0.9787932634353638
-0.0266352649778127,1.2541766166687012,-0.0190869532525539,-0.1369048655033111,0.2800759673118591,-0.0695563480257988,0.0,0.0,-0.9987257122993468,0.9933111667633056
-0.0267541892826557,1.2507939338684082,-0.0066619315184652,-0.1493511646986007,0.2747130095958709,-0.1072589382529258,0.0,0.0,-0.9986706972122192,0.9622135162353516
-0.0267592426389455,1.2471163272857666,0.0067261597141623,-0.1621077209711074,0.2673087120056152,-0.1480860561132431,0.0,0.0,-0.9970046877861024,0.8945211172103882
-0.0266719814389944,1.2431410551071167,0.0174369979649782,-0.1751178056001663,0.2584021687507629,-0.1781301498413086,0.0,0.0,-0.9942036271095276,0.8779420852661133
-0.0264660827815532,1.2388681173324585,0.0314347147941589,-0.188035562634468,0.2473460733890533,-0.2211218178272247,0.0,0.0,-0.9795212149620056,0.3186488151550293
-0.0262225158512592,1.2342677116394043,0.0352508127689361,-0.2026616930961609,0.2362723052501678,-0.221475213766098,0.0,0.0,-0.9631111025810242,0.1772981882095337
-0.025941276922822,1.2293400764465332,0.0390766113996505,-0.2172877639532089,0.2251747697591781,-0.221950963139534,0.0,0.0,-0.951442003250122,0.172348141670227
-0.0256220810115337,1.2240852117538452,0.0429111272096633,-0.2319138199090957,0.2140476107597351,-0.2225435227155685,0.0,0.0,-0.9315277338027954,-0.0777498483657836
-0.0252652168273925,1.2185029983520508,0.0467534177005291,-0.2465398758649826,0.202885240316391,-0.2232472598552703,0.0,0.0,-0.9421939849853516,0.0133869647979736
-0.024870490655303,1.2125931978225708,0.0506025776267051,-0.261165976524353,0.1916824430227279,-0.2240562438964843,0.0,0.0,-0.8197009563446045,-0.26236093044281
-0.0244379993528127,1.2063562870025637,0.0544577166438102,-0.275792121887207,0.1804342269897461,-0.224964290857315,0.0,0.0,-0.8402895331382751,-0.7707144021987915
-0.0240414626896381,1.199778437614441,0.0490482226014137,-0.2912383675575256,0.1710177361965179,-0.1883299201726913,0.0,0.0,-0.9713111519813538,0.1536210775375366
-0.0236069671809673,1.1928727626800537,0.0529118590056896,-0.3058614432811737,0.1615468561649322,-0.1894175708293914,0.0,0.0,-0.7230755686759949,-0.6836275458335876
-0.023175049573183,1.18562912940979,0.0516764149069786,-0.3210473358631134,0.1530603915452957,-0.1697293221950531,0.0,0.0,-0.8592280149459839,-0.4584326148033142
-0.0227051731199026,1.1780571937561035,0.0555457957088947,-0.3356691002845764,0.1445119380950927,-0.1709689199924469,0.0,0.0,-0.9025535583496094,-0.5164334774017334
-0.0222301483154296,1.170147180557251,0.0552906990051269,-0.3508204519748688,0.136744812130928,-0.1553419530391693,0.0,0.0,-0.9301112294197084,-0.684882402420044
-0.0217711441218853,1.161904215812683,0.0524037778377532,-0.3657778203487396,0.1302677541971206,-0.1295413076877594,0.0,0.0,-0.8919274210929871,-0.4492940902709961
-0.021274184808135,1.1533327102661133,0.0562756136059761,-0.3803970515727997,0.1237199902534484,-0.1309552490711212,0.0,0.0,-0.9697317481040956,-0.5570369958877563
-0.0207897182554006,1.1444206237792969,0.0538068227469921,-0.3956532180309295,0.1183890625834465,-0.1066185012459755,0.0,0.0,-0.9232103228569032,-0.7583308219909668
-0.0203182213008403,1.1351779699325562,0.0513116829097271,-0.4104639291763305,0.1142577081918716,-0.08262699842453,0.0,0.0,-0.9609289169311525,-0.700096607208252
-0.0198514945805072,1.1256020069122314,0.0498333722352981,-0.4253629148006439,0.1111259460449218,-0.0626354068517685,0.0,0.0,-0.9497343301773072,-0.7206304669380188
-0.0193969719111919,1.1156960725784302,0.0474132820963859,-0.4401150643825531,0.1091734021902084,-0.0390506088733673,0.0,0.0,-0.9557873606681824,-0.2683414220809936
-0.018904685974121,1.105461359024048,0.0512726791203022,-0.4547311961650848,0.1071432754397392,-0.0406025722622871,0.0,0.0,-0.9633249640464784,-0.412922203540802
-0.0183747299015522,1.0948976278305054,0.0551270134747028,-0.4693473875522613,0.1050353720784187,-0.0421582907438278,0.0,0.0,-0.8453128337860107,-0.4155012369155884
-0.0178070068359375,1.0840049982070925,0.0589752718806266,-0.4839635789394378,0.102849893271923,-0.043709672987461,0.0,0.0,-0.8993644118309021,-0.7523576617240906
-0.017248535528779,1.0727741718292236,0.0569221973419189,-0.4990704357624054,0.1017806902527809,-0.0213840696960687,0.0,0.0,-0.8402814865112305,0.1170098781585693
-0.0166524890810251,1.0612144470214844,0.0607551746070385,-0.5136864185333252,0.1006355732679367,-0.0229021050035953,0.0,0.0,-0.9238715767860411,0.4777630567550659
-0.0160189624875783,1.0493258237838743,0.0645788758993148,-0.5283024311065674,0.099416010081768,-0.0243911352008581,0.0,0.0,-0.8277679085731506,-0.3809134364128113
-0.0153480526059865,1.0371081829071045,0.0683921128511428,-0.5429184436798096,0.0981238782405853,-0.0258425734937191,0.0,0.0,-0.7834534645080566,-0.7743280529975891
-0.0146992681547999,1.024561882019043,0.0647559911012649,-0.5576193332672119,0.0982468798756599,0.002459809416905,0.0,0.0,-0.680290699005127,0.8025186061859131
-0.0139408111572265,1.0116878747940063,0.077618584036827,-0.5720670819282532,0.0964876860380172,-0.0351837240159511,0.0,0.0,-0.695738673210144,-0.770940899848938
-0.0132038118317723,0.998485267162323,0.0740581378340721,-0.5867583751678467,0.0961287394165992,-0.0071789203211665,0.0,0.0,-0.9354135394096376,-0.1777154207229614
-0.0124299051240086,0.9849538207054138,0.0778161510825157,-0.6013745665550232,0.0957089439034462,-0.0083959205076098,0.0,0.0,-0.4058709144592285,-0.151569664478302
-0.0116190910339355,0.9710932970046996,0.0815565958619117,-0.6159906387329102,0.095232293009758,-0.0095330886542797,0.0,0.0,-0.4013384580612182,-0.287142276763916
-0.0107716564089059,0.956903874874115,0.0852777436375618,-0.6306068301200867,0.0947032123804092,-0.0105818249285221,0.0,0.0,-0.8649958372116089,-0.5075564980506897
-0.0099365236237645,0.9423841834068298,0.0828515738248825,-0.6453574895858765,0.0953526198863983,0.0129883959889411,0.0,0.0,-0.2827222943305969,0.5928807258605957
-0.0090126991271972,0.9275432229042052,0.0931043699383735,-0.6595544219017029,0.0946336761116981,-0.0143788140267133,0.0,0.0,-0.7328454256057739,0.0002793073654174
-0.0080527309328317,0.9123732447624208,0.0967559665441513,-0.6741706728935242,0.0938780754804611,-0.0151117835193872,0.0,0.0,-0.6621406078338623,0.0092120170593261
-0.0070568085648119,0.8968744874000549,0.100380003452301,-0.688787043094635,0.0930919274687767,-0.0157227031886577,0.0,0.0,-0.6747652292251587,0.5701115131378174
-0.0059823989868164,0.8810470104217529,0.109350100159645,-0.70332270860672,0.0912069976329803,-0.0376986563205719,0.0,0.0,-0.6090918779373169,-0.6043049097061157
-0.0049210549332201,0.8648896813392639,0.1068198531866073,-0.7180671691894531,0.090524174273014,-0.0136566562578082,0.0,0.0,-0.3232700824737549,0.6495754718780518
-0.0037670135498046,0.8484176397323608,0.1175848022103309,-0.7319561243057251,0.088362842798233,-0.0432268008589744,0.0,0.0,-0.3556048274040222,-0.6028326153755188
-0.0026348114479333,0.8316153883934021,0.1139628142118454,-0.7467226386070251,0.0876225307583808,-0.0148060414940118,0.0,0.0,-0.2771016359329223,0.6020388603210449
-0.0014305114746093,0.8144830465316772,0.1221198290586471,-0.7613404393196106,0.0859483852982521,-0.0334828570485115,0.0,0.0,-0.0956813097000122,-0.705422580242157
-0.0002443313715048,0.7970213294029236,0.1189724057912826,-0.7760526537895203,0.0855981484055519,-0.007004708983004,0.0,0.0,0.0982317924499511,0.2979952096939087
0.0008757591131143,0.7797939777374268,0.1126566529273986,-0.7656247019767761,0.0849597826600074,-0.0127673055976629,0.0,0.0,-0.4308642148971557,0.671966552734375
0.0020771981216967,0.7622467875480652,0.1219809427857399,-0.7797732949256897,0.0831362828612327,-0.036469779908657,0.0,0.0,-0.380779504776001,0.2776401042938232
0.0033114433754235,0.7443706393241882,0.1252195239067077,-0.7943904399871826,0.0813550949096679,-0.035623800009489,0.0,0.0,-0.2303087711334228,-0.9528225660324096
0.0045136450789868,0.726158082485199,0.1203300133347511,-0.8094384074211121,0.0812492296099662,-0.0021173080895096,0.0,0.0,-0.2801648378372192,0.0348131656646728
0.0057476041838526,0.7076168060302734,0.1234380230307579,-0.8240554928779602,0.0812058597803115,-0.000867262831889,0.0,0.0,-0.643892765045166,0.2845964431762695
0.0070126531645655,0.6887466311454773,0.1264728009700775,-0.8386725187301636,0.0812355577945709,0.0005941425915807,0.0,0.0,-0.2579798698425293,-0.3098267316818237
0.0083081247285008,0.6695477366447449,0.1294286400079727,-0.8532896637916565,0.0813492089509964,0.00227309204638,0.0,0.0,0.3057370185852051,-0.6354024410247803
0.009679508395493,0.6504900455474854,0.1354274749755859,-0.8471052646636963,0.0830416828393936,0.0338497012853622,0.0,0.0,0.6711065769195557,-0.075502336025238
0.0110110286623239,0.6322388648986816,0.1313617527484893,-0.811268150806427,0.0848140865564346,0.0354480296373367,0.0,0.0,0.1418673992156982,-0.2338169813156128
0.0123474122956395,0.614445149898529,0.1316344738006591,-0.7909449934959412,0.0868035182356834,0.0397887341678142,0.0,0.0,-0.1821035742759704,-0.1523739099502563
0.0137109756469726,0.5963228344917297,0.1342104971408844,-0.8055629134178162,0.0889229923486709,0.0423896759748458,0.0,0.0,0.4633398056030273,-0.3582785129547119
0.0151638034731149,0.5783157348632812,0.1425879895687103,-0.8004773259162903,0.0915977954864502,0.0534959249198436,0.0,0.0,0.5320411920547485,-0.7907806038856506
0.0164822582155466,0.5606672167778015,0.1275007575750351,-0.7846500873565674,0.0959157571196556,0.0863589942455291,0.0,0.0,-0.0946698784828186,0.4100145101547241
0.017824649810791,0.5426903367042542,0.129716619849205,-0.7992696166038513,0.1004005074501037,0.08969496935606,0.0,0.0,0.6608700752258301,0.5505952835083008
0.0191506389528512,0.5252415537834167,0.1290720105171203,-0.7757449746131897,0.1039008572697639,0.0700070187449455,0.0,0.0,0.5240657329559326,0.3030961751937866
0.0203076358884573,0.5085412859916687,0.112517811357975,-0.7424615621566772,0.1070621684193611,0.0632264241576194,0.0,0.0,0.5728752613067627,0.8406662940979004
0.0215713493525981,0.4925329685211181,0.1245293170213699,-0.711612343788147,0.1088906601071357,0.0365699827671051,0.0,0.0,-0.5408098697662354,0.3122073411941528
0.0228534694761037,0.4761961102485657,0.1261553615331649,-0.7262312173843384,0.1109367087483406,0.0409209355711936,0.0,0.0,0.4025725126266479,0.6447712182998657
0.0240557678043842,0.4604787230491638,0.1193817257881164,-0.6986134648323059,0.1117766946554184,0.0167997684329748,0.0,0.0,0.4796454906463623,0.0794048309326171
0.0252015106379985,0.4450939297676086,0.1135839968919754,-0.6838435530662537,0.1127567887306213,0.0196018144488334,0.0,0.0,0.117748737335205,-0.2277954816818237
0.0262366291135549,0.4299737215042114,0.1026369705796241,-0.672074019908905,0.1136277690529823,0.0174196474254131,0.0,0.0,0.2999061346054077,0.2478935718536377
0.0271192546933889,0.4151191413402557,0.0876720398664474,-0.6602506041526794,0.1142198368906974,0.011841082945466,0.0,0.0,0.3363122940063476,0.7599359750747681
0.0281007774174213,0.400833398103714,0.0986710339784622,-0.6348793506622314,0.1137046068906784,-0.0103046419098973,0.0,0.0,-0.0034297704696655,-0.2930276393890381
0.0290904995054006,0.3862192928791046,0.09920035302639,-0.6494987607002258,0.1134834066033363,-0.004424322862178,0.0,0.0,0.4799901247024536,-0.2137857675552368
0.0301383975893259,0.3723174333572387,0.1040976271033287,-0.6179141402244568,0.1141696199774742,0.0137242749333381,0.0,0.0,0.5494644641876221,0.20989990234375
0.0310864448547363,0.3591681122779846,0.0939024612307548,-0.5844849944114685,0.1150753051042556,0.0181133914738893,0.0,0.0,0.1918878555297851,0.5526400804519653
0.0321218483150005,0.3466423451900482,0.1031881719827652,-0.5567254424095154,0.115421138703823,0.0069167697802186,0.0,0.0,-0.2159004807472229,-0.458320140838623
0.0331577286124229,0.3337882757186889,0.1029029339551925,-0.5713453888893127,0.1161097586154937,0.0137723116204142,0.0,0.0,0.1063001155853271,0.0223375558853149
0.0341242775321006,0.3214196264743805,0.09562349319458,-0.5497978329658508,0.1171304360032081,0.0204135160893201,0.0,0.0,0.1751042604446411,-0.1917645335197448
0.0350648872554302,0.3095647692680359,0.0924696773290634,-0.5270086526870728,0.1187165230512619,0.0317217968404293,0.0,0.0,0.4596331119537353,-0.0844321250915527
0.0360231399536132,0.2979976534843445,0.0935161486268043,-0.514279305934906,0.121008887887001,0.045847438275814,0.0,0.0,0.2407324314117431,-0.0561597347259521
0.0368270874023437,0.286777138710022,0.0781292989850044,-0.4988749921321869,0.1232642531394958,0.0451072119176387,0.0,0.0,0.4593489170074463,0.0803976058959961
0.0374537482857704,0.2758845090866089,0.0605305545032024,-0.4842987954616546,0.1253935694694519,0.0425864867866039,0.0,0.0,0.2875827550888061,0.8541065454483032
0.0380629524588584,0.2653259932994842,0.0600975379347801,-0.4693339467048645,0.1262096613645553,0.016321875154972,0.0,0.0,0.7653579711914062,0.6611430644989014
0.0386698730289936,0.2553018927574157,0.0607006251811981,-0.4455138146877289,0.1261960864067077,-0.0002713880967348,0.0,0.0,0.7043642997741699,0.3827778100967407
0.0393497459590435,0.2455271333456039,0.0669461339712143,-0.4345230162143707,0.1272339522838592,0.0207571815699338,0.0,0.0,0.8485516309738159,-0.3293213844299316
0.0400252342224121,0.2365833669900894,0.0655590146780014,-0.397672563791275,0.1292137056589126,0.0395949706435203,0.0,0.0,0.8018496036529541,-0.322981595993042
0.0405974388122558,0.2286253571510315,0.0546588115394115,-0.3539103269577026,0.1317662298679351,0.0510506033897399,0.0,0.0,0.8045284748077393,0.7699609994888306
0.0412428863346576,0.2208646088838577,0.0629087835550308,-0.3450691998004913,0.1333986818790435,0.0326487757265567,0.0,0.0,0.9348769187927246,-0.7910498976707458
