x_pos,y_pos,x_vel,y_vel,angle,ang_vel,leg_1,leg_2,main_booster,lat_booster
-0.0015239715576171,1.4033812284469604,-0.1545372754335403,-0.3350564539432525,0.0019063974032178,0.0376163236796855,0.0,0.0,0.667839878474747,-0.8305031414852067
-0.0030564307235181,1.3963170051574707,-0.1570337861776352,-0.3139738142490387,0.0056543592363595,0.0749671384692192,0.0,0.0,-0.516411904903727,0.8590635604919443
-0.0045062066055834,1.3890036344528198,-0.1468077600002288,-0.3250485062599182,0.0074648973532021,0.0362142473459243,0.0,0.0,-0.854884175184444,-0.7496402096039598
-0.0060258866287767,1.381443977355957,-0.1557386964559555,-0.3360080420970917,0.0111935259774327,0.0745794028043747,0.0,0.0,-0.7990392608907448,0.9772554910555402
-0.0074513433501124,1.373645901679993,-0.1440886259078979,-0.3465920090675354,0.0127173867076635,0.0304799322038888,0.0,0.0,0.0978382497008789,0.8748107536932821
-0.0087042804807424,1.3661482334136963,-0.1252738535404205,-0.3332330882549286,0.0126993358135223,-0.0003610225685406,0.0,0.0,-0.8543243048863833,-0.6712635062756234
-0.0100100515410304,1.3584060668945312,-0.1321070343255996,-0.3441019654273987,0.0142076136544346,0.0301684085279703,0.0,0.0,-0.1602932660659035,0.9255127470846948
-0.0112227443605661,1.3504258394241333,-0.1206280812621116,-0.3546784222126007,0.0135776465758681,-0.0126004572957754,0.0,0.0,-0.7325593811596092,-0.9597230868733716
-0.0125097278505563,1.342211127281189,-0.1301760375499725,-0.3651085495948791,0.0150382183492183,0.0292137749493122,0.0,0.0,-0.009897042315119,0.6275663337179266
-0.0137440683320164,1.3337583541870115,-0.1238160282373428,-0.3756791651248932,0.0154074076563119,0.0073847561143338,0.0,0.0,-0.6099142056793556,-0.624806325608489
-0.0150169376283884,1.3250621557235718,-0.1288858205080032,-0.3865202367305755,0.016991963610053,0.0316937193274498,0.0,0.0,-0.4747118275252162,0.7132014949251766
-0.0162226669490337,1.3161228895187378,-0.1207363605499267,-0.3973029255867004,0.0171504765748977,0.003170573618263,0.0,0.0,-0.4803383276663202,0.8433428536303169
-0.0173428542912006,1.306946873664856,-0.1102723255753517,-0.4078018069267273,0.0154314693063497,-0.0343834683299064,0.0,0.0,0.5633817404396584,0.8852415977638123
-0.0183194167912006,1.2980270385742188,-0.0944124311208725,-0.3964086174964905,0.0122213633731007,-0.0642082914710044,0.0,0.0,0.3440579860635819,0.7753426045390014
-0.0191079135984182,1.2898815870285034,-0.0743927285075187,-0.3619890511035919,0.0078108785673975,-0.0882177576422691,0.0,0.0,-0.3575024505714212,0.690982286902812
-0.0198252685368061,1.281485915184021,-0.0657979249954223,-0.3731213212013244,0.0019382137106731,-0.1174637824296951,0.0,0.0,-0.9347327099355004,-0.6046336741214706
-0.0205721855163574,1.272854566574097,-0.0698486268520355,-0.3836193084716797,-0.0028501360211521,-0.0957755967974662,0.0,0.0,0.8014929085066083,-0.7293332344438778
-0.0211987495422363,1.264586329460144,-0.0598281845450401,-0.3674836158752441,-0.0056471419520676,-0.0559446737170219,0.0,0.0,-0.9196644196935836,-0.7183860880755103
-0.0218645092099905,1.2560820579528809,-0.0651167854666709,-0.3779716789722442,-0.0070900791324675,-0.0288613680750131,0.0,0.0,0.978414251407196,-0.6249099099797828
-0.0226690284907817,1.2483527660369873,-0.0801216214895248,-0.3435299098491668,-0.0074189589358866,-0.0065781385637819,0.0,0.0,0.0906278969357663,0.6299640946586839
-0.0233158115297555,1.2411274909973145,-0.0633590444922447,-0.3211278319358825,-0.00871276948601,-0.0258787870407104,0.0,0.0,0.3976922296799898,-0.9389550687355228
-0.0240118019282817,1.2342159748077393,-0.0703570842742919,-0.3071707487106323,-0.0079725589603185,0.0148057593032717,0.0,0.0,0.8254354102651791,0.9712380191933336
-0.024455452337861,1.2279596328735352,-0.0435756519436836,-0.2780687212944031,-0.0087544312700629,-0.015638755634427,0.0,0.0,-0.5890838407729124,0.9868703689707322
-0.0248005874454975,1.2214478254318235,-0.0316617377102375,-0.2894313633441925,-0.011566961184144,-0.0562554113566875,0.0,0.0,0.8598654354450124,-0.7231865312469005
-0.0253556258976459,1.2157857418060305,-0.0538682863116264,-0.2516624629497528,-0.0131845669820904,-0.0323549918830394,0.0,0.0,0.4293709259030287,0.8642545151124184
-0.0259641651064157,1.2107785940170288,-0.0574685037136077,-0.2225681841373443,-0.0165306497365236,-0.0669217780232429,0.0,0.0,0.5338860590931469,0.8823547981662199
-0.0264741890132427,1.2065439224243164,-0.0460069850087165,-0.1882717013359069,-0.0214683152735233,-0.0987532585859298,0.0,0.0,0.6187314114604034,0.7073330704083123
-0.0270369537174701,1.2032891511917114,-0.0497107952833175,-0.1447609215974807,-0.0279417484998703,-0.1294687837362289,0.0,0.0,0.9736456024396432,-0.7371823384992704
-0.0277856830507516,1.2011947631835938,-0.0695512443780899,-0.0931905582547187,-0.0331945642828941,-0.1050564795732498,0.0,0.0,-0.3379235348041896,0.8961592321314515
-0.028450584039092,1.1988509893417358,-0.0595947802066803,-0.1043367534875869,-0.0400111488997936,-0.1363315880298614,0.0,0.0,-0.2486108442566466,0.9594950847143936
-0.0290210731327533,1.1962709426879885,-0.0483054853975772,-0.1149258390069007,-0.0486374832689762,-0.1725268512964248,0.0,0.0,-0.6974898592462093,-0.6374358440065935
-0.0296317096799612,1.1934490203857422,-0.0539476871490478,-0.125669315457344,-0.0556756816804409,-0.1407642066478729,0.0,0.0,0.3515113484889622,0.9851511557554018
-0.0301884654909372,1.191375970840454,-0.046690359711647,-0.092491365969181,-0.0645600631833076,-0.1776877343654632,0.0,0.0,0.8207302462605028,0.6704362410173271
-0.0307246204465627,1.1896522045135498,-0.0432587526738643,-0.0770963206887245,-0.0748082026839256,-0.2049629241228103,0.0,0.0,-0.3083150345174492,0.8127671449539071
-0.0311762802302837,1.187680959701538,-0.0332898125052452,-0.0882463604211807,-0.0865625217556953,-0.2350863516330719,0.0,0.0,-0.1063099905738345,0.6005329189788329
-0.0315595641732215,1.185466766357422,-0.0253887474536895,-0.0992159023880958,-0.0993926972150802,-0.2566033601760864,0.0,0.0,-0.9113758442779808,0.6227547050703063
-0.0318762771785259,1.1830012798309326,-0.0177107471972703,-0.1105649769306182,-0.1132563650608062,-0.2772732675075531,0.0,0.0,0.7923092391636823,0.7985479662978369
-0.0319710746407508,1.181513786315918,0.0058295014314353,-0.0673448666930198,-0.1284657567739486,-0.3041882514953613,0.0,0.0,-0.169857912525861,-0.9697163249075188
-0.0321247093379497,1.179811954498291,-0.0023266826756298,-0.0768157988786697,-0.1414524763822555,-0.2597347497940063,0.0,0.0,-0.3821827581214412,-0.6043269844451322
-0.0323018059134483,1.1778788566589355,-0.0059994640760123,-0.0870609506964683,-0.1531334072351455,-0.2336183041334152,0.0,0.0,0.1360099101627754,0.6339443923488857
-0.0324062332510948,1.1765108108520508,0.0024626089725643,-0.0621807500720024,-0.1660409122705459,-0.2581501603126526,0.0,0.0,-0.9514611959457396,-0.9888010621070862
-0.0325496681034565,1.1749145984649658,-0.0031733729410916,-0.0722346529364585,-0.1772218495607376,-0.2236186265945434,0.0,0.0,-0.9890057444572448,-0.9863529205322266
-0.0327355377376079,1.1730828285217283,-0.0092476662248373,-0.0825588181614875,-0.1865982562303543,-0.1875279992818832,0.0,0.0,-0.998264729976654,-0.9885943531990052
-0.0329623222351074,1.1710245609283447,-0.0151399197056889,-0.092442438006401,-0.1941668540239334,-0.151372030377388,0.0,0.0,-0.997481405735016,-0.9037790894508362
-0.0332411751151084,1.1687350273132324,-0.0224408749490976,-0.1024840623140335,-0.1996533721685409,-0.109730340540409,0.0,0.0,-0.9682763814926147,-0.9882405996322632
-0.0335677154362201,1.1662137508392334,-0.029174929484725,-0.1125287637114524,-0.2031612545251846,-0.070157989859581,0.0,0.0,-0.936467170715332,-0.9564351439476012
-0.0339366905391216,1.1634645462036133,-0.0352769792079925,-0.122411236166954,-0.2047941237688064,-0.0326574891805648,0.0,0.0,-0.3542206883430481,-0.9725102186203004
-0.0343681350350379,1.160509705543518,-0.0439861863851547,-0.1312047690153122,-0.2039489150047302,0.0169040001928806,0.0,0.0,-0.6898356080055237,-0.5567967891693115
-0.0348258018493652,1.1573326587677002,-0.0481156036257743,-0.1408815234899521,-0.2015842199325561,0.0472943186759948,0.0,0.0,-0.8210669755935669,-0.291887104511261
-0.0352574363350868,1.1539121866226196,-0.0456632748246192,-0.1516838520765304,-0.1990697830915451,0.0502887479960918,0.0,0.0,0.0653811693191528,-0.9326518774032592
-0.0355543121695518,1.1507787704467771,-0.0341677889227867,-0.1386648863554,-0.1945510506629943,0.0903743058443069,0.0,0.0,-0.6450722217559814,0.0225535631179809
-0.0358242988586425,1.147402286529541,-0.0316422507166862,-0.1494685113430023,-0.1898836940526962,0.0933472588658332,0.0,0.0,-0.6343210339546204,0.4419713020324707
-0.0360671989619731,1.1437824964523315,-0.0290824119001626,-0.1602723449468612,-0.1850682497024536,0.0963088050484657,0.0,0.0,-0.3015286922454834,-0.0310367941856384
-0.036282729357481,1.1399195194244385,-0.0264898929744958,-0.1710763424634933,-0.1801053136587143,0.0992584973573684,0.0,0.0,-0.7221351265907288,-0.4901934862136841
-0.0364705100655555,1.1358134746551514,-0.0238662790507078,-0.1818805336952209,-0.1749955117702484,0.1021958142518997,0.0,0.0,-0.5063148140907288,-0.3585901260375976
-0.0366301536560058,1.1314643621444702,-0.0212131459265947,-0.1926849335432052,-0.1697395145893097,0.1051202043890953,0.0,0.0,-0.8424857258796692,-0.2885887622833252
-0.0367614738643169,1.1268723011016846,-0.0185320246964693,-0.2034895420074463,-0.1643379628658294,0.1080309599637985,0.0,0.0,-0.6627100706100464,-0.4742425680160522
-0.0368641838431358,1.1220369338989258,-0.0158244352787733,-0.2142943441867828,-0.1587916016578674,0.1109274849295616,0.0,0.0,-0.7354140281677246,0.2736707925796509
-0.036938190460205,1.1169588565826416,-0.0130918603390455,-0.2250993400812149,-0.1531011462211609,0.1138089522719383,0.0,0.0,-0.6156183481216431,0.5014388561248779
-0.0369483940303325,1.1116340160369873,-0.0059921923093497,-0.2361545264720916,-0.1481414586305618,0.0991938486695289,0.0,0.0,-0.5647528171539307,0.1464160680770874
-0.0369294174015522,1.106066346168518,-0.003213794901967,-0.2469591796398162,-0.1430393010377884,0.1020428165793418,0.0,0.0,-0.2605454921722412,-0.5406655669212341
-0.0369300842285156,1.100268840789795,-0.0065873423591256,-0.2570452988147735,-0.1365332901477813,0.1301198750734329,0.0,0.0,-0.6401764750480652,0.2323591709136963
-0.0369009971618652,1.094228982925415,-0.0037691376637667,-0.2678515315055847,-0.1298867017030716,0.132931962609291,0.0,0.0,-0.6438385248184204,0.3215739727020263
-0.036842156201601,1.0879461765289309,-0.0009329078602604,-0.2786580622196197,-0.1231005042791366,0.1357238590717315,0.0,0.0,-0.8781028985977173,0.646706223487854
-0.0367023460566997,1.0814061164855957,0.0083375927060842,-0.290208488702774,-0.1174858212471008,0.112293466925621,0.0,0.0,-0.9260322451591492,-0.1539739370346069
-0.0365324020385742,1.0746233463287354,0.0112062375992536,-0.3010141253471374,-0.1117337569594383,0.1150411963462829,0.0,0.0,-0.9808162450790404,-0.5146811008453369
-0.0363707542419433,1.067610263824463,0.0092355962842702,-0.3111885190010071,-0.1048529371619224,0.1376160830259323,0.0,0.0,-0.8592923283576965,0.4310420751571655
-0.0361787788569927,1.0603545904159546,0.0121312038972973,-0.3219956457614898,-0.0978372991085052,0.1403129249811172,0.0,0.0,-0.8243681192398071,0.7346408367156982
-0.035895250737667,1.0528557300567627,0.0226800180971622,-0.3329232931137085,-0.0922155752778053,0.1124344021081924,0.0,0.0,-0.7654519081115723,0.857744574546814
-0.0355244651436805,1.04510235786438,0.0327314808964729,-0.3443360328674316,-0.0879055261611938,0.0862008780241012,0.0,0.0,-0.8743981122970581,0.5767450332641602
-0.035084344446659,1.0371030569076538,0.0405084565281868,-0.3553184568881988,-0.0844384059309959,0.0693425983190536,0.0,0.0,-0.8286223411560059,0.2921165227890014
-0.0346136093139648,1.0288609266281128,0.0434444472193717,-0.3661229312419891,-0.0808426365256309,0.0719150453805923,0.0,0.0,-0.9558749794960022,0.1775603294372558
-0.0341121666133403,1.020375370979309,0.0463874861598014,-0.3769275248050689,-0.0771201029419899,0.0744504183530807,0.0,0.0,-0.907042384147644,0.3776752948760986
-0.0335800163447856,1.01164710521698,0.0493364408612251,-0.3877322375774383,-0.0732728019356727,0.0769459381699562,0.0,0.0,-0.9620746374130248,0.7039315700531006
-0.0329648032784462,1.002664566040039,0.0588445737957954,-0.3991028070449829,-0.070627637207508,0.0529030747711658,0.0,0.0,-0.8257166743278503,-0.1638388633728027
-0.0323188789188861,0.9934386014938354,0.0618020184338092,-0.4099070727825165,-0.0678621307015419,0.0553100295364856,0.0,0.0,-0.9395648241043092,-0.1577943563461303
-0.0316421501338481,0.983969748020172,0.064761959016323,-0.4207114279270172,-0.0649787485599517,0.0576677247881889,0.0,0.0,-0.932769536972046,0.2529395818710327
-0.0309346206486225,0.9742577075958252,0.0677232593297958,-0.4315158724784851,-0.0619801059365272,0.0599726438522338,0.0,0.0,-0.8685787320137024,0.125593900680542
-0.0301962848752737,0.964302659034729,0.0706847682595253,-0.4423204064369201,-0.0588690601289272,0.0622211098670959,0.0,0.0,-0.9617445468902588,0.4180899858474731
-0.0294272415339946,0.9541045427322388,0.0736453086137771,-0.4531250298023224,-0.0556485876441001,0.0644091665744781,0.0,0.0,-0.9335415363311768,0.0182958841323852
-0.0286276824772357,0.9436633586883544,0.0766036957502365,-0.4639297425746918,-0.052321933209896,0.0665326863527298,0.0,0.0,-0.9262433052062988,0.0596183538436889
-0.0277974121272563,0.9329792857170104,0.0795587375760078,-0.4747346043586731,-0.0488925650715827,0.06858741492033,0.0,0.0,-0.8376764059066772,0.3912250995635986
-0.0269365310668945,0.9220520853996276,0.0825091749429702,-0.4855395257472992,-0.0453641228377819,0.0705689042806625,0.0,0.0,-0.933198094367981,-0.2739200592041015
-0.0260454174131155,0.9108819365501404,0.0854537636041641,-0.4963445961475372,-0.041740495711565,0.0724726095795631,0.0,0.0,-0.9539713859558104,-0.1410763263702392
-0.0251238830387592,0.8994688391685486,0.0883911773562431,-0.5071497559547424,-0.0380257926881313,0.0742938444018364,0.0,0.0,-0.694485604763031,0.2314672470092773
-0.0241722110658884,0.8878127932548523,0.0913200825452804,-0.5179550051689148,-0.0342243984341621,0.076028011739254,0.0,0.0,-0.9319092631340028,0.444812536239624
-0.0231904983520507,0.8759137988090515,0.0942390784621238,-0.5287603139877319,-0.0303408950567245,0.0776702016592025,0.0,0.0,-0.9597911834716796,-0.0421732664108276
-0.0221788398921489,0.8637718558311462,0.0971467196941375,-0.5395658016204834,-0.0263801664113998,0.0792145878076553,0.0,0.0,-0.9506627321243286,0.0851379632949829
-0.0211376193910837,0.8513869643211365,0.1000414863228797,-0.5503713488578796,-0.0223472379148006,0.0806585177779197,0.0,0.0,-0.9792799949645996,0.1187437772750854
-0.0200668331235647,0.8387592434883118,0.1029217839241027,-0.5611769556999207,-0.0182474181056022,0.0819964855909347,0.0,0.0,-0.9890040159225464,0.0676412582397461
-0.0189668647944927,0.8258886337280273,0.1057859510183334,-0.5719826221466064,-0.0140862138941884,0.0832240059971809,0.0,0.0,-0.9574775099754332,0.0245580673217773
-0.0178378112614154,0.8127751350402832,0.1086322665214538,-0.5827884078025818,-0.0098693696781992,0.084336832165718,0.0,0.0,-0.9870306849479676,0.0893146991729736
-0.0166800506412982,0.7994187474250793,0.1114588975906372,-0.5935942530632019,-0.0056028109975159,0.0853310599923133,0.0,0.0,-0.9778866171836852,0.0193073749542236
-0.0154937747865915,0.7858195900917053,0.1142638772726059,-0.6044000387191772,-0.001292644185014,0.0862030312418937,0.0,0.0,-0.9746538400650024,-0.158298909664154
-0.0142792705446481,0.7719773650169373,0.1170452013611793,-0.6152059435844421,0.0030548274517059,0.0869495496153831,0.0,0.0,-0.9822272658348083,-0.4413110017776489
-0.0130369188264012,0.7578925490379333,0.1198006868362426,-0.6260119080543518,0.0074332179501652,0.08756785094738,0.0,0.0,-0.9883084893226624,-0.2529946565628052
-0.0117671014741063,0.7435647249221802,0.1225280985236167,-0.6368178725242615,0.0118359979242086,0.0880555659532547,0.0,0.0,-0.9792654514312744,-0.4326976537704468
-0.0104700084775686,0.7289942502975464,0.1252250224351883,-0.6476238369941711,0.0162565410137176,0.0884108617901802,0.0,0.0,-0.983467698097229,-0.6075052618980408
-0.0091874124482274,0.7141830325126648,0.1227261573076248,-0.6583496928215027,0.0217214450240135,0.1092982292175293,0.0,0.0,-0.9876834750175476,-0.0349791646003723
-0.0078784944489598,0.699129045009613,0.1253543198108673,-0.6691566109657288,0.0271907281130552,0.109385535120964,0.0,0.0,-0.9615942239761353,0.0006282329559326
-0.0065436363220214,0.6838322877883911,0.1279438883066177,-0.6799634099006653,0.032657653093338,0.1093384400010109,0.0,0.0,-0.9689010977745056,0.5718309879302979
-0.0051401136443018,0.6682931780815125,0.1359368115663528,-0.6907364130020142,0.0370252728462219,0.087352454662323,0.0,0.0,-0.9737148880958556,0.1087627410888671
-0.0037117004394531,0.6525110602378845,0.1384400278329849,-0.7015422582626343,0.0413772277534008,0.0870389193296432,0.0,0.0,-0.970607042312622,-0.2324463129043579
-0.0022588730789721,0.6364860534667969,0.1408950984477996,-0.7123481035232544,0.0457069426774978,0.0865942686796188,0.0,0.0,-0.9611890912055968,0.0092929601669311
-0.0007823944324627,0.6202182769775391,0.1432985514402389,-0.7231538891792297,0.0500079840421676,0.0860207676887512,0.0,0.0,-0.965498387813568,0.2982945442199707
0.000717258430086,0.603707492351532,0.1456466615200042,-0.7339595556259155,0.0542740486562252,0.0853211283683776,0.0,0.0,-0.901267111301422,-0.2999507188796997
0.0022393227554857,0.58695387840271,0.147935539484024,-0.7447652816772461,0.0584989823400974,0.0844985544681549,0.0,0.0,-0.8274510502815247,-0.2109873294830322
0.0037832260131835,0.569957435131073,0.1501611322164535,-0.7555710077285767,0.0626768171787262,0.0835567489266395,0.0,0.0,-0.8243358731269836,-0.4384444952011108
0.0053481101058423,0.5527179837226868,0.1523192077875137,-0.7663764953613281,0.0668017864227294,0.0824996754527092,0.0,0.0,-0.4464470148086548,-0.0751677751541137
0.0069333077408373,0.5352357029914856,0.1544053256511688,-0.7771819233894348,0.0708683580160141,0.0813317745923996,0.0,0.0,0.5342676639556885,0.2103800773620605
0.0084775928407907,0.5186440944671631,0.1504118740558624,-0.737595796585083,0.0748402252793312,0.0794372037053108,0.0,0.0,-0.2243762016296386,-0.2728362083435058
0.0100403781980276,0.5018096566200256,0.152340292930603,-0.7484010457992554,0.0787433087825775,0.0780616924166679,0.0,0.0,0.1097129583358764,-0.6535515785217285
0.011606216430664,0.4851906597614288,0.1513168662786483,-0.7389081120491028,0.0839515775442123,0.1041654124855995,0.0,0.0,0.0442860126495361,-0.276570200920105
0.0130788804963231,0.4689032137393951,0.142449289560318,-0.7241629362106323,0.0887240469455719,0.0954493507742881,0.0,0.0,0.3959475755691528,-0.0568918585777282
0.0144207002595067,0.4530082941055298,0.1299550235271453,-0.7066971659660339,0.092912346124649,0.0837660133838653,0.0,0.0,-0.137916624546051,0.6393532752990723
0.0158257484436035,0.4368767142295837,0.13760706782341,-0.7171399593353271,0.0957855507731437,0.0574641413986682,0.0,0.0,0.591027021408081,-0.0276741981506347
0.017220115289092,0.4212726950645447,0.1365160197019577,-0.6937013864517212,0.0986841544508934,0.0579721629619598,0.0,0.0,0.3210444450378418,-0.1362963318824768
0.0187026020139455,0.4058702290058136,0.1449254304170608,-0.6847763061523438,0.1019720286130905,0.0657575130462646,0.0,0.0,0.3023407459259033,0.0847086906433105
0.0202177055180072,0.3910407721996307,0.1479458659887313,-0.6593367457389832,0.1055182963609695,0.070925161242485,0.0,0.0,0.1720697879791259,0.1923645734786987
0.0217002872377634,0.3768245577812195,0.1447050720453262,-0.632084310054779,0.1090467572212219,0.0705692619085311,0.0,0.0,-0.1251032948493957,0.0520511865615844
0.0231916420161724,0.3623653650283813,0.1456785947084427,-0.6428887844085693,0.1124724820256233,0.0685146078467369,0.0,0.0,0.1019158363342285,-0.2185521125793457
