x_pos,y_pos,x_vel,y_vel,angle,ang_vel,leg_1,leg_2,main_booster,lat_booster
-0.0015735626220703,1.4035234451293943,-0.1588002443313598,-0.3287448287010193,0.0012896105181425,0.0254034902900457,0.0,0.0,-0.3481439209019012,0.8272300787601672
-0.0031266212463378,1.3960448503494265,-0.1542364507913589,-0.3323827385902405,0.0002347340487176,-0.0210986100137233,0.0,0.0,-0.695521575607329,0.8555279392083706
-0.0046468735672533,1.388458490371704,-0.1483127176761627,-0.3371754288673401,-0.0034389446955174,-0.0734807401895523,0.0,0.0,-0.4221841138928051,-0.5749633337464743
-0.0062700272537767,1.3807696104049685,-0.1594064980745315,-0.3417419493198395,-0.006321323569864,-0.057652823626995,0.0,0.0,-0.9162210862373086,-0.9792031447902524
-0.0080021861940622,1.37298321723938,-0.1712384819984436,-0.3460689783096313,-0.0082691079005599,-0.0389591343700885,0.0,0.0,-0.4049423177240689,0.9556053209987172
-0.0096898078918457,1.365093469619751,-0.1638269424438476,-0.3506887853145599,-0.0131425866857171,-0.0974787771701812,0.0,0.0,-0.0800022760592951,-0.6088490797194526
-0.0114740375429391,1.3571040630340576,-0.174138531088829,-0.3551306426525116,-0.0173830017447471,-0.0848164185881614,0.0,0.0,0.2047555755680974,-0.5745729044965757
-0.0132215498015284,1.349721074104309,-0.171211689710617,-0.3281765282154083,-0.0208817645907402,-0.0699817240238189,0.0,0.0,0.6623805973435342,0.7173116005118825
-0.0149538042023777,1.3435064554214478,-0.1675689369440078,-0.2762909233570099,-0.0264765154570341,-0.1119053736329078,0.0,0.0,0.9442873268051526,0.7531409895202031
-0.0166499130427837,1.3384758234024048,-0.1617742925882339,-0.2237476706504821,-0.0342221707105636,-0.1549271643161773,0.0,0.0,0.4425287748394013,0.8013148933909151
-0.0182247161865234,1.3341162204742432,-0.1475084871053695,-0.1940152794122696,-0.0440943427383899,-0.1974616348743438,0.0,0.0,0.978667774669714,-0.963660201759804
-0.0197972301393747,1.3306018114089966,-0.1486930549144745,-0.1564628481864929,-0.0525575578212738,-0.1692799776792526,0.0,0.0,0.1456908278227384,0.5009386218791375
-0.0212480537593364,1.327706217765808,-0.1350558251142501,-0.1290760040283203,-0.0624917931854724,-0.1987031102180481,0.0,0.0,0.4995044471801368,-0.5965983278639448
-0.0226993560791015,1.325186252593994,-0.1357505321502685,-0.1124142110347747,-0.0717798173427581,-0.1857770979404449,0.0,0.0,0.1809757527969295,-0.5864442899461246
-0.0240830425173044,1.323447585105896,-0.1296753585338592,-0.077713631093502,-0.0804058611392974,-0.1725366711616516,0.0,0.0,0.1809129936236411,0.6835890966477871
-0.0253478996455669,1.3219021558761597,-0.1158229932188987,-0.0692885741591453,-0.0909857526421547,-0.2116173058748245,0.0,0.0,-0.5980359653769209,-0.5033104054621454
-0.0266811363399028,1.320268154144287,-0.1227274686098098,-0.0733047872781753,-0.1015119552612304,-0.2105427682399749,0.0,0.0,-0.0417407454728362,0.6218768618332584
-0.0279915817081928,1.3185211420059204,-0.1181883439421653,-0.0785624086856842,-0.1142987161874771,-0.2557583749294281,0.0,0.0,-0.8055215530498443,0.8276200536476859
-0.0292620658874511,1.31667160987854,-0.1115538701415062,-0.0834578499197959,-0.1297299116849899,-0.3086515963077545,0.0,0.0,-0.8990739200814197,0.6561806876049916
-0.0305229183286428,1.3147168159484863,-0.1087368577718734,-0.088481992483139,-0.1470336467027664,-0.3461063206195831,0.0,0.0,-0.4899645130057564,0.5036147673774198
-0.0317689888179302,1.312659740447998,-0.1053651943802833,-0.0934424549341201,-0.1662988066673278,-0.3853380680084228,0.0,0.0,0.2263273137249475,0.5737557735478498
-0.0329393371939659,1.3109774589538574,-0.0959554687142372,-0.0772630348801612,-0.1874447017908096,-0.4229562282562256,0.0,0.0,0.4324665059478376,0.9398634721105618
-0.0338531509041786,1.309840202331543,-0.0679116621613502,-0.0536924451589584,-0.2111124396324157,-0.4733974039554596,0.0,0.0,-0.3319780539794335,0.9236542208754676
-0.034718133509159,1.3085763454437256,-0.0603441409766674,-0.0601334124803543,-0.2376175671815872,-0.5301503539085388,0.0,0.0,0.9976929595602996,-0.7517610248989067
-0.0356652252376079,1.3084454536437988,-0.0690418630838394,-0.0101793268695473,-0.2638027667999267,-0.523750901222229,0.0,0.0,-0.0988636494427619,0.5459501596105982
-0.0366107933223247,1.308194279670715,-0.0674586743116378,-0.0162740312516689,-0.2915904521942138,-0.5557534694671631,0.0,0.0,0.9382319271093276,0.7983646148359655
-0.0372705459594726,1.3090559244155884,-0.036828339099884,0.0321709029376506,-0.3217571675777435,-0.6033347845077515,0.0,0.0,-0.2140737285325469,-0.6822432554234238
-0.0380144119262695,1.3098684549331665,-0.0464197136461734,0.0296230278909206,-0.3509968817234039,-0.5847943425178528,0.0,0.0,0.5520262901614508,0.7375900754358571
-0.0386013016104698,1.3116657733917236,-0.0286386553198099,0.0722093507647514,-0.3827603161334991,-0.6352686882019043,0.0,0.0,0.7569288670945142,0.7080547671581245
-0.0389863960444927,1.3140804767608645,-0.0067064501345157,0.0984073653817176,-0.416821151971817,-0.681216835975647,0.0,0.0,-0.5288962752649555,0.5765326082998046
-0.0393452644348144,1.3163909912109375,-0.0027205520309507,0.0924680233001709,-0.4528908133506775,-0.7213937640190125,0.0,0.0,-0.8852015137672424,-0.9925365447998048
-0.0398013107478618,1.3186721801757812,-0.0143999904394149,0.090866133570671,-0.487413614988327,-0.6904564499855042,0.0,0.0,-0.9666528701782228,-0.9975204467773438
-0.0403481498360633,1.3209412097930908,-0.0254551470279693,0.0901433601975441,-0.5203253626823425,-0.6582352519035339,0.0,0.0,-0.9134276509284972,-0.9900279641151428
-0.0409865379333496,1.323182225227356,-0.036469105631113,0.0887996107339859,-0.551723837852478,-0.627970814704895,0.0,0.0,-0.9614511132240297,-0.9900460839271544
-0.0417015068233013,1.3253990411758425,-0.0457180999219417,0.087627537548542,-0.5818589925765991,-0.6027028560638428,0.0,0.0,-0.7297670841217041,-0.9789626002311708
-0.0424878112971782,1.3275971412658691,-0.0543953664600849,0.0867675840854644,-0.6107401847839355,-0.577623724937439,0.0,0.0,-0.5547183752059937,-0.9792003631591796
-0.0433525070548057,1.329773187637329,-0.0638653710484504,0.0858832746744155,-0.6382201313972473,-0.5495991110801697,0.0,0.0,-0.5657328963279724,-0.9572012424468994
-0.0442806258797645,1.3319300413131714,-0.0715873762965202,0.0851074233651161,-0.664537787437439,-0.5263528227806091,0.0,0.0,-0.9096174836158752,-0.9806368947029114
-0.0452774986624717,1.3340823650360107,-0.0800739154219627,0.085184670984745,-0.6893525123596191,-0.4962942004203796,0.0,0.0,-0.668004035949707,-0.9382784962654114
-0.0463361740112304,1.33621346950531,-0.0875415354967117,0.084425039589405,-0.7130007743835449,-0.4729657173156738,0.0,0.0,-0.7685097455978394,-0.655876100063324
-0.0474454872310161,1.3383183479309082,-0.093671441078186,0.0833915770053863,-0.7357354760169983,-0.4546941816806793,0.0,0.0,-0.4943474531173706,-0.8864624500274658
-0.0486034378409385,1.3403875827789309,-0.0994288772344589,0.0818951502442359,-0.7577121257781982,-0.4395325183868408,0.0,0.0,-0.849073052406311,-0.745981752872467
-0.0498065948486328,1.3424112796783447,-0.104711428284645,0.0799141898751258,-0.779111921787262,-0.4279956817626953,0.0,0.0,-0.5824227333068848,-0.8335350155830383
-0.0510543808341026,1.3444008827209473,-0.110023632645607,0.078540451824665,-0.7997583746910095,-0.4129295349121094,0.0,0.0,-0.32003915309906,-0.5909803509712219
-0.0523441322147846,1.3463481664657593,-0.1149585098028183,0.0767614021897316,-0.8198016881942749,-0.4008659422397613,0.0,0.0,-0.5241067409515381,-0.8416277766227722
-0.053683090955019,1.3482656478881836,-0.1208091005682945,0.0757099613547325,-0.838905930519104,-0.3820848166942596,0.0,0.0,-0.649821937084198,-0.8571105599403381
-0.0550673492252826,1.3501558303833008,-0.1262485682964325,0.074813388288021,-0.8570730090141296,-0.3633417189121246,0.0,0.0,-0.6020980477333069,-0.646950900554657
-0.0564896576106548,1.3520267009735107,-0.1309203803539276,0.0743100717663765,-0.8742809891700745,-0.344159871339798,0.0,0.0,-0.510222315788269,-0.7122225761413574
-0.0579538345336914,1.353887677192688,-0.1361085474491119,0.0743596702814102,-0.8902913331985474,-0.3202071785926819,0.0,0.0,-0.3769142627716064,-0.5326573252677917
-0.059447668492794,1.355705976486206,-0.1395397335290908,0.0726056322455406,-0.9058437347412108,-0.3110479414463043,0.0,0.0,-0.5823708772659302,-0.4308542013168335
-0.0609428398311138,1.357433795928955,-0.1393826603889465,0.0680467337369918,-0.9222070574760436,-0.3272660672664642,0.0,0.0,-0.7509846687316895,-0.2674393057823181
-0.0624387748539447,1.3590716123580933,-0.1391844749450683,0.0634861066937446,-0.9393808841705322,-0.3434780240058899,0.0,0.0,-0.8130484223365784,-0.2819197177886963
-0.0639345198869705,1.360619306564331,-0.1389504671096801,0.0589237362146377,-0.9573649168014526,-0.3596809506416321,0.0,0.0,-0.6478946805000305,-0.3555681109428406
-0.0654295906424522,1.362077236175537,-0.1386860609054565,0.0543596483767032,-0.9761584997177124,-0.3758720159530639,0.0,0.0,-0.3365257978439331,-0.7128955125808716
-0.0669479370117187,1.3634947538375854,-0.141542837023735,0.0526820085942745,-0.9945048689842224,-0.3669276535511017,0.0,0.0,-0.5312911868095398,-0.2587814331054687
-0.0684646591544151,1.3648228645324707,-0.1412290781736374,0.0481168255209922,-1.0136592388153076,-0.383087694644928,0.0,0.0,-0.5112457871437073,0.1533371210098266
-0.0699790939688682,1.3660616874694824,-0.1409012526273727,0.0435500890016555,-1.0336205959320068,-0.3992266952991485,0.0,0.0,-0.4262350797653198,0.0413870811462402
-0.0714906677603721,1.3672113418579102,-0.1405650675296783,0.0389818586409091,-1.0543876886367798,-0.415341317653656,0.0,0.0,-0.5432447195053101,0.1261185407638549
-0.0729990974068641,1.3682721853256226,-0.140226274728775,0.0344122089445591,-1.0759589672088623,-0.4314280450344085,0.0,0.0,-0.6901904940605164,-0.192902386188507
-0.0745037049055099,1.3692445755004885,-0.1398907303810119,0.0298412460833787,-1.0983330011367798,-0.4474831223487854,0.0,0.0,-0.4782789945602417,-0.3219690322875976
-0.0760040283203125,1.370128154754639,-0.1395642608404159,0.025269079953432,-1.1215081214904783,-0.4635027348995209,0.0,0.0,-0.0946383476257324,0.0646777153015136
-0.0774996727705001,1.370923638343811,-0.1392528116703033,0.0206958446651697,-1.145482301712036,-0.4794828295707702,0.0,0.0,-0.3767024278640747,-0.4049791097640991
-0.0789902657270431,1.371631145477295,-0.1389622837305069,0.0161217004060745,-1.1702532768249512,-0.4954190850257873,0.0,0.0,-0.3536133766174316,0.1601371765136718
-0.0804755240678787,1.3722503185272217,-0.1386986076831817,0.0115468176081776,-1.1958186626434326,-0.511306881904602,0.0,0.0,-0.5424491763114929,0.2594220638275146
-0.0819549560546875,1.3727816343307495,-0.1384677737951278,0.0069714067503809,-1.2221757173538208,-0.5271412134170532,0.0,0.0,-0.1797916293144226,0.1721060276031494
-0.0834283828735351,1.3732249736785889,-0.1382756978273391,0.0023956897202879,-1.249321460723877,-0.5429170727729797,0.0,0.0,-0.162352979183197,0.17914879322052
-0.0848958045244216,1.3735800981521606,-0.1381283104419708,-0.0021800824906677,-1.2772529125213623,-0.5586286783218384,0.0,0.0,-0.2443617582321167,0.2137948274612426
-0.086356833577156,1.3738473653793335,-0.1380315124988556,-0.0067556309513747,-1.3059663772583008,-0.5742701292037964,0.0,0.0,-0.5109124779701233,0.2437011003494262
-0.0878110900521278,1.3740265369415283,-0.1379912048578262,-0.0113306529819965,-1.3354581594467163,-0.5898350477218628,0.0,0.0,-0.3991902470588684,0.4980870485305786
-0.0892586708068847,1.3741172552108765,-0.1380131691694259,-0.015904838219285,-1.365723967552185,-0.6053162217140198,0.0,0.0,-0.1456629633903503,0.3960558176040649
-0.090699478983879,1.374119520187378,-0.138103187084198,-0.0204778257757425,-1.396759271621704,-0.6207063794136047,0.0,0.0,-0.5946273803710938,0.5963774919509888
-0.0921240821480751,1.3739640712738037,-0.1371083706617355,-0.0291542597115039,-1.4301249980926514,-0.6673144102096558,0.0,0.0,-0.4718288779258728,0.609879732131958
-0.093531034886837,0.0,-0.1362419128417968,-0.036845427006483,-1.465446710586548,-0.7064369916915894,0.0,0.0,-0.5733845829963684,0.2892589569091797
-0.094929501414299,1.373281717300415,-0.1365936845541,-0.0414142161607742,-1.5015212297439575,-0.7214895486831665,0.0,0.0,-0.4627116918563843,0.1748806238174438
-0.0963194817304611,1.372805953025818,-0.1370365172624588,-0.045979369431734,-1.5383418798446655,-0.736413836479187,0.0,0.0,-0.7661447525024414,0.7472822666168213
-0.0977037400007247,1.372146487236023,-0.1378323286771774,-0.0560915470123291,-1.5779937505722046,-0.7930382490158081,0.0,0.0,-0.6958286762237549,0.3814818859100342
-0.0990782752633094,1.3713951110839844,-0.1384931206703186,-0.0606478564441204,-1.6183767318725586,-0.8076584935188293,0.0,0.0,-0.7806568741798401,0.458924651145935
-0.1004435569047927,1.370551586151123,-0.1392604857683181,-0.0651980265974998,-1.6594823598861694,-0.8221135139465332,0.0,0.0,-0.6844932436943054,0.5976910591125488
-0.1017992943525314,1.3695380687713623,-0.1403421014547348,-0.0742600038647651,-1.7030038833618164,-0.8704301714897156,0.0,0.0,-0.7173154354095459,0.6753222942352295
-0.1031453162431716,1.3683674335479736,-0.1416297852993011,-0.0824643671512603,-1.748608946800232,-0.9121004939079284,0.0,0.0,-0.7062756419181824,0.5608967542648315
-0.1044898033142089,1.367052435874939,-0.1439354121685028,-0.089830532670021,-1.796002745628357,-0.9478774070739746,0.0,0.0,-0.9278459548950196,0.3007217645645141
-0.1058229431509971,1.3656378984451294,-0.1452191174030304,-0.0943420454859733,-1.8440767526626587,-0.9614814519882202,0.0,0.0,-0.8836814165115356,0.8558588027954102
-0.1071592345833778,1.3640451431274414,-0.1485539078712463,-0.1034071445465087,-1.8945813179016116,-1.0100939273834229,0.0,0.0,-0.9174755215644836,0.7835071086883545
-0.1084983795881271,1.3622713088989258,-0.1521709710359573,-0.1124338209629058,-1.947495937347412,-1.058294415473938,0.0,0.0,-0.962829887866974,0.6042220592498779
-0.109839342534542,1.3603270053863523,-0.1558712124824524,-0.1206146404147148,-2.0024993419647217,-1.1000667810440063,0.0,0.0,-0.9468613266944884,0.5427200794219971
-0.1111871749162674,1.3582074642181396,-0.160328596830368,-0.1288146078586578,-2.059628963470459,-1.1425902843475342,0.0,0.0,-0.9658207297325134,0.6405907869338989
-0.1125494018197059,1.355908989906311,-0.1658422350883484,-0.1370112299919128,-2.118948459625244,-1.186394453048706,0.0,0.0,-0.9854607582092284,0.5497162342071533
-0.1139262169599533,1.3534311056137085,-0.1715471148490905,-0.1449092030525207,-2.180349111557007,-1.2280161380767822,0.0,0.0,-0.9840127825737,0.4608584642410278
-0.1152914017438888,1.350829005241394,-0.1738781630992889,-0.1492687314748764,-2.2423112392425537,-1.2392460107803345,0.0,0.0,-0.98510080575943,0.5877127647399902
-0.1166832000017166,1.348036527633667,-0.1810678094625473,-0.1572472602128982,-2.3064780235290527,-1.2833398580551147,0.0,0.0,-0.992048978805542,0.6430742740631104
-0.1180961579084396,1.3450525999069214,-0.1877159029245376,-0.1648283004760742,-2.37261962890625,-1.3228366374969482,0.0,0.0,-0.9920982122421264,0.1426839828491211
-0.1195020675659179,1.341929912567139,-0.1904806643724441,-0.1690952628850937,-2.439250230789185,-1.332616090774536,0.0,0.0,-0.99602609872818,0.276099681854248
-0.1209041625261306,1.3386647701263428,-0.1933721303939819,-0.1733375191688537,-2.506343126296997,-1.341862678527832,0.0,0.0,-0.9963103532791138,0.3670933246612549
-0.1223052963614463,1.3352532386779783,-0.1963880211114883,-0.1775558590888977,-2.5738699436187744,-1.350541114807129,0.0,0.0,-0.9973395466804504,0.5374875068664551
-0.1237418204545974,1.331661820411682,-0.2036966383457183,-0.1834438145160675,-2.642848253250122,-1.3795732259750366,0.0,0.0,-0.998497486114502,0.2482073307037353
-0.1251845359802246,1.3279157876968384,-0.2069625556468963,-0.1876073032617569,-2.712197542190552,-1.3869898319244385,0.0,0.0,-0.9979938864707948,0.1291265487670898
-0.1266373693943023,1.3240119218826294,-0.2103430777788162,-0.1917502433061599,-2.781883955001831,-1.3937336206436155,0.0,0.0,-0.9987396001815796,0.4710251092910766
-0.1281045973300933,1.3199477195739746,-0.2138350456953048,-0.1958745867013931,-2.851872205734253,-1.3997714519500732,0.0,0.0,-0.9983001351356506,0.1180702447891235
-0.1295908987522125,1.315720558166504,-0.2174352705478668,-0.1999825686216354,-2.922125577926636,-1.4050719738006592,0.0,0.0,-0.9990435242652892,0.4065382480621338
-0.1311009377241134,1.311329007148743,-0.2211406677961349,-0.2040766179561615,-2.992605686187744,-1.4096064567565918,0.0,0.0,-0.999121904373169,0.1906992197036743
-0.1326394975185394,1.3067710399627686,-0.2249480932950973,-0.2081594467163086,-3.0632729530334477,-1.41334867477417,0.0,0.0,-0.9993374347686768,0.405522346496582
-0.1342115402221679,1.302045822143555,-0.2288546562194824,-0.2122338861227035,-3.1340866088867188,-1.416276216506958,0.0,0.0,-0.999573051929474,0.6615135669708252
-0.1358642578125,1.297150731086731,-0.2381549179553985,-0.2163590788841247,-3.2060658931732178,-1.439589500427246,0.0,0.0,-0.9995800852775574,0.693681001663208
-0.1376014649868011,1.2920901775360107,-0.2474022656679153,-0.2201218754053115,-3.2791428565979004,-1.4615448713302612,0.0,0.0,-0.9996367692947388,0.4997695684432983
-0.13938769698143,1.2868582010269165,-0.2515857517719269,-0.2241640836000442,-3.3522372245788574,-1.4618908166885376,0.0,0.0,-0.9997010827064514,0.6884760856628418
-0.141285702586174,1.2814792394638062,-0.2631425261497497,-0.2268988788127899,-3.4268367290496826,-1.4919928312301636,0.0,0.0,-0.9997310638427734,0.4408468008041382
-0.143243595957756,1.2759283781051636,-0.2674882113933563,-0.2309350371360778,-3.501365423202514,-1.4905822277069092,0.0,0.0,-0.9997912645339966,0.536454439163208
-0.1453058272600174,1.2702245712280271,-0.2768202424049377,-0.2339648902416229,-3.576835870742798,-1.5094139575958252,0.0,0.0,-0.9998555779457092,0.5225534439086914
-0.1474864929914474,1.2643773555755615,-0.28731569647789,-0.2364540696144104,-3.65348744392395,-1.5330339670181274,0.0,0.0,-0.9998400807380676,0.5678695440292358
-0.1497875154018402,1.258397936820984,-0.2974289059638977,-0.2384326606988906,-3.7312920093536377,-1.5561017990112305,0.0,0.0,-0.9998952150344848,0.4982185363769531
-0.1521705687046051,1.2522528171539309,-0.3020506501197815,-0.2424962669610977,-3.808854579925537,-1.5512545108795166,0.0,0.0,-0.9999150037765504,0.5791482925415039
-0.1546818763017654,1.2459874153137207,-0.3119422793388366,-0.2441468387842178,-3.8875226974487305,-1.573367953300476,0.0,0.0,-0.9999114274978638,0.4919271469116211
-0.1572851240634918,1.2395637035369873,-0.316692590713501,-0.2482547312974929,-3.9658687114715576,-1.5669267177581787,0.0,0.0,-0.9999195337295532,0.7487921714782715
-0.1600168198347091,1.233035922050476,-0.3256191611289978,-0.2495245933532714,-4.045209884643555,-1.586823344230652,0.0,0.0,-0.9999245405197144,0.612930178642273
-0.1628720313310623,1.2264034748077393,-0.3333902359008789,-0.2511278986930847,-4.125273704528809,-1.601273536682129,0.0,0.0,-0.9999341368675232,0.7136914730072021
-0.1658624708652496,1.2196927070617676,-0.3421079218387604,-0.2515042722225189,-4.206525802612305,-1.6250503063201904,0.0,0.0,-0.9999477863311768,0.7767128944396973
-0.1689931899309158,1.2129243612289429,-0.3509288430213928,-0.2509854733943939,-4.289251804351807,-1.6545250415802002,0.0,0.0,-0.9999500513076782,0.9217067956924438
-0.1722702980041504,1.2061415910720823,-0.3600451052188873,-0.2482846826314926,-4.374210834503174,-1.6991899013519287,0.0,0.0,-0.9999666213989258,0.9254727363586426
-0.1756995171308517,1.1993451118469238,-0.3689210712909698,-0.2458878308534622,-4.46127462387085,-1.7412831783294678,0.0,0.0,-0.9999640583992004,0.9439396858215332
-0.1792809516191482,1.192534327507019,-0.3770263791084289,-0.2439851760864257,-4.550206661224365,-1.778653860092163,0.0,0.0,-0.9999752640724182,0.9671063423156738
