x_pos,y_pos,x_vel,y_vel,angle,ang_vel,leg_1,leg_2,main_booster,lat_booster
-0.0015296936035156,1.403299331665039,-0.1543255001306533,-0.3387064337730407,0.0012082578614354,0.0237931665033102,0.0,0.0,-0.1248747110366821,0.7420816421508789
-0.0030028342735022,1.3953728675842283,-0.1463238000869751,-0.3522890508174896,0.0002214737905887,-0.0197368953377008,0.0,0.0,0.205862283706665,0.4093179702758789
-0.0043857572600245,1.3875627517700195,-0.1371840834617614,-0.34710893034935,-0.000869451847393,-0.0218207444995641,0.0,0.0,-0.2203178405761718,-0.6407919526100159
-0.0058365822769701,1.3794255256652832,-0.1449285894632339,-0.361660897731781,-0.0010189984459429,-0.0029910583980381,0.0,0.0,0.1652841567993164,0.8139762878417969
-0.0071264267899096,1.3716551065444946,-0.1267061978578567,-0.3453516364097595,-0.0032662355806678,-0.0449490621685981,0.0,0.0,-0.3598154783248901,0.7055199146270752
-0.0083566661924123,1.363558292388916,-0.1184355169534683,-0.3598777055740356,-0.0078065409325063,-0.0908146873116493,0.0,0.0,-0.5359873175621033,-0.0139535665512084
-0.0095960618928074,1.3551366329193115,-0.1187587976455688,-0.3743328154087066,-0.0129282567650079,-0.1024436205625534,0.0,0.0,-0.4791485667228699,-0.2436833381652832
-0.0108450893312692,1.3463902473449707,-0.1191372126340866,-0.3887905180454254,-0.0186337605118751,-0.114120565354824,0.0,0.0,-0.2027429938316345,0.2700655460357666
-0.0121044162660837,1.337319254875183,-0.1195722594857215,-0.4032496213912964,-0.0249239318072795,-0.1258147954940796,0.0,0.0,0.1800259351730346,-0.338008165359497
-0.0133623126894235,1.328701734542847,-0.1188251972198486,-0.3831316232681274,-0.0318022966384887,-0.1375803500413894,0.0,0.0,-0.2654401063919067,0.376101016998291
-0.014631557278335,1.3197598457336426,-0.1193784475326538,-0.3975990414619446,-0.0392667986452579,-0.1493037939071655,0.0,0.0,-0.0785127282142639,-0.0691768527030944
-0.015912914648652,1.31049382686615,-0.1199927702546119,-0.4120588600635528,-0.0473177954554557,-0.1610346138477325,0.0,0.0,-0.1489409804344177,-0.3223904967308044
-0.0172068588435649,1.3009036779403689,-0.1206700354814529,-0.4265215992927551,-0.0559552684426307,-0.1727655380964279,0.0,0.0,-0.4069544672966003,-0.4530390501022339
-0.0185141563415527,1.290989875793457,-0.1214114800095558,-0.4409861266613006,-0.0651789978146553,-0.1844915896654129,0.0,0.0,-0.4770402908325195,0.2702374458312988
-0.0198352821171283,1.2807525396347046,-0.1222182065248489,-0.4554521441459656,-0.0749884620308876,-0.1962074786424636,0.0,0.0,-0.1408851146697998,-0.028676688671112
-0.0211709979921579,1.2701919078826904,-0.1230912432074546,-0.4699198007583618,-0.0853828787803649,-0.2079071700572967,0.0,0.0,-0.0260934233665466,-0.5312514901161194
-0.0225537307560443,1.2593181133270264,-0.1280401051044464,-0.4838849604129791,-0.0955444499850273,-0.2032496631145477,0.0,0.0,-0.5166070461273193,-0.6378659605979919
-0.0239909179508686,1.2481213808059692,-0.1338885724544525,-0.4982882440090179,-0.1053216829895973,-0.1955618858337402,0.0,0.0,-0.3994871973991394,-0.3900557160377502
-0.0254447944462299,0.0,-0.1349703818559646,-0.5127585530281067,-0.1156804114580154,-0.207193449139595,0.0,0.0,-0.2917582988739013,-0.1443829536437988
-0.0269158370792865,1.224758863449097,-0.136120930314064,-0.5272303223609924,-0.1266184151172638,-0.2187793254852295,0.0,0.0,-0.0102975368499755,-0.7148574590682983
-0.0284483917057514,0.0,-0.1428395807743072,-0.5410036444664001,-0.1370073556900024,-0.2077976167201995,0.0,0.0,-0.0088084936141967,-0.6544924378395081
-0.0300500877201557,1.2001385688781738,-0.1504710912704467,-0.5550612807273865,-0.1466924101114273,-0.1937184482812881,0.0,0.0,-0.3677529096603393,0.0385959148406982
-0.0316709503531456,1.187347412109375,-0.1518361270427703,-0.5695346593856812,-0.1569505482912063,-0.20518159866333,0.0,0.0,0.4150785207748413,-0.7956563830375671
-0.0332667343318462,1.1746199131011963,-0.1504436731338501,-0.566659688949585,-0.1660983562469482,-0.1829720288515091,0.0,0.0,0.2837505340576172,-0.5565066337585449
-0.0349627509713172,1.1623512506484983,-0.1607743203639984,-0.5462766885757446,-0.1749473959207534,-0.1769965291023254,0.0,0.0,0.602542519569397,-0.5450607538223267
-0.0367552749812603,1.150801181793213,-0.1705689579248428,-0.5143861174583435,-0.1836559623479843,-0.1741710007190704,0.0,0.0,-0.1286307573318481,0.1421632766723632
-0.0385699272155761,1.1389282941818235,-0.1722404658794403,-0.5288554430007935,-0.1929263174533844,-0.185407817363739,0.0,0.0,-0.0980902910232544,-0.1871949434280395
-0.040407370775938,1.1267328262329102,-0.1739812195301056,-0.5433257818222046,-0.2027549594640731,-0.196572408080101,0.0,0.0,0.4436246156692505,-0.4865342378616333
-0.0422435775399208,1.1152437925338743,-0.1728046834468841,-0.512140691280365,-0.2136653810739517,-0.2182085067033767,0.0,0.0,-0.2976530790328979,-0.7607568502426147
-0.0441648475825786,1.1034495830535889,-0.1823635995388031,-0.5256338119506836,-0.2235440462827682,-0.1975734233856201,0.0,0.0,-0.2322583794593811,-0.3318294882774353
-0.0461108200252056,1.0913331508636477,-0.1843060404062271,-0.5401064157485962,-0.2339685559272766,-0.208490565419197,0.0,0.0,0.2127151489257812,-0.2155376076698303
-0.0480628013610839,1.0793838500976562,-0.1841495335102081,-0.5328781604766846,-0.2451984286308288,-0.2245970517396927,0.0,0.0,-0.7196027040481567,-0.489365816116333
-0.0500404350459575,1.0671128034591677,-0.1862212568521499,-0.5473537445068359,-0.2569645345211029,-0.235321968793869,0.0,0.0,-0.7768205404281616,-0.8590076565742493
-0.0521182045340538,1.054540753364563,-0.1976134926080703,-0.5605674982070923,-0.2673473954200744,-0.2076568603515625,0.0,0.0,-0.4682619571685791,-0.4624984264373779
-0.0542226806282997,1.041646957397461,-0.199807658791542,-0.575042188167572,-0.2782557904720306,-0.2181681394577026,0.0,0.0,-0.8903467655181885,-0.5180615186691284
-0.0563917160034179,1.0284513235092163,-0.2067898064851761,-0.5884381532669067,-0.2886612713336944,-0.2081097364425659,0.0,0.0,-0.8922520875930786,-0.8062245845794678
-0.0586530677974224,1.0149580240249634,-0.2171913832426071,-0.6015032529830933,-0.2978756427764892,-0.1842876374721527,0.0,0.0,0.3862725496292114,-0.6777540445327759
-0.0607713684439659,1.0020711421966553,-0.2038283050060272,-0.5744116306304932,-0.3061530590057373,-0.1655480712652206,0.0,0.0,-0.1405715346336364,-0.9517685174942015
-0.0629925727844238,0.9889078736305236,-0.2156422585248947,-0.5864117741584778,-0.3128554821014404,-0.1340484470129013,0.0,0.0,0.2949389219284057,-0.92224782705307
-0.0651408210396766,0.9761247038841248,-0.2097243517637252,-0.569253146648407,-0.3181563019752502,-0.1060163527727127,0.0,0.0,0.7521357536315918,-0.8993425965309143
-0.067245677113533,0.9642943739891052,-0.2064985036849975,-0.5266708731651306,-0.3222992420196533,-0.0828592106699943,0.0,0.0,0.9231750965118408,-0.8474264144897461
-0.0691020935773849,0.9529632925987244,-0.1831652075052261,-0.5041651129722595,-0.324883222579956,-0.0516795516014099,0.0,0.0,-0.0247132778167724,-0.7139073014259338
-0.0710355788469314,0.9413239359855652,-0.1915861219167709,-0.5176994800567627,-0.3267240822315216,-0.0368167385458946,0.0,0.0,0.6017374992370605,-0.8778344392776489
-0.0727995857596397,0.9300692081451416,-0.176045149564743,-0.500288188457489,-0.3270867168903351,-0.0072529464960098,0.0,0.0,-0.0084588527679443,-0.5287644863128662
-0.0746382698416709,0.9185065627098083,-0.184194341301918,-0.5138176083564758,-0.3267572224140167,0.0065897242166101,0.0,0.0,0.7226589918136597,-0.6320886015892029
-0.0763965621590614,0.9071086645126344,-0.1770635247230529,-0.5062926411628723,-0.3254656791687011,0.0258309133350849,0.0,0.0,0.700218677520752,-0.7874231934547424
-0.0780339241027832,0.8960336446762085,-0.1662268489599228,-0.4916674196720123,-0.3228791356086731,0.0517309382557868,0.0,0.0,0.4842166900634765,-0.6682999730110168
-0.0796193107962608,0.8857852816581726,-0.1617301702499389,-0.4547737538814544,-0.319559246301651,0.0663978233933448,0.0,0.0,0.3525680303573608,-0.697603166103363
-0.0811999291181564,0.8762210607528687,-0.1620495021343231,-0.4242028594017029,-0.3154146373271942,0.082891896367073,0.0,0.0,0.1135302782058715,-0.5722733736038208
-0.0827651992440223,0.8668491840362549,-0.1612313538789749,-0.4155139029026031,-0.3105362355709076,0.0975680947303772,0.0,0.0,0.3795075416564941,-0.2431246638298034
-0.0841037780046463,0.8577800393104553,-0.1387185752391815,-0.4020389318466186,-0.3054997026920318,0.1007299646735191,0.0,0.0,-0.55699223279953,-0.5948815941810608
-0.0855237022042274,0.8484145998954773,-0.1477752029895782,-0.4150383770465851,-0.2995173335075378,0.1196476444602012,0.0,0.0,-0.4123728275299072,0.2115204334259033
-0.0869770050048828,0.8387259244918823,-0.150765374302864,-0.429504930973053,-0.2939092218875885,0.1121620759367942,0.0,0.0,-0.6918941736221313,-0.5550993084907532
-0.0885045081377029,0.8287374973297119,-0.1589352786540985,-0.4426932334899902,-0.2875366806983948,0.1274503767490387,0.0,0.0,-0.8943568468093872,0.3383361101150512
-0.0900657624006271,0.8184256553649902,-0.1619800180196762,-0.4571593105792999,-0.2815157175064087,0.1204192042350769,0.0,0.0,-0.9211885929107666,0.1130005121231079
-0.0916609764099121,0.8077903985977173,-0.1650494635105133,-0.4716245234012604,-0.2758345901966095,0.1136223077774047,0.0,0.0,-0.9510716199874878,0.1348187923431396
-0.0932902321219444,0.7968315482139587,-0.1681420803070068,-0.4860890209674835,-0.2704814076423645,0.1070638671517372,0.0,0.0,-0.7551720142364502,-0.5242604613304138
-0.0949838608503341,0.7855636477470398,-0.1750871390104293,-0.4997465014457702,-0.2646232545375824,0.1171621829271316,0.0,0.0,-0.8333652019500732,-0.5000930428504944
-0.0967440605163574,0.7739906907081604,-0.1823325753211975,-0.513230562210083,-0.2581771910190582,0.1289213746786117,0.0,0.0,-0.9556111097335817,0.2630467414855957
-0.0985385924577713,0.7620939612388611,-0.1854865252971649,-0.5276945233345032,-0.252022236585617,0.1230993270874023,0.0,0.0,-0.9298072457313538,-0.5158352255821228
-0.1004043594002723,0.7498831152915955,-0.1932721138000488,-0.541571319103241,-0.2451957464218139,0.136529728770256,0.0,0.0,-0.8048537969589233,0.4650506973266601
-0.1023043617606163,0.7373484373092651,-0.1964596807956695,-0.5560348629951477,-0.2386350780725479,0.1312134116888046,0.0,0.0,-0.4590981602668762,-0.6828063130378723
-0.1042806655168533,0.7245034575462341,-0.2049272060394287,-0.5697227716445923,-0.2312337607145309,0.1480267643928527,0.0,0.0,-0.8029472231864929,-0.0282914042472839
-0.1062913909554481,0.7113345861434937,-0.2081428468227386,-0.5841862559318542,-0.2240727394819259,0.1432203948497772,0.0,0.0,0.4573298692703247,-0.010620892047882
-0.1082512885332107,0.6983566880226135,-0.2028711587190628,-0.5757635235786438,-0.217107281088829,0.1393094360828399,0.0,0.0,0.2075583934783935,0.1043299436569213
-0.1102408394217491,0.685716986656189,-0.2052241116762161,-0.5608646869659424,-0.2107749730348587,0.1266465336084365,0.0,0.0,-0.6635761857032776,-0.5602446794509888
-0.1123054474592208,0.6727727055549622,-0.2136275321245193,-0.5742934346199036,-0.2035528868436813,0.1444418877363205,0.0,0.0,-0.5453065037727356,0.6075233221054077
-0.1143521293997764,0.6594806909561157,-0.2102643698453903,-0.589995265007019,-0.1979126632213592,0.112804114818573,0.0,0.0,-0.3073967695236206,-0.0858719944953918
-0.1164331436157226,0.6458643674850464,-0.2135250866413116,-0.6044551730155945,-0.1924488246440887,0.1092767491936683,0.0,0.0,-0.1849072575569152,0.254395842552185
-0.1185482963919639,0.6319236159324646,-0.2167907655239105,-0.6189146041870117,-0.187148779630661,0.1060009002685546,0.0,0.0,0.2994506359100342,0.2184336185455322
-0.1206694617867469,0.6184633374214172,-0.2169132232666015,-0.59763503074646,-0.1823341399431228,0.0962927863001823,0.0,0.0,0.5399603843688965,0.3045495748519897
-0.1226912513375282,0.6055263876914978,-0.2069764584302902,-0.5743920803070068,-0.1775258928537368,0.0961648747324943,0.0,0.0,-0.5877668261528015,0.161151647567749
-0.1247470825910568,0.5922648906707764,-0.2102488577365875,-0.588850200176239,-0.1728446185588836,0.0936256200075149,0.0,0.0,0.5168837308883667,0.6099965572357178
-0.1266258209943771,0.5794306993484497,-0.1913696527481079,-0.5700051784515381,-0.1693380028009414,0.0701318904757499,0.0,0.0,-0.325102686882019,0.3615052700042724
-0.1285381317138672,0.5662717223167419,-0.1946392804384231,-0.58446204662323,-0.1659348160028457,0.0680637210607528,0.0,0.0,0.5474286079406738,0.7079846858978271
-0.130310446023941,0.5531995296478271,-0.1792520582675933,-0.5807584524154663,-0.1639115810394287,0.0404645875096321,0.0,0.0,-0.6451453566551208,0.003183364868164
-0.1321162283420562,0.5398024320602417,-0.1825129836797714,-0.595214307308197,-0.1619692295789718,0.0388469025492668,0.0,0.0,0.2433013916015625,0.4786572456359863
-0.1338650733232498,0.5269654393196106,-0.1767318099737167,-0.5703324675559998,-0.16012604534626,0.036863274872303,0.0,0.0,0.2822713851928711,0.0634769201278686
-0.1354846954345703,0.5147262215614319,-0.1640354841947555,-0.5437477827072144,-0.1580550521612167,0.0414200536906719,0.0,0.0,0.4369082450866699,0.5383028984069824
-0.1370868682861328,0.5032349824905396,-0.1609150469303131,-0.5106464624404907,-0.1573585420846939,0.0139302415773272,0.0,0.0,-0.9303688406944276,0.7798558473587036
-0.1386747360229492,0.4913992881774902,-0.1582171767950058,-0.5260900259017944,-0.1579316258430481,-0.0114618139341473,0.0,0.0,-0.5783541798591614,0.9245474338531494
-0.1402171105146408,0.4792282879352569,-0.1516668498516082,-0.541209876537323,-0.1605047881603241,-0.0514631159603595,0.0,0.0,-0.9751530289649964,0.2830930948257446
-0.1417917311191558,0.4667322039604187,-0.1548626720905304,-0.555665135383606,-0.163099005818367,-0.0518846400082111,0.0,0.0,-0.534376323223114,0.3088080883026123
-0.1433981955051422,0.4539110362529754,-0.1580412089824676,-0.5701203942298889,-0.1657056510448455,-0.0521329715847969,0.0,0.0,-0.6713925004005432,0.7236006259918213
-0.1449805200099945,0.4407544732093811,-0.1542126834392547,-0.5851881504058838,-0.1697348207235336,-0.0805838257074356,0.0,0.0,-0.7206742167472839,0.6122493743896484
-0.1465395987033844,0.427259087562561,-0.1504881978034973,-0.6004229187965393,-0.1751646399497985,-0.1085963025689125,0.0,0.0,0.1232492923736572,-0.0681226849555969
-0.1480731964111328,0.4137783944606781,-0.1480337083339691,-0.5997806191444397,-0.1805088520050048,-0.1068843975663185,0.0,0.0,-0.1997607946395874,-0.8549569249153137
-0.1496944427490234,0.3999819755554199,-0.1582627594470977,-0.6136512756347656,-0.184388667345047,-0.0775961503386497,0.0,0.0,-0.336522102355957,-0.2393695712089538
-0.1513461172580719,0.3858604431152344,-0.1613221913576126,-0.6281065344810486,-0.1882440000772476,-0.0771068111062049,0.0,0.0,-0.2485190629959106,-0.6419665217399597
-0.1530665457248687,0.3714197874069214,-0.1692247241735458,-0.64216548204422,-0.1910820007324218,-0.0567596741020679,0.0,0.0,0.3658314943313598,0.5035126209259033
-0.1546641290187835,0.3575624227523803,-0.1559498161077499,-0.61637943983078,-0.1949043720960617,-0.0764477252960205,0.0,0.0,0.6502799987792969,0.0536370277404785
-0.156113713979721,0.3444859087467193,-0.1413400769233703,-0.5816582441329956,-0.1985425800085067,-0.0727638229727745,0.0,0.0,0.5304429531097412,-0.4342538118362427
-0.1573569327592849,0.3319587707519531,-0.1212872490286827,-0.5571728944778442,-0.2016012370586395,-0.0611733309924602,0.0,0.0,0.7522320747375488,-0.2321845889091491
-0.1584543287754058,0.3195830583572387,-0.1072390526533126,-0.5503748655319214,-0.2041150629520416,-0.0502764694392681,0.0,0.0,-0.1604203581809997,-0.4872018098831177
-0.1595792770385742,0.3068819940090179,-0.1100667566061019,-0.5648288130760193,-0.2065751403570175,-0.0492015555500984,0.0,0.0,0.7609134912490845,-0.032845914363861
-0.160454660654068,0.2951779663562774,-0.0855643600225448,-0.5204563140869141,-0.208560898900032,-0.0397152416408062,0.0,0.0,0.9167739152908324,-0.4945621490478515
-0.1612462997436523,0.2841259837150574,-0.0771369487047195,-0.4914884269237518,-0.2106120586395263,-0.0410229749977588,0.0,0.0,0.376818299293518,-0.0672716498374939
-0.1620267927646637,0.2737535536289215,-0.075607493519783,-0.4613453149795532,-0.2130808681249618,-0.0493765659630298,0.0,0.0,0.6124005317687988,-0.2639753818511963
-0.1626056730747223,0.2640273571014404,-0.055893562734127,-0.4325634837150574,-0.2150929421186447,-0.040241427719593,0.0,0.0,0.7771930694580078,-0.6051105856895447
-0.163143441081047,0.2551978230476379,-0.0528976619243621,-0.3925506174564361,-0.2159769535064697,-0.0176801718771457,0.0,0.0,0.17466402053833,0.2753483057022095
-0.1636485159397125,0.2468418478965759,-0.0494307167828083,-0.3715350329875946,-0.2170671224594116,-0.0218030549585819,0.0,0.0,0.1213996410369873,0.4266070127487182
-0.1641204804182052,0.2386610358953476,-0.0461142472922802,-0.3637527227401733,-0.2181691080331802,-0.0220396555960178,0.0,0.0,0.1769052743911743,0.062433123588562
-0.1646034270524978,0.2308091670274734,-0.0468862429261207,-0.3491795361042022,-0.2195893675088882,-0.0284052230417728,0.0,0.0,-0.3254575133323669,-0.4620774388313293
-0.1651079207658767,0.2226319462060928,-0.0491138845682144,-0.3636329770088196,-0.2209441363811493,-0.027094978839159,0.0,0.0,0.7646673917770386,-0.1359035372734069
-0.1653546392917633,0.2152154594659805,-0.0239059012383222,-0.3297353088855743,-0.221711054444313,-0.0153383938595652,0.0,0.0,0.1889960765838623,-0.6529238224029541
-0.1655655801296234,0.2078572660684585,-0.0217677168548107,-0.3269298374652862,-0.2210342735052108,0.013535289093852,0.0,0.0,-0.5593261122703552,-0.3417872786521911
-0.1657954156398773,0.2001736909151077,-0.0237088724970817,-0.3413831889629364,-0.2202966213226318,0.0147531302645802,0.0,0.0,0.0456693172454834,-0.6362437605857849
-0.1659997999668121,0.1929107010364532,-0.0224804505705833,-0.3224978744983673,-0.218233585357666,0.0412606261670589,0.0,0.0,-0.1023644208908081,-0.2514557838439941
-0.1662208586931228,0.1853223443031311,-0.0242035184055566,-0.3369516134262085,-0.2161150276660919,0.0423711352050304,0.0,0.0,-0.3567174077033996,-0.021605908870697
-0.1664574593305587,0.1774086058139801,-0.025809172540903,-0.3514054715633392,-0.2139443159103393,0.0434144921600818,0.0,0.0,0.4922757148742676,-0.0211715698242187
-0.166558176279068,0.1702526956796646,-0.0122383646667003,-0.3177278935909271,-0.2117553055286407,0.0437800884246826,0.0,0.0,0.1578693389892578,-0.4567875266075134
-0.1665143072605133,0.1635675579309463,0.0019717905670404,-0.2967749238014221,-0.2093254625797271,0.0485969111323356,0.0,0.0,-0.1886124610900879,-0.6887049674987793
-0.166528895497322,0.156568557024002,-0.005091821309179,-0.3105577230453491,-0.2056588530540466,0.0733320191502571,0.0,0.0,0.3494884967803955,-0.4881314039230346
-0.1665485352277755,0.1500165313482284,-0.0051806112751364,-0.2907564043998718,-0.2024199366569519,0.0647783130407333,0.0,0.0,0.0186884403228759,-0.1381509900093078
-0.1665909737348556,0.1436295807361602,-0.0071266805753111,-0.2834725081920624,-0.1995181441307068,0.0580358281731605,0.0,0.0,0.2037291526794433,-0.0753268003463745
-0.1665750443935394,0.1375260204076767,-0.0012404945446178,-0.2708913385868072,-0.1966657936573028,0.0570469200611114,0.0,0.0,0.4083657264709472,-0.5465616583824158
-0.1664954125881195,0.1317709237337112,0.0039715119637548,-0.2552570402622223,-0.1926443725824356,0.0804280191659927,0.0,0.0,-0.1364672183990478,-0.6639515161514282
-0.166461557149887,0.1256966888904571,-0.0016548025887459,-0.2693180739879608,-0.1875728666782379,0.1014302372932434,0.0,0.0,0.1255364418029785,-0.3690953254699707
-0.1662786453962326,0.1199654936790466,0.0129298996180295,-0.2540509402751922,-0.182190865278244,0.1076401844620704,0.0,0.0,0.1858055591583252,0.0421713590621948
-0.1659747064113617,0.1147586405277252,0.0249487198889255,-0.2307568937540054,-0.1767295897006988,0.1092255488038063,0.0,0.0,0.4739896059036255,-0.1641728281974792
