x_pos,y_pos,x_vel,y_vel,angle,ang_vel,leg_1,leg_2,main_booster,lat_booster
-0.0016157149802893,1.4031107425689695,-0.1639421433210373,-0.3470815420150757,0.0021231307182461,0.041907213628292,0.0,0.0,0.0225992202758789,0.8245835304260254
-0.0032208443153649,1.395235538482666,-0.161270722746849,-0.3500129878520965,0.0028701729606837,0.0149430036544799,0.0,0.0,-0.3821793794631958,0.7043187618255615
-0.0048480033874511,1.386841058731079,-0.1620521247386932,-0.3730826079845428,0.0022124394308775,-0.0131558002904057,0.0,0.0,-0.0659385919570922,0.683834433555603
-0.0065199853852391,1.377930998802185,-0.1657412499189376,-0.39600670337677,0.0007689230842515,-0.0288728661835193,0.0,0.0,0.3982999324798584,0.6708130836486816
-0.0081055639311671,1.3693373203277588,-0.1563007980585098,-0.3819404542446136,-0.0014597891131415,-0.0445784404873847,0.0,0.0,-0.1614953875541687,0.4004355669021606
-0.0097756385803222,1.3602298498153689,-0.1650648862123489,-0.4047788381576538,-0.0033827174920588,-0.0384621173143386,0.0,0.0,0.3401271104812622,0.9542636871337892
-0.0114727970212697,1.351311206817627,-0.1661626398563385,-0.3963955044746399,-0.0069035557098686,-0.0704232975840568,0.0,0.0,0.1525804996490478,0.5582175254821777
-0.0130885122343897,1.3425558805465698,-0.1574347913265228,-0.3891491591930389,-0.0109951943159103,-0.0818401128053665,0.0,0.0,0.394182801246643,0.2375428676605224
-0.0147852897644042,1.3343462944030762,-0.1658095717430114,-0.3649019598960876,-0.0148230912163853,-0.0765646547079086,0.0,0.0,-0.0314311981201171,0.4661885499954223
-0.0165585521608591,1.3256232738494873,-0.1737809181213379,-0.3877398371696472,-0.0183369517326354,-0.0702832713723182,0.0,0.0,0.0607626438140869,0.4754858016967773
-0.0183438304811716,1.3169573545455933,-0.1755608469247818,-0.3851905167102813,-0.0212730653584003,-0.0587275326251983,0.0,0.0,0.2103817462921142,0.8332529067993164
-0.0200676918029785,1.30835223197937,-0.1681229472160339,-0.3825092315673828,-0.0254932902753353,-0.0844119265675544,0.0,0.0,-0.3969959020614624,0.7767901420593262
-0.0217864997684955,1.2992349863052368,-0.1660486161708831,-0.4053261578083038,-0.0312680341303348,-0.1155053228139877,0.0,0.0,-0.0676973462104797,0.7264156341552734
-0.0235086437314748,1.289594650268555,-0.1650712788105011,-0.4286248981952667,-0.0383306555449962,-0.1412650942802429,0.0,0.0,0.1843233108520507,0.9258556365966796
-0.0250808708369731,1.2803255319595337,-0.1486062109470367,-0.4122001230716705,-0.0468634441494941,-0.1706714034080505,0.0,0.0,-0.5216672420501709,0.1481572389602661
-0.0267147067934274,1.270543336868286,-0.1550787538290023,-0.435043603181839,-0.0550768487155437,-0.1642827093601226,0.0,0.0,-0.4516564011573791,0.1087690591812133
-0.0284070968627929,1.2602479457855225,-0.1612700670957565,-0.4578767418861389,-0.0629714950919151,-0.1579072922468185,0.0,0.0,0.1900663375854492,0.9096603393554688
-0.029947567731142,1.249817967414856,-0.1446307003498077,-0.4639753103256225,-0.0723028108477592,-0.1866436302661895,0.0,0.0,-0.3986117243766784,0.300150990486145
-0.0315407738089561,1.2388750314712524,-0.1502286940813064,-0.4868160784244537,-0.0813151597976684,-0.1802631914615631,0.0,0.0,-0.2910274267196655,0.8037006855010986
-0.033128835260868,1.2274119853973389,-0.1486444920301437,-0.510042667388916,-0.0913950204849243,-0.2016156911849975,0.0,0.0,-0.5709611773490906,-0.2495843172073364
-0.0347632393240928,1.215436339378357,-0.1536175310611724,-0.532881498336792,-0.1011572256684303,-0.1952615827322006,0.0,0.0,-0.4224796295166015,0.1596912145614624
-0.0364410392940044,1.202947735786438,-0.1582699716091156,-0.5557200908660889,-0.1106036826968193,-0.1889458894729614,0.0,0.0,-0.1802051067352295,0.4146338701248169
-0.0381587967276573,1.189945936203003,-0.1625952720642089,-0.5785577893257141,-0.1197353154420852,-0.182649165391922,0.0,0.0,0.3250945806503296,0.9299163818359376
-0.0397470481693744,1.1767692565917969,-0.1481512486934662,-0.5865252017974854,-0.1303685456514358,-0.2126839905977249,0.0,0.0,0.6813158988952637,-0.8782570362091064
-0.0415115356445312,1.1641007661819458,-0.1676103174686432,-0.5638401508331299,-0.1391902714967727,-0.1764499694108963,0.0,0.0,0.6012192964553833,0.9097700119018556
-0.0432988181710243,1.1519345045089722,-0.1681631952524185,-0.5417470335960388,-0.149732157588005,-0.2108377665281295,0.0,0.0,0.5540323257446289,0.731520414352417
-0.0449493415653705,1.140259861946106,-0.1533518731594085,-0.5200978517532349,-0.1614203453063964,-0.2337637245655059,0.0,0.0,0.0669288635253906,-0.3424366116523742
-0.0466206558048725,1.128881812095642,-0.1553753763437271,-0.5070038437843323,-0.1731936186552047,-0.2354654371738433,0.0,0.0,-0.3051378130912781,-0.8212530612945557
-0.0483888611197471,1.117018222808838,-0.1673784703016281,-0.5284034013748169,-0.1826568394899368,-0.1892644166946411,0.0,0.0,0.1541311740875244,-0.3541454672813415
-0.0501259788870811,1.1051476001739502,-0.1645244061946869,-0.5287370681762695,-0.1918866634368896,-0.1845965385437011,0.0,0.0,0.1113361120223999,-0.2481048107147216
-0.051755141466856,1.0935988426208496,-0.1540979444980621,-0.5144515633583069,-0.200759083032608,-0.1774484366178512,0.0,0.0,-0.3992787599563598,-0.2273433208465576
-0.0533940307796001,1.0815366506576538,-0.1553693562746048,-0.5372826457023621,-0.2093342989683151,-0.1715044975280761,0.0,0.0,0.6986345052719116,-0.4323312044143677
-0.0549509041011333,1.070196509361267,-0.1470862478017807,-0.5052462816238403,-0.2180071473121643,-0.1734571009874344,0.0,0.0,-0.5290569067001343,-0.721287727355957
-0.0565730109810829,1.058356761932373,-0.1555118262767791,-0.5272188782691956,-0.2247862219810485,-0.1355818063020706,0.0,0.0,0.6085586547851562,-0.4651763439178467
-0.0580432899296283,1.0468906164169312,-0.1406919509172439,-0.5105835795402527,-0.2312011420726776,-0.1282984465360641,0.0,0.0,-0.0576949119567871,-0.4636101722717285
-0.0595099441707134,1.0349105596542358,-0.1406323909759521,-0.533410906791687,-0.2373271882534027,-0.1225206032395362,0.0,0.0,-0.6670390963554382,-0.6270496845245361
-0.0610205642879009,1.0224313735961914,-0.1466217935085296,-0.555357813835144,-0.241848737001419,-0.0904312282800674,0.0,0.0,-0.0570009350776672,-0.7213749289512634
-0.0625723823904991,1.0094623565673828,-0.1523604094982147,-0.5768718123435974,-0.2447166740894317,-0.0573588237166404,0.0,0.0,-0.4568926095962524,-0.7419503331184387
-0.064170554280281,0.9960092306137084,-0.1588508039712906,-0.5980725884437561,-0.2456986457109451,-0.019639628008008,0.0,0.0,0.4208228588104248,-0.8745677471160889
-0.0656658187508583,0.9828184843063354,-0.1506087929010391,-0.5860775709152222,-0.2446030974388122,0.0219108685851097,0.0,0.0,-0.154104471206665,-0.4630802869796753
-0.0671426802873611,0.9691130518913268,-0.1490304470062255,-0.6089014410972595,-0.2432287484407425,0.0274874027818441,0.0,0.0,-0.6263882517814636,-0.9061620831489564
-0.068653680384159,0.9549118876457214,-0.1541518867015838,-0.6306650638580322,-0.2401246726512909,0.06208111718297,0.0,0.0,-0.5811731219291687,-0.7056492567062378
-0.0701872855424881,0.9402053952217102,-0.1578587889671325,-0.6528949737548828,-0.235557809472084,0.0913373008370399,0.0,0.0,-0.9021022915840148,-0.4928340911865234
-0.0716943740844726,0.9249846339225768,-0.1554736942052841,-0.6757209897041321,-0.2307179123163223,0.0967973917722702,0.0,0.0,-0.4044538736343384,0.3865679502487182
-0.0731722861528396,0.9092498421669006,-0.1528387367725372,-0.6985471844673157,-0.2256069481372833,0.1022195592522621,0.0,0.0,-0.0617098212242126,-0.1983615159988403
-0.0746188163757324,0.8930007815361023,-0.1499638259410858,-0.7213737368583679,-0.2202267199754715,0.1076041832566261,0.0,0.0,0.5815669298171997,-0.3576902151107788
-0.0758811011910438,0.8768448829650879,-0.1320804357528686,-0.7171803116798401,-0.2143090665340423,0.1183533519506454,0.0,0.0,-0.3163150548934936,-0.1613534092903137
-0.0771074295043945,0.8601750135421753,-0.1287556588649749,-0.7400079965591431,-0.2081258744001388,0.1236639618873596,0.0,0.0,-0.2592220306396484,-0.2438319325447082
-0.0782956108450889,0.842991292476654,-0.1252209842205047,-0.7628360986709595,-0.2016789764165878,0.1289380341768264,0.0,0.0,0.4195528030395508,0.4379603862762451
-0.0793741196393966,0.8259414434432983,-0.114428661763668,-0.7568884491920471,-0.1950543373823166,0.1324928700923919,0.0,0.0,0.0938133001327514,0.5362706184387207
-0.0801928490400314,0.8088911771774292,-0.0878267884254455,-0.7570189833641052,-0.1890639811754226,0.1198067665100097,0.0,0.0,0.1389387845993042,0.3549854755401611
-0.0809113532304763,0.7920863628387451,-0.0778915733098983,-0.7461196184158325,-0.1829989999532699,0.121299423277378,0.0,0.0,-0.1285567283630371,0.5133572816848755
-0.0815378203988075,0.7747518420219421,-0.0677273124456405,-0.769804060459137,-0.177896112203598,0.1020578294992446,0.0,0.0,-0.0355022549629211,0.0492926836013793
-0.0821173638105392,0.7569035291671753,-0.0632912740111351,-0.7926319241523743,-0.172538474202156,0.1071523576974868,0.0,0.0,0.6018935441970825,0.1146647930145263
-0.0824248343706131,0.7392027974128723,-0.0370204411447048,-0.7859880924224854,-0.1662596762180328,0.1255757957696914,0.0,0.0,-0.0291372537612915,0.7432082891464233
-0.0826341658830642,0.72097247838974,-0.0262033995240926,-0.8096476197242737,-0.1609841734170913,0.1055096611380577,0.0,0.0,-0.3262561559677124,0.7399866580963135
-0.08272485435009,0.7022189497947693,-0.0128825157880783,-0.833085298538208,-0.1571683585643768,0.0763160064816474,0.0,0.0,0.3285781145095825,0.203987717628479
-0.0825686454772949,0.6837288737297058,0.0110417446121573,-0.8213051557540894,-0.1525918543338775,0.0915301889181137,0.0,0.0,-0.4090743064880371,-0.2055267095565796
-0.0823588371276855,0.6647247672080994,0.0161425024271011,-0.8441332578659058,-0.1477698534727096,0.0964402481913566,0.0,0.0,0.1739457845687866,-0.0463097691535949
-0.0820658653974533,0.6460472941398621,0.0244702529162168,-0.8296377062797546,-0.1429546624422073,0.0963038355112075,0.0,0.0,0.388221263885498,-0.1346821784973144
-0.0816304236650466,0.6273089051246643,0.0382676124572753,-0.832323431968689,-0.1376990228891372,0.105113185942173,0.0,0.0,0.3508808612823486,0.0420975685119628
-0.0811411887407302,0.6089258193969727,0.043795920908451,-0.8165642023086548,-0.1325832307338714,0.102315567433834,0.0,0.0,0.3439522981643677,0.1962919235229492
-0.0804394707083702,0.5906345844268799,0.0643278211355209,-0.8124366998672485,-0.1267655193805694,0.1163545027375221,0.0,0.0,0.0576711893081665,0.0229246616363525
-0.0796153098344802,0.5724108219146729,0.0762669891119003,-0.8094378709793091,-0.1206431090831756,0.1224482655525207,0.0,0.0,0.4222712516784668,-0.6170710325241089
-0.0787324905395507,0.5541903376579285,0.0806345343589782,-0.8091979622840881,-0.1130432859063148,0.1519964039325714,0.0,0.0,0.4143764972686767,-0.0146692395210266
-0.0778388008475303,0.5362286567687988,0.0819821879267692,-0.7977546453475952,-0.1057037711143493,0.1467904299497604,0.0,0.0,0.291175365447998,0.1284955739974975
-0.0767981559038162,0.5187487602233887,0.0963580459356308,-0.7763596177101135,-0.0980594456195831,0.1528865694999694,0.0,0.0,-0.1551904082298278,0.0376398563385009
-0.0756975188851356,0.5007557272911072,0.1021291762590408,-0.7991921901702881,-0.0901907384395599,0.1573742479085922,0.0,0.0,0.2842291593551636,-0.4265728592872619
-0.0744557380676269,0.483238011598587,0.115911103785038,-0.77808678150177,-0.0820035859942436,0.1637430340051651,0.0,0.0,0.3367714881896972,-0.3549082279205322
-0.0731978416442871,0.4657892882823944,0.1176551729440689,-0.7750765681266785,-0.0739506408572197,0.1610586792230606,0.0,0.0,0.8667745590209961,-0.6183270215988159
-0.0719821900129318,0.4489924311637878,0.1122666150331497,-0.7460936903953552,-0.0647434070706367,0.1841444820165634,0.0,0.0,0.2694042921066284,-0.1265339851379394
-0.0706509575247764,0.4323962926864624,0.1234898120164871,-0.7372145056724548,-0.0552161745727062,0.1905446350574493,0.0,0.0,0.7399642467498779,0.1242787837982177
-0.0693449005484581,0.4166309833526611,0.1213802471756935,-0.7003701329231262,-0.046109989285469,0.1821238696575164,0.0,0.0,0.0785329341888427,0.2527076005935669
-0.0679126754403114,0.4009145200252533,0.133581131696701,-0.6982409954071045,-0.0365796908736228,0.1906060576438903,0.0,0.0,0.3464193344116211,0.2427945137023925
-0.0664352402091026,0.385164737701416,0.1380235254764557,-0.6997796893119812,-0.0269790049642324,0.1920137554407119,0.0,0.0,0.6813828945159912,0.3517885208129883
-0.0648188591003418,0.3693957030773163,0.1513959467411041,-0.7006884813308716,-0.0168658401817083,0.2022635042667389,0.0,0.0,0.6827397346496582,0.1813396215438842
-0.0631681457161903,0.3536336123943329,0.1547839343547821,-0.7004473209381104,-0.0067147007212042,0.2030225992202758,0.0,0.0,0.9329843521118164,-0.1201387047767639
-0.0614606849849224,0.3387514352798462,0.1603281795978546,-0.6614139676094055,0.0035719778388738,0.2057337015867233,0.0,0.0,0.5696067810058594,0.4724786281585693
-0.0596198067069053,0.3245199918746948,0.1731271892786026,-0.632567286491394,0.0143848042935132,0.2162565886974334,0.0,0.0,0.6232398748397827,0.2996652126312256
-0.0578411109745502,0.3109784722328186,0.1672609001398086,-0.6019771695137024,0.0248550865799188,0.2094058245420456,0.0,0.0,0.7304873466491699,0.4736223220825195
-0.0561473853886127,0.2974399626255035,0.1592434048652649,-0.6019083261489868,0.0348585620522499,0.2000694572925567,0.0,0.0,0.6542248725891113,0.5391049385070801
-0.0543368346989154,0.284585028886795,0.1717467457056045,-0.5715762376785278,0.0440560057759285,0.183948814868927,0.0,0.0,0.5726053714752197,0.2178993225097656
-0.052588652819395,0.272032082080841,0.1658177077770233,-0.5581982731819153,0.0529507957398891,0.1778957098722458,0.0,0.0,0.5496623516082764,0.5564703941345215
-0.0508280768990516,0.2599202990531921,0.1681807339191436,-0.5386009812355042,0.0607349798083305,0.1556838452816009,0.0,0.0,0.1733970642089843,0.2340555191040039
-0.0490493774414062,0.2480385452508926,0.1699128597974777,-0.5284204483032227,0.0686044245958328,0.1573891043663025,0.0,0.0,0.373793363571167,0.0862337350845336
-0.0471755042672157,0.2363755851984024,0.1789819598197937,-0.5187634825706482,0.0769234299659729,0.1663801968097686,0.0,0.0,0.0453953742980957,0.4316525459289551
-0.0452481284737587,0.224525585770607,0.1841632723808288,-0.5271292924880981,0.0854149982333183,0.1698314249515533,0.0,0.0,0.7199773788452148,0.4209375381469726
-0.0432059280574321,0.2128018289804458,0.1951055824756622,-0.5215985178947449,0.0944448709487915,0.1805972754955291,0.0,0.0,0.6091951131820679,0.4065198898315429
-0.041020106524229,0.2014165967702865,0.208726480603218,-0.5066615343093872,0.104217030107975,0.19544318318367,0.0,0.0,0.7655735015869141,0.0437933206558227
-0.03867769241333,0.1901712715625763,0.2236480265855789,-0.5005691051483154,0.1147450134158134,0.210559606552124,0.0,0.0,0.583021879196167,0.3209481239318847
-0.036371611058712,0.1794854253530502,0.2199881374835968,-0.4757741689682007,0.1253013908863067,0.2111273258924484,0.0,0.0,0.3192759752273559,0.0105116367340087
-0.0340664871037006,0.169193685054779,0.2197569906711578,-0.4583519995212555,0.1360119581222534,0.2142115384340286,0.0,0.0,0.2610046863555908,-0.3540694713592529
-0.031687069684267,0.1591658741235733,0.226733922958374,-0.4467425942420959,0.147188127040863,0.2235235273838043,0.0,0.0,0.4153230190277099,-0.1836874485015869
-0.0292152408510446,0.1490600854158401,0.2355798184871673,-0.4503359198570251,0.1587755680084228,0.2317484319210052,0.0,0.0,0.2921392917633056,0.7532603740692139
-0.026746368035674,0.1390330642461776,0.236874982714653,-0.4467462301254272,0.1687949299812317,0.2003872096538543,0.0,0.0,0.3372597694396972,-0.5843255519866943
-0.0243217460811138,0.1295406222343444,0.231170654296875,-0.4232098162174225,0.1801154315471649,0.2264101207256317,0.0,0.0,0.590034008026123,-0.4757930040359497
-0.0219731330871582,0.120338425040245,0.2237243205308914,-0.4103792011737823,0.1912998259067535,0.2236879765987396,0.0,0.0,0.7656306028366089,-0.61175137758255
-0.0199318882077932,0.1118270978331565,0.1922006756067276,-0.3798667788505554,0.2033001631498336,0.2400066405534744,0.0,0.0,-0.1522568464279174,-0.2552188634872436
-0.0178493503481149,0.1028037890791893,0.1964293122291565,-0.4027070999145508,0.2152390331029892,0.2387770712375641,0.0,0.0,0.760810136795044,-0.465447187423706
-0.0159531589597463,0.094421848654747,0.1781439185142517,-0.374242752790451,0.2268380969762802,0.2319812029600143,0.0,0.0,0.2691483497619629,-0.0299242734909057
-0.0142098423093557,0.0863469690084457,0.1632817089557647,-0.3606242537498474,0.2380533963441848,0.2243057787418365,0.0,0.0,0.6353486776351929,0.5109436511993408
-0.0125316623598337,0.078481376171112,0.1579774022102356,-0.3512050211429596,0.2480643540620803,0.2002193480730056,0.0,0.0,0.8134429454803467,0.3967158794403076
-0.0111038209870457,0.071015678346157,0.1336477994918823,-0.333376795053482,0.257366418838501,0.1860414743423462,0.0,0.0,0.8505096435546875,0.8681290149688721
-0.0099041936919093,0.063841164112091,0.1130416765809059,-0.3201013505458832,0.2644442021846771,0.1415558159351349,0.0,0.0,0.9409325122833252,0.7723008394241333
-0.0087038995698094,0.0574565753340721,0.1144869551062583,-0.2847708463668823,0.270113468170166,0.1133852750062942,0.0,0.0,0.7684206962585449,0.8153364658355713
-0.0074448585510253,0.0511768423020839,0.1219976693391799,-0.2798284292221069,0.2741200923919678,0.0801323875784874,0.0,0.0,0.9441959857940674,0.6569051742553711
-0.0061738016083836,0.0457796677947044,0.1242095828056335,-0.2404208779335022,0.2770952582359314,0.0595030896365642,0.0,0.0,0.4473540782928467,-0.4736338853836059
-0.0050796507857739,0.0408408977091312,0.1067778095602989,-0.2200015634298324,0.2798036634922027,0.0541679784655571,0.0,0.0,0.4950252771377563,0.252521276473999
-0.0040482520125806,0.0365561582148075,0.1001102328300476,-0.1910162717103958,0.2829256355762481,0.0624388754367828,0.0,0.0,0.3547248840332031,-0.0276463627815246
-0.0030640601180493,0.0324679724872112,0.0952797159552574,-0.1823068559169769,0.2861442565917969,0.064372532069683,0.0,0.0,0.266179084777832,-0.4133468866348266
-0.0022382736206054,0.0287635903805494,0.0796784907579422,-0.1652114987373352,0.2891362905502319,0.059840977191925,0.0,1.0,0.9706482887268066,0.9583020210266112
-0.0015884399181231,0.026922021061182,0.0801009014248848,-0.0794640108942985,0.2723405957221985,-0.3377650678157806,0.0,1.0,0.7239079475402832,-0.2960525751113891
-0.0010719299316406,0.0258919820189476,0.0808156579732894,-0.0406641587615013,0.2424630969762802,-0.5976895689964294,0.0,1.0,0.1672168970108032,-0.2853549718856811
-0.0007209777832031,0.0249376874417066,0.0636952668428421,-0.0379609614610672,0.2134704738855362,-0.5798524022102356,0.0,1.0,0.1000257730484008,-0.0902621746063232
-0.0005277633899822,0.0239559989422559,0.0484976172447204,-0.0396787337958812,0.1840843260288238,-0.5877233147621155,0.0,0.0,-0.9912805557250975,0.2351948022842407
-0.00031385422335,0.0224716290831565,0.0509365499019622,-0.062575839459896,0.1544908285140991,-0.5918703079223633,0.0,0.0,-0.9738009572029114,-0.0710905790328979
-8.058547973632812e-05,0.0204847902059555,0.0532264113426208,-0.0854747593402862,0.1246828213334083,-0.5961605310440063,0.0,0.0,-0.8394500613212585,-0.565869152545929
0.0001364708004985,0.0179836135357618,0.0510438159108161,-0.1089681833982467,0.0955408290028572,-0.582840085029602,0.0,0.0,-0.5334163904190063,-0.8235581517219543
0.0003156661987304,0.01497517619282,0.0461905188858509,-0.1321399956941604,0.0675461664795875,-0.5598933100700378,0.0,0.0,0.2898873090744018,-0.8746860027313232
0.0004209518374409,0.0124089810997247,0.0373055934906005,-0.1130623593926429,0.0410763844847679,-0.5293959975242615,0.0,0.0,0.5168848037719727,-0.905900776386261
0.0005234718555584,0.0097565623000264,0.0353871844708919,-0.1173854395747184,0.0162522047758102,-0.4964832365512848,0.0,0.0,0.5048116445541382,-0.8453091382980347
