x_pos,y_pos,x_vel,y_vel,angle,ang_vel,leg_1,leg_2,main_booster,lat_booster
-0.0015962601173669,1.4032270908355713,-0.1617235243320465,-0.3419194221496582,0.0018725867848843,0.0369466058909893,0.0,0.0,-0.7161340214811485,0.8286678395402649
-0.0031944275833666,1.395155668258667,-0.1599120646715164,-0.3587288856506347,0.0019707938190549,0.0019650692120194,0.0,0.0,-0.7008772117358555,0.8211856650538496
-0.0047851563431322,1.3866804838180542,-0.1572234630584716,-0.3766734302043915,0.0001384442730341,-0.0366505794227123,0.0,0.0,0.9717053955252656,-0.9542386966511944
-0.0066786766983568,1.3786989450454712,-0.1891385018825531,-0.3547345995903015,-6.274011684581637e-05,-0.0040243915282189,0.0,0.0,0.0944542973930648,-0.8951533698468445
-0.0086115840822458,1.3709704875946045,-0.1949670016765594,-0.3434872925281524,0.0015897579723969,0.0330529920756816,0.0,0.0,0.6130242239876991,-0.7904911287098733
-0.0105281826108694,1.3636388778686523,-0.1952461302280426,-0.3258513808250427,0.0051433807238936,0.0710789561271667,0.0,0.0,0.6216756913153383,0.80349407126147
-0.0124765392392873,1.3567605018615725,-0.1968246549367904,-0.3057177364826202,0.0071116983890533,0.0393699668347835,0.0,0.0,-0.0552034733381823,-0.8199448719902862
-0.0145398136228322,1.3494863510131836,-0.2096089571714401,-0.3233136534690857,0.0103553226217627,0.064878411591053,0.0,0.0,-0.930949435348803,-0.8177946953737675
-0.0167340282350778,1.341822862625122,-0.2244209796190261,-0.3406417667865753,0.0153018897399306,0.0989406928420066,0.0,0.0,-0.3814247594753928,-0.886975085737571
-0.0190620422363281,1.3337664604187012,-0.2396348416805267,-0.3581561744213104,0.022058879956603,0.13515205681324,0.0,0.0,0.267666375065809,-0.96597171841149
-0.0214614868164062,1.3259977102279663,-0.2488173991441726,-0.3454245030879974,0.0308208912611007,0.1752565801143646,0.0,0.0,0.9402566249363696,0.9028998397661032
-0.0237786285579204,1.31876802444458,-0.2389869391918182,-0.3214815855026245,0.0380262583494186,0.1441204845905304,0.0,0.0,-0.015596262777477,-0.94260183500072
-0.0262130741029977,1.311143159866333,-0.2522664070129394,-0.3391309976577759,0.0467477403581142,0.1744455397129058,0.0,0.0,0.3165782132057642,0.6301653533989097
-0.0286077503114938,1.303547739982605,-0.247182011604309,-0.3378366231918335,0.0543848611414432,0.1527563631534576,0.0,0.0,0.0558237260126579,-0.933546931294354
-0.0310531612485647,1.2963571548461914,-0.2541648149490356,-0.3199600875377655,0.0639138519763946,0.1905971765518188,0.0,0.0,-0.1328482290935106,-0.6369334995774782
-0.0335928909480571,1.2887587547302246,-0.2646757662296295,-0.3381934463977813,0.0745262205600738,0.2122667282819748,0.0,0.0,-0.2055705548776198,0.6297054283056697
-0.0361233726143837,1.280778408050537,-0.2622525691986084,-0.3551641404628753,0.0836458057165145,0.1824082136154174,0.0,0.0,0.7469489667137499,0.7827274677009413
-0.0385094657540321,1.2730154991149902,-0.2466215193271637,-0.3454824984073639,0.0915959104895591,0.1590167880058288,0.0,0.0,-0.2683089945735519,0.6896696012040335
-0.0408796295523643,1.2648708820343018,-0.2434626370668411,-0.3623909056186676,0.0979952365159988,0.1279976814985275,0.0,0.0,-0.4516012689453073,0.8422236954027531
-0.0432364456355571,1.2563374042510986,-0.2407113015651703,-0.3796091079711914,0.1029867902398109,0.0998399704694747,0.0,0.0,-0.2949738905935479,-0.6937035626873123
-0.0456781387329101,1.2474050521850586,-0.2503189444541931,-0.3974291682243347,0.1091087087988853,0.1224492937326431,0.0,0.0,0.1828561454732389,-0.8573320578594478
-0.0482501983642578,1.238533854484558,-0.2651349008083343,-0.3948709368705749,0.1169873923063278,0.1575877964496612,0.0,0.0,0.4994424834067059,-0.7110527527707193
-0.0508426651358604,1.2300139665603638,-0.2688656449317932,-0.3794329762458801,0.1265655905008316,0.1915808171033859,0.0,0.0,0.4831529616889809,-0.8076371918937111
-0.0534965507686138,1.2215074300765991,-0.2767605185508728,-0.3790724575519562,0.1379007548093795,0.2267239093780517,0.0,0.0,-0.3104908455763346,0.6575456784145772
-0.0561415664851665,1.2126147747039795,-0.2748691737651825,-0.3962186574935913,0.1482656151056289,0.207315593957901,0.0,0.0,-0.3384795007251844,0.9525094658161212
-0.0587551109492778,1.2033225297927856,-0.2703311741352081,-0.4139133095741272,0.1572185754776001,0.1790592670440673,0.0,0.0,-0.9593763139367228,-0.8318430435871522
-0.0614573471248149,1.1936237812042236,-0.2808580696582794,-0.4322163760662079,0.1678553819656372,0.2127360105514526,0.0,0.0,-0.0663482602229375,-0.9545499815427908
-0.0642715469002723,1.183516025543213,-0.2943793535232544,-0.4507438838481903,0.1808434426784515,0.2597613930702209,0.0,0.0,0.3971783547026819,-0.7043169931556799
-0.0673965439200401,1.1739376783370972,-0.3266499638557434,-0.4274939894676208,0.1950635761022567,0.2844022512435913,0.0,0.0,0.1884502054818397,0.9066630692031518
-0.0705497711896896,1.1644926071166992,-0.327654480934143,-0.421451061964035,0.2074840515851974,0.2484094798564911,0.0,0.0,-0.2124738522789342,-0.8899550604073622
-0.0737814903259277,1.1546411514282229,-0.3371983170509338,-0.4398708343505859,0.2216541022062301,0.2834007441997528,0.0,0.0,-0.1453464042708843,0.794901630345799
-0.0769662857055664,1.1444082260131836,-0.3311080038547516,-0.4567482769489288,0.2344541549682617,0.2560011744499206,0.0,0.0,-0.2664671887916243,-0.7823943359266013
-0.0802241340279579,1.1337627172470093,-0.3401617109775543,-0.4754800200462341,0.2490607351064682,0.2921313643455505,0.0,0.0,0.8127888785139974,0.6756042547931344
-0.0836006179451942,1.123283624649048,-0.3504664003849029,-0.467969536781311,0.2621442377567291,0.261669784784317,0.0,0.0,-0.0501845892810448,0.9630560024388592
-0.086898997426033,1.112441062927246,-0.3406829237937927,-0.4838670790195465,0.2732375264167785,0.2218663394451141,0.0,0.0,0.7306272750304446,-0.9061895208319752
-0.0904545783996582,1.102333426475525,-0.3681825995445251,-0.4516381919384002,0.2862049043178558,0.2593474984169006,0.0,0.0,-0.436478577475184,-0.6542514282058578
-0.094051644206047,1.0918047428131104,-0.3736434578895569,-0.4707387089729309,0.3005707263946533,0.2873164117336273,0.0,0.0,-0.6165598795015754,-0.6033387722354513
-0.0976798087358474,1.0808659791946411,-0.3777947425842285,-0.4893336296081543,0.3160882890224457,0.310351550579071,0.0,0.0,-0.310894473923665,0.6237090103276263
-0.1012503653764724,1.0695607662200928,-0.3708166182041168,-0.5055268406867981,0.3304138481616974,0.2865119576454162,0.0,0.0,-0.7815137781533656,0.828503147114283
-0.1047380417585372,1.057894229888916,-0.3607702851295471,-0.5213017463684082,0.3429676592350006,0.2510761320590973,0.0,0.0,0.5336473561362918,0.7669264649153863
-0.1084952354431152,1.0468342304229736,-0.3860031366348266,-0.4940432012081146,0.3537635803222656,0.2159181535243988,0.0,0.0,-0.1891876459121704,0.9844012260437012
-0.1121399849653244,1.0354242324829102,-0.3724061250686645,-0.5090899467468262,0.3621267974376678,0.1672642827033996,0.0,0.0,-0.6677131652832031,0.9788415431976318
-0.115671157836914,1.0236546993255615,-0.3588290810585022,-0.5245445370674133,0.3681638538837433,0.1207411512732505,0.0,0.0,-0.2266273498535156,0.9898122549057008
-0.1190872192382812,1.0115349292755127,-0.3450711965560913,-0.5395489931106567,0.3718264997005462,0.0732530429959297,0.0,0.0,-0.1536849737167358,0.9414122104644777
-0.1224037185311317,0.9990450739860536,-0.3334060609340668,-0.5555664300918579,0.3736888766288757,0.0372472703456878,0.0,0.0,-0.4410123825073242,0.903584361076355
-0.1256118714809417,0.986190915107727,-0.320678174495697,-0.571262776851654,0.3735513687133789,-0.0027502623852342,0.0,0.0,-0.3945440649986267,0.9916588068008424
-0.1287014931440353,0.9729809761047364,-0.3067069947719574,-0.5865136384963989,0.3711613416671753,-0.0478008054196834,0.0,0.0,-0.7360942959785461,0.9903857707977296
-0.1316955536603927,0.959417998790741,-0.2955502271652221,-0.6018040180206299,0.3670878708362579,-0.081469289958477,0.0,0.0,-0.8158583045005798,0.9864563941955566
-0.1345939636230468,0.9454984068870544,-0.2844648957252502,-0.6172814965248108,0.3614077270030975,-0.1136026754975318,0.0,0.0,-0.7223290801048279,0.9902753829956056
-0.1373781263828277,0.931218922138214,-0.2711626291275024,-0.6328310370445251,0.3537519574165344,-0.1531155109405517,0.0,0.0,-0.8416000604629517,0.9983335733413696
-0.1400263756513595,0.9165932536125184,-0.2550944089889526,-0.647676408290863,0.3435424566268921,-0.2041902989149093,0.0,0.0,-0.6670867800712585,0.9981956481933594
-0.1425626724958419,0.901613473892212,-0.242082193493843,-0.6630577445030212,0.3314566314220428,-0.2417161166667938,0.0,0.0,-0.9179770350456238,0.9984220266342164
-0.1449619233608245,0.8862785696983337,-0.225999042391777,-0.6784265637397766,0.3169443309307098,-0.2902468740940094,0.0,0.0,-0.902186393737793,0.9931612014770508
-0.1472392976284027,0.8705945611000061,-0.2117262184619903,-0.6936611533164978,0.3003628551959991,-0.3316290974617004,0.0,0.0,-0.9619881510734558,0.999197006225586
-0.1493713408708572,0.8545567989349365,-0.1946410089731216,-0.7090668082237244,0.2812249362468719,-0.3827588260173797,0.0,0.0,-0.9915319681167604,0.949976921081543
-0.1513902693986892,0.838148832321167,-0.1816146224737167,-0.7254742980003357,0.2604435086250305,-0.4156284928321838,0.0,0.0,-0.99442720413208,0.9550378322601318
-0.1532736718654632,0.8213915228843689,-0.1657172739505767,-0.7409151196479797,0.2373926192522049,-0.4610180258750915,0.0,0.0,-0.9909549951553344,0.6723423004150391
-0.1550402641296386,0.8042697310447693,-0.1522120535373687,-0.7572196125984192,0.2126432806253433,-0.4949873983860016,0.0,0.0,-0.9282430410385132,0.0255266427993774
-0.1567516326904297,0.7867584228515625,-0.1465319097042083,-0.7749362587928772,0.1878637969493866,-0.4955903887748718,0.0,0.0,-0.849980890750885,-0.453032374382019
-0.1584066450595855,0.7688574194908142,-0.1407503634691238,-0.7926533222198486,0.1630525588989257,-0.496224969625473,0.0,0.0,-0.5272222757339478,0.0795297622680664
-0.1600042283535003,0.7505670785903931,-0.1348745822906494,-0.8103707432746887,0.1382080763578415,-0.4968902468681335,0.0,0.0,-0.7612528204917908,-0.6308786273002625
-0.1616011559963226,0.731877863407135,-0.1361797451972961,-0.8286157250404358,0.1147979125380516,-0.4682032465934753,0.0,0.0,0.0533424615859985,-0.6112361550331116
-0.163136288523674,0.7132946848869324,-0.131237581372261,-0.8243540525436401,0.09268569201231,-0.4422442018985748,0.0,0.0,-0.924285054206848,-0.6840962171554565
-0.1646630316972732,0.6943139433860779,-0.1316254287958145,-0.8424195051193237,0.0718452557921409,-0.4168087542057037,0.0,0.0,0.267816424369812,-0.1473869085311889
-0.1661445647478103,0.6754022836685181,-0.1270752698183059,-0.8396411538124084,0.0509931370615959,-0.4170426428318023,0.0,0.0,0.3086305856704712,-0.8043575286865234
-0.1677626669406891,0.6567868590354919,-0.1421605199575424,-0.8268002867698669,0.0315762050449848,-0.3883387446403503,0.0,0.0,0.8795168399810791,0.1473557949066162
-0.1693244874477386,0.6392396688461304,-0.1365945935249328,-0.7795763611793518,0.012230004183948,-0.3869237601757049,0.0,0.0,-0.8342490196228027,-0.0463564395904541
-0.1708232909440994,0.6212999224662781,-0.1302304863929748,-0.7972748279571533,-0.0071595851331949,-0.3877917826175689,0.0,0.0,0.4696707725524902,-0.4709590673446655
-0.1722289025783538,0.604106605052948,-0.1209787353873252,-0.764359176158905,-0.0264826323837041,-0.3864611685276031,0.0,0.0,-0.4845365285873413,-0.9908409118652344
-0.1736609488725662,0.5865193605422974,-0.1258995831012725,-0.7820490598678589,-0.0435732156038284,-0.3418118953704834,0.0,0.0,0.838768720626831,-0.9856667518615724
-0.1751873046159744,0.5696842074394226,-0.1371031999588012,-0.7487546801567078,-0.0589229054749012,-0.3069939613342285,0.0,0.0,-0.0272784829139709,-0.9190800189971924
-0.1767174750566482,0.552462100982666,-0.1392038166522979,-0.7660252451896667,-0.0725846067070961,-0.2732340693473816,0.0,0.0,0.156488299369812,-0.5259736180305481
-0.1782793998718261,0.5357504487037659,-0.1432106494903564,-0.7434179186820984,-0.085439808666706,-0.2571039497852325,0.0,0.0,-0.2968240976333618,-0.918710708618164
-0.1798392236232757,0.5186514854431152,-0.1445898711681366,-0.7606436610221863,-0.0967382863163948,-0.2259693890810012,0.0,0.0,0.7939112186431885,-0.8987959623336792
-0.1814039200544357,0.5017997026443481,-0.1467580944299698,-0.7496232390403748,-0.1063678488135337,-0.1925913095474243,0.0,0.0,0.2755790948867798,-0.8970659971237183
-0.1828868836164474,0.4849181473255157,-0.1403901278972625,-0.7508756518363953,-0.1142233684659004,-0.157110184431076,0.0,0.0,0.7927861213684082,-0.681322455406189
-0.1843526810407638,0.4681974649429321,-0.1398929506540298,-0.7436643838882446,-0.1208625882863998,-0.1327847093343734,0.0,0.0,0.8751187324523926,-0.362180233001709
-0.1856528222560882,0.4524222910404205,-0.1232471615076065,-0.7016844153404236,-0.1275998502969741,-0.1347449272871017,0.0,0.0,0.7588597536087036,-0.691165030002594
-0.1867378205060959,0.4375418424606323,-0.1032812967896461,-0.6618088483810425,-0.1327978819608688,-0.1039605885744094,0.0,0.0,0.1684217453002929,-0.6991555094718933
-0.1878227293491363,0.4231593906879425,-0.1045154705643653,-0.6395784616470337,-0.1367581933736801,-0.079206146299839,0.0,0.0,0.0220860242843627,0.5501272678375244
-0.188859075307846,0.4086881279945373,-0.0983630791306495,-0.6436607837677002,-0.142010897397995,-0.1050539836287498,0.0,0.0,0.4797670841217041,-0.8227459192276001
-0.1897521018981933,0.3948835432529449,-0.0856860876083374,-0.6138871908187866,-0.1456151604652404,-0.0720856636762619,0.0,0.0,0.5294619798660278,-0.7317699193954468
-0.190660759806633,0.381507396697998,-0.088477112352848,-0.5947302579879761,-0.1480013877153396,-0.0477244183421134,0.0,0.0,0.6426683664321899,-0.1566033363342285
-0.1914572715759277,0.368745893239975,-0.0769532546401023,-0.5674502849578857,-0.1506977826356887,-0.0539278462529182,0.0,0.0,0.8131461143493652,0.4402426481246948
-0.1920848786830902,0.3567280769348144,-0.0599491372704505,-0.5344125032424927,-0.153513491153717,-0.0563141331076622,0.0,0.0,0.2653101682662964,-0.5348817110061646
-0.1925477087497711,0.3449665606021881,-0.04462181776762,-0.5229067802429199,-0.1551640331745147,-0.0330108478665351,0.0,0.0,0.6810475587844849,0.3360191583633423
-0.1928663253784179,0.3333182632923126,-0.0302665587514638,-0.5178712606430054,-0.1567624509334564,-0.0319683030247688,0.0,0.0,0.985588312149048,-0.517082691192627
-0.1929676979780197,0.3219678103923797,-0.0098562547937035,-0.5044946074485779,-0.1570316553115844,-0.0053842216730117,0.0,0.0,0.96348774433136,0.2003471851348877
-0.1927239447832107,0.3111844062805176,0.0238925330340862,-0.4792128503322601,-0.1565523147583007,0.009586926549673,0.0,0.0,0.9321616888046264,0.0024333000183105
-0.1921813040971756,0.3006488084793091,0.0530882179737091,-0.4681229293346405,-0.1553793400526046,0.0234595350921154,0.0,0.0,0.9753577709197998,0.2130719423294067
-0.1914406716823578,0.2910485863685608,0.0729863196611404,-0.4265633225440979,-0.1542983651161193,0.0216193292289972,0.0,0.0,0.5249507427215576,0.0631120204925537
-0.1904986351728439,0.282082200050354,0.0930475816130638,-0.398387998342514,-0.1531461775302887,0.0230441410094499,0.0,0.0,0.7507667541503906,-0.5241140127182007
-0.1892853677272796,0.2737456858158111,0.1187868118286132,-0.3702546656131744,-0.1506117731332779,0.0506881102919578,0.0,0.0,-0.7798255681991577,-0.0711982250213623
-0.1880071610212326,0.2650117874145508,0.1253388226032257,-0.3879230916500091,-0.1481384336948394,0.0494668260216712,0.0,0.0,-0.0015584826469421,-0.37039715051651
-0.1866644918918609,0.25588059425354,0.1318581402301788,-0.4055915176868438,-0.1457262188196182,0.0482440069317817,0.0,0.0,0.4340980052947998,-0.4671717882156372
-0.185076043009758,0.247447595000267,0.1561476737260818,-0.374539315700531,-0.1430355012416839,0.0538144409656524,0.0,0.0,-0.8529646992683411,-0.0817375183105468
-0.183423712849617,0.23861725628376,0.162592664361,-0.3922078311443329,-0.1404059529304504,0.0525908544659614,0.0,0.0,-0.3298240303993225,-0.5031970739364624
-0.1817550659179687,0.2294043451547622,0.1630681753158569,-0.4091114699840545,-0.1366216093301773,0.075686790049076,0.0,0.0,0.6176351308822632,-0.3059827089309692
-0.1798458993434906,0.2207921594381332,0.1867819279432296,-0.3823910653591156,-0.1325042396783828,0.0823478251695633,0.0,0.0,-0.6598311066627502,-0.0198467969894409
-0.1778741776943206,0.2117827981710434,0.1930920332670211,-0.4000603258609772,-0.12844780087471,0.0811287462711334,0.0,0.0,0.3747231960296631,-0.6214720606803894
-0.1758840531110763,0.2033315449953079,0.1939031034708023,-0.3751779794692993,-0.1233568787574768,0.1018183007836341,0.0,0.0,-0.8512634634971619,-0.8159357309341431
-0.1738992631435394,0.1944931298494339,0.1917117536067962,-0.3922758400440216,-0.1166315004229545,0.134507417678833,0.0,0.0,-0.1057110428810119,-0.3217241764068603
-0.171853631734848,0.1852578967809677,0.197857528924942,-0.4099473655223846,-0.1099665611982345,0.1332987397909164,0.0,0.0,0.0397665500640869,-0.1775351166725158
-0.1698056161403656,0.1761327385902404,0.1985884606838226,-0.4051164388656616,-0.1037998497486114,0.1233343929052352,0.0,0.0,0.2820764780044555,-0.526199221611023
-0.1675923317670822,0.1674384474754333,0.2139190882444381,-0.3859167695045471,-0.096447005867958,0.147056758403778,0.0,0.0,-0.2142519950866699,-0.5853123664855957
-0.165361687541008,0.1583484709262848,0.214641660451889,-0.4034801125526428,-0.0881076231598854,0.1667876243591308,0.0,0.0,0.4767725467681885,-0.4899050593376159
-0.1628836691379547,0.1498637497425079,0.2388336956501007,-0.3765920996665954,-0.0792278498411178,0.1775953024625778,0.0,0.0,0.0471007823944091,-0.8658664226531982
-0.1603941917419433,0.1417355835437774,0.2382947951555252,-0.3607173860073089,-0.0686818584799766,0.2109197825193405,0.0,0.0,-0.2862313985824585,-0.7811166644096375
-0.1578946113586425,0.1332256197929382,0.2381554841995239,-0.3777214288711548,-0.057005438953638,0.2335283458232879,0.0,0.0,0.1752887964248657,-0.8533350229263306
-0.1553203612565994,0.1249381601810455,0.2439240515232086,-0.367868959903717,-0.0436529107391834,0.2670503556728363,0.0,0.0,0.1635674238204956,-0.5968005061149597
-0.1527184545993805,0.1171270683407783,0.2455321252346038,-0.3467987775802612,-0.0291790720075368,0.2894767522811889,0.0,0.0,0.4589000940322876,-0.5512624979019165
-0.1500277519226074,0.1099685057997703,0.2532204985618591,-0.3179276883602142,-0.0135281682014465,0.313017874956131,0.0,0.0,0.4727553129196167,-0.649580180644989
-0.1472510397434234,0.1030250862240791,0.260401040315628,-0.3085264861583709,0.0035170121118426,0.3409038186073303,0.0,0.0,0.4962289333343506,-0.4938377141952514
-0.1445349752902984,0.0965272784233093,0.2549208104610443,-0.2889122366905212,0.01999375782907,0.3295347392559051,0.0,0.0,0.5213675498962402,0.2218923568725586
-0.1418954879045486,0.0903427451848983,0.247882530093193,-0.2751573324203491,0.0358683206140995,0.3174915313720703,0.0,0.0,0.6583888530731201,-0.357283353805542
-0.1392477005720138,0.0846111178398132,0.2488636076450348,-0.2551950216293335,0.0515881329774856,0.3143962025642395,0.0,0.0,0.4319789409637451,0.1085748672485351
-0.1365524232387542,0.0791795328259468,0.253582626581192,-0.242025688290596,0.0673580318689346,0.3153979182243347,0.0,0.0,0.511544942855835,0.3360098600387573
-0.1337122917175293,0.0738583207130432,0.2675795555114746,-0.2373189777135849,0.0836272612214088,0.3253848254680633,0.0,0.0,0.6376665830612183,0.4688990116119385
-0.1307858526706695,0.0691683143377304,0.2758294343948364,-0.2094671130180359,0.100290797650814,0.3332709670066833,0.0,0.0,0.316179871559143,-0.0082842707633972
-0.1278585493564605,0.0650465115904808,0.2759053409099579,-0.1844044625759124,0.1169949397444725,0.334083080291748,0.0,0.0,0.1525580883026123,0.2589468955993652
-0.1248684898018837,0.060862835496664,0.2820630669593811,-0.1873550713062286,0.1338537037372589,0.3371749222278595,0.0,0.0,0.0878599882125854,-0.3052667379379272
