x_pos,y_pos,x_vel,y_vel,angle,ang_vel,leg_1,leg_2,main_booster,lat_booster
-0.0015201568603515,1.4032903909683228,-0.1544868499040603,-0.3391039073467254,0.0022167023271322,0.04376021027565,0.0,0.0,0.4369788337237088,0.8557198221657023
-0.0029214858077466,1.3959475755691528,-0.1411359012126922,-0.3263483047485351,0.0032052118331193,0.019773069769144,0.0,0.0,-0.282434974441988,-0.8882235935749928
-0.004377651028335,1.388263463973999,-0.148446723818779,-0.3415318429470062,0.0060099316760897,0.056099247187376,0.0,0.0,0.0816867981003479,0.9822901425164748
-0.0058541297912597,1.3807324171066284,-0.1489886343479156,-0.3347207009792328,0.0073290634900331,0.026385074481368,0.0,0.0,0.0884395739521342,0.9782358059844468
-0.0071599958464503,1.373516321182251,-0.1304097771644592,-0.3207058012485504,0.007158272434026,-0.0034161794465035,0.0,0.0,-0.3712010319526544,0.6098040060708674
-0.0084134098142385,1.3659660816192627,-0.1241344809532165,-0.3355668187141418,0.0059592789039015,-0.0239819176495075,0.0,0.0,0.4851456085653032,-0.6397841376766471
-0.0097511289641261,1.3588595390319824,-0.1342486441135406,-0.3158450424671173,0.0064317798241972,0.0094511015340685,0.0,0.0,0.2221772693044137,-0.6304599249819103
-0.0110295293852686,1.3521393537521362,-0.130258098244667,-0.2986926436424255,0.0088248373940587,0.0478654727339744,0.0,0.0,-0.8030731337621733,0.9821829968897988
-0.0122449873015284,1.345096468925476,-0.1225125789642334,-0.3130196630954742,0.0097669474780559,0.0188441835343837,0.0,0.0,-0.7180224825570267,0.7016873062828713
-0.0134204868227243,1.3377248048782349,-0.1175548285245895,-0.327631264925003,0.0097797363996505,0.0002556302933953,0.0,0.0,-0.4271511226937208,0.9242520045074926
-0.01452980004251,1.330020785331726,-0.1092875003814697,-0.3423880040645599,0.0081587266176939,-0.0324234440922737,0.0,0.0,-0.848138891912315,-0.8988146842207948
-0.0157207492738962,1.321980118751526,-0.1195101737976074,-0.3573674261569977,0.0085715092718601,0.0082563264295458,0.0,0.0,-0.9863838292712276,0.7279306357434068
-0.0168632511049509,1.3136098384857178,-0.1133495718240737,-0.372006356716156,0.0076893861405551,-0.0176440384238958,0.0,0.0,0.7430277599561799,0.7529288715864385
-0.0178927425295114,1.3054620027542114,-0.1011853590607643,-0.3621158897876739,0.0059506194666028,-0.034778568893671,0.0,0.0,-0.7312062383856388,-0.8412617599063843
-0.0189983360469341,1.2969882488250732,-0.110558770596981,-0.3766132593154907,0.0059532937593758,5.339890049071983e-05,0.0,0.0,0.1882535165087828,-0.6829771007398049
-0.0200976375490427,1.288493275642395,-0.1119001731276512,-0.3775610029697418,0.0078986855223774,0.0389110594987869,0.0,0.0,-0.3250671608038622,0.9737278909186956
-0.0211318023502826,1.2796766757965088,-0.1034545451402664,-0.391851544380188,0.0079333512112498,0.000693584268447,0.0,0.0,-0.9945101193859832,0.95425398901865
-0.0221038814634084,1.2705188989639282,-0.0953421741724014,-0.4070039987564087,0.0060929232276976,-0.0368116907775402,0.0,0.0,0.2158553731911447,0.8147213690399882
-0.0229660980403423,1.2619221210479736,-0.0832771882414817,-0.38206747174263,0.0031747894827276,-0.058368045836687,0.0,0.0,0.6072580985713676,0.7716894162804772
-0.0238903053104877,1.2538167238235474,-0.0882353335618972,-0.3602406084537506,-0.0009712822502478,-0.0829286277294159,0.0,0.0,-0.9495252533616868,0.9911192402901788
-0.0247559547424316,1.2453842163085938,-0.080431081354618,-0.3747844994068146,-0.0070356740616261,-0.121298611164093,0.0,0.0,0.2938802513727458,-0.6442171674383912
-0.025697898119688,1.23713481426239,-0.0898446440696716,-0.3666742146015167,-0.0113348644226789,-0.0859918519854545,0.0,0.0,-0.1563458551531211,-0.6674200255110094
-0.0267210006713867,1.228550672531128,-0.0994737744331359,-0.3815354704856872,-0.0141279473900794,-0.0558662712574005,0.0,0.0,-0.551811309590807,0.9386733627899292
-0.0277023315429687,1.2196204662322998,-0.0936835557222366,-0.3969496488571167,-0.0185379590839147,-0.0882081240415573,0.0,0.0,0.0673179966047063,-0.9689409547782096
-0.02890520170331,1.2109874486923218,-0.1182761415839195,-0.3837171792984009,-0.0205250456929206,-0.0397450141608715,0.0,0.0,-0.7469455880479177,0.9468797574303852
-0.0300956722348928,1.2020020484924316,-0.1160634979605674,-0.3994012176990509,-0.02347475849092,-0.0589942634105682,0.0,0.0,0.3746514725109113,-0.8069613692781833
-0.0313777923583984,1.1935957670211792,-0.1273243725299835,-0.3736244440078735,-0.0243508666753768,-0.0175221767276525,0.0,0.0,-0.7411895665319903,-0.7226281134371451
-0.0327763557434082,1.1848653554916382,-0.1412050127983093,-0.3880005180835724,-0.023014660924673,0.0267240200191736,0.0,0.0,-0.2971862585714295,-0.6229506214222642
-0.0342829711735248,1.1758077144622805,-0.1540085822343826,-0.4025077521800995,-0.0197094846516847,0.0661037191748619,0.0,0.0,0.7902975908798897,-0.7023682840443088
-0.0359087958931922,1.1672084331512451,-0.1677598357200622,-0.3821374475955963,-0.0146047985181212,0.1020938381552696,0.0,0.0,0.5162733011278227,0.8309098640867056
-0.0374888405203819,1.1594479084014893,-0.1619891673326492,-0.3448781371116638,-0.0106663657352328,0.078768640756607,0.0,0.0,-0.6567742671127863,-0.8486392277863992
-0.0391963943839073,1.1513497829437256,-0.1771320849657058,-0.3598834872245788,-0.00436697807163,0.1259874254465103,0.0,0.0,0.1686214740832425,0.923432949989304
-0.0409494414925575,1.1437770128250122,-0.180260345339775,-0.3365590274333954,0.0005308954278007,0.0979573503136634,0.0,0.0,0.0761131071690122,-0.781453460935437
-0.0428660400211811,1.1362159252166748,-0.1986311674118042,-0.3360715210437774,0.007405680604279,0.1374956667423248,0.0,0.0,0.3930290660335616,-0.7297460384366177
-0.0448837280273437,1.1291157007217407,-0.2106756418943405,-0.3156324625015259,0.0162034295499324,0.1759547591209411,0.0,0.0,0.140450705255863,-0.7572451520733986
-0.0470108985900878,1.1224702596664429,-0.223616287112236,-0.2955034971237182,0.026963748037815,0.2152066975831985,0.0,0.0,0.6856103800085047,-0.9993685177514456
-0.049316119402647,1.1161799430847168,-0.2438361942768097,-0.2798681855201721,0.0401159971952438,0.2630450129508972,0.0,0.0,-0.9355895810751936,0.9383229163471714
-0.0515996925532817,1.1095696687698364,-0.2401068657636642,-0.2941504418849945,0.0517197623848915,0.2320751398801803,0.0,0.0,0.2896195499286536,-0.8141297912557407
-0.0540747642517089,1.1036139726638794,-0.2612804770469665,-0.265222817659378,0.0653388425707817,0.2723819315433502,0.0,0.0,0.4805358503820713,-0.894964293816353
-0.0566862113773822,1.0981398820877075,-0.2771688401699066,-0.2440675795078277,0.0812016800045967,0.3172566294670105,0.0,0.0,0.4926496959784205,-0.6998867246744231
-0.0595754608511924,1.0933736562728882,-0.3065701425075531,-0.2128789275884628,0.0986819043755531,0.3496046364307403,0.0,0.0,-0.9363144636154176,0.975160837173462
-0.0624322891235351,1.0882890224456787,-0.3013474345207214,-0.2270910292863845,0.114239327609539,0.3111481070518493,0.0,0.0,-0.865878164768219,0.9911247491836548
-0.0652583092451095,1.0828784704208374,-0.2963663935661316,-0.241582378745079,0.1279182136058807,0.2735779881477356,0.0,0.0,-0.9842644333839417,0.9977879524230956
-0.0680542960762977,1.0771517753601074,-0.2914090454578399,-0.2555626630783081,0.1396848708391189,0.2353335916996002,0.0,0.0,-0.9519782066345216,0.9846551418304444
-0.0708389282226562,1.0710973739624023,-0.2888272404670715,-0.2700983881950378,0.1500242501497268,0.2067873030900955,0.0,0.0,-0.9814215898513794,0.9454210996627808
-0.0736050605773925,1.0647190809249878,-0.2853395640850067,-0.2843809425830841,0.158729076385498,0.1740965396165847,0.0,0.0,-0.9741402268409728,0.9901275634765624
-0.0763482078909874,1.058023452758789,-0.2812301516532898,-0.2983410060405731,0.1656431406736374,0.1382820308208465,0.0,0.0,-0.9896597266197203,0.9912182092666626
-0.0790927857160568,1.0510210990905762,-0.280127465724945,-0.3118552565574646,0.1713179349899292,0.11349618434906,0.0,0.0,-0.94604754447937,0.9364633560180664
-0.0818450003862381,1.0437088012695312,-0.2797889709472656,-0.3255289494991302,0.1758988201618194,0.0916174873709678,0.0,0.0,-0.9866082072257996,0.9998247623443604
-0.0845856666564941,1.0360803604125977,-0.2770684659481048,-0.3393964767456054,0.1789139360189438,0.060302447527647,0.0,0.0,-0.7105286717414856,0.998227596282959
-0.0872942954301834,1.028144598007202,-0.2717615664005279,-0.352809876203537,0.1798088103532791,0.0178975909948349,0.0,0.0,-0.9383376240730286,0.9902663230895996
-0.089998722076416,1.0199010372161863,-0.2698917984962463,-0.3663176000118255,0.1792528331279754,-0.0111192669719457,0.0,0.0,-0.9357199668884276,0.9701776504516602
-0.092678353190422,1.011343002319336,-0.2654542326927185,-0.3800577521324157,0.1767420321702957,-0.050216119736433,0.0,0.0,-0.8069359660148621,0.9876148700714112
-0.09534702450037,1.00248122215271,-0.2627042531967163,-0.3933604061603546,0.1725659519433975,-0.0835217237472534,0.0,0.0,-0.9137107133865356,0.9777896404266356
-0.0979859381914138,0.9933080077171326,-0.2576002776622772,-0.4069929420948028,0.1662689447402954,-0.1259400993585586,0.0,0.0,-0.9772307872772216,0.9795694351196288
-0.1006258949637413,0.9838135242462158,-0.256370484828949,-0.4211406111717224,0.1586349457502365,-0.1526800990104675,0.0,0.0,-0.9764690399169922,0.9491865634918212
-0.1032474488019943,0.9740156531333924,-0.2526068687438965,-0.4344703257083893,0.1491000950336456,-0.1906969994306564,0.0,0.0,-0.9933326244354248,0.9844855070114136
-0.1058412566781044,0.9639111161231996,-0.2476831227540969,-0.4479674398899078,0.1374326944351196,-0.233348086476326,0.0,0.0,-0.9878277778625488,0.9850702285766602
-0.1084160804748535,0.9535030126571656,-0.2438163012266159,-0.461382657289505,0.1238263770937919,-0.2721263170242309,0.0,0.0,-0.994489848613739,0.870361328125
-0.1109988242387771,0.942782461643219,-0.2433311194181442,-0.4752959012985229,0.1089663505554199,-0.2972005307674408,0.0,0.0,-0.9950069189071656,0.8916996717453003
-0.1135722175240516,0.9317360520362854,-0.2406797856092453,-0.4898139834403991,0.0924354866147041,-0.3306172788143158,0.0,0.0,-0.9914368987083436,0.8508858680725098
-0.1161575317382812,0.920371949672699,-0.2406576126813888,-0.5040616393089294,0.0747339129447937,-0.3540316522121429,0.0,0.0,-0.9926149249076844,0.96486496925354
-0.1187185272574424,0.9086865186691284,-0.2361021488904953,-0.5184745192527771,0.054949551820755,-0.395687460899353,0.0,0.0,-0.9876582622528076,0.913055181503296
-0.1212723702192306,0.8966802358627319,-0.2336760759353637,-0.5329549908638,0.033496655523777,-0.429058164358139,0.0,0.0,-0.9557855129241944,0.8056151866912842
-0.123829461634159,0.8843439221382141,-0.232544869184494,-0.5479300618171692,0.0106287533417344,-0.4573580324649811,0.0,0.0,-0.9780943393707277,0.8247370719909668
-0.1264025717973709,0.8716817498207092,-0.2330241650342941,-0.5627591609954834,-0.0133470837026834,-0.4795172214508056,0.0,0.0,-0.9759499430656432,0.5129604339599609
-0.1290015280246734,0.8586985468864441,-0.2347314655780792,-0.5774402022361755,-0.0381968356668949,-0.4969949722290039,0.0,0.0,-0.9701460003852844,0.4373104572296142
-0.1316683739423751,0.8453893661499023,-0.241720512509346,-0.5923433303833008,-0.0628770813345909,-0.4936050474643707,0.0,0.0,-0.9710818529129028,0.1991723775863647
-0.1344032287597656,0.8317539095878601,-0.2487097233533859,-0.6072455644607544,-0.0874008461833,-0.4904757440090179,0.0,0.0,-0.9115614891052246,0.2489295005798339
-0.1372059881687164,0.8177921175956726,-0.2556976675987243,-0.6221467852592468,-0.1117812395095825,-0.48760786652565,0.0,0.0,-0.8714033365249634,0.5697404146194458
-0.140038400888443,0.8034999966621399,-0.2578999102115631,-0.6372986435890198,-0.1369937509298324,-0.5042502880096436,0.0,0.0,-0.3227447271347046,-0.441403865814209
-0.1429386138916015,0.7888817191123962,-0.2648815214633941,-0.6522021889686584,-0.1620888411998748,-0.5019020438194275,0.0,0.0,-0.314804196357727,0.5640575885772705
-0.1458713561296463,0.7739353179931641,-0.2674439549446106,-0.6673019528388977,-0.1879637241363525,-0.5174976587295532,0.0,0.0,0.2328722476959228,-0.1088885068893432
-0.148737147450447,0.7592827677726746,-0.2612259685993194,-0.6546365022659302,-0.2134933769702911,-0.5105935335159302,0.0,0.0,0.3720612525939941,0.130536675453186
-0.1516288816928863,0.7447893619537354,-0.2639126479625702,-0.648002564907074,-0.2390737235546112,-0.5116073489189148,0.0,0.0,0.8390955924987793,-0.9233115315437316
-0.1544931381940841,0.7304834127426147,-0.26334148645401,-0.6397462487220764,-0.2625930607318878,-0.4703861176967621,0.0,0.0,0.5805190801620483,-0.7966018915176392
-0.1574350297451019,0.7163499593734741,-0.2728095352649688,-0.6321378350257874,-0.2845089137554168,-0.4383169710636139,0.0,0.0,0.4129034280776977,-0.7403767704963684
-0.1603163778781891,0.7028988599777222,-0.2683745622634887,-0.601814866065979,-0.3048863708972931,-0.4075489640235901,0.0,0.0,0.6123888492584229,-0.7614288926124573
-0.1629997193813324,0.6902528405189514,-0.250377207994461,-0.565926194190979,-0.3235214352607727,-0.3727012574672699,0.0,0.0,0.1416115760803222,-0.8944951295852661
-0.1657218039035797,0.6781648993492126,-0.2561153769493103,-0.5409277677536011,-0.3403213918209076,-0.3359992504119873,0.0,0.0,-0.4396677613258362,0.5038402080535889
-0.1684832572937011,0.6657260060310364,-0.2593806982040405,-0.5568946599960327,-0.3579311668872833,-0.352195680141449,0.0,0.0,0.6195003986358643,-0.7826008796691895
-0.1710556000471115,0.6540610194206238,-0.2421690672636032,-0.5222816467285156,-0.373855859041214,-0.3184935748577118,0.0,0.0,0.0285007953643798,-0.8393478989601135
-0.1736948937177658,0.6426418423652649,-0.2505605220794678,-0.5110858082771301,-0.3880695402622223,-0.2842738926410675,0.0,0.0,0.8468565940856934,-0.8229209780693054
-0.1762357652187347,0.6320207118988037,-0.2422415018081665,-0.4753304421901703,-0.4007357358932495,-0.2533232569694519,0.0,0.0,0.7986345291137695,-0.3601091504096985
-0.178558737039566,0.6221267580986023,-0.2204272449016571,-0.4431430697441101,-0.4134986400604248,-0.2552576661109924,0.0,0.0,0.8233575820922852,-0.704613983631134
-0.1806457489728927,0.6127528548240662,-0.1984152197837829,-0.419658362865448,-0.4246129691600799,-0.2222868651151657,0.0,0.0,0.8931865692138672,-0.8098891973495483
-0.1826710700988769,0.6035965085029602,-0.1938303112983703,-0.4096050560474396,-0.4340514242649078,-0.1887692511081695,0.0,0.0,0.974968433380127,-0.8533706068992615
-0.1845128983259201,0.5947222113609314,-0.1773095428943634,-0.3965576291084289,-0.4415473341941833,-0.1499184817075729,0.0,0.0,0.9684436321258544,-0.8540849685668945
-0.1860176026821136,0.5863571763038635,-0.1455149799585342,-0.3733503222465515,-0.4469604194164276,-0.1082619279623031,0.0,0.0,0.9509371519088744,-0.7383120656013489
-0.1872801780700683,0.5782055854797363,-0.123015284538269,-0.3633328974246979,-0.4505172967910766,-0.0711370110511779,0.0,0.0,0.9142913818359376,-0.8750589489936829
-0.1882954537868499,0.5709510445594788,-0.0998719632625579,-0.3229624927043915,-0.4523399174213409,-0.0364520773291587,0.0,0.0,0.9617114067077636,-0.8691987991333008
-0.1890051811933517,0.5646020770072937,-0.0709548071026802,-0.2821801900863647,-0.4523570835590362,-0.0003431535151321,0.0,0.0,0.9880549907684326,-0.9508002996444702
-0.1893457472324371,0.5589461922645569,-0.0360177494585514,-0.2507403790950775,-0.4502038657665252,0.0430636517703533,0.0,0.0,0.5627224445343018,-0.9654787182807922
-0.1895895898342132,0.5533435940742493,-0.0281720757484436,-0.2477899491786956,-0.4460552930831909,0.082971341907978,0.0,0.0,0.7744331359863281,-0.9452741146087646
-0.1897849142551422,0.5482341647148132,-0.0249404869973659,-0.225376158952713,-0.4401433169841766,0.1182396858930587,0.0,0.0,0.7346322536468506,-0.8088882565498352
-0.1896224915981292,0.5440076589584351,0.0092032309621572,-0.1856543719768524,-0.4324801564216614,0.1532631069421768,0.0,0.0,-0.605934739112854,-0.9374843835830688
-0.1895909309387207,0.5394962430000305,-0.005648361518979,-0.1978237628936767,-0.4229185581207275,0.19123175740242,0.0,0.0,-0.0060899257659912,-0.8759136199951172
-0.189692884683609,0.5347110629081726,-0.0209725573658943,-0.2094880044460296,-0.4112835228443146,0.2327007800340652,0.0,0.0,0.2793930768966675,-0.6253350377082825
-0.1896138191223144,0.5303248763084412,-0.0041297911666333,-0.1914993673563003,-0.3983615934848785,0.2584385573863983,0.0,0.0,-0.5490422248840332,-0.4766683578491211
-0.1895929276943206,0.5256072878837585,-0.0098831607028841,-0.206368863582611,-0.3855819702148437,0.255592405796051,0.0,0.0,-0.4081112146377563,-0.4099907875061035
-0.1896292716264724,0.5205581784248352,-0.0155172972008585,-0.2212381213903427,-0.3729489743709564,0.2526598572731018,0.0,0.0,-0.0183127522468566,0.2348260879516601
-0.1897213906049728,0.5151776671409607,-0.0210226569324731,-0.2361071407794952,-0.3604666888713836,0.2496459931135177,0.0,0.0,-0.6654601097106934,0.1465219259262085
-0.1898681670427322,0.5094656348228455,-0.0263890866190195,-0.2509759068489074,-0.3481388986110687,0.2465556114912033,0.0,0.0,-0.7494380474090576,0.3375024795532226
-0.1900680512189865,0.5034220814704895,-0.0316058024764061,-0.2658443748950958,-0.3359692394733429,0.2433933913707733,0.0,0.0,-0.5400208830833435,-0.0593436956405639
-0.190319538116455,0.4970468282699585,-0.036661434918642,-0.2807124853134155,-0.3239610493183136,0.2401638329029083,0.0,0.0,-0.2214219570159912,0.2028009891510009
-0.1906209886074066,0.4903398752212524,-0.041543997824192,-0.2955802977085113,-0.3121174871921539,0.2368711680173874,0.0,0.0,-0.4685481786727905,-0.1858932971954345
-0.1909706145524978,0.4833012521266937,-0.0462409742176532,-0.3104477524757385,-0.3004415035247803,0.2335194796323776,0.0,0.0,-0.596940279006958,-0.3560110330581665
-0.1913664788007736,0.4759308099746704,-0.0507393181324005,-0.3253148794174194,-0.2889358699321747,0.2301126420497894,0.0,0.0,-0.3573324084281921,-0.2335423827171325
-0.1918065100908279,0.4682285189628601,-0.0550255477428436,-0.3401816189289093,-0.2776031494140625,0.2266544848680496,0.0,0.0,-0.0045583248138427,-0.0057634115219116
-0.1922884881496429,0.4601943492889404,-0.059085838496685,-0.3550479710102081,-0.2664457261562347,0.2231484949588775,0.0,0.0,0.6213209629058838,0.1105180978775024
-0.192605972290039,0.4529904127120971,-0.0424569807946682,-0.3182644844055176,-0.2554986178874969,0.2189419269561767,0.0,0.0,-0.6128260493278503,0.6540071964263916
-0.1929046660661697,0.4454382658004761,-0.0390069596469402,-0.3340871930122375,-0.2461818307638168,0.1863361895084381,0.0,0.0,-0.0913794040679931,0.2380141019821167
-0.1932378709316253,0.4375536441802978,-0.0423035770654678,-0.3489499390125274,-0.2370464354753494,0.1827074736356735,0.0,0.0,-0.9144558906555176,0.450719952583313
-0.1936029493808746,0.4293364286422729,-0.0453177951276302,-0.3638123273849487,-0.228094220161438,0.1790439933538437,0.0,0.0,-0.8461621999740601,0.5300319194793701
-0.1939648687839508,0.4207740128040313,-0.0440213307738304,-0.3793591558933258,-0.2201684564352035,0.1585148870944976,0.0,0.0,0.4998400211334228,0.3845390081405639
-0.194259837269783,0.4126343429088592,-0.0370703488588333,-0.3606548011302948,-0.2125193923711776,0.1529816687107086,0.0,0.0,-0.0712072253227233,0.877896785736084
-0.1945070326328277,0.4041371643543243,-0.0302887000143528,-0.376864343881607,-0.2069014906883239,0.1123581677675247,0.0,0.0,0.4239238500595093,0.3489243984222412
-0.1945997178554535,0.3957270383834839,-0.015175649896264,-0.3729705810546875,-0.2009515911340713,0.1189982146024704,0.0,0.0,-0.1980487704277038,0.8285146951675415
-0.1946334838867187,0.3869643807411194,-0.0071694231592118,-0.3889401853084564,-0.1971229910850525,0.0765720233321189,0.0,0.0,0.1973674297332763,0.5253918170928955
-0.1945041716098785,0.3787149786949157,0.0103154983371496,-0.3662938475608825,-0.1944965273141861,0.0525295063853263,0.0,0.0,-0.6080641746520996,0.4499484300613403
