x_pos,y_pos,x_vel,y_vel,angle,ang_vel,leg_1,leg_2,main_booster,lat_booster
-0.0015399933326989,1.4032007455825806,-0.1557041257619857,-0.343089759349823,0.0015217578038573,0.0300001557916402,0.0,0.0,-0.5898498892784119,0.5087428092956543
-0.0030529976356774,1.395078182220459,-0.1514284461736679,-0.3610062003135681,0.0016513094305992,0.0025923424400389,0.0,0.0,-0.1996338963508606,0.6168038845062256
-0.0045226095244288,1.3865268230438232,-0.145318791270256,-0.3800597786903381,3.0643623176729307e-05,-0.0324167273938655,0.0,0.0,-0.3552029728889465,0.8988745212554932
-0.0059507368132472,1.3775484561920166,-0.1394796222448349,-0.3990335166454315,-0.0032775404397398,-0.0661697760224342,0.0,0.0,0.0413661003112793,0.2902090549468994
-0.0073113441467285,1.368762731552124,-0.1328465044498443,-0.39048832654953,-0.0064567429944872,-0.0635897740721702,0.0,0.0,0.3287715911865234,-0.0183572173118591
-0.0085733411833643,1.3602073192596436,-0.1232625395059585,-0.3802582025527954,-0.009369608014822,-0.0582626648247242,0.0,0.0,0.1053962707519531,0.4607175588607788
-0.0098611833527684,1.3518078327178955,-0.1255061328411102,-0.3733347058296203,-0.0126157356426119,-0.0649283677339553,0.0,0.0,0.2531948089599609,0.3039276599884033
-0.0110433576628565,1.343718647956848,-0.1152275204658508,-0.3595536351203918,-0.0155824720859527,-0.0593398511409759,0.0,0.0,-0.4171909689903259,-0.0196878910064697
-0.0122391702607274,1.3352055549621582,-0.1163204461336135,-0.3783974945545196,-0.0188107024878263,-0.0645703002810478,0.0,0.0,0.2021850347518921,-0.0089484453201293
-0.0134387966245412,1.327061414718628,-0.1164330393075943,-0.3620031476020813,-0.0223025325685739,-0.069842979311943,0.0,0.0,-0.5045394897460938,-0.0645937919616699
-0.0146512035280466,1.3184937238693235,-0.1174460873007774,-0.3808501362800598,-0.0260553993284702,-0.0750639513134956,0.0,0.0,-0.7864474058151245,0.6749248504638672
-0.0158164985477924,1.3094987869262695,-0.1109669953584671,-0.3998793661594391,-0.0315642207860946,-0.1101868748664856,0.0,0.0,-0.1589739918708801,-0.4622966051101684
-0.0169938094913959,1.3000805377960205,-0.1118932142853736,-0.4187217354774475,-0.0373331755399704,-0.1153896227478981,0.0,0.0,-0.6645939350128174,-0.0436372756958007
-0.0181825645267963,1.2902390956878662,-0.1127781420946121,-0.4375647306442261,-0.0433631055057048,-0.1206095591187477,0.0,0.0,-0.3307151794433594,-0.0444734692573547
-0.0193822868168354,1.279974341392517,-0.113621212542057,-0.4564079344272613,-0.0496536158025264,-0.1258217096328735,0.0,0.0,-0.3443909883499145,-0.5517693758010864
-0.0206284523010253,1.269282341003418,-0.1189071983098983,-0.4753915965557098,-0.0553095079958438,-0.1131280437111854,0.0,0.0,0.5459771156311035,-0.2749632596969604
-0.0217119213193655,1.259355545043945,-0.102976843714714,-0.4414041638374328,-0.0606206692755222,-0.1062328666448593,0.0,0.0,-0.9662385582923888,-0.5954504013061523
-0.0228411667048931,1.2490031719207764,-0.1082149595022201,-0.4602997601032257,-0.0652900710701942,-0.0933965370059013,0.0,0.0,-0.8018658757209778,0.3796670436859131
-0.0239797588437795,1.2382277250289917,-0.1088952422142028,-0.4791381955146789,-0.0702198669314384,-0.098604567348957,0.0,0.0,0.0299074649810791,-0.4288188219070434
-0.0251528732478618,1.2275619506835938,-0.1118357926607132,-0.4742943942546844,-0.0756444260478019,-0.1085007414221763,0.0,0.0,-0.6901562809944153,0.699437141418457
-0.0262674335390329,1.2164705991744995,-0.1040262579917907,-0.4933399558067322,-0.0830130577087402,-0.1473859250545501,0.0,0.0,-0.8195343017578125,-0.4256017208099365
-0.0273900032043457,1.204956293106079,-0.10457444190979,-0.5121848583221436,-0.090640127658844,-0.1525550186634063,0.0,0.0,-0.6141605973243713,-0.8765842914581299
-0.0285745617002248,1.1930253505706787,-0.1118836551904678,-0.5306745171546936,-0.0971569493412971,-0.1303482055664062,0.0,0.0,0.4477219581604004,-0.9545642137527466
-0.0297458656132221,1.18107008934021,-0.1122955456376075,-0.5316759347915649,-0.1019706428050994,-0.0962825194001197,0.0,0.0,-0.0649406313896179,-0.8362821340560913
-0.0310054775327444,1.168705940246582,-0.1229216903448104,-0.5497247576713562,-0.1049817726016044,-0.0602276436984539,0.0,0.0,-0.8357858657836914,-0.944668471813202
-0.0323650352656841,1.155916690826416,-0.1350232809782028,-0.5684797167778015,-0.1059091463685035,-0.0185478366911411,0.0,0.0,-0.0505083203315734,0.4266175031661987
-0.0337308868765831,1.142703890800476,-0.1353933662176132,-0.5873196125030518,-0.107094258069992,-0.0237023942172527,0.0,0.0,0.0274087190628051,-0.1889073252677917
-0.0351285934448242,1.1298460960388184,-0.1379399299621582,-0.571588933467865,-0.1089124083518982,-0.0363625735044479,0.0,0.0,0.1816709041595459,0.3696539402008056
-0.0365643501281738,1.1174062490463257,-0.1410554945468902,-0.5530687570571899,-0.1114186123013496,-0.0501241162419319,0.0,0.0,0.4047638177871704,-0.7779132127761841
-0.0380404479801654,1.1051716804504397,-0.1463623642921447,-0.5438531041145325,-0.1126580014824867,-0.0247878786176443,0.0,0.0,-0.1730316281318664,0.8532423973083496
-0.0394515022635459,1.092511534690857,-0.1378345787525177,-0.5629228949546814,-0.1159033179283142,-0.0649062544107437,0.0,0.0,0.2746508121490478,-0.0173038244247436
-0.0408874526619911,1.0799423456192017,-0.1397974044084549,-0.5589335560798645,-0.1196796372532844,-0.0755267366766929,0.0,0.0,0.3578031063079834,-0.0405948162078857
-0.0423162467777729,1.0679432153701782,-0.1385097801685333,-0.5336535573005676,-0.1240220069885253,-0.0868473798036575,0.0,0.0,-0.8203876614570618,-0.379852294921875
-0.0437487587332725,1.05552077293396,-0.1386369168758392,-0.5524953007698059,-0.1286151260137558,-0.0918623954057693,0.0,0.0,-0.2772483825683594,-0.0809378623962402
-0.0451847091317176,1.042675256729126,-0.138733685016632,-0.5713373422622681,-0.1334574520587921,-0.0968464687466621,0.0,0.0,-0.6583533883094788,-0.5407746434211731
-0.0466645248234272,1.0294189453125,-0.1439271569252014,-0.5895389318466187,-0.13749760389328,-0.080803096294403,0.0,0.0,-0.648182213306427,-0.0158535242080688
-0.0481472015380859,1.0157395601272583,-0.1439667791128158,-0.6083806157112122,-0.1417833268642425,-0.0857144594192504,0.0,0.0,-0.2738281488418579,-0.860504686832428
-0.049694824963808,1.0016568899154663,-0.1518425345420837,-0.6261769533157349,-0.14469775557518,-0.058288674801588,0.0,0.0,0.8200783729553223,-0.9796743392944336
-0.0512343421578407,0.9885666966438292,-0.1526833176612854,-0.5819093585014343,-0.1459614485502243,-0.0252739395946264,0.0,0.0,-0.5953343510627747,0.5989744663238525
-0.0527267456054687,0.9750430583953856,-0.1464781910181045,-0.6013203263282776,-0.1487172245979309,-0.0551155917346477,0.0,0.0,-0.9026698470115662,-0.9663179516792296
-0.0543089881539344,0.9611241817474364,-0.1575124263763427,-0.6186875700950623,-0.1494290083646774,-0.0142353596165776,0.0,0.0,-0.9071889519691468,-0.0234111547470092
-0.0558927543461322,0.9467820525169371,-0.1574325859546661,-0.6375280618667603,-0.1503732353448867,-0.0188844092190265,0.0,0.0,-0.9234974980354308,-0.6603575348854065
-0.0575218200683593,0.9320191740989684,-0.1628433614969253,-0.6561400890350342,-0.1504425406455993,-0.0013862209161743,0.0,0.0,-0.8099097013473511,-0.1042808294296264
-0.0591520294547081,0.916832685470581,-0.1627257764339447,-0.6749804615974426,-0.150737002491951,-0.0058892047964036,0.0,0.0,-0.1814996004104614,-0.8612813353538513
-0.0608560554683208,0.9012292623519896,-0.1717200726270675,-0.6933555603027344,-0.1494187861680984,0.0263647232204675,0.0,0.0,-0.6277914643287659,-0.5420708656311035
-0.0626004189252853,0.8852058053016663,-0.1765422523021698,-0.7119454145431519,-0.1473183631896972,0.0420083738863468,0.0,0.0,-0.3682915568351745,0.1771711111068725
-0.0643452629446983,0.8687589168548584,-0.1763792484998703,-0.7307859659194946,-0.1454293131828308,0.0377809107303619,0.0,0.0,-0.4467920064926147,-0.4123743772506714
-0.066090390086174,0.8518885970115662,-0.1762040555477142,-0.7496262788772583,-0.1437461823225021,0.0336626544594764,0.0,0.0,-0.3363004922866821,-0.5881214737892151
-0.06789131462574,0.8346123099327087,-0.183022454380989,-0.7675573825836182,-0.1408255100250244,0.0584133379161357,0.0,0.0,-0.6331498026847839,-0.3714876770973205
-0.0696922317147255,0.8169125914573669,-0.1828275471925735,-0.7863978743553162,-0.1380983740091323,0.0545426607131958,0.0,0.0,-0.1366739273071289,0.4057388305664062
-0.0714930519461631,0.7987894415855408,-0.1826249659061432,-0.8052381873130798,-0.1355578005313873,0.0508114285767078,0.0,0.0,-0.04619961977005,0.270641565322876
-0.0732934921979904,0.7802430391311646,-0.1824162304401397,-0.824078381061554,-0.1331962496042251,0.047230739146471,0.0,0.0,0.8000330924987793,0.3003767728805542
-0.0749112144112587,0.761969268321991,-0.1645166277885437,-0.8119182586669922,-0.1304546743631363,0.0548316165804863,0.0,0.0,0.7988407611846924,0.7673934698104858
-0.0763506889343261,0.7445583343505859,-0.1450129598379135,-0.7737300992012024,-0.1293969303369522,0.0211546290665864,0.0,0.0,0.3773192167282104,0.3516002893447876
-0.077613927423954,0.7273043990135193,-0.1278077214956283,-0.7667166590690613,-0.1279175281524658,0.0295879002660512,0.0,0.0,-0.4525653719902038,-0.1559157371520996
-0.0788764953613281,0.7096268534660339,-0.1275894492864608,-0.785555899143219,-0.1265811771154403,0.0267269257456064,0.0,0.0,0.494590163230896,0.3551180362701416
-0.079962633550167,0.6925823092460632,-0.1102262958884239,-0.7573959231376648,-0.1249839588999748,0.031944453716278,0.0,0.0,0.4951397180557251,-0.1186020970344543
-0.0808479338884353,0.6759992241859436,-0.0905904322862625,-0.736851692199707,-0.1229304522275924,0.04107017070055,0.0,0.0,0.2334342002868652,0.0128765106201171
-0.0816014260053634,0.6598973870277405,-0.0775644555687904,-0.7154563665390015,-0.1207287013530731,0.0440351031720638,0.0,0.0,-0.0442206859588623,-0.1808215975761413
-0.082353875041008,0.6433718204498291,-0.0773602128028869,-0.7342953085899353,-0.1186245307326316,0.0420834310352802,0.0,0.0,0.6491522789001465,-0.0629863739013671
-0.0830106735229492,0.626964271068573,-0.0679507702589035,-0.7290487289428711,-0.1163688525557518,0.0451135672628879,0.0,0.0,0.0674251317977905,-0.1970436573028564
-0.083678051829338,0.6108195185661316,-0.0686320811510086,-0.7174015045166016,-0.1144845560193061,0.037685826420784,0.0,0.0,0.4196455478668213,-0.3742901682853699
-0.0841879844665527,0.59489506483078,-0.053325455635786,-0.7075778245925903,-0.112167440354824,0.0463421232998371,0.0,0.0,0.4938218593597412,0.0407564640045166
-0.0846135169267654,0.5793693661689758,-0.0449340268969535,-0.6898527145385742,-0.1097959876060485,0.0474287904798984,0.0,0.0,-0.2254674434661865,-0.0103684663772583
-0.0850377082824707,0.5634199976921082,-0.0447783470153808,-0.7086910009384155,-0.1074546501040458,0.046827033162117,0.0,0.0,0.2929483652114868,-0.1749209761619568
-0.085507296025753,0.5477521419525146,-0.0488549098372459,-0.6962116956710815,-0.1055772006511688,0.0375488139688968,0.0,0.0,0.567717432975769,-0.3160851597785949
-0.0858697891235351,0.5328687429428101,-0.0382362529635429,-0.6613491773605347,-0.1036068424582481,0.0394072644412517,0.0,0.0,-0.2388697862625122,-0.3853192925453186
-0.0862311348319053,0.5175614953041077,-0.0381247736513614,-0.6801869869232178,-0.1016233935952186,0.0396690443158149,0.0,0.0,0.6616061925888062,-0.0261133313179016
-0.0864769965410232,0.5031073689460754,-0.0267395582050085,-0.6422569751739502,-0.0994867533445358,0.0427326038479805,0.0,0.0,-0.4355430603027344,0.3444347381591797
-0.0867217034101486,0.4882295727729797,-0.0266632083803415,-0.661094605922699,-0.0973085090517997,0.0435648933053016,0.0,0.0,0.6361727714538574,-0.0106926560401916
-0.086990550160408,0.4739421308040619,-0.0287156514823436,-0.6348771452903748,-0.0954954102635383,0.0362622514367103,0.0,0.0,-0.0542969703674316,-0.0038079023361206
-0.0872583389282226,0.459230899810791,-0.0286785028874874,-0.6537144184112549,-0.0936131328344345,0.0376456081867218,0.0,0.0,0.7114065885543823,0.3586184978485107
-0.0875761955976486,0.4454208612442016,-0.0331452041864395,-0.6136924624443054,-0.092265710234642,0.0269482843577861,0.0,0.0,-0.2343685626983642,0.2054387331008911
-0.0878932029008865,0.4311869144439697,-0.0331509672105312,-0.6325294971466064,-0.0908231064677238,0.0288521293550729,0.0,0.0,0.809023380279541,0.1302518844604492
-0.0882072448730468,0.4171737730503082,-0.0327984690666198,-0.6227227449417114,-0.0894437879323959,0.0275863762944936,0.0,0.0,0.8250596523284912,0.0560662746429443
-0.088413618505001,0.4032630622386932,-0.0225103888660669,-0.6181423664093018,-0.0875977277755737,0.0369213595986366,0.0,0.0,0.8138115406036377,-0.0424943566322326
-0.0886215195059776,0.3894897997379303,-0.0226193014532327,-0.6120387315750122,-0.0857816636562347,0.0363214388489723,0.0,0.0,0.9429011344909668,0.4111065864562988
-0.0887588486075401,0.3766878843307495,-0.0156600847840309,-0.5688647031784058,-0.083869956433773,0.0382341258227825,0.0,0.0,0.3521451950073242,0.1085195541381836
-0.0887745842337608,0.3644517660140991,-0.0039698416367173,-0.5436969995498657,-0.0815040990710258,0.0473173186182975,0.0,0.0,0.4902327060699463,0.740861177444458
-0.0887831673026084,0.3529077768325805,-0.0017275096615776,-0.513019323348999,-0.0806444957852363,0.0171921756118536,0.0,0.0,-0.3490294218063354,0.4977917671203613
-0.0887918472290039,0.3409397602081299,-0.0019069273257628,-0.5318558216094971,-0.0796153843402862,0.0205823592841625,0.0,0.0,0.4050793647766113,0.625330924987793
-0.088660143315792,0.3295481503009796,0.0131295025348663,-0.506292462348938,-0.0795771703124046,0.000764082185924,0.0,0.0,0.2428255081176757,-0.1906796097755432
-0.0885704979300499,0.3183888792991638,0.0090961940586566,-0.4959732294082641,-0.0797059908509254,-0.0025764522142708,0.0,0.0,0.018710970878601,-0.2888035774230957
-0.0884819030761718,0.3074345886707306,0.0089520122855901,-0.4868640303611755,-0.0797984078526496,-0.0018483204767107,0.0,0.0,0.2827823162078857,-0.3508071899414062
-0.0883601158857345,0.2968690395355224,0.0121095310896635,-0.4695724844932556,-0.0797343179583549,0.0012818066170439,0.0,0.0,-0.4346880316734314,0.0599919557571411
-0.0882395729422569,0.2858795821666717,0.0117913382127881,-0.4884086549282074,-0.0794645696878433,0.0053949090652167,0.0,0.0,0.0858386754989624,-0.1265202760696411
-0.088086798787117,0.2748005390167236,0.0147113874554634,-0.4923725724220276,-0.0789113789796829,0.011063827201724,0.0,0.0,0.5391756296157837,0.2460900545120239
-0.0878198593854904,0.2638481259346008,0.0255061797797679,-0.4867118597030639,-0.0777417346835136,0.0233931317925453,0.0,0.0,0.019762635231018,-0.6481202244758606
-0.0874754935503006,0.2529926300048828,0.0316210351884365,-0.4823250472545624,-0.0749550238251686,0.0557343773543834,0.0,0.0,0.2908670902252197,-0.0201987624168396
-0.0870014205574989,0.2421617805957794,0.0438494309782981,-0.481194406747818,-0.0714383721351623,0.0703328400850296,0.0,0.0,0.6947910785675049,-0.449285626411438
-0.0864804238080978,0.2320608049631118,0.0483386442065238,-0.448758989572525,-0.0677184015512466,0.0743995457887649,0.0,0.0,-0.2933064699172973,0.5415735244750977
-0.0859168022871017,0.2215354591608047,0.0535085685551166,-0.4676691889762878,-0.0648970454931259,0.0564269423484802,0.0,0.0,0.1817500591278076,-0.149142324924469
-0.0852360725402832,0.2112916260957718,0.0645594149827957,-0.4551305174827575,-0.0614260584115982,0.0694195628166198,0.0,0.0,0.3650630712509155,-0.3019829988479614
-0.0844587311148643,0.201020136475563,0.0735975354909896,-0.4563458263874054,-0.0573288239538669,0.0819447711110115,0.0,0.0,0.4295296669006347,0.1718790531158447
-0.0837046653032302,0.1909886747598648,0.0712233409285545,-0.4456914365291595,-0.053198155015707,0.0826133340597152,0.0,0.0,0.0373116731643676,-0.6098113656044006
-0.0829133987426757,0.1813511699438095,0.0733913481235504,-0.4281381368637085,-0.047530859708786,0.1133458837866783,0.0,0.0,-0.2740753293037414,0.320337176322937
-0.0821258574724197,0.171290174126625,0.0727630257606506,-0.4469774067401886,-0.0416145920753479,0.1183255538344383,0.0,0.0,0.6073675155639648,0.068510890007019
-0.0814311057329177,0.1619731038808822,0.0638011544942855,-0.4139449000358581,-0.0360070690512657,0.1121506839990615,0.0,0.0,0.2153646945953369,-0.1396046280860901
-0.0806580558419227,0.1529986411333084,0.0710690915584564,-0.398728996515274,-0.0298499204218387,0.1231428831815719,0.0,0.0,0.2820613384246826,-0.0835931301116943
-0.0799137130379676,0.144475519657135,0.0681443363428115,-0.3786935210227966,-0.023629592731595,0.1244063228368759,0.0,0.0,-0.0294285416603088,0.063339352607727
-0.0791739448904991,0.135529026389122,0.0674131214618682,-0.3975338041782379,-0.0171521510928869,0.1295488029718399,0.0,0.0,0.2197835445404052,0.0773520469665527
-0.0784511566162109,0.1267109960317611,0.0655393376946449,-0.3918476104736328,-0.0105008948594331,0.1330249309539795,0.0,0.0,0.5367293357849121,0.9289393424987792
-0.0777769088745117,0.1183103919029235,0.0624447278678417,-0.3733361661434173,-0.0055807675234973,0.0984025374054908,0.0,0.0,0.481849193572998,0.3554073572158813
-0.0772403702139854,0.1101919487118721,0.0490424297749996,-0.3608103096485138,-0.0010233322391286,0.0911486744880676,0.0,0.0,0.2846564054489136,0.7466154098510742
-0.0765568763017654,0.1024921536445617,0.0648463368415832,-0.342212826013565,0.0024321482051163,0.0691098421812057,0.0,0.0,0.1177974939346313,0.3916918039321899
-0.0758381858468055,0.0947433561086654,0.0678975135087966,-0.3444024324417114,0.0063437120988965,0.0782315507531166,0.0,0.0,0.354611873626709,0.6392438411712646
-0.0749478340148925,0.0875158384442329,0.0858471989631652,-0.321238100528717,0.0094930594787001,0.0629871189594268,0.0,0.0,0.0458889007568359,0.7093963623046875
-0.0740286856889724,0.0806078985333442,0.089889608323574,-0.3070307970046997,0.0114841740578413,0.0398224182426929,0.0,0.0,-0.2875515222549438,0.3995716571807861
-0.0731159225106239,0.0732762441039085,0.0889858230948448,-0.3258689939975738,0.0137423025444149,0.0451626405119895,0.0,0.0,0.6998516321182251,0.668001651763916
-0.0720797553658485,0.0664182975888252,0.1022006124258041,-0.3048144876956939,0.015134634450078,0.0278466828167438,0.0,0.0,0.5567917823791504,0.6210645437240601
-0.0710202232003212,0.0602975711226463,0.1055393069982528,-0.2720365822315216,0.0155434347689151,0.0081760110333561,0.0,0.0,-0.2846999168395996,-0.0212422609329223
-0.0699674636125564,0.0537530519068241,0.104585088789463,-0.2908745110034942,0.0162214469164609,0.0135605884715914,0.0,0.0,0.6448111534118652,0.0295864343643188
-0.068848893046379,0.0474713183939456,0.1105220168828964,-0.2792038023471832,0.017540393397212,0.0263788439333438,0.0,0.0,0.4934946298599243,0.2235660552978515
-0.0678577423095703,0.0416011437773704,0.0980232805013656,-0.2609083652496338,0.0186182167381048,0.0215565003454685,0.0,0.0,0.6338145732879639,0.6970784664154053
-0.0669667273759841,0.0360665656626224,0.0894320160150528,-0.2459793239831924,0.0182890184223651,-0.0065840510651469,0.0,0.0,0.1650866270065307,0.2783842086791992
-0.0661055594682693,0.0307039357721805,0.0862515568733215,-0.2383367717266082,0.0181608833372592,-0.0025628264993429,0.0,0.0,0.6534545421600342,0.3583930730819702
-0.0652354210615158,0.0257189609110355,0.0867423489689827,-0.2215590178966522,0.0184246189892292,0.0052747502923011,0.0,0.0,0.3636006116867065,0.6199296712875366
-0.0642106980085372,0.020754300057888,0.1029372811317443,-0.2206473052501678,0.0179590843617916,-0.0093103544786572,0.0,0.0,0.6301676034927368,0.090978980064392
-0.0631096810102462,0.0163802951574325,0.1098569482564926,-0.1944038569927215,0.0182107742875814,0.0050335968844592,0.0,0.0,0.4355689287185669,-0.5134272575378418
-0.0620461478829383,0.0126381488516926,0.1047239452600479,-0.1663379073143005,0.0198139119893312,0.0320626832544803,0.0,0.0,0.0467433929443359,0.0840712785720825
