x_pos,y_pos,x_vel,y_vel,angle,ang_vel,leg_1,leg_2,main_booster,lat_booster
-0.0015182495117187,1.4029300212860107,-0.1541628539562225,-0.3551194369792938,0.0020868110004812,0.0411883518099784,0.0,0.0,-0.0079254508018493,0.6869521141052246
-0.0029727935325354,1.3942652940750122,-0.146337404847145,-0.3850994706153869,0.0029645233880728,0.017556207254529,0.0,0.0,0.1380205154418945,0.9595038890838624
-0.0042386054992675,1.3853168487548828,-0.1258908361196518,-0.3977099359035492,0.0022855522111058,-0.0135809136554598,0.0,0.0,-0.0234493613243103,0.7930419445037842
-0.0054488182067871,1.37567138671875,-0.1193851679563522,-0.4286916553974151,0.0006672639865428,-0.0323685184121131,0.0,0.0,0.4195308685302734,0.4699262380599975
-0.0065431594848632,1.3661718368530271,-0.1086479648947715,-0.4222012460231781,-9.976861474569888e-05,-0.0153424693271517,0.0,0.0,-0.5162980556488037,0.5343433618545532
-0.007580280303955,1.3559768199920654,-0.1019513607025146,-0.4531119167804718,-0.0018443362787365,-0.0348943546414375,0.0,0.0,0.3232581615447998,0.4652160406112671
-0.0086291311308741,1.3457810878753662,-0.1033605113625526,-0.4531408548355102,-0.0033526776824146,-0.0301697514951229,0.0,0.0,-0.0877711772918701,0.4319428205490112
-0.0096725467592477,1.3348909616470337,-0.1031363382935524,-0.4840156137943268,-0.0045388578437268,-0.023725863546133,0.0,0.0,0.2784984111785888,0.0835325717926025
-0.0107169151306152,1.3242775201797483,-0.1035083979368209,-0.4717081785202026,-0.0054467860609292,-0.0181605275720357,0.0,0.0,-0.582319974899292,0.1349943876266479
-0.011755752377212,1.312969446182251,-0.1032879799604415,-0.5025851726531982,-0.0060314862057566,-0.0116950245574116,0.0,0.0,-0.3559109568595886,0.276092529296875
-0.0127890584990382,1.300966739654541,-0.1030697226524353,-0.5334519147872925,-0.0062927203252911,-0.0052255121991038,0.0,0.0,0.2068840265274047,0.5850460529327393
-0.0137113574892282,1.2888462543487549,-0.0912280976772308,,-0.0072812712751328,-0.0197725780308246,0.0,0.0,0.2295172214508056,-0.6895211338996887
-0.0145700452849268,1.276814579963684,-0.0867419019341468,-0.5347310900688171,-0.0064153233543038,0.0173203647136688,0.0,0.0,-0.6522945761680603,-0.1224389672279357
-0.0154233928769826,1.2640883922576904,-0.0865323841571807,-0.5656045079231262,-0.0052264258265495,0.0237799175083637,0.0,0.0,-0.6009603142738342,0.5008406639099121
-0.0162225719541311,1.250672459602356,-0.0802062377333641,-0.5962621569633484,-0.004938852507621,0.0057521504350006,0.0,0.0,0.0451953411102294,-0.2906137704849243
-0.0169460289180278,1.2368435859680176,-0.0732980221509933,-0.614615797996521,-0.0040003792382776,0.0187711752951145,0.0,0.0,0.4377669095993042,0.2102468013763427
-0.0175412185490131,1.223435878753662,-0.0613698959350585,-0.5958885550498962,-0.0021753022447228,0.0365051701664924,0.0,0.0,-0.7473401427268982,-0.6706191301345825
-0.0181716922670602,1.2093281745910645,-0.0662432461977005,-0.6270121932029724,0.0009898586431518,0.0633088201284408,0.0,0.0,-0.3987094759941101,0.3288575410842895
-0.0187969207763671,1.194526195526123,-0.0660481303930282,-0.6578782200813293,0.0044783735647797,0.0697763338685035,0.0,0.0,-0.4924614429473877,-0.2426719069480896
-0.0194169040769338,1.1790295839309692,-0.0658557787537574,-0.6887476444244385,0.0082903867587447,0.0762470811605453,0.0,0.0,-0.7325657606124878,0.3974254131317138
-0.0200318340212106,1.1628389358520508,-0.0656664967536926,-0.719618558883667,0.0124254180118441,0.0827076211571693,0.0,0.0,0.0955621004104614,0.4537887573242187
-0.0206375122070312,1.1463940143585205,-0.0651039034128189,-0.7309252023696899,0.0169191900640726,0.0898835435509681,0.0,0.0,0.429027795791626,0.5561397075653076
-0.0210803039371967,1.1299645900726318,-0.0483118556439876,-0.730246365070343,0.0209137443453073,0.0798978805541992,0.0,0.0,0.1486952304840088,0.3814139366149902
-0.0214738845825195,1.1131677627563477,-0.0439549535512924,-0.7465910315513611,0.0254556722939014,0.0908465385437011,0.0,0.0,-0.3906750679016113,0.7428884506225586
-0.0218176841735839,1.0956807136535645,-0.0381479039788246,-0.777276337146759,0.0291894096881151,0.0746814981102943,0.0,0.0,-0.1727744340896606,0.756293535232544
-0.0221105571836233,1.0774836540222168,-0.0322466269135475,-0.8088111877441406,0.0321039371192455,0.0582907870411872,0.0,0.0,-0.3687579035758972,0.6002249717712402
-0.0223506931215524,1.0585986375808716,-0.0260753333568573,-0.8393853902816772,0.034137200564146,0.040665291249752,0.0,0.0,0.704393744468689,0.7453361749649048
-0.0227036476135253,1.0402987003326416,-0.0358650907874107,-0.8133441209793091,0.0347048602998256,0.0113532003015279,0.0,0.0,0.7669234275817871,0.5902986526489258
-0.0231832507997751,1.0225458145141602,-0.047275573015213,-0.7890031337738037,0.0340255871415138,-0.0135854389518499,0.0,0.0,0.9764702320098876,-0.3258368968963623
-0.0237029083073139,1.004971623420715,-0.0514769479632377,-0.7810619473457336,0.0335483141243457,-0.0095455013215541,0.0,0.0,0.9371005296707152,-0.6145880222320557
-0.0242761615663766,0.9881970286369324,-0.0584675446152687,-0.7455675601959229,0.0346733182668685,0.022500080987811,0.0,0.0,0.7287578582763672,0.039361834526062
-0.0249418262392282,0.9714111685752868,-0.0676433891057968,-0.7460631728172302,0.0357379168272018,0.0212923474609851,0.0,0.0,0.2155057191848755,0.0889309644699096
-0.0256844516843557,0.9548117518424988,-0.0753728076815605,-0.7377766966819763,0.0368365012109279,0.0219718124717474,0.0,0.0,-0.0277725458145141,0.6766140460968018
-0.026374340057373,0.93751460313797,-0.0691969543695449,-0.7687708139419556,0.0370461270213127,0.0041923923417925,0.0,0.0,0.4231295585632324,-0.1776978373527526
-0.0270654670894145,0.9203335642814636,-0.069709412753582,-0.7636121511459351,0.0376327820122242,0.0117326620966196,0.0,0.0,0.5201355218887329,0.708793044090271
-0.0277038570493459,0.9035109281539916,-0.0633526593446731,-0.7476614117622375,0.0371540859341621,-0.0095739318057894,0.0,0.0,0.4848111867904663,0.1175884008407592
-0.0283764842897653,0.886605978012085,-0.0669769048690795,-0.7513248920440674,0.0368751548230648,-0.0055784946307539,0.0,0.0,0.6934065818786621,-0.0136882662773132
-0.029034424573183,0.8701784014701843,-0.0660000592470169,-0.7301228642463684,0.0370836518704891,0.0041699125431478,0.0,0.0,-0.2507914304733276,-0.2154302597045898
-0.0296878814697265,0.8530563712120056,-0.0658725351095199,-0.7609913349151611,0.0375970713794231,0.010268373414874,0.0,0.0,0.774144172668457,0.6447908878326416
-0.030277919024229,0.8362239599227905,-0.0586169771850109,-0.7480961680412292,0.0372104570269584,-0.0077322050929069,0.0,0.0,0.2424817085266113,0.1956334114074707
-0.0309659000486135,0.8195703625679016,-0.0683294981718063,-0.7401440739631653,0.0367524921894073,-0.0091591235250234,0.0,0.0,0.0554176568984985,0.0979747772216796
-0.0315832123160362,0.8027281165122986,-0.0619431920349597,-0.7485487461090088,0.0369566641747951,0.0040836185216903,0.0,0.0,-0.1566567420959472,0.3985857963562011
-0.0321966186165809,0.7851914763450623,-0.0618478767573833,-0.7794172763824463,0.0374553352594375,0.0099735474213957,0.0,0.0,0.3249548673629761,0.6275005340576172
-0.0326847061514854,0.7676024436950684,-0.0485075488686561,-0.7817294001579285,0.0371596701443195,-0.0059133255854249,0.0,0.0,0.1950335502624511,0.568911075592041
-0.0331642143428325,0.7496322393417358,-0.0467413924634456,-0.7986451387405396,0.0359613038599491,-0.0239670537412166,0.0,0.0,0.711560845375061,0.2443774938583374
-0.0336050018668174,0.7314891815185547,-0.0433853529393672,-0.8063417673110962,0.0352670438587665,-0.0138851506635546,0.0,0.0,0.6213850975036621,0.6500258445739746
-0.0339414589107036,0.7133118510246277,-0.0320597626268863,-0.8078469038009644,0.0337059460580349,-0.0312221143394708,0.0,0.0,0.8099380731582642,0.5620219707489014
-0.0343924537301063,0.6958112120628357,-0.0422967001795768,-0.7777490019798279,0.030940419062972,-0.0553103163838386,0.0,0.0,0.3334212303161621,0.0931946039199829
-0.0349669456481933,0.6785648465156555,-0.0544307902455329,-0.7664417624473572,0.0279499441385269,-0.0598093159496784,0.0,0.0,0.0940934419631958,0.3987956047058105
-0.0355621352791786,0.6611287593841553,-0.0566850714385509,-0.774888813495636,0.0251597817987203,-0.0558032877743244,0.0,0.0,0.6314165592193604,0.4538137912750244
-0.0360270515084266,0.6438493132591248,-0.0445960536599159,-0.7679504156112671,0.0232841782271862,-0.0375120304524898,0.0,0.0,0.5063540935516357,0.3294068574905395
-0.0365575775504112,0.6268807649612427,-0.0511632561683654,-0.7541290521621704,0.0214188601821661,-0.0373063050210475,0.0,0.0,0.3324401378631592,0.125484824180603
-0.0370053276419639,0.6097583174705505,-0.043543804436922,-0.7609798312187195,0.0202078390866518,-0.0242205169051885,0.0,0.0,0.8196061849594116,0.2721258401870727
-0.0374649986624717,0.5932590961456299,-0.0450086072087287,-0.7332853674888611,0.0192522052675485,-0.019112329930067,0.0,0.0,0.2224594354629516,0.8262028694152832
-0.0377378463745117,0.5766089558601379,-0.0249997247010469,-0.7399787306785583,0.016988543793559,-0.0452733598649501,0.0,0.0,0.2952498197555542,-0.0459310412406921
-0.0380902290344238,0.5598165392875671,-0.032817929983139,-0.746303915977478,0.0146013442426919,-0.0477439500391483,0.0,0.0,0.5984114408493042,0.2027808427810669
-0.0383613593876361,0.5434881448745728,-0.0253372732549905,-0.7256883382797241,0.01284886803478,-0.0350495800375938,0.0,0.0,0.3558862209320068,0.604459285736084
-0.0384662635624408,0.5273013710975647,-0.0079541876912117,-0.7193940877914429,0.0103469658643007,-0.0500381663441658,0.0,0.0,0.2571377754211426,0.1650117635726928
-0.0385196693241596,0.5113606452941895,-0.0032700630836188,-0.7084612250328064,0.0083020636811852,-0.0408979356288909,0.0,0.0,-0.4217324256896972,0.377627968788147
-0.0385722145438194,0.4947255253791809,-0.0033699709456413,-0.7393293380737305,0.0064402478747069,-0.0372364297509193,0.0,0.0,0.6488866806030273,0.0114808082580566
-0.0385753624141216,0.477950781583786,0.0011522227432578,-0.7455378770828247,0.0049861371517181,-0.0290820188820362,0.0,0.0,0.5605555772781372,-0.1609081625938415
-0.0386761650443077,0.4614747166633606,-0.0083248736336827,-0.732266366481781,0.0032529246527701,-0.0346645340323448,0.0,0.0,0.9606730937957764,0.4100308418273926
-0.0386322028934955,0.4452254772186279,0.0053173252381384,-0.7221869826316833,0.0023437517229467,-0.0181834697723388,0.0,0.0,0.238294243812561,-0.1651350855827331
-0.0385717377066612,0.4289709329605102,0.0067543932236731,-0.7224246859550476,0.0016486532986164,-0.0139021072536706,0.0,0.0,0.7008061408996582,-0.012771725654602
-0.0385041236877441,0.4126408398151397,0.00730616832152,-0.7257806658744812,0.0011088502360507,-0.0107959751039743,0.0,0.0,0.9349000453948976,0.432323694229126
-0.0385828018188476,0.3966542482376098,-0.0067441151477396,-0.7105134129524231,1.5494388208026066e-06,-0.0221462957561016,0.0,0.0,0.9817554950714112,0.2268959283828735
-0.0386364944279193,0.3815130591392517,-0.0044510699808597,-0.6729444861412048,-0.0008990139467641,-0.01801123842597,0.0,0.0,0.9864983558654784,0.43401038646698
-0.0385920517146587,0.3662045896053314,0.00481748720631,-0.6803757548332214,-0.001271225279197,-0.0074443602934479,0.0,0.0,0.9638748168945312,-0.0834457874298095
-0.0385153777897357,0.3517236709594726,0.0078345471993088,-0.6435950994491577,-0.0014394596219062,-0.0033643629867583,0.0,0.0,0.7137994766235352,0.516359806060791
-0.0385025963187217,0.337282657623291,0.0027444474399089,-0.6418231129646301,-0.0028869393281638,-0.0289495289325714,0.0,0.0,0.8440192937850952,0.8769068717956543
-0.038532830774784,0.3232848048210144,0.0003879254800267,-0.6221393346786499,-0.0062647513113915,-0.0675563886761665,0.0,0.0,0.9354064464569092,0.1811321973800659
-0.0385244376957416,0.3096857070922851,0.0040884977206587,-0.6044191122055054,-0.009471345692873,-0.0641316026449203,0.0,0.0,0.8703701496124268,-0.1386382579803466
-0.038654901087284,0.296828418970108,-0.009100142866373,-0.571463406085968,-0.0133652910590171,-0.0778788402676582,0.0,0.0,0.8735744953155518,0.1179869174957275
-0.0386956222355365,0.2842574417591095,-0.000482451490825,-0.5587487816810608,-0.0169037468731403,-0.0707690417766571,0.0,0.0,0.9385260343551636,-0.3049307465553283
-0.0387705788016319,0.2716813087463379,-0.0036800398956984,-0.5589869618415833,-0.0206722673028707,-0.0753705576062202,0.0,0.0,0.8994474411010742,-0.800249457359314
-0.0388186462223529,0.2589620649814605,-0.0027221590280532,-0.5653278827667236,-0.0227320156991481,-0.0411946587264537,0.0,0.0,0.8009660243988037,0.1703895330429077
-0.0388956069946289,0.2461044937372207,-0.0053721768781542,-0.5714854001998901,-0.0250317081809043,-0.0459937080740928,0.0,0.0,0.9799356460571288,0.2938535213470459
-0.0389618873596191,0.2339783310890197,-0.0041574081405997,-0.5389862060546875,-0.0274746753275394,-0.0488593876361846,0.0,0.0,0.9554157257080078,-0.4760249853134155
-0.0389101989567279,0.2226014733314514,0.0073102498427033,-0.5056759715080261,-0.0295921079814434,-0.0423485226929187,0.0,0.0,0.6881809234619141,-0.6122432947158813
-0.039009191095829,0.2117962390184402,-0.0085527198389172,-0.4802597165107727,-0.0309226941317319,-0.0266116708517074,0.0,0.0,0.8702454566955566,0.1681044101715088
-0.0392466560006141,0.2008655667304992,-0.0215631090104579,-0.4858550727367401,-0.0330734476447105,-0.0430150516331195,0.0,0.0,0.6899323463439941,0.3129394054412842
-0.0394197478890419,0.1904506534337997,-0.0151739614084362,-0.462934136390686,-0.0351900644600391,-0.0423325151205062,0.0,0.0,0.1091471910476684,-0.3372470140457153
-0.0396512970328331,0.1799241602420807,-0.0205124523490667,-0.4679088890552521,-0.0377915129065513,-0.0520290210843086,0.0,0.0,0.7742114067077637,-0.0196086168289184
-0.0399180427193641,0.1697977930307388,-0.0235871523618698,-0.4501441717147827,-0.0408482439815998,-0.0611345171928405,0.0,0.0,0.7724919319152832,-0.6705633401870728
-0.0402252189815044,0.1601089388132095,-0.028739646077156,-0.4306707680225372,-0.0427983067929744,-0.0390015617012977,0.0,0.0,0.489980936050415,-0.1235039830207824
-0.0404356010258197,0.1505070477724075,-0.0192259158939123,-0.426805317401886,-0.0445909090340137,-0.0358519405126571,0.0,0.0,0.3381011486053467,-0.0345406532287597
-0.040618896484375,0.1406248658895492,-0.0163834523409605,-0.4392640292644501,-0.0465116165578365,-0.0384141951799392,0.0,0.0,0.7309942245483398,-0.5794971585273743
-0.0407288558781147,0.1306721568107605,-0.0102647561579942,-0.4423637688159942,-0.0472349561750888,-0.0144667793065309,0.0,0.0,0.8662574291229248,-0.2595031261444092
-0.0406469330191612,0.120979867875576,0.0083832135424017,-0.4307751953601837,-0.0474256984889507,-0.0038149585016071,0.0,0.0,0.905282497406006,-0.8139392733573914
-0.0404372215270996,0.1112605407834053,0.0193995274603366,-0.4319215714931488,-0.045874111354351,0.0310317017138004,0.0,0.0,0.903834342956543,-0.8354260325431824
-0.0402656570076942,0.1021552681922912,0.0141807170584797,-0.4045915007591247,-0.0429268255829811,0.0589458122849464,0.0,0.0,0.985328197479248,-0.3581302165985107
-0.0400225631892681,0.0937193930149078,0.0214120130985975,-0.374849408864975,-0.0400678552687168,0.0571795031428337,0.0,0.0,0.751172661781311,-0.7104918956756592
-0.0396686568856239,0.0856464505195617,0.0310101360082626,-0.3586874604225158,-0.035743910819292,0.0864790901541709,0.0,0.0,0.8108811378479004,-0.4223480224609375
-0.0391965880990028,0.0774098485708236,0.0425951406359672,-0.3659701347351074,-0.0311819892376661,0.0912382528185844,0.0,0.0,0.9156877994537354,-0.1305649876594543
-0.0387720093131065,0.0693671554327011,0.0384086407721042,-0.3573736846446991,-0.0271811448037624,0.0800167098641395,0.0,0.0,0.9204531908035278,-0.2759841680526733
-0.0382268913090229,0.0621300563216209,0.0502865314483642,-0.3215774893760681,-0.0230098031461238,0.0834268033504486,0.0,0.0,0.5461045503616333,-0.0333060026168823
-0.0376965515315532,0.0549981705844402,0.0492094047367572,-0.3169173002243042,-0.0192288774996995,0.0756186097860336,0.0,0.0,0.8717638254165649,0.2330101728439331
-0.037294864654541,0.048527680337429,0.0372850820422172,-0.2875414192676544,-0.0163941625505685,0.0566946454346179,0.0,0.0,0.6729626655578613,0.6874057054519653
-0.0367365851998329,0.0424223989248275,0.0544354021549224,-0.2713298201560974,-0.0150142200291156,0.0275988820940256,0.0,0.0,0.3701536655426025,-0.0342373847961425
-0.0362185463309288,0.0365569442510604,0.0509149357676506,-0.2606790661811828,-0.0141415046527981,0.0174542497843503,0.0,0.0,0.53071129322052,-0.2429515123367309
-0.0357728004455566,0.0310391765087842,0.0443677380681037,-0.245231956243515,-0.0139286797493696,0.0042563155293464,0.0,0.0,0.3018916845321655,-0.2885677814483642
-0.0353464111685752,0.0254159793257713,0.0428220257163047,-0.2499246746301651,-0.0141149703413248,-0.0037260788958519,0.0,0.0,0.6714992523193359,-0.4432867169380188
-0.0350349433720111,0.0200132951140403,0.0322083309292793,-0.2401273548603058,-0.0151585778221488,-0.0208722408860921,0.0,0.0,0.752345085144043,0.0865682363510131
-0.0348800644278526,0.0147530175745487,0.0176156125962734,-0.2338112294673919,-0.0172544680535793,-0.0419180318713188,0.0,0.0,0.7665319442749023,0.5794322490692139
-0.034550093114376,0.0099499318748712,0.036280583590269,-0.2135120034217834,-0.0204976741224527,-0.0648640543222427,0.0,0.0,0.7417581081390381,-0.3426511287689209
-0.0341529846191406,0.0050339438021183,0.0430166833102703,-0.2185378968715667,-0.0237602572888135,-0.0652514621615409,0.0,0.0,0.864922046661377,-0.2958307862281799
-0.0335771553218364,0.0007092213490977,0.0604417733848094,-0.1922582685947418,-0.0265860240906476,-0.0565153174102306,0.0,0.0,0.3672571182250976,-0.4643926620483398
-0.0329153053462505,-0.0026307369116693,0.0502168647944927,-0.148251861333847,-0.0107635995373129,0.3165289759635925,1.0,0.0,0.7078993320465088,-0.074999451637268
-0.0321977622807025,-0.0041413567960262,0.0558818057179451,-0.0672113895416259,0.0052790199406445,0.3213321566581726,1.0,1.0,0.7867166996002197,0.4597737789154053
-0.0315282829105854,-0.0043201707303524,0.0536601357161998,-0.008056404069066,0.0183852463960647,0.2621145844459533,1.0,1.0,0.1425404548645019,0.3904507160186767
-0.0310315135866403,-0.0033787870779633,0.0435016565024852,0.0417566262185573,0.0244745444506406,0.1217757016420364,1.0,1.0,-0.4586493968963623,0.2739987373352051
-0.0306846611201763,-0.0025629305746406,0.040847010910511,0.0363506227731704,0.0183982551097869,-0.1215294823050499,1.0,1.0,-0.3637182712554931,-0.7787743210792542
-0.030405331403017,-0.0017705345526337,0.0339834168553352,0.0352807305753231,0.0124382022768259,-0.1191943660378456,1.0,1.0,-0.5812137722969055,-0.7202053070068359
-0.0302041061222553,-0.0010965489782392,0.0252966079860925,0.0299886390566825,0.0073271733708679,-0.1022150143980979,1.0,1.0,-0.164142370223999,-0.5562021136283875
-0.0300581939518451,-0.0005766653921455,0.0186288841068744,0.0231215488165617,0.0033387432340532,-0.0797644704580307,1.0,1.0,-0.6185712218284607,-0.3384912610054016
-0.0298912040889263,-0.0005733752041123,0.0167007893323898,0.0001461848150938,0.0033404810819774,3.65537780453451e-05,1.0,1.0,-0.5184440016746521,-0.0025767087936401
-0.0297890659421682,-0.0005768800037913,0.0102182487025856,-0.0001548637374071,0.0033383606933057,-3.877567723975517e-05,1.0,1.0,-0.5467572808265686,-0.0100854635238647
-0.0297527313232421,-0.0005769514827989,0.0036377341020852,-3.068989144594525e-06,0.0033382235560566,-7.882340469222981e-07,1.0,1.0,-0.6310786604881287,0.0018432140350341
-0.0297622680664062,-0.0005768800037913,-0.0009612265275791,1.5270646258613854e-07,0.00335289305076,0.0002872514887712,1.0,1.0,-0.8178827166557312,0.1739439964294433
-0.0297800060361623,-0.0005769514827989,-0.0018151586409658,-1.6419830899394583e-06,0.0033806979190558,0.00054256466683,1.0,1.0,-0.5351554751396179,0.0144152641296386
-0.0297884941101074,-0.0005769514827989,-0.0008703953353688,-8.315388981827709e-07,0.0033940258435904,0.0002601712476462,1.0,1.0,-0.7592876553535461,-0.0389760136604309
