x_pos,y_pos,x_vel,y_vel,angle,ang_vel,leg_1,leg_2,main_booster,lat_booster
-0.0016613960033282,1.40349280834198,-0.1685808897018432,-0.3301071524620056,0.0021801686380058,0.0430372692644596,0.0,0.0,-0.4344533861387505,0.9402941605414904
-0.0033819198142737,1.3959524631500244,-0.1724886149168014,-0.3351249694824219,0.0026150811463594,0.0086996806785464,0.0,0.0,-0.3306620706148031,0.6984518260485345
-0.0051748277619481,1.3882750272750854,-0.1783647388219833,-0.341216117143631,0.0017033006297424,-0.0182371754199266,0.0,0.0,0.1263757494359416,-0.545383672095
-0.0072406767867505,1.380974531173706,-0.206926017999649,-0.3244623839855194,0.0020453433971852,0.0068414658308029,0.0,0.0,0.6149461265468963,0.937454415576292
-0.0092323301360011,1.3745020627975464,-0.1982144862413406,-0.2876662313938141,0.0011016067583113,-0.0188763067126274,0.0,0.0,0.8998787678649909,0.6967219301889191
-0.011139964684844,1.3688337802886963,-0.1892412602901458,-0.2519196569919586,-0.0004064758541062,-0.0301644168794155,0.0,0.0,0.0366151490603889,-0.5142256260970954
-0.0132443429902195,1.3635772466659546,-0.21029794216156,-0.233623057603836,-0.0005435286439023,-0.002741499338299,0.0,0.0,0.5048619949875837,-0.9472543824628332
-0.0154092786833643,1.3590755462646484,-0.2188438922166824,-0.2000734955072403,0.0017705450300127,0.0462858527898788,0.0,0.0,-0.9117582956244288,0.8052322498364142
-0.017653465270996,1.354451060295105,-0.2255832701921463,-0.2055375576019287,0.0029209384229034,0.0230102576315403,0.0,0.0,0.6556858622661388,-0.6274534837859393
-0.0200915336608886,1.3507905006408691,-0.2466383725404739,-0.1626996099948883,0.0057219513691961,0.0560252740979194,0.0,0.0,0.8322105790327514,0.9129907003067176
-0.0224971771240234,1.3479893207550049,-0.2421880513429641,-0.1245127767324447,0.0073239551857113,0.0320430472493171,0.0,0.0,0.4741580174140825,0.8130456813649725
-0.0249133110046386,1.345762848854065,-0.2421509772539138,-0.098952867090702,0.0078487396240234,0.0104969618842005,0.0,0.0,-0.3057165840684623,0.5585584516586224
-0.0274179466068744,1.343408226966858,-0.2500623762607574,-0.1046496704220771,0.007457916624844,-0.0078172236680984,0.0,0.0,-0.2585587007381593,-0.7352950271685963
-0.0301158912479877,1.3409143686294556,-0.2711447477340698,-0.1108405441045761,0.0087960716336965,0.0267654918134212,0.0,0.0,-0.5121710027249395,0.5339149823760971
-0.0329039581120014,1.3382951021194458,-0.2792942821979522,-0.1164141148328781,0.0092695960775017,0.0094714174047112,0.0,0.0,0.6925673146475515,-0.984524336405684
-0.0357883460819721,1.3359901905059814,-0.2915236353874206,-0.1024669110774993,0.0123196979984641,0.0610074996948242,0.0,0.0,0.3871259030101521,0.5670514082564382
-0.0386532768607139,1.3346405029296875,-0.2891914248466491,-0.0600094832479953,0.0149827087298035,0.0532651245594024,0.0,0.0,0.0941274516370016,-0.5839061274513353
-0.041605282574892,1.333527684211731,-0.299695760011673,-0.0495088472962379,0.019433107227087,0.0890159755945205,0.0,0.0,0.8812944504716924,-0.7753057319206347
-0.0446583740413188,1.3336635828018188,-0.3121081292629242,0.0059388121590018,0.0261544808745384,0.1344397366046905,0.0,0.0,-0.955948555768785,0.7650667707461152
-0.0478016845881938,1.333669900894165,-0.3202759325504303,0.0001656830136198,0.032026506960392,0.1174511164426803,0.0,0.0,-0.6757720728962762,0.6424046855265693
-0.0510263442993164,1.3335528373718262,-0.327309250831604,-0.0053170667961239,0.0368240028619766,0.0959584489464759,0.0,0.0,0.0078184126007969,0.9912054001954732
-0.0543163307011127,1.3337080478668213,-0.3323305249214172,0.0068176919594407,0.0401230752468109,0.0659873634576797,0.0,0.0,0.1005073439217922,-0.6426361554253546
-0.0577167496085166,1.334277629852295,-0.3452802300453186,0.0251611210405826,0.0453065186738967,0.1036780700087547,0.0,0.0,0.4789351298907311,-0.7363940297962792
-0.061260987073183,1.3351272344589231,-0.3617603778839111,0.0375283248722553,0.0525575131177902,0.1450331658124923,0.0,0.0,-0.9784666450924692,0.7947929472812462
-0.064900018274784,1.3358522653579712,-0.3704918026924133,0.0319716483354568,0.0590842701494693,0.1305467039346695,0.0,0.0,-0.3381596878584365,0.5312357144894717
-0.0686488151550293,1.3364304304122925,-0.3811644911766052,0.0254397857934236,0.0652981996536254,0.1242786049842834,0.0,0.0,0.5599127268720245,-0.9353201716658456
-0.0726546272635459,1.3379037380218506,-0.4092428684234619,0.0650806352496147,0.0738678723573684,0.1713936030864715,0.0,0.0,-0.7703920111233209,-0.5349101955002846
-0.0768543258309364,1.3392469882965088,-0.4304218888282776,0.0591445602476596,0.0842240005731582,0.2071222513914108,0.0,0.0,0.3136669927072029,-0.7754933238182511
-0.0814259499311447,1.3413653373718262,-0.4695226550102234,0.0933956131339073,0.0964703559875488,0.244927167892456,0.0,0.0,-0.4165282791897926,-0.6998634401985637
-0.0861964225769043,1.3433434963226318,-0.4913466572761535,0.0869455710053443,0.1106546446681022,0.2836857438087463,0.0,0.0,-0.5778439644193591,0.7770156559487478
-0.0910466164350509,1.345212697982788,-0.4981705248355865,0.0820421129465103,0.1237308606505394,0.2615242898464203,0.0,0.0,-0.6330504417419434,0.9803614616394044
-0.0959710106253624,1.3469595909118652,-0.5043615102767944,0.0766130164265632,0.1355991959571838,0.2373667955398559,0.0,0.0,-0.2837495803833008,0.9891281127929688
-0.1009709388017654,1.3486003875732422,-0.5106784701347351,0.0719138011336326,0.1462517976760864,0.2130517661571502,0.0,0.0,-0.6202569007873535,0.9818408489227296
-0.1060425788164138,0.0,-0.5165783166885376,0.0664981380105018,0.1556476950645446,0.1879182755947113,0.0,0.0,-0.4834401607513428,0.9831743240356444
-0.1111766844987869,1.3515264987945557,-0.5212805867195129,0.061755783855915,0.1635158061981201,0.1573624014854431,0.0,0.0,-0.566704273223877,0.9750430583953856
-0.1163741126656532,1.3528316020965576,-0.5260779857635498,0.0572921447455883,0.1698617935180664,0.1269201636314392,0.0,0.0,-0.6529398560523987,0.9785928726196288
-0.1216384917497634,1.354020118713379,-0.5313926935195923,0.0522549226880073,0.1748286932706833,0.0993376150727272,0.0,0.0,-0.6046443581581116,0.998683214187622
-0.1269612312316894,1.3551079034805298,-0.5355961322784424,0.0479501858353614,0.178154781460762,0.0665216669440269,0.0,0.0,-0.8251941800117493,0.9864943027496338
-0.1323533952236175,1.356095314025879,-0.5411758422851562,0.0436483845114707,0.1801166385412216,0.0392371602356433,0.0,0.0,-0.8860992789268494,0.91556715965271
-0.1378105133771896,1.356973648071289,-0.5462473630905151,0.0389736965298652,0.1806459128856659,0.0105854319408535,0.0,0.0,-0.9562729597091676,0.947954535484314
-0.1433470696210861,1.357745885848999,-0.5531022548675537,0.034388493746519,0.1800951510667801,-0.0110151944682002,0.0,0.0,-0.9294481873512268,0.776612401008606
-0.1489491462707519,1.3584057092666626,-0.5582685470581055,0.0295591857284307,0.1781566888093948,-0.0387693457305431,0.0,0.0,-0.973247528076172,0.8153781890869141
-0.1546143591403961,1.3589460849761963,-0.5631842017173767,0.0244133360683918,0.1748114973306656,-0.0669034495949745,0.0,0.0,-0.9891743659973145,0.6784753799438477
-0.1603552848100662,1.3593709468841553,-0.5696566700935364,0.0193996839225292,0.1703674793243408,-0.0888805240392685,0.0,0.0,-0.9948826432228088,0.2941644191741943
-0.1662328690290451,1.3596653938293457,-0.583810031414032,0.013536169193685,0.1664060354232788,-0.0792290419340133,0.0,0.0,-0.9824360013008118,0.7700750827789307
-0.1721811294555664,1.3598380088806152,-0.5896886587142944,0.0082379607483744,0.1612694859504699,-0.1027305945754051,0.0,0.0,-0.976289689540863,0.4734691381454468
-0.1782646179199218,1.3598802089691162,-0.6036931276321411,0.0023743184283375,0.1566109955310821,-0.0931698232889175,0.0,0.0,-0.9311183094978333,0.6781942844390869
-0.1844404190778732,1.359809398651123,-0.6122761368751526,-0.0025992235168814,0.1513198465108871,-0.105823203921318,0.0,0.0,-0.9743539094924928,0.8535580635070801
-0.190698429942131,1.359627604484558,-0.6196427345275879,-0.0074671730399131,0.1451658010482788,-0.1230809688568115,0.0,0.0,-0.9440410137176514,0.8593834638595581
-0.1970239579677581,1.3593273162841797,-0.6251934766769409,-0.0126458937302231,0.1378245502710342,-0.1468251645565033,0.0,0.0,-0.9853301048278807,0.1139465570449829
-0.2034810483455658,1.3588969707489014,-0.6388033628463745,-0.0185107588768005,0.1309495419263839,-0.1375003159046173,0.0,0.0,-0.8946786522865295,0.7863507270812988
-0.2100131511688232,1.3583524227142334,-0.6453335285186768,-0.0235287323594093,0.123114101588726,-0.1567088067531585,0.0,0.0,-0.99140202999115,0.849468469619751
-0.2165950238704681,1.3576878309249878,-0.6487550735473633,-0.0287862233817577,0.1137357354164123,-0.1875675171613693,0.0,0.0,-0.987678587436676,0.9661811590194702
-0.2232288867235183,1.3569154739379885,-0.6524422764778137,-0.0335293151438236,0.1028702855110168,-0.217308908700943,0.0,0.0,-0.9788731932640076,0.9768168926239014
-0.2298926413059234,1.356025218963623,-0.6534226536750793,-0.0387323163449764,0.090026706457138,-0.2568717002868652,0.0,0.0,-0.9763638377189636,0.9353480339050292
-0.2366183698177337,1.3550102710723877,-0.6584795713424683,-0.0443204492330551,0.0760619267821312,-0.2792955040931701,0.0,0.0,-0.9199625849723816,0.93816876411438
-0.243381455540657,1.3538851737976074,-0.6604546308517456,-0.0492664240300655,0.0603752695024013,-0.3137330412864685,0.0,0.0,-0.9932726621627808,0.9986721277236938
-0.2501680850982666,1.3526452779769895,-0.6607638597488403,-0.0544738098978996,0.0426797270774841,-0.3539108633995056,0.0,0.0,-0.9973261952400208,0.994196891784668
-0.2569848001003265,0.0,-0.6619356274604797,-0.0595860444009304,0.0231889504939317,-0.3898155689239502,0.0,0.0,-0.9875350594520568,0.9690184593200684
-0.2638502717018127,0.0,-0.665524959564209,-0.0649679005146026,0.0024377470836043,-0.4150244295597076,0.0,0.0,-0.973669707775116,0.9651951789855956
-0.2707456648349762,1.348228931427002,-0.666831910610199,-0.0712145268917083,-0.0199785009026527,-0.4483251571655273,0.0,0.0,-0.9589996337890624,0.9327640533447266
-0.2776893675327301,1.3465073108673096,-0.6705184578895569,,-0.0435299538075923,-0.4710294306278229,0.0,0.0,-0.8928252458572388,0.0416445732116699
-0.2847396433353424,1.344660997390747,-0.6816091537475586,-0.0828984752297401,-0.066677987575531,-0.4629608690738678,0.0,0.0,-0.9129456877708436,0.963914394378662
-0.2918137609958648,1.3426837921142578,-0.6824216246604919,-0.0891743674874305,-0.0914242789149284,-0.4949261248111725,0.0,0.0,-0.9807725548744202,0.7359334230422974
-0.2989286780357361,1.3405694961547852,-0.685450553894043,-0.0957692116498947,-0.1172705739736557,-0.516926109790802,0.0,0.0,-0.9968834519386292,0.3283760547637939
-0.3061386942863464,1.3383315801620483,-0.6954141855239868,-0.1016762182116508,-0.1427378803491592,-0.5093463659286499,0.0,0.0,-0.9964131712913512,0.0963571071624755
-0.3134393692016601,1.3359695672988892,-0.704941987991333,-0.1075807511806488,-0.1678353995084762,-0.5019506216049194,0.0,0.0,-0.988930881023407,0.0537922382354736
-0.32082599401474,1.3334832191467283,-0.7140020728111267,-0.1134829074144363,-0.1925727725028991,-0.4947478175163269,0.0,0.0,-0.9862421154975892,-0.3778232932090759
-0.3282935619354248,1.3308720588684082,-0.7225619554519653,-0.1193827837705612,-0.216960072517395,-0.4877464175224304,0.0,0.0,-0.9240843057632446,0.2130639553070068
-0.3358367383480072,1.3281357288360596,-0.7305886745452881,-0.1252805292606353,-0.2410078048706054,-0.4809549450874328,0.0,0.0,-0.8395323753356934,0.4132446050643921
-0.343449980020523,1.3252739906311035,-0.7380496263504028,-0.1311762034893036,-0.2647268772125244,-0.4743815064430237,0.0,0.0,-0.7971478700637817,-0.0562638640403747
-0.3511272370815277,1.32228684425354,-0.7449122071266174,-0.1370699554681778,-0.2881285846233368,-0.4680339395999908,0.0,0.0,-0.494553804397583,-0.3600638508796692
-0.3588623404502868,1.3191734552383425,-0.7511450052261353,-0.1429619193077087,-0.3112245500087738,-0.4619193971157074,0.0,0.0,-0.5065644383430481,-0.4615738987922668
-0.3666486740112304,1.3159339427947998,-0.756718099117279,-0.1488521695137024,-0.3340267837047577,-0.4560445249080658,0.0,0.0,-0.0497735738754272,-0.874465823173523
-0.3745497167110443,1.312596559524536,-0.7704203724861145,-0.1530223935842514,-0.3546667397022247,-0.412799209356308,0.0,0.0,0.2056629657745361,-0.3541313409805298
-0.3823595941066742,1.309439182281494,-0.7619144320487976,-0.145168125629425,-0.3748084902763366,-0.4028347432613373,0.0,0.0,0.7140896320343018,-0.5350362658500671
-0.390144020318985,1.3066823482513428,-0.7606984972953796,-0.1272924989461898,-0.3936930298805237,-0.3776915967464447,0.0,0.0,0.8094711303710938,-0.536461353302002
-0.397664874792099,1.3050343990325928,-0.7357222437858582,-0.077878326177597,-0.4112473130226135,-0.3510854542255401,0.0,0.0,0.6673380136489868,-0.1999090313911438
-0.4047983288764953,1.3043404817581177,-0.6976549625396729,-0.0354928933084011,-0.428198367357254,-0.3390208482742309,0.0,0.0,0.3529287576675415,-0.2328796982765197
-0.4117453694343567,1.304487705230713,-0.6789506673812866,0.001653857761994,-0.4453579783439636,-0.3431920409202575,0.0,0.0,0.5570210218429565,-0.546014130115509
-0.4187169075012207,1.3050353527069092,-0.682439386844635,0.0195694584399461,-0.4615023732185364,-0.3228877186775207,0.0,0.0,0.4249012470245361,-0.2369509935379028
-0.4253462255001068,1.3063454627990725,-0.6486548185348511,0.0534133091568946,-0.4772959053516388,-0.315870851278305,0.0,0.0,0.2320444583892822,-0.6418319940567017
-0.4318825304508209,1.3081897497177124,-0.6407203078269958,0.0774468556046485,-0.491687923669815,-0.2878407835960388,0.0,0.0,-0.0115748643875122,-0.1642752885818481
-0.4383961260318756,1.309903621673584,-0.6387016773223877,0.0715829282999038,-0.50591641664505,-0.2845684885978699,0.0,0.0,-0.0101224184036254,-0.1973364353179931
-0.4448796212673187,1.3114871978759766,-0.6359184384346008,0.0657191053032875,-0.5199942588806152,-0.2815567553043365,0.0,0.0,0.124185562133789,-0.5207746028900146
-0.4511075913906097,1.3134372234344482,-0.6116486191749573,0.082356221973896,-0.5327163934707642,-0.2544430494308471,0.0,0.0,0.1451021432876587,-0.4113309383392334
-0.4571563601493835,1.315550446510315,-0.5939885973930359,0.0895894318819046,-0.5452376008033752,-0.2504243552684784,0.0,0.0,-0.0436319708824157,-0.3116129636764526
-0.4631537497043609,1.317533016204834,-0.5890235304832458,0.0837280079722404,-0.5576462745666504,-0.248173639178276,0.0,0.0,0.6326736211776733,-0.4437034130096435
-0.4686710238456726,1.319987416267395,-0.5417574644088745,0.1048985421657562,-0.5692822933197021,-0.2327198982238769,0.0,0.0,-0.0817573070526123,-0.507891833782196
-0.4741509556770324,1.3223323822021484,-0.5388752222061157,0.1002871617674827,-0.5800004601478577,-0.2143634110689163,0.0,0.0,0.0893981456756591,-0.6222914457321167
-0.4793313145637512,1.325214385986328,-0.5101748704910278,0.1246333643794059,-0.5893033742904663,-0.1860584169626236,0.0,0.0,-0.2522381544113159,-0.4762390851974487
-0.4844355583190918,1.3279653787612915,-0.5026742815971375,0.118775337934494,-0.5985409021377563,-0.1847507208585739,0.0,0.0,-0.0100938081741333,-0.6025807857513428
-0.4894881844520569,1.330618143081665,-0.4984639286994934,0.1147865876555442,-0.606689989566803,-0.1629816144704818,0.0,0.0,-0.2588629722595215,-0.5303075313568115
-0.4944847524166107,1.3331644535064695,-0.4937062859535217,0.1103948131203651,-0.6138513684272766,-0.1432284414768219,0.0,0.0,-0.095995008945465,-0.5816199779510498
-0.4994308352470398,1.3356201648712158,-0.4898456633090973,0.1068938821554184,-0.6196144223213196,-0.1152610927820205,0.0,0.0,-0.1552100181579589,-0.2513636350631714
-0.5042812824249268,1.337944507598877,-0.4803186058998108,0.1010377258062362,-0.6253541707992554,-0.1147955656051635,0.0,0.0,-0.4175186157226562,-0.4791338443756103
-0.5090318918228149,1.340137243270874,-0.4703651964664459,0.0951811298727989,-0.6310803294181824,-0.1145233139395713,0.0,0.0,0.1919951438903808,-0.7009616494178772
-0.5134629607200623,1.34303617477417,-0.4396050870418548,0.1271241605281829,-0.635369598865509,-0.0857859030365943,0.0,0.0,-0.5061360001564026,-0.6514559388160706
-0.5178202390670776,1.3458443880081177,-0.4332219958305359,0.1235799491405487,-0.6384463906288147,-0.0615362301468849,0.0,0.0,-0.4625598192214966,-0.6089122891426086
-0.5221064686775208,1.3485705852508545,-0.4272887110710144,0.1205031871795654,-0.6400864720344543,-0.0328020900487899,0.0,0.0,-0.4584159851074219,-0.2741739749908447
-0.526279091835022,1.3511652946472168,-0.4159162044525146,0.1146469116210937,-0.6417481899261475,-0.0332346856594085,0.0,0.0,-0.5667749047279358,-0.2325809001922607
-0.5303353071212769,1.353628396987915,-0.4042546153068542,0.1087902337312698,-0.643439531326294,-0.0338262319564819,0.0,0.0,-0.5026445388793945,-0.2647280693054199
-0.5342726111412048,1.355960249900818,-0.3923270404338836,0.1029331609606742,-0.6451680064201355,-0.0345693901181221,0.0,0.0,-0.5933290123939514,-0.3013045787811279
-0.5380885004997253,1.3581606149673462,-0.3801550269126892,0.0970757231116294,-0.6469408273696899,-0.03545643389225,0.0,0.0,-0.4384275078773498,-0.6276074051856995
-0.5418112874031067,1.3602688312530518,-0.3717178702354431,0.0934184789657592,-0.6476309895515442,-0.0138037521392107,0.0,0.0,-0.5054755806922913,-0.1899657845497131
-0.5454084277153015,1.362245798110962,-0.3591154217720032,0.0875605121254921,-0.648378849029541,-0.0149570237845182,0.0,0.0,-0.6249816417694092,0.0422585010528564
-0.5488782525062561,1.3640915155410769,-0.3463243842124939,0.0817022249102592,-0.6491904854774475,-0.0162326470017433,0.0,0.0,-0.4769095182418823,0.0803749561309814
-0.5522189736366272,1.3658061027526855,-0.3333607316017151,0.0758436471223831,-0.6500716209411621,-0.0176231767982244,0.0,0.0,-0.3608931303024292,-0.2865322232246399
-0.5554291009902954,1.3673895597457886,-0.3202391266822815,0.0699847787618637,-0.6510276794433594,-0.0191210564225912,0.0,0.0,-0.5820028781890869,-0.4122504591941833
-0.5585071444511414,1.3688420057296753,-0.3069730699062347,0.0641256421804428,-0.6520636081695557,-0.0207190029323101,0.0,0.0,-0.3727120161056518,-0.4929497241973877
-0.5614519119262695,0.0,-0.2935749590396881,0.0582662560045719,-0.6531841158866882,-0.0224097184836864,0.0,0.0,-0.7482121586799622,0.0221418142318725
-0.5642622113227844,1.3713536262512207,-0.2800562083721161,0.0524066314101219,-0.6543933749198914,-0.0241857450455427,0.0,0.0,-0.4693130254745483,-0.2953699827194214
-0.5669369101524353,1.372412919998169,-0.266427218914032,0.0465467907488346,-0.655695378780365,-0.026039844378829,0.0,0.0,-0.4703395366668701,-0.1221646666526794
-0.5694751143455505,1.3733413219451904,-0.252697616815567,0.0406867414712905,-0.6570936441421509,-0.0279648192226886,0.0,0.0,-0.4163028597831726,0.0148526430130004
-0.5718759298324585,1.3741388320922852,-0.2388761341571808,0.0348265059292316,-0.6585913300514221,-0.0299534387886524,0.0,0.0,-0.6311101317405701,-0.368395984172821
-0.5741384625434875,1.3748054504394531,-0.2249708622694015,0.0289660952985286,-0.6601912379264832,-0.031998686492443,0.0,0.0,-0.5898292064666748,-0.2064536809921264
-0.5762619972229004,1.3753411769866943,-0.210989162325859,0.0231055244803428,-0.6618959307670593,-0.0340934991836547,0.0,0.0,-0.6892143487930298,-0.0203238129615783
-0.5782458186149597,1.375746250152588,-0.1969377696514129,0.0172448102384805,-0.6637074947357178,-0.0362309515476226,0.0,0.0,-0.6381894946098328,-0.1242755651473999
-0.5800893902778625,1.3760203123092651,-0.1828229129314422,0.0113839646801352,-0.6656277179718018,-0.0384041517972946,0.0,0.0,-0.7129063010215759,-0.0017170310020446
-0.5817920565605164,1.3761637210845947,-0.1686502993106842,0.0055230050347745,-0.6676580309867859,-0.0406062640249729,0.0,0.0,-0.7043408751487732,-0.0553191900253295
-0.5833533406257629,1.376176357269287,-0.1544251441955566,-0.0003380553098395,-0.6697995662689209,-0.0428305193781852,0.0,0.0,-0.6027501225471497,-0.2702118158340454
