x_pos,y_pos,x_vel,y_vel,angle,ang_vel,leg_1,leg_2,main_booster,lat_booster
-0.0015231132274493,1.4030276536941528,-0.153925746679306,-0.3507813811302185,0.0014418709324672,0.0284187253564596,0.0,0.0,-0.4396657013928013,0.7984170742603671
-0.0029792785644531,1.3945575952529907,-0.1449637860059738,-0.3764490187168121,0.0008033640915527,-0.012770963832736,0.0,0.0,-0.7226958095104181,0.7092827180945622
-0.004369449801743,1.3854849338531494,-0.1363214552402496,-0.4032277166843414,-0.001875986228697,-0.0535920150578022,0.0,0.0,-0.448642244963362,-0.8108612578245934
-0.0058399201370775,1.3758130073547363,-0.1459380984306335,-0.4298681914806366,-0.0029622558504343,-0.021727193146944,0.0,0.0,0.5014598683570635,-0.9183193944308754
-0.0072533609345555,1.3664357662200928,-0.1419278383255005,-0.4167702496051788,-0.002387105487287,0.0115038715302944,0.0,0.0,-0.6772040272151219,0.6958938786864944
-0.0086064338684082,1.3564600944519043,-0.1338511109352111,-0.4433663785457611,-0.0038301134482026,-0.0288628246635198,0.0,0.0,0.0056234069912926,-0.6990770691628471
-0.0100373271852731,1.3464152812957764,-0.1426848769187927,-0.4464388191699981,-0.0042282063513994,-0.0079624783247709,0.0,0.0,0.3224474965192077,-0.9145408254024472
-0.0114104272797703,1.336552381515503,-0.1385354995727539,-0.4383445978164673,-0.0030204660724848,0.0241573844105005,0.0,0.0,-0.0223876682384707,0.7759475921819242
-0.0127351759001612,1.3261005878448486,-0.1318431496620178,-0.4645203053951263,-0.0036446051672101,-0.0124840838834643,0.0,0.0,0.5232229196496208,-0.9355361266875823
-0.0141449924558401,1.3160629272460938,-0.1418960392475128,-0.4461189210414886,-0.0027392145711928,0.018109381198883,0.0,0.0,0.825813260873264,0.6171298258754668
-0.015416813082993,1.3064134120941162,-0.1268079876899719,-0.4288702607154846,-0.0031038783490657,-0.0072938716039061,0.0,0.0,-0.8561149570024393,0.6592332374057315
-0.016646672040224,1.2961652278900146,-0.1208149418234825,-0.4554806053638458,-0.0052494960837066,-0.0429162122309207,0.0,0.0,-0.905208970697543,0.7969258999188884
-0.0178176872432231,1.285323977470398,-0.1126695871353149,-0.4818605482578277,-0.0096360314637422,-0.0877386480569839,0.0,0.0,0.2144766823630268,-0.9116480616917946
-0.019018268212676,1.2742691040039062,-0.1171653047204017,-0.4913467168807983,-0.0125006400048732,-0.0572973787784576,0.0,0.0,-0.4521487801043167,0.6484288866634358
-0.0201764106750488,1.2626231908798218,-0.1109909787774086,-0.5176495313644409,-0.017270790413022,-0.0954113975167274,0.0,0.0,-0.5609687491362401,0.6353348108013638
-0.0212975498288869,1.2503716945648191,-0.1054622903466224,-0.544599711894989,-0.0238457228988409,-0.131510853767395,0.0,0.0,-0.3907821202847681,-0.9661787951237346
-0.0225008018314838,1.237537145614624,-0.1148631721735,-0.5705177187919617,-0.0292540118098258,-0.108175441622734,0.0,0.0,0.227029884120183,0.6026139783879675
-0.0235566142946481,1.2245112657546997,-0.0987986251711845,-0.5790764689445496,-0.0359592847526073,-0.1341177523136139,0.0,0.0,-0.6846022223219528,-0.9285413041654756
-0.0247000698000192,1.2109010219573977,-0.1088214665651321,-0.6050413250923157,-0.0414264686405658,-0.109353557229042,0.0,0.0,-0.7478997148444915,-0.8539899105545894
-0.0259478576481342,1.196698784828186,-0.1208870038390159,-0.6313282251358032,-0.0452795550227165,-0.0770685821771621,0.0,0.0,-0.1826377554959848,-0.7704635309437031
-0.0272727012634277,1.1819086074829102,-0.1295023560523986,-0.6574305295944214,-0.0482323989272117,-0.0590621419250965,0.0,0.0,-0.0219491014859871,-0.8206551990733227
-0.0286918636411428,1.1665219068527222,-0.1402406692504882,-0.6839138865470886,-0.0498917810618877,-0.0331901013851165,0.0,0.0,0.9093552823435336,-0.775652846830437
-0.0300098415464162,1.1514723300933838,-0.1317395567893982,-0.668871283531189,-0.0499475561082363,-0.0011154914973303,0.0,0.0,-0.1131266023668013,0.7872576572550724
-0.0312918648123741,1.1358120441436768,-0.1260756701231002,-0.6960899233818054,-0.0520548671483993,-0.0421499907970428,0.0,0.0,-0.4946776584848229,-0.6799582643476965
-0.0326745994389057,1.119562029838562,-0.1375265717506408,-0.7222468256950378,-0.0527876727283,-0.0146576110273599,0.0,0.0,0.1145666017154731,0.9703318722264987
-0.0341083519160747,1.103413701057434,-0.1403904259204864,-0.717808723449707,-0.0557357408106327,-0.0589614398777484,0.0,0.0,-0.0250751935136639,0.976964314859251
-0.0355007164180278,1.086668610572815,-0.1339813768863678,-0.7444318532943726,-0.0609343089163303,-0.1039715409278869,0.0,0.0,0.7075313895097206,-0.849628438768375
-0.0370948798954486,1.0706326961517334,-0.1553142219781875,-0.7128753662109375,-0.0649905055761337,-0.0811237543821334,0.0,0.0,0.7987289413469827,-0.7248615333515265
-0.0388839729130268,1.0552892684936523,-0.1756306141614914,-0.6820735931396484,-0.0682374164462089,-0.0649381875991821,0.0,0.0,-0.7012244073851179,0.708304397705924
-0.0406588539481163,1.0393414497375488,-0.1725375354290008,-0.7090321183204651,-0.0731342807412147,-0.0979374721646308,0.0,0.0,0.9510527085074456,0.6458225219644763
-0.0423260703682899,1.0242919921875,-0.1602585911750793,-0.6691908240318298,-0.0795388966798782,-0.1280922442674636,0.0,0.0,-0.5907625895054947,0.9768311454068752
-0.0439679138362407,1.008633017539978,-0.1557168662548065,-0.696425199508667,-0.0879227817058563,-0.1676777899265289,0.0,0.0,-0.6566943967564607,-0.9504368945319128
-0.0457364097237587,0.99239844083786,-0.1702876538038253,-0.7219388484954834,-0.0944310203194618,-0.1301647126674652,0.0,0.0,0.912890175233404,-0.8185769811299604
-0.0476536750793457,0.976204514503479,-0.1863593608140945,-0.7200798392295837,-0.0997567847371101,-0.106515072286129,0.0,0.0,-0.3796758203638126,0.8508403373564071
-0.0495456680655479,0.9594060182571412,-0.1818002760410308,-0.7471113204956055,-0.1070990934967994,-0.146846204996109,0.0,0.0,-0.9968391843635316,0.9706200700182608
-0.0514027588069438,0.942006528377533,-0.1760341078042984,-0.7740334272384644,-0.1167049705982208,-0.192117840051651,0.0,0.0,-0.4027271601342777,-0.6796333245755877
-0.0533607490360736,0.924018144607544,-0.1872820258140564,-0.8001797199249268,-0.1251656413078308,-0.1692135334014892,0.0,0.0,0.1842385330510478,-0.6004436218137466
-0.055312730371952,0.9062537550926208,-0.1876812279224395,-0.790175199508667,-0.1326403170824051,-0.1494936496019363,0.0,0.0,-0.4092488286482707,-0.6078822501257932
-0.0573608390986919,0.8879103064537048,-0.1983449906110763,-0.8158472776412964,-0.1390800476074218,-0.1287947446107864,0.0,0.0,-0.5315391758363381,0.6457114080966362
-0.0594024658203125,0.8689610362052917,-0.1960931718349456,-0.8429670929908752,-0.1471288353204727,-0.1609753668308258,0.0,0.0,0.9838624775315664,-0.7607729179322865
-0.0615502372384071,0.8508535027503967,-0.2076660692691803,-0.8055022358894348,-0.1542306691408157,-0.1420363038778305,0.0,0.0,0.9874413013458252,-0.7600981593132019
-0.0635494217276573,0.8330583572387695,-0.1944608390331268,-0.7914645671844482,-0.1596879214048385,-0.1091449409723281,0.0,0.0,-0.0982568264007568,-0.6702607870101929
-0.0656413063406944,0.814670741558075,-0.2046031504869461,-0.8177329301834106,-0.1642703115940094,-0.0916481167078018,0.0,0.0,0.9524164199829102,-0.8280695676803589
-0.0676176100969314,0.7965942025184631,-0.1947420537471771,-0.8037261366844177,-0.1671678572893142,-0.0579507462680339,0.0,0.0,0.9368002414703368,-0.7340770363807678
-0.0696943253278732,0.778450608253479,-0.2058812081813812,-0.8065791726112366,-0.1689583957195282,-0.0358108691871166,0.0,0.0,0.8829801082611084,-0.6668248772621155
-0.0717532187700271,0.7602662444114685,-0.205336645245552,-0.8082557320594788,-0.1695089936256408,-0.0110118528828024,0.0,0.0,0.7753612995147705,-0.8693812489509583
-0.0737771987915039,0.7421898245811462,-0.2034865915775299,-0.8032709956169128,-0.1684209108352661,0.0217619314789772,0.0,0.0,0.7651209831237793,0.0020942687988281
-0.0758198723196983,0.7248644828796387,-0.2045785188674926,-0.7699782848358154,-0.1681098490953445,0.0062210238538682,0.0,0.0,0.3781619071960449,-0.7213854193687439
-0.0779793709516525,0.7079665660858154,-0.2172990143299102,-0.7508679628372192,-0.1667594462633133,0.0270082298666238,0.0,0.0,-0.1215091347694397,-0.4060603380203247
-0.0801889449357986,0.6904723048210144,-0.2221023142337799,-0.7774001359939575,-0.1656190454959869,0.0228080600500106,0.0,0.0,0.5515885353088379,0.0785154104232788
-0.0822276100516319,0.6731416583061218,-0.2054247409105301,-0.7700797915458679,-0.1640592962503433,0.031194869428873,0.0,0.0,0.4732307195663452,0.553952693939209
-0.0842206925153732,0.656193196773529,-0.1994280368089676,-0.7532521486282349,-0.163935586810112,0.0024740505032241,0.0,0.0,-0.0236554741859436,0.0808382034301757
-0.0862644165754318,0.638648271560669,-0.2043065279722213,-0.7797838449478149,-0.1640025824308395,-0.001340031507425,0.0,0.0,0.8791239261627197,-0.0843305587768554
-0.0882071480154991,0.6218485236167908,-0.1940487325191497,-0.746679425239563,-0.1642365306615829,-0.0046787937171757,0.0,0.0,0.5071959495544434,0.1091558933258056
-0.0899940505623817,0.6050772666931152,-0.1789130270481109,-0.7453691363334656,-0.1640181839466095,0.0043668835423886,0.0,0.0,0.0291701555252075,-0.471523642539978
-0.091842845082283,0.5881583094596863,-0.184655025601387,-0.7519775032997131,-0.1642442345619201,-0.0045210849493741,0.0,0.0,0.954049825668335,-0.1945471167564392
-0.0934789627790451,0.5720103979110718,-0.1637386083602905,-0.7176677584648132,-0.164117231965065,0.0025399713777005,0.0,0.0,0.8783494234085083,0.4603170156478882
-0.0948862060904502,0.5563622713088989,-0.1414253264665603,-0.695395827293396,-0.1634178012609481,0.0139886457473039,0.0,0.0,0.4992433786392212,-0.350330114364624
-0.0961563140153884,0.5412067770957947,-0.1278764605522155,-0.6734824776649475,-0.1625498682260513,0.0173585973680019,0.0,0.0,0.2136800289154052,-0.2152215838432312
-0.0974395722150802,0.5263227224349976,-0.128793865442276,-0.6614622473716736,-0.1620774716138839,0.0094475504010915,0.0,0.0,-0.2587994933128357,-0.483519434928894
-0.0987741500139236,0.5108420252799988,-0.1338045001029968,-0.6879931688308716,-0.1617332398891449,0.0068850591778755,0.0,0.0,0.857223391532898,0.2635304927825928
-0.1001443862915039,0.4959591925144195,-0.1367300897836685,-0.6614901423454285,-0.1620297133922577,-0.005929397419095,0.0,0.0,0.9726531505584716,0.1123766899108886
-0.1013208404183387,0.4813581705093384,-0.1179252713918685,-0.6489048004150391,-0.161754310131073,0.0055080810561776,0.0,0.0,0.8296438455581665,-0.2921044826507568
-0.1024136543273925,0.4671590626239776,-0.1095755845308303,-0.6310397982597351,-0.1614593565464019,0.0058991918340325,0.0,0.0,0.4739829301834106,-0.2965530157089233
-0.1034934073686599,0.4528909921646118,-0.1082159876823425,-0.6341099143028259,-0.1612239927053451,0.0047073964960873,0.0,0.0,0.8687655925750732,-0.1503068208694458
-0.1046554595232009,0.4390497207641601,-0.1157093793153762,-0.6152222156524658,-0.161718800663948,-0.0098960790783166,0.0,0.0,0.3884127140045166,-0.6263148188591003
-0.1057815551757812,0.4256907701492309,-0.1133309155702591,-0.5936521291732788,-0.1609897166490554,0.0145816504955291,0.0,0.0,0.2896158695220947,0.6195230484008789
-0.1068048477172851,0.4120368957519531,-0.1018842607736587,-0.6068850755691528,-0.1614413261413574,-0.0090320669114589,0.0,0.0,0.8165543079376221,0.1258225440979004
-0.1076992005109787,0.3991687893867492,-0.089064821600914,-0.5719565749168396,-0.1618092656135559,-0.0073588914237916,0.0,0.0,0.0788131952285766,-0.675259530544281
-0.108716681599617,0.386188268661499,-0.1026188731193542,-0.576816737651825,-0.160944178700447,0.0173018705099821,0.0,0.0,0.7870943546295166,0.524437427520752
-0.1097310036420822,0.3737129867076874,-0.10091532766819,-0.5545128583908081,-0.1614618003368377,-0.010352561250329,0.0,0.0,0.1865622997283935,-0.5332412123680115
-0.1107419952750206,0.3613078594207763,-0.1016708984971046,-0.5512750148773193,-0.1608886569738388,0.0114629920572042,0.0,0.0,0.5132467746734619,-0.3001259565353393
-0.1117963790893554,0.349479615688324,-0.1054494753479957,-0.5257004499435425,-0.160876840353012,0.0002364768879488,0.0,0.0,-0.4324101209640503,0.8958334922790527
-0.1128231063485145,0.3370353877544403,-0.1006661504507064,-0.5532957315444946,-0.1628834903240203,-0.0401333607733249,0.0,0.0,-0.4198832511901855,0.4855802059173584
-0.1139004677534103,0.3239942789077759,-0.105734035372734,-0.5798250436782837,-0.1648869663476944,-0.0400694236159324,0.0,0.0,0.5864595174789429,-0.7573310136795044
-0.1149660125374794,0.3108072280883789,-0.1062026843428611,-0.5861293077468872,-0.1652352809906005,-0.0069661997258663,0.0,0.0,0.5072591304779053,-0.2351303100585937
-0.1160594001412391,0.2974885404109955,-0.1088781580328941,-0.5919938683509827,-0.1656955033540725,-0.0092047937214374,0.0,0.0,0.8121401071548462,0.1288518905639648
-0.1170685738325119,0.2848622798919678,-0.100442074239254,-0.5612202882766724,-0.1661678999662399,-0.00944803096354,0.0,0.0,-0.1154913902282714,-0.0092871189117431
-0.1181277260184288,0.2716389894485473,-0.1054887771606445,-0.5877488255500793,-0.1666013300418853,-0.0086684394627809,0.0,0.0,0.9725589752197266,0.0206189155578613
-0.1192070990800857,0.2592955827713012,-0.1069348901510238,-0.5487098097801208,-0.1676070392131805,-0.0201140902936458,0.0,0.0,0.9555959701538086,-0.1663994789123535
-0.1204218864440918,0.246973305940628,-0.119814932346344,-0.5478435158729553,-0.1692654639482498,-0.0331684425473213,0.0,0.0,0.7164976596832275,0.8077191114425659
-0.1214385032653808,0.2352477610111236,-0.0985392108559608,-0.5214958786964417,-0.1723886430263519,-0.0624635145068168,0.0,0.0,0.7556560039520264,0.6217012405395508
-0.1224653273820877,0.2238461524248123,-0.0981040075421333,-0.5072738528251648,-0.17697474360466,-0.0917219668626785,0.0,0.0,0.1769282817840576,0.246906042098999
-0.1234946250915527,0.2125710099935531,-0.0982571095228195,-0.5016791820526123,-0.1816624850034713,-0.0937547236680984,0.0,0.0,0.6392388343811035,-0.038654625415802
-0.1244590729475021,0.2017258703708648,-0.0918083637952804,-0.4825799167156219,-0.1863189041614532,-0.0931285098195076,0.0,0.0,0.4204421043395996,-0.0702931880950927
-0.1253058463335037,0.1910004019737243,-0.0804766565561294,-0.4772217869758606,-0.1905353367328643,-0.0843289643526077,0.0,0.0,0.891638994216919,-0.3458247184753418
-0.1261000633239746,0.1802474558353424,-0.0754514336585998,-0.4784218966960907,-0.1945263892412185,-0.0798214301466941,0.0,0.0,0.9091674089431764,-0.0180844068527221
-0.1267472207546234,0.1695513129234314,-0.0613477118313312,-0.4758334159851074,-0.1979153454303741,-0.0677790194749832,0.0,0.0,0.9660484790802002,-0.6971250772476196
-0.1271777153015136,0.1592178642749786,-0.0416469052433967,-0.4594529867172241,-0.1993239521980285,-0.0281722657382488,0.0,0.0,0.9846899509429932,-0.4357081651687622
-0.1273977309465408,0.1489340662956237,-0.0214850641787052,-0.4571276307106018,-0.199839785695076,-0.01031678263098,0.0,0.0,0.9760234355926514,-0.8759863972663879
-0.1275606155395507,0.1394030600786209,-0.0176391061395406,-0.4234186708927154,-0.198482260107994,0.0271501149982213,0.0,0.0,0.9695383310317992,-0.4700239896774292
-0.1275558471679687,0.1305936872959137,-0.0011646959464997,-0.3913065195083618,-0.1968252211809158,0.0331408269703388,0.0,0.0,0.7923321723937988,-0.8032770156860352
-0.1273722648620605,0.1222298443317413,0.0146805169060826,-0.3712429106235504,-0.1931275278329849,0.0739538595080375,0.0,0.0,0.8892116546630859,-0.8939011096954346
-0.1271087676286697,0.1137931197881698,0.0205266755074262,-0.3742194473743438,-0.1872700303792953,0.1171499341726303,0.0,0.0,0.6933821439743042,-0.8369684815406799
-0.1269173622131347,0.1055616736412048,0.011599700897932,-0.3649066388607025,-0.1796942800283432,0.1515148133039474,0.0,0.0,0.7974801063537598,0.2515889406204223
-0.1265124380588531,0.0980944707989692,0.0323664173483848,-0.3309129774570465,-0.1715456545352935,0.162972405552864,0.0,0.0,0.8377213478088379,-0.1579415798187255
-0.1260692626237869,0.0909731015563011,0.0361395217478275,-0.3155793249607086,-0.1633663326501846,0.1635864824056625,0.0,0.0,0.8666694164276123,0.3296427726745605
-0.1256625205278396,0.0846199840307235,0.0329916216433048,-0.2815365493297577,-0.1556831896305084,0.1536629050970077,0.0,0.0,0.5155599117279053,-0.0790657401084899
-0.1251208335161209,0.0786005333065986,0.0459498837590217,-0.2666942477226257,-0.1474732905626297,0.1641977429389953,0.0,0.0,0.4460937976837158,-0.4737975597381592
-0.1245715171098709,0.0729693993926048,0.0467585660517215,-0.2494846731424331,-0.139319896697998,0.1630679368972778,0.0,0.0,0.2054351568222046,-0.0771549940109252
-0.1240479499101638,0.0675660669803619,0.0442933402955532,-0.2394153326749801,-0.1312828510999679,0.1607409417629242,0.0,0.0,0.4017945528030395,0.4102464914321899
-0.1235309615731239,0.0621988624334335,0.0435497127473354,-0.2378471046686172,-0.1231782585382461,0.1620922237634658,0.0,0.0,0.1746362447738647,0.4140310287475586
-0.1230840682983398,0.0568871609866619,0.0367578640580177,-0.2354427278041839,-0.1152900978922844,0.1577630341053009,0.0,0.0,0.7098853588104248,0.8282227516174316
-0.1227201446890831,0.0518031232059001,0.0302509721368551,-0.2254951745271682,-0.1091939434409141,0.121922992169857,0.0,0.0,0.719245195388794,0.924063205718994
-0.1221178025007247,0.0472106784582138,0.0555944368243217,-0.2037749588489532,-0.1045828983187675,0.0922205746173858,0.0,0.0,0.4890204668045044,0.7821083068847656
-0.1213958710432052,0.0424913503229618,0.0688568279147148,-0.209520161151886,-0.1012657210230827,0.066343568265438,0.0,0.0,0.5594381093978882,0.3415839672088623
-0.1205011382699012,0.0382288545370101,0.0853174775838851,-0.1891665905714035,-0.0971427261829376,0.0824598968029022,0.0,0.0,0.4936609268188476,0.5047339200973511
-0.1195554733276367,0.0344184748828411,0.0913027599453926,-0.1691424399614334,-0.0939088612794876,0.0646773055195808,0.0,0.0,0.4826372861862182,0.1788215637207031
-0.1184442490339279,0.0311383102089166,0.1070896238088607,-0.1455369889736175,-0.0899092555046081,0.0799918174743652,0.0,0.0,-0.140548288822174,-0.5646532773971558
-999.0,0.0272666309028863,0.0987930819392204,-0.1717708110809326,-0.0847535729408264,0.1031135320663452,0.0,0.0,0.4267371892929077,0.025028109550476
-0.1163417845964431,0.0238528586924076,0.1008996590971946,-0.1514306217432022,-0.0794534832239151,0.1060016602277755,0.0,0.0,0.4723876714706421,0.2977213859558105
-0.1151990890502929,0.0208854768425226,0.1084939613938331,-0.1315889805555343,-0.0737306028604507,0.1144574880599975,0.0,0.0,-0.0186209678649902,-0.3315556049346924
-0.1140841469168663,0.0173214301466941,0.1055456772446632,-0.158119723200798,-0.0678358152508735,0.1178955882787704,0.0,0.0,0.3739181756973266,0.4035279750823974
-0.1130616217851638,0.0139406295493245,0.0965896248817443,-0.1500124782323837,-0.0622407123446464,0.1119019612669944,0.0,0.0,0.4965158700942993,0.514031171798706
-0.1121184378862381,0.0106676192954182,0.0898516625165939,-0.1452854573726654,-0.0578193664550781,0.0884269028902053,0.0,0.0,0.5826375484466553,0.4892280101776123
-0.1111866980791091,0.00760836340487,0.0886284708976745,-0.1357990801334381,-0.0533255040645599,0.0898770242929458,0.0,0.0,0.6107062101364136,0.7706259489059448
-0.1101585403084755,0.0047227358445525,0.099604494869709,-0.1281395405530929,-0.0501484535634517,0.0635409951210022,0.0,0.0,0.6134499311447144,0.3019634485244751
-0.1089232414960861,0.0023372506257146,0.1040879264473915,-0.1054898127913475,-0.0309204198420047,0.3845941126346588,1.0,0.0,-0.0751054883003234,-0.4019026160240173
-0.1076697334647178,-0.0005128646153025,0.1024546772241592,-0.1263601630926132,-0.0082899145781993,0.4526345133781433,1.0,0.0,0.2418428659439087,-0.3798328042030334
-0.106392003595829,-0.0030440115369856,0.1047544926404953,-0.1125227138400077,0.014428055845201,0.4543591439723968,1.0,1.0,0.3056118488311767,0.3534260988235473
