x_pos,y_pos,x_vel,y_vel,angle,ang_vel,leg_1,leg_2,main_booster,lat_booster
-0.0015380859840661,1.403209924697876,-0.1557879894971847,-0.3426790535449981,0.0017806007526814,0.0351250022649765,0.0,0.0,0.0788058203427104,0.9895964249777108
-0.0029728889930993,1.3955554962158203,-0.1432443261146545,-0.3401975333690643,0.0015461561270058,-0.0046885283663868,0.0,0.0,-0.6629088455426424,-0.8516269543875534
-0.0044743539765477,1.3874794244766235,-0.1512200236320495,-0.35893514752388,0.0026079420931637,0.0212375186383724,0.0,0.0,-0.9477672518419622,0.8603145477457095
-0.0059361457824707,1.378986120223999,-0.1458461582660675,-0.3774784207344055,0.0022788264323025,-0.0065829814411699,0.0,0.0,-0.0013340657648204,-0.8431155298909615
-0.0074646947905421,1.3700807094573977,-0.1538225710391998,-0.3957996666431427,0.0032306448556482,0.0190384872257709,0.0,0.0,-0.3042002595395485,0.913120719502632
-0.0089199068024754,1.360759735107422,-0.1441986411809921,-0.4142629504203796,0.0019233261700719,-0.0261486135423183,0.0,0.0,-0.1450946243403374,0.665220086943166
-0.0103394510224461,1.3510243892669678,-0.1393053829669952,-0.4326835870742798,-0.0006990988040342,-0.0524533167481422,0.0,0.0,0.1561415619761053,0.94555983558308
-0.0115760806947946,1.3415560722351074,-0.119093619287014,-0.4208178520202636,-0.005216465331614,-0.0903558880090713,0.0,0.0,-0.2883835126972958,0.834276779310086
-0.0127631183713674,1.331682205200195,-0.1124310344457626,-0.4388785064220428,-0.0114191249012947,-0.1240642517805099,0.0,0.0,0.0560150679153608,-0.9670476818021648
-0.0140363695099949,1.3220977783203125,-0.1229231804609298,-0.4260153174400329,-0.0157809816300869,-0.0872451141476631,0.0,0.0,0.0458768735750669,0.8904302890337508
-0.0151841165497899,1.312660813331604,-0.1084897071123123,-0.4194981157779693,-0.0219875108450651,-0.1241420358419418,0.0,0.0,0.9383884980758224,0.6094683518289821
-0.0161965377628803,1.3037335872650146,-0.0939046218991279,-0.3968939781188965,-0.0292453728616237,-0.1451706290245056,0.0,0.0,0.7441349812698617,-0.6522301696619446
-0.0171051975339651,1.2954983711242676,-0.0851021856069564,-0.3661332726478576,-0.0349441356956958,-0.1139857172966003,0.0,0.0,0.6549302640700525,-0.7559686126393692
-0.0180004127323627,1.2873740196228027,-0.0853160470724105,-0.3611804842948913,-0.0391063950955867,-0.0832525938749313,0.0,0.0,-0.31280446331968,-0.8106231356023449
-0.018959617242217,1.2788466215133667,-0.0928425639867782,-0.3790787756443023,-0.0421620458364486,-0.0611185915768146,0.0,0.0,-0.3121845798306992,-0.8124345574860086
-0.0199871063232421,1.2698986530303955,-0.1008514314889907,-0.3977464437484741,-0.0440369918942451,-0.037502072751522,0.0,0.0,0.611484179311442,0.7092210464191415
-0.0207901950925588,1.2617813348770142,-0.0771476775407791,-0.3608655333518982,-0.0471576899290084,-0.0624200291931629,0.0,0.0,-0.4361148287259906,0.8312370358977373
-0.021527862176299,1.2532367706298828,-0.0684020966291427,-0.3799396753311157,-0.0524785965681076,-0.1064277291297912,0.0,0.0,-0.2025087600176294,0.9929977172830398
-0.0221899040043354,1.244280457496643,-0.0583499483764171,-0.3983506262302398,-0.0602568089962005,-0.1555779427289962,0.0,0.0,0.8288972302057642,-0.8437385350215245
-0.022994328290224,1.2358629703521729,-0.07391357421875,-0.3743890225887298,-0.0667295157909393,-0.1294659376144409,0.0,0.0,-0.96240816211209,0.6117710151377571
-0.023755932226777,1.2270299196243286,-0.0679407864809036,-0.3929586708545685,-0.0748665705323219,-0.1627558469772339,0.0,0.0,-0.7028332781507469,0.630629341904155
-0.024482537060976,1.217774510383606,-0.0629700943827629,-0.4118682444095611,-0.0844839066267013,-0.1923638433218002,0.0,0.0,0.2350296180953588,-0.765608879653759
-0.0251412391662597,1.2087064981460571,-0.0576249845325946,-0.403502345085144,-0.0926656126976013,-0.1636487543582916,0.0,0.0,-0.0513931943232333,-0.9671855979980828
-0.0258837696164846,1.199223518371582,-0.0675014778971672,-0.4218973517417907,-0.099370963871479,-0.1341189742088318,0.0,0.0,-0.1385250965343705,0.8146614656956123
-0.026593018323183,1.1893216371536257,-0.0626963526010513,-0.4406401515007019,-0.1075499653816223,-0.1635947078466415,0.0,0.0,-0.868033014951298,0.8950764043281978
-0.0272661205381155,1.1789816617965698,-0.0574665255844593,-0.4602991640567779,-0.1173239648342132,-0.1954800486564636,0.0,0.0,-0.0697774946824565,0.8834540764872267
-0.0278849601745605,1.168221950531006,-0.0500223711133003,-0.4791821241378784,-0.1291252076625824,-0.236025184392929,0.0,0.0,-0.2128363501552204,0.7058175748514394
-0.0284759514033794,1.1570489406585691,-0.04587834328413,-0.4977715611457824,-0.1422924846410751,-0.2633453607559204,0.0,0.0,0.1780121478615461,0.8028923655891216
-0.0290468223392963,1.1463004350662231,-0.0419333986937999,-0.4792283475399017,-0.1574199199676513,-0.3025490641593933,0.0,0.0,-0.8447378872750175,-0.795885091716938
-0.029698371887207,1.13515305519104,-0.051392026245594,-0.4969547986984253,-0.1711863577365875,-0.2753291130065918,0.0,0.0,0.3694142763271295,-0.7401487005431575
-0.0302859302610158,1.124650001525879,-0.0462433844804763,-0.4682955741882324,-0.1837348043918609,-0.2509689927101135,0.0,0.0,0.6643247046568936,-0.89036480278731
-0.0309647563844919,1.1144241094589231,-0.0567321851849556,-0.4559055864810943,-0.1949378252029419,-0.2240601330995559,0.0,0.0,-0.4299275362672186,0.9074436515896116
-0.0315978042781353,1.1037766933441162,-0.0503151901066303,-0.4749805629253387,-0.2080225497484207,-0.2616946697235107,0.0,0.0,0.6934333682739566,-0.8783122146105952
-0.0323105826973915,1.0932962894439695,-0.0596346966922283,-0.4674742519855499,-0.2197863757610321,-0.2352765500545501,0.0,0.0,0.8275283246741443,0.8621791825188232
-0.0328020080924034,1.083393096923828,-0.0355255380272865,-0.4422272145748138,-0.2335818409919738,-0.2759091258049011,0.0,0.0,-0.2134202924499366,-0.7235689894687845
-0.033362291753292,1.0731033086776731,-0.0435164719820022,-0.4593662917613983,-0.2462996840476989,-0.2543571293354034,0.0,0.0,0.0151006569590044,0.6814914917088011
-0.0338365547358989,1.0627928972244265,-0.0332431569695472,-0.460679829120636,-0.2607621550559997,-0.2892494201660156,0.0,0.0,-0.0199201137406439,0.8308507905201613
-0.034257985651493,1.052051663398743,-0.0259245093911886,-0.480364978313446,-0.277365118265152,-0.3320591151714325,0.0,0.0,-0.8992232966926912,-0.7771347649043048
-0.0347559936344623,1.0409352779388428,-0.0349364206194877,-0.4969520270824432,-0.2926474809646606,-0.3056472837924957,0.0,0.0,-0.2975860796858403,-0.9924845137589248
-0.0353404060006141,1.0294419527053833,-0.0451523773372173,-0.5135457515716553,-0.3063806295394897,-0.2746631503105163,0.0,0.0,0.6174852670795805,-0.8825242925938871
-0.0358863845467567,1.01871919631958,-0.0425765290856361,-0.4791506230831146,-0.3188557922840118,-0.2495029866695404,0.0,0.0,-0.9159786701202391,-0.7918973565101624
-0.0364953055977821,1.0076069831848145,-0.0497604459524154,-0.4963686168193817,-0.3304375410079956,-0.2316347807645797,0.0,0.0,0.4344339370727539,-0.8587918281555176
-0.037006951868534,0.9964472651481628,-0.0414803735911846,-0.4982372522354126,-0.3405636250972748,-0.2025225162506103,0.0,0.0,-0.999677836894989,-0.9124187231063844
-0.0375907905399799,0.984904170036316,-0.0498242378234863,-0.5150759220123291,-0.3495347201824188,-0.1794221699237823,0.0,0.0,-0.916638731956482,-0.6245911121368408
-0.038240622729063,0.9729692339897156,-0.0573605485260486,-0.5323178768157959,-0.3575566112995147,-0.1604386270046234,0.0,0.0,-0.994573712348938,-0.955671727657318
-0.03897275775671,0.9606496691703796,-0.066923514008522,-0.5491213202476501,-0.3641931116580963,-0.1327302753925323,0.0,0.0,-0.982135772705078,-0.9361128807067872
-0.0397827140986919,0.9479484558105468,-0.0759499222040176,-0.5657920241355896,-0.3695279061794281,-0.1066956967115402,0.0,0.0,-0.5464094281196594,-0.9317266345024108
-0.0406857505440712,0.934891164302826,-0.0870220810174942,-0.5811735391616821,-0.3730027973651886,-0.069498524069786,0.0,0.0,-0.6727524399757385,-0.8453059792518616
-0.0416767112910747,0.9214727282524108,-0.09742471575737,-0.5968150496482849,-0.3747773468494415,-0.0354910120368003,0.0,0.0,-0.8389084339141846,-0.9824432134628296
-0.04275693744421,0.90768301486969,-0.1079038828611373,-0.6129065752029419,-0.3748985826969147,-0.0024247649125754,0.0,0.0,-0.4179095029830932,-0.9315164685249328
-0.0439029708504676,0.8935112357139587,-0.1154445856809616,-0.6296359300613403,-0.3740009367465973,0.0179531853646039,0.0,0.0,-0.1691396832466125,-0.9519168138504028
-0.0451371185481548,0.8789777755737305,-0.1258761584758758,-0.6452893018722534,-0.3713949024677276,0.0521208718419075,0.0,0.0,-0.1273842453956604,-0.8819164037704468
-0.0464385971426963,0.8640584349632263,-0.1335788369178772,-0.6621986031532288,-0.3677603900432586,0.0726901218295097,0.0,0.0,0.2106882333755493,-0.911677896976471
-0.0476048476994037,0.8495897650718689,-0.1214225739240646,-0.6418209075927734,-0.3626949191093445,0.1013090834021568,0.0,0.0,-0.4018757343292236,-0.8965833187103271
-0.0488340370357036,0.8347344994544983,-0.1285909414291381,-0.6588180661201477,-0.3567059934139251,0.1197783350944519,0.0,0.0,-0.3146895170211792,-0.9193483591079712
-0.0501544959843158,0.8195073008537292,-0.1393812745809555,-0.6749678254127502,-0.348997950553894,0.1541610211133957,0.0,0.0,-0.5626489520072937,-0.3766276240348816
-0.0514866821467876,0.8038682341575623,-0.1401124745607376,-0.6934127807617188,-0.3417559266090393,0.1448407471179962,0.0,0.0,-0.8005591630935669,-0.2480250597000122
-0.0528298392891883,0.7878172993659973,-0.1407949328422546,-0.7118569612503052,-0.3349831402301788,0.1354555785655975,0.0,0.0,-0.5460989475250244,-0.6372326612472534
-0.0542237274348735,0.7713822722434998,-0.1465214192867279,-0.7288092374801636,-0.3275336623191833,0.1489895433187484,0.0,0.0,-0.6563218832015991,-0.3120980262756347
-0.0556277260184288,0.7545353174209595,-0.1471010148525238,-0.7472534775733948,-0.3205593824386596,0.1394862234592437,0.0,0.0,-0.3726191520690918,-0.5498210787773132
-0.057080078870058,0.737290620803833,-0.152469515800476,-0.7648483514785767,-0.3130413591861725,0.1503595858812332,0.0,0.0,-0.1433428525924682,0.2266476154327392
-0.0585415847599506,0.7196341156959534,-0.1529386043548584,-0.7832921743392944,-0.3060036301612854,0.1407538205385208,0.0,0.0,0.0651837587356567,0.1632167100906372
-0.0598353371024131,0.7020062208175659,-0.1360663920640945,-0.7820632457733154,-0.2990801334381103,0.1384692043066024,0.0,0.0,0.1209955215454101,-0.4226489067077636
-0.060999296605587,0.6845555305480957,-0.1227067336440086,-0.7743103504180908,-0.2925674021244049,0.1302554607391357,0.0,0.0,-0.0890055298805236,-0.7005466818809509
-0.0622239112854003,0.6667112112045288,-0.129674881696701,-0.791652500629425,-0.2851411700248718,0.1485248357057571,0.0,0.0,0.5126796960830688,-0.5887148380279541
-0.0634655952453613,0.6493054628372192,-0.1318092793226242,-0.7721143364906311,-0.2772863209247589,0.1570968627929687,0.0,0.0,0.5473302602767944,-0.4698777198791504
-0.0644747763872146,0.6326357126235962,-0.1081915348768234,-0.7395143508911133,-0.2698283493518829,0.1491599380970001,0.0,0.0,0.3542016744613647,-0.6221108436584473
-0.0654030814766883,0.6158834099769592,-0.1010025739669799,-0.7430641651153564,-0.2614686787128448,0.1671935617923736,0.0,0.0,0.4087772369384765,-0.5628343224525452
-0.0661658272147178,0.5997877717018127,-0.0851526707410812,-0.7138068079948425,-0.2524010241031647,0.1813529431819915,0.0,0.0,0.2869659662246704,-0.1906524896621704
-0.0669118911027908,0.5838431119918823,-0.0826919823884964,-0.7072843313217163,-0.2441657483577728,0.1647050082683563,0.0,0.0,0.0690165758132934,-0.1356989741325378
-0.0676136016845703,0.5681454539299011,-0.0775147229433059,-0.6964718699455261,-0.2366994172334671,0.1493268609046936,0.0,0.0,-0.0203631520271301,-0.2335205078125
-0.06831856071949,0.5520354509353638,-0.077373668551445,-0.714913010597229,-0.2297277152538299,0.1394339501857757,0.0,0.0,-0.0975862741470336,-0.6629130244255066
-0.0690869316458702,0.5355419516563416,-0.0848432034254074,-0.7318188548088074,-0.2216229885816574,0.1620947122573852,0.0,0.0,0.4236478805541992,-0.2216717600822448
-0.0696864128112793,0.5193433165550232,-0.0677558034658432,-0.718782365322113,-0.2137206345796585,0.1580470353364944,0.0,0.0,0.718198299407959,-0.5490056872367859
-0.0702807456254959,0.5033501386642456,-0.0677631422877311,-0.7096245288848877,-0.2053123861551284,0.1681650280952453,0.0,0.0,0.7431104183197021,-0.2978918552398681
-0.0707359313964843,0.4874262809753418,-0.0537004992365837,-0.7066112756729126,-0.1970672458410263,0.1649022847414016,0.0,0.0,0.8251378536224365,-0.3495674133300781
-0.0711524039506912,0.4716517925262451,-0.0491910651326179,-0.7001034021377563,-0.189478188753128,0.1517813801765442,0.0,0.0,0.8482897281646729,-0.387995183467865
-0.0714109390974044,0.4567744731903076,-0.0328686386346817,-0.6603320837020874,-0.1824263483285904,0.1410368680953979,0.0,0.0,0.6504099369049072,-0.5020676255226135
-0.0714756026864051,0.4426790773868561,-0.0142451552674174,-0.62552410364151,-0.1746212691068649,0.1561016887426376,0.0,0.0,-0.422531247138977,-0.6700603365898132
-0.0716003403067588,0.4281941652297973,-0.0213596224784851,-0.6427539587020874,-0.1657105088233947,0.1782145202159881,0.0,0.0,0.633197546005249,-0.0853769183158874
-0.0717955604195594,0.4138127267360687,-0.0273524615913629,-0.6383241415023804,-0.1578819006681442,0.1565721929073333,0.0,0.0,0.8059425354003906,0.0897055864334106
-0.0718093886971473,0.4002881050109863,-0.008938668295741,-0.6003139615058899,-0.1503381878137588,0.1508742272853851,0.0,0.0,0.4721335172653198,0.2811644077301025
-0.0718333274126052,0.3871312439441681,-0.009048068895936,-0.5840911269187927,-0.1436990201473236,0.1327832788228988,0.0,0.0,0.108950138092041,-0.077938973903656
-0.0718257874250412,0.3742446303367615,-0.0052442899905145,-0.5721743702888489,-0.1377147883176803,0.1196846961975097,0.0,0.0,0.535036563873291,-0.4206710457801819
-0.0717368125915527,0.3619122505187988,0.0034242640249431,-0.5476094484329224,-0.1322641521692276,0.1090127229690551,0.0,0.0,-0.1895585656166076,-0.2621849775314331
-0.071644403040409,0.3491664826869964,0.0042571630328893,-0.5660441517829895,-0.1272929459810257,0.099423848092556,0.0,0.0,0.5022631883621216,-0.2849168181419372
-0.071487046778202,0.3364662528038025,0.0111143542453646,-0.564069926738739,-0.1226984336972236,0.0918903276324272,0.0,0.0,0.4931751489639282,-0.5454930663108826
-0.0712343230843544,0.3238816261291504,0.0198196657001972,-0.558880090713501,-0.1172695532441139,0.1085773259401321,0.0,0.0,0.7112195491790771,-0.0518121123313903
-0.0707563385367393,0.3117377758026123,0.0420965775847435,-0.5392868518829346,-0.1116050332784652,0.1132905632257461,0.0,0.0,0.263995885848999,-0.2255187034606933
-0.0701338797807693,0.2996124923229217,0.0565183348953723,-0.5384851098060608,-0.1059121638536453,0.1138570755720138,0.0,0.0,0.1863383054733276,-0.427295446395874
-0.0694531425833702,0.287878930568695,0.0628216713666915,-0.5211294293403625,-0.1006986126303672,0.1042708531022071,0.0,0.0,0.0042392015457153,-0.6066363453865051
-0.0687467604875564,0.2764284610748291,0.0645966231822967,-0.5085132718086243,-0.0947045758366584,0.1198805198073387,0.0,0.0,0.1135283708572387,-0.1849952936172485
-0.0679084807634353,0.2652239799499511,0.077846810221672,-0.4976122081279754,-0.0887724235653877,0.1186428889632225,0.0,0.0,-0.3436421155929565,-0.479580283164978
-0.0670640915632247,0.2536058127880096,0.0789007022976875,-0.5160453915596008,-0.0832845792174339,0.1097567453980445,0.0,0.0,0.2565095424652099,-0.690969705581665
-0.0662802681326866,0.2421633601188659,0.0719569623470306,-0.5082104802131653,-0.076923593878746,0.1272197812795639,0.0,0.0,0.5336549282073975,-0.4344946146011352
-0.06535005569458,0.2314959615468979,0.0866731852293014,-0.473791241645813,-0.0706303864717483,0.1258641332387924,0.0,0.0,0.0190004110336303,-0.6457465887069702
-0.0644554123282432,0.2209472209215164,0.0822489932179451,-0.4685126543045044,-0.0634921044111251,0.1427655220031738,0.0,0.0,0.0285980701446533,-0.0270651578903198
-0.0635995864868164,0.2107335180044174,0.0791487023234367,-0.4536821544170379,-0.0571281500160694,0.1272788345813751,0.0,0.0,-0.2854025959968567,0.0591976642608642
-0.0627365112304687,0.2001060992479324,0.0802883356809616,-0.4721144437789917,-0.0511716902256011,0.1191291958093643,0.0,0.0,0.2745989561080932,-0.592187225818634
-0.0619282722473144,0.189943253993988,0.0740924254059791,-0.4514655470848083,-0.0445207767188549,0.1330181509256363,0.0,0.0,-0.2745313644409179,-0.0599884390830993
-0.0611123070120811,0.1793666183948516,0.0752574205398559,-0.4698976576328277,-0.0382585152983665,0.1252452433109283,0.0,0.0,0.7023377418518066,-0.0218814015388488
-0.0602943412959575,0.1691466122865677,0.0759566649794578,-0.4540849030017853,-0.032493058592081,0.1153091937303543,0.0,0.0,0.3007042407989502,-0.5178161859512329
-0.0595934875309467,0.1592298150062561,0.0637993663549423,-0.4406216740608215,-0.0262900087982416,0.1240610927343368,0.0,0.0,0.4732313156127929,-0.5916112065315247
-0.0590646751224994,0.1496056914329528,0.046096347272396,-0.427634060382843,-0.019592385739088,0.1339527815580368,0.0,0.0,0.7075798511505127,0.1053019762039184
-0.0584032051265239,0.1406783610582351,0.0591899082064628,-0.3966957032680511,-0.0127310566604137,0.1372267305850982,0.0,0.0,0.1134663820266723,-0.1248171329498291
-0.0576885230839252,0.1317092031240463,0.0646578595042228,-0.3985835015773773,-0.0060077495872974,0.1344659328460693,0.0,0.0,0.1802194118499755,-0.1746673583984375
-0.0568579658865928,0.1231427267193794,0.0760796666145324,-0.380721241235733,0.0008797323680482,0.1377499252557754,0.0,0.0,0.2522346973419189,0.3855419158935547
-0.0560359954833984,0.1150443851947784,0.0755987092852592,-0.3599406778812408,0.0073869070038199,0.1301437020301818,0.0,0.0,-0.0070632100105285,0.5033560991287231
-0.0551554672420024,0.1065383553504943,0.0830045789480209,-0.3780808448791504,0.0123715223744511,0.0996923893690109,0.0,0.0,0.5312349796295166,-0.3687236309051513
-0.0542012229561805,0.09842499345541,0.0903109833598136,-0.360643595457077,0.0174156446009874,0.1008825749158859,0.0,0.0,0.173575758934021,-0.4362881183624267
-0.0532524101436138,0.090766966342926,0.0900478661060333,-0.3404189348220825,0.0221860855817794,0.0954088121652603,0.0,0.0,0.42263925075531,0.0447039604187011
-0.0522564873099327,0.0837133228778839,0.0947588980197906,-0.3135734498500824,0.0269665494561195,0.0956090837717056,0.0,0.0,-0.2959234714508056,0.1764713525772094
-0.0512502677738666,0.0762452706694603,0.0959959328174591,-0.3320018351078033,0.0315346047282218,0.0913611203432083,0.0,0.0,0.5100135803222656,-0.4604089260101318
-0.0503631606698036,0.0692047178745269,0.0848038122057914,-0.3129980862140655,0.0353931635618209,0.0771710947155952,0.0,0.0,0.2255456447601318,0.9224226474761964
-0.0495166778564453,0.0623176656663417,0.0828303918242454,-0.3061368763446808,0.0371961928904056,0.0360604748129844,0.0,0.0,0.4085454940795898,-0.4263812899589538
-0.0486953742802143,0.055735383182764,0.0805338248610496,-0.2925884425640106,0.038764227181673,0.0313608758151531,0.0,0.0,0.7291245460510254,0.0322189331054687
-0.0478575713932514,0.0495768152177333,0.0821974575519561,-0.2737557590007782,0.0403302311897277,0.0313198678195476,0.0,0.0,0.3513622283935547,-0.1196244359016418
-0.0469135269522666,0.0434509366750717,0.0924214050173759,-0.2723160684108734,0.0422854237258434,0.0391038842499256,0.0,0.0,0.6341314315795898,-0.5010538101196289
-0.045923613011837,0.0379303805530071,0.0958064347505569,-0.2454545199871063,0.0454402156174182,0.0630958154797554,0.0,0.0,0.4377293586730957,0.0003844499588012
-0.0449318885803222,0.0330486148595809,0.0959276482462883,-0.2170703709125518,0.0486383475363254,0.063962809741497,0.0,0.0,0.0363119840621948,-0.1944872140884399
