x_pos,y_pos,x_vel,y_vel,angle,ang_vel,leg_1,leg_2,main_booster,lat_booster
-0.001661968184635,1.4029875993728638,-0.1689024269580841,-0.3525575995445251,0.0024292669259011,0.0479687750339508,0.0,0.0,-0.6013480424880981,0.9254097938537598
-0.003382968949154,1.3944370746612549,-0.1730663925409317,-0.3800216317176819,0.0033815526403486,0.0190480984747409,0.0,0.0,0.6995261907577515,0.834151029586792
-0.0050245285965502,1.3858675956726074,-0.1643346846103668,-0.3808640241622925,0.0035553132183849,0.0034755892120301,0.0,0.0,0.63240647315979,0.959192395210266
-0.0068603516556322,1.3773982524871826,-0.1822312772274017,-0.3764166831970215,0.0022231515031307,-0.0266455765813589,0.0,0.0,0.4591014385223388,0.6747665405273438
-0.0086528779938817,1.3691585063934326,-0.1774089038372039,-0.3662115931510925,0.0004045488894917,-0.0363757498562336,0.0,0.0,-0.3539640307426452,0.8882400989532471
-0.0104916570708155,1.3602805137634275,-0.180465966463089,-0.3945768773555755,-0.0029792441055178,-0.0676820799708366,0.0,0.0,-0.0321536064147949,0.5794432163238525
-0.0124171255156397,1.3507657051086426,-0.1886039078235626,-0.4228919446468353,-0.0068691866472363,-0.0778060629963874,0.0,0.0,0.1260786056518554,0.8967595100402832
-0.0142780300229787,1.3412762880325315,-0.1810175627470016,-0.4217816889286041,-0.0118878092616796,-0.1003817170858383,0.0,0.0,0.3530759811401367,0.7554867267608643
-0.0162087436765432,1.3321855068206787,-0.1870823353528976,-0.4040946066379547,-0.017814464867115,-0.1185438781976699,0.0,0.0,-0.4249671697616577,0.9068397283554076
-0.0181923862546682,1.32246196269989,-0.1911679208278656,-0.4322642982006073,-0.0249267071485519,-0.142257735133171,0.0,0.0,-0.3265751600265503,0.8426418304443359
-0.0202219970524311,1.3120999336242676,-0.1944516897201538,-0.4607026278972626,-0.0333364717662334,-0.1682111918926239,0.0,0.0,-0.2084100246429443,0.9289145469665528
-0.0222889892756938,1.301095724105835,-0.1967415362596511,-0.489327073097229,-0.0431908816099166,-0.1971063911914825,0.0,0.0,-0.1939691305160522,0.9472942352294922
-0.0243813507258892,1.2894545793533323,-0.1976041942834854,-0.5177529454231262,-0.0547144785523414,-0.2304928749799728,0.0,0.0,-0.1459246277809143,0.9294886589050292
-0.0265058521181345,1.2771629095077517,-0.1993547976016998,-0.5468265414237976,-0.0676793903112411,-0.2593217194080353,0.0,0.0,-0.5154474377632141,0.9349098205566406
-0.0286489482969045,1.2642366886138916,-0.1995437741279602,-0.5752303600311279,-0.0823161303997039,-0.2927614152431488,0.0,0.0,0.2512704133987427,0.6702103614807129
-0.0307353027164936,1.2509866952896118,-0.1933058500289917,-0.5898054838180542,-0.0975217744708061,-0.3041408658027649,0.0,0.0,0.4500300884246826,0.7300325632095337
-0.0326595306396484,1.238203525543213,-0.1765201538801193,-0.5692633390426636,-0.1133249625563621,-0.3160924613475799,0.0,0.0,-0.0555916428565979,0.2149662971496582
-0.0346819870173931,1.224785327911377,-0.1870005577802658,-0.5975946187973022,-0.1285128742456436,-0.3037855923175812,0.0,0.0,0.5367881059646606,0.1904094219207763
-0.0366132743656635,1.2118254899978638,-0.1789364367723465,-0.5772787928581238,-0.1426648050546646,-0.28306445479393,0.0,0.0,0.6425168514251709,0.2253376245498657
-0.0386332497000694,1.199082374572754,-0.1880805194377899,-0.5677527189254761,-0.1565808653831482,-0.2783461511135101,0.0,0.0,0.4226082563400268,-0.848168134689331
-0.0405796989798545,1.186655044555664,-0.1832130402326584,-0.5535678863525391,-0.1680356860160827,-0.2291168868541717,0.0,0.0,0.2549198865890503,0.2979429960250854
-0.0425405502319335,1.1740857362747192,-0.1853213906288147,-0.5598897337913513,-0.1788456290960312,-0.2162179052829742,0.0,0.0,0.5720539093017578,-0.3010886907577514
-0.0443617813289165,1.1616110801696775,-0.1725290119647979,-0.5556092858314514,-0.1884799599647522,-0.1927038729190826,0.0,0.0,0.6269179582595825,-0.3372924923896789
-0.0461258888244628,1.1489325761795044,-0.1677539050579071,-0.564611554145813,-0.1971990019083023,-0.17439666390419,0.0,0.0,0.5735775232315063,-0.5103152394294739
-0.0480133071541786,1.1365736722946167,-0.1813204735517501,-0.5502820611000061,-0.204686090350151,-0.149755597114563,0.0,0.0,0.6911427974700928,0.327892541885376
-0.04995908588171,1.1246601343154907,-0.1870545297861099,-0.5305516719818115,-0.2122777849435806,-0.151833564043045,0.0,0.0,0.4647804498672485,-0.3964849710464477
-0.0518152229487896,1.1130521297454834,-0.1786890774965286,-0.5169228911399841,-0.2192749381065368,-0.1399429738521576,0.0,0.0,0.2730872631072998,-0.1419509649276733
-0.0536738410592079,1.1017701625823977,-0.1790508925914764,-0.5024491548538208,-0.2261655181646347,-0.1378115266561508,0.0,0.0,0.3416309356689453,0.2092450857162475
-0.0555300712585449,1.0908055305480957,-0.1789027154445648,-0.4883716404438019,-0.2329807877540588,-0.1363050043582916,0.0,0.0,-0.1366384029388427,-0.5918626189231873
-0.0574620254337787,1.0792170763015747,-0.1882416903972625,-0.5158302187919617,-0.2380042970180511,-0.1004704609513282,0.0,0.0,0.6514216661453247,-0.5491843223571777
-0.0592369064688682,1.0682381391525269,-0.1742351353168487,-0.4884816110134125,-0.2413117587566375,-0.0661492720246315,0.0,0.0,0.4781502485275268,0.2223374843597412
-0.0609991066157817,1.0572166442871094,-0.1731920391321182,-0.4903386831283569,-0.2443982362747192,-0.0617292299866676,0.0,0.0,0.6350862979888916,0.0608830451965332
-0.0626546889543533,1.0467411279678345,-0.1626755446195602,-0.4660597145557403,-0.2473278790712356,-0.0585932619869709,0.0,0.0,-0.4562187194824219,0.0349782705307006
-0.0643087401986122,1.0356272459030151,-0.1630386561155319,-0.4943550825119018,-0.2497310191392898,-0.0480632297694683,0.0,0.0,0.4390574693679809,-0.628208577632904
-0.065851405262947,1.0246825218200684,-0.1536905616521835,-0.4865241646766662,-0.2503146827220917,-0.0116731505841016,0.0,0.0,0.375483751296997,-0.0836973190307617
-0.0672067627310752,1.0140087604522705,-0.1355403363704681,-0.4743865430355072,-0.2503194212913513,-9.492358367424458e-05,0.0,0.0,-0.0782808065414428,-0.3434189558029175
-0.0685383826494216,1.002696514129639,-0.1336433291435241,-0.5026816129684448,-0.2498242557048797,0.0099030835554003,0.0,0.0,-0.2813975811004638,-0.5960318446159363
-0.0698807686567306,0.990766704082489,-0.1363138705492019,-0.5298651456832886,-0.2477062791585922,0.0423595495522022,0.0,0.0,-0.4352444410324096,-0.8899933695793152
-0.0712557807564735,0.9782355427742004,-0.1419410109519958,-0.5561954975128174,-0.24318328499794,0.0904600024223327,0.0,0.0,-0.7458333373069763,-0.3264572620391845
-0.072585679590702,0.965066373348236,-0.1379036754369735,-0.584493100643158,-0.2381887584924698,0.0998908728361129,0.0,0.0,-0.4698526263236999,-0.0354542732238769
-0.0738637894392013,0.9512592554092408,-0.1331937611103058,-0.6127914190292358,-0.2327324450016021,0.1091261655092239,0.0,0.0,-0.8421227335929871,-0.6885276436805725
-0.0751261711120605,0.9368276596069336,-0.1331501305103302,-0.6403218507766724,-0.2257217317819595,0.1402142941951751,0.0,0.0,-0.8277678489685059,0.5362485647201538
-0.0762772560119628,0.9217363595962524,-0.1212292462587356,-0.6698028445243835,-0.2195287644863128,0.1238594502210617,0.0,0.0,-0.2361570000648498,-0.6201910376548767
-0.0773983970284462,0.9060197472572328,-0.1196935027837753,-0.697411835193634,-0.2118623554706573,0.1533282250165939,0.0,0.0,-0.6772343516349792,0.4418864250183105
-0.0784437209367752,0.8896658420562744,-0.1125526055693626,-0.7257147431373596,-0.2037746906280517,0.1617534905672073,0.0,0.0,-0.3551137447357178,0.7742946147918701
-0.0793447494506836,0.8726467490196228,-0.0968739241361618,-0.7554789781570435,-0.1969570219516754,0.1363534480333328,0.0,0.0,-0.1776721477508545,0.7450697422027588
-0.0800969153642654,0.8549675345420837,-0.0807467848062515,-0.7850226163864136,-0.1913901418447494,0.1113379225134849,0.0,0.0,0.063746690750122,0.4669305086135864
-0.0807273834943771,0.8374618887901306,-0.0686369091272354,-0.7773140668869019,-0.1857683509588241,0.1124357357621193,0.0,0.0,-0.1726477146148681,0.501720666885376
-0.0812317878007888,0.81931471824646,-0.0556449815630912,-0.8059011697769165,-0.1805496364831924,0.1043741703033447,0.0,0.0,0.0564222335815429,0.1341575384140014
-0.0815920829772949,0.8010137677192688,-0.0415296740829944,-0.8127190470695496,-0.1750254333019256,0.1104840189218521,0.0,0.0,0.2629140615463257,0.1728949546813964
-0.0816652327775955,0.7826916575431824,-0.0136961955577135,-0.813578724861145,-0.1686369031667709,0.127770185470581,0.0,0.0,-0.3819726705551147,0.7050542831420898
-0.0815815925598144,0.7637242078781128,0.0029086668509989,-0.8423851728439331,-0.1631769984960556,0.1091981902718544,0.0,0.0,-0.3238868117332458,0.5162193775177002
-0.0813407897949218,0.7441050410270691,0.0195099115371704,-0.87147057056427,-0.1586052477359771,0.0914351120591163,0.0,0.0,0.3067847490310669,0.4945054054260254
-0.0808847397565841,0.7247825264930725,0.0406920239329338,-0.8582640290260315,-0.1536983251571655,0.0981387645006179,0.0,0.0,-0.4797593355178833,0.1951907873153686
-0.0803128257393837,0.7048228979110718,0.0519677512347698,-0.8865674138069153,-0.1484792083501815,0.1043821722269058,0.0,0.0,-0.39885413646698,0.2710412740707397
-0.0796222686767578,0.6842259764671326,0.0635209158062934,-0.9148713946342468,-0.1429594904184341,0.1103947907686233,0.0,0.0,0.6993429660797119,-0.0381233692169189
-0.0785981193184852,0.664188802242279,0.096136674284935,-0.8899582624435425,-0.1367035955190658,0.1251179724931717,0.0,0.0,0.1744986772537231,-0.0301088094711303
-0.0772880539298057,0.6442071199417114,0.1239846795797348,-0.8874478936195374,-0.1297167688608169,0.1397368758916854,0.0,0.0,0.2405048608779907,-0.1637848615646362
-0.0757169723510742,0.6244975328445435,0.1495547890663147,-0.8753487467765808,-0.1222051903605461,0.1502317488193512,0.0,0.0,0.3295795917510986,-0.6421008110046387
-0.0740586295723915,0.6051201820373535,0.1568561196327209,-0.8605067729949951,-0.1132775023579597,0.1785537749528885,0.0,0.0,0.0229084491729736,-0.4463530778884887
-0.0722136497497558,0.5854429602622986,0.1751109808683395,-0.8738571405410767,-0.1039620190858841,0.1863098442554474,0.0,0.0,0.5667824745178223,-0.8161013126373291
-0.0703380554914474,0.5661531090736389,0.1764627397060394,-0.8565929532051086,-0.0929574519395828,0.2200910747051239,0.0,0.0,0.199963092803955,-0.1568262577056884
-0.0682061165571212,0.5467762351036072,0.2014588117599487,-0.8605021834373474,-0.0813211724162101,0.2327252924442291,0.0,0.0,0.7700369358062744,-0.8873523473739624
-0.0659290328621864,0.5277527570724487,0.2139051407575607,-0.8447965383529663,-0.0676649361848831,0.2731246948242187,0.0,0.0,0.9307183027267456,-0.4146907329559326
-0.0634764656424522,0.5087948441505432,0.2312216460704803,-0.8419978022575378,-0.0537743903696537,0.2778109908103943,0.0,0.0,0.8055497407913208,-0.783202588558197
-0.0610628128051757,0.4901875853538513,0.22586290538311,-0.8265029788017273,-0.0384509228169918,0.3064691722393036,0.0,0.0,0.9120177030563354,-0.2283564209938049
-0.0584491714835166,0.4724297821521759,0.2455593347549438,-0.788908839225769,-0.0228453446179628,0.3121116161346435,0.0,0.0,0.7106306552886963,0.5197055339813232
-0.055559255182743,0.4544814527034759,0.2738298177719116,-0.7975415587425232,-0.0078666592016816,0.2995737493038177,0.0,0.0,0.9324638843536376,-0.7005267143249512
-0.0525438301265239,0.4374057054519653,0.2847169041633606,-0.7589196562767029,0.0087316380813717,0.3319658041000366,0.0,0.0,0.8987846374511719,-0.2579823732376098
-0.0495019927620887,0.420511245727539,0.2877485156059265,-0.7510414123535156,0.024960147216916,0.32457035779953,0.0,0.0,0.9292542934417723,-0.3633994460105896
-0.0464468970894813,0.4041649103164673,0.289456158876419,-0.7268425226211548,0.0408110506832599,0.3170181214809418,0.0,0.0,0.8151876926422119,-0.1824569702148437
-0.04324521869421,0.3882122039794922,0.3038584589958191,-0.709534764289856,0.0569247342646122,0.3222739100456238,0.0,0.0,0.7528043985366821,-0.74216228723526
-0.0401613228023052,0.3729586601257324,0.2908355295658111,-0.6786911487579346,0.0742921605706214,0.3473483324050903,0.0,0.0,0.734004020690918,-0.0578497648239135
-0.0369038581848144,0.3579877912998199,0.3077719509601593,-0.6663640737533569,0.0920991897583007,0.3561405539512634,0.0,0.0,0.8269612789154053,0.0081429481506347
-0.033581256866455,0.3430250883102417,0.3144171833992004,-0.6662048697471619,0.109805166721344,0.354119598865509,0.0,0.0,0.8819177150726318,0.5613621473312378
-0.0300301555544137,0.327996551990509,0.3381208479404449,-0.6692702174186707,0.126685619354248,0.337609201669693,0.0,0.0,0.9864814281463624,-0.0408499240875244
-0.0264257434755563,0.3129349946975708,0.3436312079429626,-0.6709148287773132,0.1434395313262939,0.3350779414176941,0.0,0.0,0.9960281848907472,0.2092542648315429
-0.0228252410888671,0.2986609041690826,0.3432816863059997,-0.6361052393913269,0.1601849347352981,0.3349083960056305,0.0,0.0,0.9251697063446044,0.7151627540588379
-0.0190784446895122,0.2852057218551636,0.3591041266918182,-0.5997583270072937,0.1757633090019226,0.3115678131580353,0.0,0.0,0.9006490707397461,0.4759130477905273
-0.0154797555878758,0.27247154712677,0.3449194729328155,-0.5677988529205322,0.1907621324062347,0.2999764084815979,0.0,0.0,0.6895942687988281,0.1075061559677124
-0.011931705288589,0.259564608335495,0.340512216091156,-0.5755442976951599,0.2051565647125244,0.2878890037536621,0.0,0.0,0.8172768354415894,0.4578326940536499
-0.0083733554929494,0.247313991189003,0.3413640856742859,-0.5465400815010071,0.2197541892528534,0.2919523417949676,0.0,0.0,0.5218048095703125,0.3440543413162231
-0.004877948667854,0.2351747304201126,0.3355711102485657,-0.5416646599769592,0.2339087128639221,0.2830906510353088,0.0,0.0,0.8865809440612793,0.3668211698532104
-0.001478862715885,0.2235087752342224,0.326290100812912,-0.5207125544548035,0.24775330722332,0.2768914997577667,0.0,0.0,0.8470371961593628,0.3731168508529663
0.0018595695728436,0.2123401910066604,0.3203602135181427,-0.4987148642539978,0.261506974697113,0.2750731706619262,0.0,0.0,0.3521569967269897,0.1636288166046142
0.0052878381684422,0.201254665851593,0.3291065692901611,-0.4951971471309662,0.2755534052848816,0.2809283435344696,0.0,0.0,0.3309667110443115,-0.0047438144683837
0.008803367614746,0.1899406015872955,0.3378478288650512,-0.505496621131897,0.2896429300308227,0.281790554523468,0.0,0.0,0.7807345390319824,0.6463186740875244
0.0124919889494776,0.1786790490150451,0.3562746942043304,-0.5030654072761536,0.3026315867900848,0.2597735226154327,0.0,0.0,0.7439491748809814,-0.2138563990592956
0.0162929538637399,0.1677152514457702,0.3669371306896209,-0.4900821149349212,0.3162787854671478,0.2729434967041015,0.0,0.0,0.8528180122375488,0.0996826887130737
0.020248794928193,0.1568202525377273,0.3818370103836059,-0.4872865974903106,0.3305824995040893,0.2860740423202514,0.0,0.0,0.8862015008926392,0.6575080156326294
0.0241110809147357,0.1465335935354232,0.3739230334758758,-0.4600532948970794,0.3434467315673828,0.2572845220565796,0.0,0.0,0.6484682559967041,-0.1381877064704895
0.0278909690678119,0.1366963982582092,0.3656876683235168,-0.4401973187923431,0.3563750982284546,0.2585673332214355,0.0,0.0,0.5788764953613281,0.4469196796417236
0.0317032821476459,0.1271824985742569,0.3685458302497864,-0.4260454773902893,0.3697698712348938,0.2678955197334289,0.0,0.0,0.8105900287628174,0.24264657497406
0.0356323234736919,0.117593914270401,0.3798912167549133,-0.429586112499237,0.3835868537425995,0.2763393819332123,0.0,0.0,0.93069326877594,0.2959327697753906
0.0394245162606239,0.1081635579466819,0.3666261732578277,-0.4225732088088989,0.3970262706279754,0.26878821849823,0.0,0.0,0.8099572658538818,0.188506007194519
0.0430791862308979,0.0994594693183898,0.3526398539543152,-0.3904985189437866,0.4107969105243683,0.2754129767417907,0.0,0.0,0.7545397281646729,0.2521188259124756
0.0466119758784771,0.0909366235136985,0.3407251834869385,-0.3825011849403381,0.4243518412113189,0.2710987031459808,0.0,0.0,0.886988639831543,0.1194720268249511
0.0497830398380756,0.0829326212406158,0.3053274750709533,-0.3593344986438751,0.4371450543403625,0.2558643519878387,0.0,0.0,0.7932960987091064,0.5672911405563354
0.0529058463871479,0.0754172876477241,0.301507830619812,-0.3374195396900177,0.4489118754863739,0.2353359758853912,0.0,0.0,0.6641736030578613,0.4136056900024414
0.0557931885123252,0.0682522132992744,0.2783630490303039,-0.321827232837677,0.4603200554847717,0.2281638085842132,0.0,0.0,0.6332834959030151,0.5887304544448853
0.0584538467228412,0.0614215247333049,0.2571364045143127,-0.3065690696239471,0.4701701700687408,0.1970020830631256,0.0,0.0,0.9151111841201782,0.3144218921661377
0.0609678253531456,0.0547067038714885,0.2427299916744232,-0.3014001846313476,0.4797745048999786,0.1920868456363678,0.0,0.0,0.8443244695663452,0.5152819156646729
0.0632248893380165,0.0481813512742519,0.2185237109661102,-0.2925311625003814,0.4877895414829254,0.1603014767169952,0.0,1.0,0.9996705055236816,0.9985105991363524
0.0651006698608398,0.0428248010575771,0.1961231827735901,-0.2355742156505584,0.4762870371341705,-0.2329514920711517,0.0,1.0,0.9996671676635742,0.9932398796081544
0.0666266456246376,0.0390849448740482,0.1811268627643585,-0.1567615419626236,0.4447380602359772,-0.6310960054397583,0.0,1.0,0.9958950281143188,-0.6775360703468323
0.0679062828421592,0.0361795052886009,0.1698012799024582,-0.1165403574705123,0.3993923366069793,-0.906957507133484,0.0,1.0,0.9841923713684082,-0.9303157329559326
0.0688899010419845,0.034420546144247,0.1464428156614303,-0.0655035227537155,0.3483147323131561,-1.0215961933135986,0.0,1.0,0.8399477005004883,-0.961268961429596
0.0694950073957443,0.0332121960818767,0.1065942794084549,-0.043308537453413,0.3002223670482635,-0.9619346857070924,0.0,1.0,0.7924280166625977,-0.817058801651001
0.0699320808053016,0.0327696651220321,0.0879993885755539,-0.0111915878951549,0.2546980679035187,-0.910523533821106,0.0,0.0,-0.9987078309059144,-0.8639734983444214
0.0704472512006759,0.0316939204931259,0.0949550867080688,-0.0408895388245582,0.210588127374649,-0.8822358846664429,0.0,0.0,-0.9895232319831848,-0.7151703834533691
0.0710417777299881,0.0299952607601881,0.1019580736756324,-0.0700126364827156,0.1678102314472198,-0.8555939793586731,0.0,0.0,-0.9536668062210084,-0.7425150275230408
0.0717269927263259,0.0276670306921005,0.1097603812813758,-0.099339909851551,0.1266492754220962,-0.8232200741767883,0.0,0.0,0.1378543376922607,-0.9456414580345154
0.0724995583295822,0.0251865964382886,0.1169163957238197,-0.1073492318391799,0.0872635766863823,-0.7877145409584045,0.0,0.0,0.7389798164367676,-0.96492999792099
0.0731314644217491,0.0230341050773859,0.1013698577880859,-0.0938701406121254,0.0494758188724517,-0.7557557225227356,0.0,0.0,0.7883133888244629,-0.9785723686218262
0.0736388191580772,0.0210778806358575,0.0873761624097824,-0.0861330404877662,0.0132893919944763,-0.7237287759780884,0.0,0.0,0.6763427257537842,-0.9921554923057556
0.0741706863045692,0.0193565469235181,0.0879922434687614,-0.0765531435608863,-0.0210718605667352,-0.6872254014015198,0.0,0.0,0.1924082040786743,-0.97625470161438
0.0747900009155273,0.0175905805081129,0.0948756113648414,-0.0792708769440651,-0.0536043234169483,-0.6506494283676147,0.0,0.0,0.6396050453186035,-0.9825710654258728
0.0756308585405349,0.0157211162149906,0.1149202734231948,-0.0844747349619865,-0.0841208845376968,-0.6103314161300659,0.0,0.0,0.659546971321106,-0.9836193919181824
0.0766952484846115,0.0142532680183649,0.1352074593305587,-0.0671013668179512,-0.112650841474533,-0.5705991983413696,0.0,0.0,-0.13602215051651,-0.9139938950538636
0.0778235420584678,0.012179241515696,0.1398622840642929,-0.0944361463189125,-0.1395365297794342,-0.5377136468887329,1.0,0.0,0.8857016563415527,-0.8789491653442383
0.0790493935346603,0.0105597591027617,0.1358862221240997,-0.0737582296133041,-0.1513469517230987,-0.2342190742492675,1.0,0.0,0.4691917896270752,-0.9056574106216432
