x_pos,y_pos,x_vel,y_vel,angle,ang_vel,leg_1,leg_2,main_booster,lat_booster
-0.0015950202941894,1.4031580686569214,-0.1616355925798416,-0.3449775576591491,0.0019147789571434,0.0377822965383529,0.0,0.0,-0.3296955227851867,0.8046711683273315
-0.0031933784484863,1.394949197769165,-0.1600609421730041,-0.3648403286933899,0.0021386398002505,0.0044780881144106,0.0,0.0,-0.1886521577835083,0.6752524375915527
-0.0047987936995923,1.3862687349319458,-0.1591980457305908,-0.385797381401062,0.000807162199635,-0.0266318712383508,0.0,0.0,0.4437832832336426,0.6168142557144165
-0.0065417289733886,1.3777748346328735,-0.1715218871831894,-0.3775114715099334,-0.0019369691144675,-0.054887942969799,0.0,0.0,-0.4307657480239868,0.2139220237731933
-0.0083566661924123,1.368814468383789,-0.1787828356027603,-0.3982443511486053,-0.0046240035444498,-0.0537457279860973,0.0,0.0,0.4067282676696777,0.9181638956069946
-0.0100360866636037,1.3600789308547974,-0.1635854989290237,-0.3882679343223572,-0.0089356983080506,-0.0862416476011276,0.0,0.0,-0.1909659504890442,0.2056803703308105
-0.0117877004668116,1.3508771657943726,-0.1708394587039947,-0.4090016782283783,-0.0132082840427756,-0.0854595750570297,0.0,0.0,0.38416588306427,0.6555595397949219
-0.0134147647768259,1.3420206308364868,-0.1573805510997772,-0.3936861157417297,-0.0184743497520685,-0.1053310260176658,0.0,0.0,0.0262346267700195,0.683220386505127
-0.0150591852143406,1.3334835767745972,-0.1577561944723129,-0.3795171976089477,-0.0250804889947175,-0.132134735584259,0.0,0.0,-0.3614659905433655,0.1882506608963012
-0.0167757980525493,1.3244807720184326,-0.1649936288595199,-0.4002505540847778,-0.0316731519997119,-0.1318657398223877,0.0,0.0,-0.1582654118537902,0.1394469738006591
-0.0185646060854196,1.3150122165679932,-0.1722261905670166,-0.4209785163402557,-0.0382614284753799,-0.1317774653434753,0.0,0.0,0.0419282913208007,0.7491253614425659
-0.02030267752707,1.305569767951965,-0.1656677722930908,-0.4199039041996002,-0.0463014617562294,-0.1608157008886337,0.0,0.0,-0.0904760956764221,0.4620182514190674
-0.0221128463745117,1.295661449432373,-0.1728829443454742,-0.4406405985355377,-0.0543516017496585,-0.1610176265239715,0.0,0.0,-0.0572692155838012,0.1929848194122314
-0.0239952094852924,1.2852874994277954,-0.1800901591777801,-0.4613721072673797,-0.0624200738966465,-0.1613845825195312,0.0,0.0,-0.352878212928772,0.8327898979187012
-0.0258684158325195,1.274449348449707,-0.1771015673875808,-0.4821459352970123,-0.0725522190332412,-0.2026612758636474,0.0,0.0,0.1415303945541381,0.5694762468338013
-0.0276706703007221,1.2634332180023191,-0.1689845919609069,-0.4901927709579468,-0.0836978182196617,-0.2229320257902145,0.0,0.0,-0.244069218635559,0.7692859172821045
-0.0294699668884277,1.251952052116394,-0.1667758077383041,-0.5110582709312439,-0.0967580452561378,-0.2612283229827881,0.0,0.0,0.1130876541137695,0.0024551153182983
-0.0312211029231548,1.2403697967529297,-0.1623864769935608,-0.5156384110450745,-0.10941182076931,-0.2530983686447143,0.0,0.0,-0.6617952585220337,0.5889699459075928
-0.0329899787902832,1.2283201217651367,-0.1627477556467056,-0.5366316437721252,-0.1234764605760574,-0.2813182771205902,0.0,0.0,0.2368857860565185,0.5197906494140625
-0.0348028168082237,1.2164421081542969,-0.1659282594919204,-0.5292482972145081,-0.138776034116745,-0.3060196042060852,0.0,0.0,-0.2334937453269958,-0.2253845930099487
-0.0366868004202842,1.2041008472442627,-0.1730274707078933,-0.550002932548523,-0.1541361808776855,-0.3072305619716644,0.0,0.0,0.510535717010498,-0.1232962608337402
-0.0385691635310649,1.1918935775756836,-0.1728862971067428,-0.5442066192626953,-0.1695129126310348,-0.3075622916221618,0.0,0.0,-0.1929138898849487,-0.3115181922912597
-0.0405224785208702,1.1792230606079102,-0.1799466013908386,-0.56496262550354,-0.1849606782197952,-0.3089831471443176,0.0,0.0,0.1371880769729614,-0.8869751691818237
-0.0425217635929584,1.1664001941680908,-0.1862954646348953,-0.5716716647148132,-0.1986947953701019,-0.2747067809104919,0.0,0.0,0.6020474433898926,-0.7970272302627563
-0.044679544866085,1.154096603393555,-0.2034196555614471,-0.5485263466835022,-0.2111684828996658,-0.2494959831237793,0.0,0.0,-0.2275038361549377,-0.6469764113426208
-0.0469724647700786,1.1413311958312988,-0.2184664756059646,-0.5689432621002197,-0.2221087217330932,-0.2188047468662262,0.0,0.0,-0.1526306867599487,-0.4184712767601013
-0.0493358597159385,1.128101110458374,-0.2254601418972015,-0.5896800756454468,-0.2331400066614151,-0.220625564455986,0.0,0.0,0.6954337358474731,-0.7015623450279236
-0.0517688766121864,1.115719437599182,-0.2334272563457489,-0.5518937706947327,-0.2431591600179672,-0.2003833055496215,0.0,0.0,-0.3254386186599731,0.5003194808959961
-0.0542408935725688,1.1028658151626587,-0.2365060746669769,-0.5730759501457214,-0.2540652155876159,-0.2181209772825241,0.0,0.0,0.5746650695800781,-0.6805667877197266
-0.0567394271492958,1.090248465538025,-0.240369439125061,-0.5624452233314514,-0.2637449502944946,-0.1935948729515075,0.0,0.0,0.6490058898925781,-0.209816575050354
-0.059068776667118,1.0783826112747192,-0.2234580069780349,-0.5291029810905457,-0.2734444737434387,-0.193990558385849,0.0,0.0,-0.0721963047981262,-0.7959107756614685
-0.061535932123661,1.0660762786865234,-0.2389288693666458,-0.5484299063682556,-0.2814360857009887,-0.1598322987556457,0.0,0.0,0.0379118919372558,-0.8072119951248169
-0.0640493407845497,1.0540893077850342,-0.2450482547283172,-0.5339834094047546,-0.2879102230072021,-0.1294819414615631,0.0,0.0,0.2658214569091797,-0.8184497952461243
-0.0666687935590744,1.0420783758163452,-0.2571054100990295,-0.5347845554351807,-0.2928943932056427,-0.0996840596199035,0.0,0.0,0.9156060218811036,0.0061419010162353
-0.0691273659467697,1.0306382179260254,-0.2410005331039428,-0.5094428062438965,-0.2979088723659515,-0.1002902165055275,0.0,0.0,0.6763913631439209,-0.8670650720596313
-0.0714716911315918,1.019859790802002,-0.231197327375412,-0.4796972870826721,-0.3012410402297973,-0.0666436702013015,0.0,0.0,0.4963977336883545,-0.1631020307540893
-0.0737820640206337,1.0092172622680664,-0.2275947630405426,-0.4737243950366974,-0.304805040359497,-0.0712801367044448,0.0,0.0,0.906930923461914,-0.4251967668533325
-0.0758519172668457,0.9993463158607484,-0.2036185562610626,-0.4394192993640899,-0.3082896173000335,-0.0696914121508598,0.0,0.0,0.2390741109848022,-0.3832364082336426
-0.0778223052620887,0.989926278591156,-0.19342041015625,-0.4194373488426208,-0.3120361864566803,-0.0749313905835151,0.0,0.0,0.330363392829895,-0.2622401714324951
-0.0796838775277137,0.980729043483734,-0.1825275421142578,-0.409555047750473,-0.3158044815063476,-0.0753659829497337,0.0,0.0,-0.4056390523910522,-0.8384525179862976
-0.081679917871952,0.971108853816986,-0.1977970153093338,-0.4279555082321167,-0.3176806271076202,-0.0375230573117733,0.0,0.0,0.5347447395324707,-0.1424776315689087
-0.0834760665893554,0.961662232875824,-0.1781986802816391,-0.4201625883579254,-0.3191560208797455,-0.0295080505311489,0.0,0.0,0.3538200855255127,-0.4976305961608886
-0.0851757079362869,0.9520785212516784,-0.1687763333320617,-0.4262117743492126,-0.3203938007354736,-0.0247557125985622,0.0,0.0,0.5459290742874146,-0.7428462505340576
-0.0867363959550857,0.942710816860199,-0.1563819944858551,-0.4162724316120147,-0.3200691342353821,0.0064930925145745,0.0,0.0,0.674248456954956,-0.8032987117767334
-0.0883651748299598,0.933344542980194,-0.1645610332489013,-0.4159078299999237,-0.3183278441429138,0.0348261408507823,0.0,0.0,0.6414804458618164,-0.335903525352478
-0.0899020209908485,0.9239639639854432,-0.1554306745529174,-0.4165237545967102,-0.3165083825588226,0.0363886281847953,0.0,0.0,0.8578274250030518,-0.8557457327842712
-0.0913290977478027,0.9148260951042176,-0.1461488455533981,-0.4053846895694732,-0.3129417896270752,0.0713320299983024,0.0,0.0,0.1744060516357422,-0.5625320076942444
-0.0927499756217002,0.906135320663452,-0.1463582217693328,-0.3853419721126556,-0.3085116744041443,0.0886017978191375,0.0,0.0,0.8145577907562256,-0.5528931617736816
-0.0941458716988563,0.8983114361763,-0.144413024187088,-0.3467138707637787,-0.303510457277298,0.1000236272811889,0.0,0.0,0.2722322940826416,-0.0072227716445922
-0.0954874008893966,0.8905899524688721,-0.1387863904237747,-0.3422171473503113,-0.2987192571163177,0.0958242565393447,0.0,0.0,-0.2624954581260681,-0.1160750389099121
-0.0968737602233886,0.8824030160903931,-0.1431474983692169,-0.3629476726055145,-0.2940627634525299,0.0931299328804016,0.0,0.0,-0.2448951601982116,-0.3913378715515136
-0.0983023643493652,0.8737503886222839,-0.1472552418708801,-0.3836780488491058,-0.289541095495224,0.0904336273670196,0.0,0.0,-0.6590999960899353,-0.2658653855323791
-0.0997707396745681,0.8646323084831238,-0.151093453168869,-0.4044083058834076,-0.2851542830467224,0.0877365916967392,0.0,0.0,-0.6258498430252075,-0.3481678366661072
-0.1012758240103721,0.8550487756729126,-0.1546459943056106,-0.4251384139060974,-0.280902236700058,0.0850400477647781,0.0,0.0,-0.4883623719215393,-0.4597238898277282
-0.1028146743774414,0.8449995517730713,-0.1578970253467559,-0.4458684027194977,-0.2767849862575531,0.0823452323675155,0.0,0.0,-0.8024691939353943,-0.5070472955703735
-0.1044291481375694,0.8345014452934265,-0.166486382484436,-0.4656315743923187,-0.2716131508350372,0.1034367680549621,0.0,0.0,-0.7026995420455933,0.1421453952789306
-0.106070801615715,0.8235380053520203,-0.1690896302461624,-0.4863621294498443,-0.2665757238864898,0.1007490530610084,0.0,0.0,-0.5462725162506104,-0.4669177532196045
-0.1077363044023513,0.8121089339256287,-0.1713480502367019,-0.5070925354957581,-0.2616723775863647,0.0980668365955352,0.0,0.0,-0.5971782207489014,-0.3247160911560058
-0.1094221100211143,0.800214409828186,-0.1732495129108429,-0.527822732925415,-0.2569027841091156,0.0953916162252426,0.0,0.0,-0.3663737773895263,-0.5821020603179932
-0.1111736297607421,0.7878789305686951,-0.180997759103775,-0.5472308993339539,-0.2509359121322632,0.1193379536271095,0.0,0.0,-0.8724738359451294,0.0295356512069702
-0.1129378303885459,0.7750779986381531,-0.182155892252922,-0.5679618716239929,-0.2451018542051315,0.1166812404990196,0.0,0.0,-0.5408884882926941,-0.4475311040878296
-0.1147110909223556,0.7618116140365601,-0.1829310357570648,-0.5886927247047424,-0.239400029182434,0.1140365228056907,0.0,0.0,-0.3654652833938598,-0.5299199223518372
-0.1165219321846962,0.7480904459953308,-0.1874044239521026,-0.6088199019432068,-0.2329807877540588,0.128384843468666,0.0,0.0,0.353348970413208,-0.0640171766281127
-0.1181991547346115,0.73462975025177,-0.1740182936191558,-0.5972658395767212,-0.226603016257286,0.1275555491447448,0.0,0.0,0.1065233945846557,-0.1410906910896301
-0.1198081970214843,0.72109454870224,-0.1671075224876403,-0.6006313562393188,-0.2203308343887329,0.1254439055919647,0.0,0.0,-0.6337727308273315,-0.4947684407234192
-0.1214107498526573,0.7070936560630798,-0.1663285791873932,-0.6213623285293579,-0.2141873687505722,0.1228691563010215,0.0,0.0,0.1358835697174072,0.0114001035690307
-0.1228632926940918,0.6934852004051208,-0.1512840837240219,-0.6039631366729736,-0.2081031948328018,0.1216834634542465,0.0,0.0,-0.3748393654823303,-0.5827181339263916
-0.1243415847420692,0.6794167160987854,-0.1547329723834991,-0.6243079900741577,-0.2011382132768631,0.1392997205257415,0.0,0.0,0.2827843427658081,0.0742032527923584
-0.1256488859653473,0.6658508777618408,-0.1376245021820068,-0.6020081639289856,-0.1942008882761001,0.1387464106082916,0.0,0.0,-0.6310840249061584,-0.4253935813903808
-0.1269347220659256,0.6518195867538452,-0.1353645026683807,-0.6227394938468933,-0.1873866021633148,0.1362859308719635,0.0,0.0,-0.6605765223503113,0.2767298221588135
-0.1281956732273101,0.6373229026794434,-0.1327604949474334,-0.6434705257415771,-0.180693507194519,0.1338619887828827,0.0,0.0,0.2763504981994629,0.4963996410369873
-0.1293186247348785,0.623063862323761,-0.1189556345343589,-0.6329417824745178,-0.174009695649147,0.1336762756109237,0.0,0.0,-0.4027773141860962,0.1252750158309936
-0.1304101049900055,0.608339250087738,-0.1157052740454673,-0.6536725163459778,-0.1674429327249527,0.1313353925943374,0.0,0.0,0.8797459602355957,0.182543396949768
-0.1312751770019531,0.5941000580787659,-0.0933450609445571,-0.6320993304252625,-0.1606042087078094,0.1367745101451873,0.0,0.0,-0.3658431768417358,0.3092401027679443
-0.1321030557155609,0.5793953537940979,-0.0895094498991966,-0.6528301239013672,-0.1538777351379394,0.1345294862985611,0.0,0.0,0.1004159450531005,0.3345921039581299
-0.132812887430191,0.5645356178283691,-0.0778199210762977,-0.659738302230835,-0.1470514088869094,0.136526733636856,0.0,0.0,0.4043954610824585,0.373870849609375
-0.1334643363952636,0.5496445298194885,-0.0717673450708389,-0.6611909866333008,-0.1404561996459961,0.1319040954113006,0.0,0.0,0.6020945310592651,0.9280784130096436
-0.1338988244533538,0.5354247689247131,-0.0480922721326351,-0.6315552592277527,-0.1358276754617691,0.0925701111555099,0.0,0.0,-0.636222779750824,0.8821934461593628
-0.1342071592807769,0.5207318663597107,-0.0333647951483726,-0.6527915596961975,-0.1332929730415344,0.0506939888000488,0.0,0.0,0.7903304100036621,-0.3951761722564697
-0.1344688385725021,0.5069137811660767,-0.0280590504407882,-0.6139689087867737,-0.1314186006784439,0.0374875217676162,0.0,0.0,0.0039373636245727,-0.8727293014526367
-0.1348149329423904,0.4929519891738891,-0.0381558313965797,-0.620215654373169,-0.127888798713684,0.0705959349870681,0.0,0.0,0.1788654327392578,-0.4449642896652221
-0.1350075751543045,0.479357898235321,-0.0228518992662429,-0.6038801074028015,-0.1243170723319053,0.0714345127344131,0.0,0.0,-0.0034101009368896,-0.7355829477310181
-0.1352129876613617,0.4653104841709137,-0.0257701780647039,-0.6239047646522522,-0.1191174462437629,0.1039926633238792,0.0,0.0,0.8539319038391113,0.7697000503540039
-0.135277658700943,0.4519342184066772,-0.0099260965362191,-0.5942285656929016,-0.1156819462776184,0.0687097981572151,0.0,0.0,0.4051603078842163,0.6471688747406006
-0.1351761817932129,0.4389744102954864,0.0080987773835659,-0.5758359432220459,-0.1136389672756195,0.0408596917986869,0.0,0.0,0.602428674697876,-0.5752307176589966
-0.1349062919616699,0.4263817071914673,0.0236224401742219,-0.5594208836555481,-0.1103006824851036,0.0667657107114791,0.0,0.0,0.1023975610733032,0.0178405046463012
-0.1345355063676834,0.4136609435081482,0.0337188877165317,-0.5651241540908813,-0.1069631874561309,0.066750094294548,0.0,0.0,0.6819100379943848,0.3236843347549438
-0.1339658796787262,0.4010702967643738,0.0532366223633289,-0.5593212246894836,-0.1032593101263046,0.0740774348378181,0.0,0.0,0.8559398651123047,-0.1335017681121826
-0.1331033706665039,0.3889452219009399,0.0818088874220848,-0.5385926961898804,-0.098858006298542,0.0880260989069938,0.0,0.0,0.5315635204315186,-0.2201017141342163
-0.132013127207756,0.3768807649612427,0.1040542125701904,-0.5358758568763733,-0.093922458589077,0.0987109243869781,0.0,0.0,-0.135823369026184,-0.0082470774650573
-0.1308588087558746,0.3643504381179809,0.1105149164795875,-0.5566036701202393,-0.0890470892190933,0.097507357597351,0.0,0.0,0.2984167337417602,-0.1459563970565796
-0.1295623779296875,0.3522416353225708,0.1246628910303115,-0.5378833413124084,-0.0841161459684372,0.0986187309026718,0.0,0.0,-0.096207857131958,-0.6166362762451172
-0.1282388716936111,0.3396741151809692,0.1264409273862838,-0.5582365393638611,-0.0782637447118759,0.1170480698347091,0.0,0.0,0.4905449151992798,-0.2493010759353637
-0.1267354041337967,0.3270704448223114,0.144057959318161,-0.5598434209823608,-0.0720409601926803,0.1244558095932006,0.0,0.0,0.4664746522903442,-0.1580525040626526
-0.1251792013645172,0.3146824240684509,0.1496036350727081,-0.5503032207489014,-0.0660813525319099,0.1191921234130859,0.0,0.0,0.2987117767333984,-0.6585877537727356
-0.1234886199235916,0.302849531173706,0.1616154909133911,-0.5255987048149109,-0.0587298646569252,0.1470298320055008,0.0,0.0,0.3466253280639648,0.004085898399353
-0.1217220276594162,0.2912472784519195,0.1693563163280487,-0.5153852105140686,-0.0515079610049724,0.1444380432367324,0.0,0.0,0.2302339076995849,-0.3465537428855896
-0.1199491471052169,0.2800739109516144,0.1704562753438949,-0.4963736832141876,-0.0447536595165729,0.1350861638784408,0.0,0.0,0.1639682054519653,0.1629965305328369
-0.1180241554975509,0.2691675424575805,0.1854047626256942,-0.4845335185527801,-0.0377521403133869,0.1400303542613983,0.0,0.0,-0.3129132390022278,-0.7485076785087585
-0.1160943955183029,0.2578047811985016,0.1842757165431976,-0.5048187971115112,-0.0291625522077083,0.1717918962240219,0.0,0.0,-0.0375351309776306,-0.0681080818176269
-0.1140953078866005,0.2459766715764999,0.1912531554698944,-0.5255504846572876,-0.0206046681851148,0.1711574643850326,0.0,0.0,0.6410655975341797,-0.2247847318649292
-0.1120408028364181,0.2344257235527038,0.1969270855188369,-0.513280987739563,-0.0121907098218798,0.168279081583023,0.0,0.0,0.7820389270782471,0.0133450031280517
-0.1100340858101844,0.223384603857994,0.1927619874477386,-0.4906721115112304,-0.0043865335173904,0.1560837775468826,0.0,0.0,0.48187255859375,-0.3459919691085815
-0.1080899238586425,0.21258345246315,0.1871651709079742,-0.4800468683242798,0.0027674420271068,0.1430796682834625,0.0,0.0,0.8220161199569702,-0.7561438679695129
-0.1060099601745605,0.2025104314088821,0.1989775747060775,-0.4477351307868957,0.0116765443235635,0.1781815588474273,0.0,0.0,0.0750637054443359,-0.2068781852722168
-0.1038219481706619,0.192332923412323,0.2096060514450073,-0.4524321258068084,0.0207473840564489,0.1814169436693191,0.0,0.0,0.3419023752212524,-0.499413251876831
-0.1014580726623535,0.1826231777667999,0.2266717404127121,-0.4317070841789245,0.0303415395319461,0.1918830573558807,0.0,0.0,0.2759472131729126,-0.6182041168212891
-0.0991097465157508,0.1733490377664566,0.2239323556423187,-0.4124380052089691,0.0411090478301048,0.2153502702713012,0.0,0.0,-0.3113992214202881,-0.8956162929534912
-0.0967445373535156,0.1636173278093338,0.2242786139249801,-0.4328972995281219,0.0532147660851478,0.2421140670776367,0.0,0.0,0.2856683731079101,-0.1989151239395141
-0.0942725166678428,0.1541017144918441,0.2347002029418945,-0.4234069883823395,0.0655759274959564,0.2472230494022369,0.0,0.0,0.6056339740753174,-0.1199550628662109
-0.0917880088090896,0.1453087925910949,0.2360175102949142,-0.3913882076740265,0.0778859406709671,0.2462000846862793,0.0,0.0,0.2999594211578369,-0.8605546951293945
-0.089293859899044,0.136984497308731,0.2352259457111358,-0.3707655966281891,0.0919373854994773,0.2810288369655609,0.0,0.0,-0.0856860280036926,-0.6585663557052612
-0.0867728218436241,0.128187209367752,0.2368075549602508,-0.3919993937015533,0.1071083396673202,0.303418904542923,0.0,0.0,0.719146728515625,0.0351794958114624
-0.0843754783272743,0.1198657155036926,0.2250812947750091,-0.3709615468978882,0.1216718852519989,0.2912708818912506,0.0,0.0,-0.0285617113113403,0.727729082107544
-0.081861212849617,0.1110868081450462,0.2379600554704666,-0.3913286626338959,0.1350741535425186,0.268045425415039,0.0,0.0,0.804142951965332,0.0173449516296386
-0.0793812721967697,0.1027540042996406,0.2346760481595993,-0.3716041445732116,0.1483481079339981,0.2654794454574585,0.0,0.0,0.6352472305297852,0.1763815879821777
-0.0768820792436599,0.0947462171316146,0.2365269660949707,-0.3572893142700195,0.1617206335067749,0.2674507796764374,0.0,0.0,0.7651152610778809,-0.0713819861412048
-0.0742353424429893,0.0868768990039825,0.2507025301456451,-0.3513232171535492,0.1757172346115112,0.2799321711063385,0.0,0.0,0.7773644924163818,-0.1406964063644409
-0.0715419799089431,0.0796578228473663,0.2549247443675995,-0.3226142823696136,0.1901762634515762,0.2891806960105896,0.0,0.0,0.5383443832397461,-0.1820565462112426
-0.068896010518074,0.0730880573391914,0.2501552700996399,-0.2939067482948303,0.2047192305326461,0.2908592820167541,0.0,0.0,0.2581968307495117,-0.2094596624374389
