x_pos,y_pos,x_vel,y_vel,angle,ang_vel,leg_1,leg_2,main_booster,lat_booster
-0.0014277457958087,1.4030898809432983,-0.1445814073085785,-0.3480110168457031,0.0016062661306932,0.0316740237176418,0.0,0.0,-0.9525351104630544,-0.7589429018599633
-0.0028179169166833,1.3947443962097168,-0.1418757289648056,-0.3709155619144439,0.0044460976496338,0.0568025335669517,0.0,0.0,-0.705816698361984,-0.9990311850257184
-0.0041807172819972,1.3858563899993896,-0.1406181752681732,-0.3950456380844116,0.0087316520512104,0.0857193022966384,0.0,0.0,-0.532216851411135,-0.9822455381964632
-0.0055521009489893,1.376429557800293,-0.1437348276376724,-0.4190208315849304,0.0152562735602259,0.1305041015148162,0.0,0.0,0.1987440676317382,0.885004249146569
-0.0066735269501805,1.3671849966049194,-0.1169553771615028,-0.4109229743480682,0.0200209729373455,0.0953028872609138,0.0,0.0,0.9241041144115169,0.9475339891358708
-0.0074820518493652,1.358360767364502,-0.0840266197919845,-0.3922365307807922,0.0231731366366148,0.0630488470196724,0.0,0.0,-0.8488826245283188,0.761776711863086
-0.0081635471433401,1.349003791809082,-0.069806732237339,-0.4158906042575836,0.0248035136610269,0.0326105393469333,0.0,0.0,-0.8334862519915542,0.7534639341085642
-0.0087076183408498,1.339117407798767,-0.0541020259261131,-0.439396470785141,0.0245086196810007,-0.00589813105762,0.0,0.0,0.3924630431386804,-0.9562284438519691
-0.0092980386689305,1.329761028289795,-0.060599960386753,-0.4158628582954407,0.0260391943156719,0.0306144002825021,0.0,0.0,-0.6642351935799438,-0.6729970274610204
-0.009890079498291,1.31987202167511,-0.0620361566543579,-0.4395614564418793,0.0288516338914632,0.0562540516257286,0.0,0.0,0.7488354618166873,-0.8162788714570708
-0.0104187009856104,1.310394287109375,-0.0574940629303455,-0.4213254749774933,0.0334375016391277,0.0917256996035575,0.0,0.0,0.8319099815127153,0.9051990767713556
-0.0107699390500783,1.3012661933898926,-0.0380720272660255,-0.4057618677616119,0.0363496206700801,0.0582477822899818,0.0,0.0,-0.3647372366698598,-0.603433226849227
-0.0111266132444143,1.2916045188903809,-0.0395172946155071,-0.4295029640197754,0.040167897939682,0.0763722583651542,0.0,0.0,0.9134000299131316,-0.8603878695143824
-0.0114545822143554,1.2820184230804443,-0.0385371856391429,-0.4262169599533081,0.0458492711186409,0.113637700676918,0.0,0.0,-0.6625238976396832,-0.6912130453079214
-0.0118066789582371,1.2719022035598757,-0.0419874712824821,-0.4498280882835388,0.0525597892701625,0.1342223584651947,0.0,0.0,0.9575512536450428,0.8216827419097977
-0.0119601245969533,1.2617863416671753,-0.0207764860242605,-0.4498000741004944,0.0579420030117034,0.1076541319489479,0.0,0.0,0.2538667194336306,-0.6313654339320838
-0.0120821949094533,1.2521214485168457,-0.0190975908190011,-0.4298336207866668,0.0647755712270736,0.1366835236549377,0.0,0.0,0.6764022086674923,-0.6532349579854579
-0.0121277812868356,1.242496371269226,-0.0131412949413061,-0.428177148103714,0.0732789039611816,0.170082151889801,0.0,0.0,-0.3680799757115605,0.902585321221948
-0.0121028898283839,1.2323548793792725,-0.0039936238899827,-0.4510608613491058,0.0797026976943016,0.1284874379634857,0.0,0.0,-0.4589528940391814,-0.9946252225735436
-0.0121857644990086,1.221668362617493,-0.0170401744544506,-0.4754387438297272,0.0883854702115058,0.173671156167984,0.0,0.0,-0.7789743910717666,0.7664824481983226
-0.0122221950441598,1.210463523864746,-0.0105510186403989,-0.4984175860881805,0.0952368974685669,0.1370412558317184,0.0,0.0,0.1463116919356788,-0.7810617633870718
-0.012373256497085,1.1991711854934692,-0.0236035101115703,-0.5024378895759583,0.1036816388368606,0.1689101308584213,0.0,0.0,0.1605182546655053,-0.6250170425096764
-0.0125523563474416,1.1879233121871948,-0.0278387516736984,-0.5006237626075745,0.1135605052113533,0.1975949704647064,0.0,0.0,-0.6236748516322002,-0.7310818109708764
-0.0128291128203272,1.1761256456375122,-0.0389363393187522,-0.5252415537834167,0.1247709766030311,0.2242291867733001,0.0,0.0,-0.4884189170548529,0.759463443851212
-0.0131149291992187,1.1638052463531494,-0.0387002453207969,-0.5484427809715271,0.1348672658205032,0.2019437998533249,0.0,0.0,-0.9095943298138148,-0.6810470704181162
-0.0135259628295898,1.150920867919922,-0.0529728047549724,-0.5737541913986206,0.1467049568891525,0.2367535084486007,0.0,0.0,-0.3779323655867834,-0.8979145368364515
-0.0140739437192678,1.1374942064285278,-0.0684972703456878,-0.5981425642967224,0.1603820323944091,0.2735415697097778,0.0,0.0,-0.2599221342263043,0.7473123215641782
-0.0146498680114746,1.123554229736328,-0.0701433718204498,-0.6209585666656494,0.1729460656642913,0.251280665397644,0.0,0.0,-0.6978835409223736,-0.7441068142907946
-0.0153752323240041,1.10906982421875,-0.0869398638606071,-0.6454938650131226,0.187388002872467,0.2888389229774475,0.0,0.0,0.7190597671769223,0.7173588266981294
-0.0162463188171386,1.0948076248168943,-0.1000534668564796,-0.6355637311935425,0.2004125118255615,0.2604902982711792,0.0,0.0,0.0438694691165368,-0.7636062606655206
-0.0173594467341899,1.0807944536209106,-0.1258273273706436,-0.6248400807380676,0.2150472700595855,0.2926950454711914,0.0,0.0,-0.2393642659078085,-0.8790453512620822
-0.0186420436948537,1.0662201642990112,-0.1447798609733581,-0.6502435207366943,0.2317617088556289,0.3342890441417694,0.0,0.0,-0.808911639351616,-0.9328191766790492
-0.0201058387756347,1.0510952472686768,-0.1650070697069168,-0.6752611398696899,0.2506886720657348,0.3785397410392761,0.0,0.0,0.6836787177879975,-0.8162193433292577
-0.0218941681087017,1.0359172821044922,-0.1989429295063018,-0.6781390905380249,0.2712289988994598,0.410806268453598,0.0,0.0,-0.1638662554428591,0.8195597917269792
-0.0237255096435546,1.0202385187149048,-0.201561838388443,-0.7003675103187561,0.2901473641395569,0.378367155790329,0.0,0.0,0.3673005940989873,-0.9532185448953568
-0.0259031299501657,1.004912257194519,-0.2380383461713791,-0.6853449940681458,0.3110933005809784,0.4189186990261078,0.0,0.0,0.6759806289850661,0.9051808427328354
-0.0282954219728708,0.9897310137748718,-0.2576504945755005,-0.678786039352417,0.3302449285984039,0.3830324709415436,0.0,0.0,0.9299386579448784,-0.6824615846975477
-0.031099796295166,0.9752843976020812,-0.3002516627311706,-0.6467357873916626,0.3509923815727234,0.4149490892887115,0.0,0.0,0.8806708998103276,0.916047198840037
-0.0343350395560264,0.961680829524994,-0.3414201438426971,-0.609088659286499,0.369854599237442,0.377245157957077,0.0,0.0,0.4356129109466939,0.844204733842307
-0.0377964004874229,0.948337733745575,-0.3623753190040588,-0.5973197817802429,0.3871011435985565,0.3449308276176452,0.0,0.0,-0.0404525387959846,0.9770859058837882
-0.0413262359797954,0.9345070719718932,-0.3676390945911407,-0.6187546849250793,0.40276899933815,0.3133564591407776,0.0,0.0,-0.7431774735450745,0.9769673347473145
-0.0448973663151264,0.9201974272727966,-0.3694998621940613,-0.6395683288574219,0.416094034910202,0.266501247882843,0.0,0.0,-0.7539300918579102,0.9768754243850708
-0.0485129356384277,0.9053993225097656,-0.3717880845069885,-0.6607447266578674,0.4271703064441681,0.221525102853775,0.0,0.0,-0.5917481780052185,0.988166332244873
-0.0521760955452919,0.8901227712631226,-0.3744023442268371,-0.6814374923706055,0.4359461069107055,0.1755159795284271,0.0,0.0,-0.623092770576477,0.9392907619476318
-0.0559060089290142,0.8743463754653931,-0.3794578313827514,-0.7032033801078796,0.4430025219917297,0.1411290913820266,0.0,0.0,-0.3652021288871765,0.8087644577026367
-0.0597054474055767,0.8580726981163025,-0.3848258554935455,-0.724827766418457,0.4483437836170196,0.1068253368139267,0.0,0.0,-0.3259786963462829,-0.0537439584732055
-0.0636399239301681,0.8412653803825378,-0.3983935117721557,-0.7485920786857605,0.453772485256195,0.1085740774869918,0.0,0.0,-0.5877892374992371,0.7804355621337891
-0.0676685348153114,0.8239642977714539,-0.406665027141571,-0.7701767086982727,0.4579490125179291,0.0835298001766204,0.0,0.0,-0.5216787457466125,0.502600908279419
-0.0718086212873458,0.8061537146568298,-0.4171232283115387,-0.7926145195960999,0.4613845944404602,0.0687108486890792,0.0,0.0,-0.4592540264129638,-0.5321851372718811
-0.0761254280805587,0.7877790927886963,-0.4359168112277984,-0.818064272403717,0.4660588502883911,0.0934853851795196,0.0,0.0,-0.57472825050354,0.3960680961608886
-0.0805819481611251,0.7688705921173096,-0.4499523639678955,-0.8418280482292175,0.4708151221275329,0.0951257199048996,0.0,0.0,-0.5923892259597778,0.800105094909668
-0.0851304084062576,0.7494716048240662,-0.4578286707401275,-0.8632041215896606,0.4741265177726745,0.0662277266383171,0.0,0.0,-0.4380384683609009,0.6399822235107422
-0.0897665023803711,0.7295755743980408,-0.465244710445404,-0.8848193287849426,0.4759349524974823,0.0361684076488018,0.0,0.0,-0.5874376893043518,0.839040994644165
-0.0944888144731521,0.7091978192329407,-0.472315639257431,-0.905713140964508,0.4760378897190094,0.0020588459447026,0.0,0.0,-0.5393142700195312,0.6645588874816895
-0.0992956161499023,0.6883283853530884,-0.4792746901512146,-0.927055597305298,0.4744789898395538,-0.0311785247176885,0.0,0.0,-0.4106391668319702,0.846642255783081
-0.1041953116655349,0.6669595241546631,-0.4872859418392181,-0.9488095045089722,0.4715034961700439,-0.059509802609682,0.0,0.0,-0.3598997592926025,0.6958796977996826
-0.1091852188110351,0.6451053023338318,-0.4948360919952392,-0.9698954224586488,0.4669019877910614,-0.0920300930738449,0.0,0.0,-0.3123892545700073,0.9002777338027954
-0.1142439842224121,0.6227788925170898,-0.4996567666530609,-0.990211308002472,0.46004518866539,-0.1371359527111053,0.0,0.0,0.0635739564895629,0.7419180870056152
-0.1195841804146766,0.6007137894630432,-0.5264588594436646,-0.978197991847992,0.4517214894294739,-0.166474238038063,0.0,0.0,-0.2914414405822754,0.7851393222808838
-0.1250241249799728,0.5781566500663757,-0.5351494550704956,-0.9997056126594543,0.4420199394226074,-0.194030612707138,0.0,0.0,0.7407481670379639,0.4772608280181885
-0.1307288110256195,0.5556299686431885,-0.5618579983711243,-0.9984958171844482,0.4326305091381073,-0.1877886652946472,0.0,0.0,0.2854039669036865,0.3791713714599609
-0.1368799209594726,0.5332642793655396,-0.6061909198760986,-0.9913116097450256,0.4229406416416168,-0.1937968134880066,0.0,0.0,0.1090967655181884,-0.3472216129302978
-0.143245130777359,0.5108913779258728,-0.6279696226119995,-0.9918107986450196,0.4136926531791687,-0.1849597096443176,0.0,0.0,0.4651727676391601,-0.8261492252349854
-0.1500145941972732,0.4887077808380127,-0.6700199842453003,-0.9839266538619996,0.406241774559021,-0.1490176916122436,0.0,0.0,-0.3788174986839294,-0.9700507521629332
-0.1569986343383789,0.4659394919872284,-0.6933695077896118,-1.0104923248291016,0.4008366465568542,-0.1081026419997215,0.0,0.0,-0.4447810053825378,-0.9892844557762146
-0.1642168015241623,0.4425828158855438,-0.7191195487976074,-1.0373157262802124,0.3979491889476776,-0.0577494092285633,0.0,0.0,-0.7605727910995483,-0.9859260320663452
-0.1716547012329101,0.4186590015888214,-0.7429701089859009,-1.06304669380188,0.3970612287521362,-0.0177592076361179,0.0,0.0,-0.8380231857299805,-0.9845306277275084
-0.1792992651462555,0.3941514790058136,-0.7653263807296753,-1.089468479156494,0.3979922831058502,0.0186210758984088,0.0,0.0,-0.9203951358795166,-0.9904963374137878
-0.1871637403964996,0.3690769672393799,-0.789169430732727,-1.1151883602142334,0.4009077250957489,0.0583087615668773,0.0,0.0,-0.9483258724212646,-0.9876042604446412
-0.1952581405639648,0.3434119522571563,-0.8144036531448364,-1.142078876495361,0.4062314927577972,0.106476105749607,0.0,0.0,-0.9605197310447692,-0.9784526228904724
-0.2035838067531585,0.3171643614768982,-0.8397143483161926,-1.1686270236968994,0.4139224588871002,0.1538195013999939,0.0,0.0,-0.9874317049980164,-0.9552782773971558
-0.2121241986751556,0.2903421223163605,-0.8629288673400879,-1.1947346925735474,0.4235252737998962,0.1920561343431472,0.0,0.0,-0.9875959753990172,-0.9272252321243286
-0.2208973914384842,0.2629418969154358,-0.8883366584777832,-1.2211464643478394,0.4354836940765381,0.2391681224107742,0.0,0.0,-0.9840279817581176,-0.7565464377403259
-0.2298674583435058,0.2349762469530105,-0.9092534184455872,-1.246774673461914,0.4488534033298492,0.2673943340778351,0.0,0.0,-0.9850304126739502,-0.5663667917251587
-0.2390283644199371,0.2064441293478012,-0.9294172525405884,-1.272445559501648,0.4635030031204223,0.2929916977882385,0.0,0.0,-0.9804707169532776,-0.3013467788696289
-0.248339369893074,0.1773801445960998,-0.944353461265564,-1.2962214946746826,0.4781743884086609,0.2934276461601257,0.0,0.0,-0.9688845872879028,0.2289177179336547
-0.2578006386756897,0.1477842926979065,-0.9592922329902648,-1.3199973106384275,0.4928643703460693,0.2937995493412018,0.0,0.0,-0.9360063076019288,0.1050732135772705
-0.2674121260643005,0.1176564320921897,-0.9742318987846376,-1.3437728881835938,0.5075697898864746,0.2941080033779144,0.0,0.0,-0.7920248508453369,0.4573261737823486
-0.2771740555763244,0.0869965627789497,-0.9891711473464966,-1.3675483465194702,0.5222874879837036,0.2943536639213562,0.0,1.0,0.5068316459655762,0.9980499744415284
-0.2800506949424743,0.0839048027992248,-0.4567525386810303,-0.2425775974988937,0.6256557106971741,1.9057823419570925,0.0,1.0,-0.9936713576316832,-0.5332226753234863
-0.2828770577907562,0.0838468670845031,-0.2713279128074646,-0.0003202194347977,0.6088424921035767,-0.2903289794921875,0.0,1.0,-0.9268104434013368,0.9944241046905518
-0.2856098711490631,0.0834912359714508,-0.256296694278717,-0.0104956086724996,0.5871846675872803,-0.3988735377788543,0.0,1.0,-0.965255618095398,0.9238150119781494
-0.2882844805717468,0.082686148583889,-0.2484789192676544,-0.0294238347560167,0.5636297464370728,-0.4463337361812591,0.0,1.0,-0.9281055331230164,0.645613431930542
-0.2909055352210998,0.0814808681607246,-0.2401212006807327,-0.0461911521852016,0.5371671915054321,-0.5077439546585083,0.0,1.0,-0.8498770594596863,-0.1188966035842895
-0.2935013771057129,0.0798847749829292,-0.2347931563854217,-0.0627497285604476,0.5079618096351624,-0.5651258230209351,0.0,1.0,-0.9282028675079346,-0.4758747816085815
-0.2960794866085052,0.0778859257698059,-0.2299808710813522,-0.0800336524844169,0.4761426746845245,-0.6199551820755005,0.0,1.0,-0.786238431930542,-0.5313079357147217
-0.2986674904823303,0.0754882395267486,-0.2282355725765228,-0.0974182784557342,0.4418740570545196,-0.671506941318512,0.0,1.0,-0.8596293926239014,0.0418145656585693
-0.3012348711490631,0.07273930311203,-0.2216226607561111,-0.1119494140148162,0.4035182297229767,-0.7611992359161377,0.0,1.0,-0.8820892572402954,-0.0838503241539001
-0.3037862777709961,0.0696508958935737,-0.2149397134780883,-0.1264637112617492,0.3606978058815002,-0.8564510345458984,0.0,1.0,-0.7413336634635925,0.0281380414962768
-0.3061814308166504,0.0664498433470726,-0.1912676095962524,-0.1310250163078308,0.3102243542671203,-1.0094966888427734,0.0,1.0,0.1266510486602783,0.1183390617370605
-0.3087488114833832,0.0634895414113998,-0.2073311805725097,-0.1218917444348335,0.259356826543808,-1.0173969268798828,0.0,0.0,0.0695979595184326,0.8363721370697021
-0.3115127086639404,0.0607830137014389,-0.2246927320957183,-0.1120657548308372,0.2068488299846649,-1.050205111503601,0.0,0.0,0.2715122699737549,0.9021857976913452
-0.3143596053123474,0.0583943463861942,-0.2307208478450775,-0.0995844304561615,0.1526577025651931,-1.083869218826294,0.0,0.0,-0.059075117111206,0.6146067380905151
-0.3173038363456726,0.0555198043584823,-0.2385554760694503,-0.1230436861515045,0.0970306321978569,-1.1125891208648682,0.0,0.0,0.2131315469741821,0.2153987884521484
-0.320474624633789,0.0527071319520473,-0.2607036530971527,-0.1223592683672905,0.0412077829241752,-1.116504192352295,0.0,0.0,0.2833707332611084,-0.3078088760375976
-0.3237566351890564,0.0504124499857425,-0.2720445096492767,-0.1014365181326866,-0.0142761291936039,-1.109724760055542,0.0,0.0,0.0704661607742309,-0.5130833983421326
-0.3272385597229004,0.0481802783906459,-0.2930495738983154,-0.1006917655467987,-0.0687903240323066,-1.0903289318084717,0.0,0.0,0.1325773000717163,-0.5265777707099915
-0.3309644758701324,0.046289786696434,-0.3184910714626312,-0.0874377191066742,-0.1224742606282234,-1.073723077774048,0.0,0.0,-0.0547330975532531,-0.724559485912323
-0.3348836302757263,0.04391685500741,-0.3393566012382507,-0.1106693521142005,-0.1749585717916488,-1.0497292280197144,1.0,0.0,0.973480463027954,-0.5655350685119629
-0.3384368419647217,0.0428379625082016,-0.323020875453949,-0.0521238893270492,-0.206196591258049,-0.6231929063796997,1.0,0.0,0.7767491340637207,0.1844987869262695
-0.3415528237819671,0.0428693629801273,-0.3003107905387878,-0.0002206647914135,-0.2175751477479934,-0.2275493890047073,1.0,0.0,0.6695749759674072,0.3795152902603149
-0.3442414700984955,0.0435331910848617,-0.2772837579250335,0.030721703544259,-0.2090369760990142,0.170796513557434,1.0,0.0,0.00015389919281,-0.2765631675720215
-0.3467102944850921,0.0444878451526165,-0.267326146364212,0.0451672077178955,-0.1884049922227859,0.4127073884010315,1.0,0.0,-0.2201680541038513,-0.3514854907989502
-0.3491101861000061,0.0450023263692855,-0.2645432651042938,0.0257741529494524,-0.1637204587459564,0.4937725961208343,1.0,0.0,-0.5347400903701782,-0.2276003360748291
-0.3515247702598572,0.0449712835252285,-0.265361338853836,0.0010602287948131,-0.1398084163665771,0.4782940447330475,1.0,0.0,0.2511218786239624,0.4318649768829345
-0.3536044657230377,0.0468121394515037,-0.2115748226642608,0.0559524819254875,-0.1498388797044754,0.0260652713477611,0.0,0.0,0.2511218786239624,0.4318649768829345
