x_pos,y_pos,x_vel,y_vel,angle,ang_vel,leg_1,leg_2,main_booster,lat_booster
-0.001479148864746,1.4029463529586792,-0.1496209800243377,-0.3543936312198639,0.0015294024487957,0.0301517639309167,0.0,0.0,0.2706581819996927,-0.7962798777556714
-0.0029315948486328,1.3948458433151243,-0.1481820195913314,-0.36003378033638,0.0044350647367537,0.0581196323037147,0.0,0.0,-0.2665355156234406,-0.6331709966188135
-0.0043784142471849,1.386061668395996,-0.1483858674764633,-0.390424370765686,0.0080959405750036,0.073224164545536,0.0,0.0,-0.903339228055108,0.6663921366598329
-0.005739021115005,1.3765976428985596,-0.1384741067886352,-0.4206379055976867,0.0104768946766853,0.0476234629750251,0.0,0.0,-0.5155321423887018,-0.8147327249112025
-0.0071063041687011,1.366457223892212,-0.1401874125003814,-0.4507123231887817,0.0139019172638654,0.0685067549347877,0.0,0.0,-0.8499797463567893,-0.8316857658951284
-0.0084807397797703,1.355636477470398,-0.1419551074504852,-0.4809690117835998,0.0183711592108011,0.0893928855657577,0.0,0.0,-0.0304225982636161,0.7256427695745022
-0.0097571369260549,1.3441392183303833,-0.1305270940065384,-0.5110288858413696,0.0212277416139841,0.0571366026997566,0.0,0.0,-0.0240141453287883,0.8874128827529446
-0.0109038352966308,1.3319690227508545,-0.1151053085923194,-0.540902853012085,0.0216611698269844,0.0086692292243242,0.0,0.0,0.021719158680407,0.7350195590619497
-0.0119704250246286,1.319906234741211,-0.1053806766867637,-0.536105751991272,0.0203990880399942,-0.0252440962940454,0.0,0.0,0.3768270445980388,0.6871905718950839
-0.0129543300718069,1.3080787658691406,-0.0954999029636383,-0.5256249904632568,0.0175391752272844,-0.0572035424411296,0.0,0.0,0.6608172893241688,-0.6424271215853015
-0.0138644222170114,1.2964708805084229,-0.0893931239843368,-0.5158863663673401,0.0159452762454748,-0.0318810530006885,0.0,0.0,0.4854679279624831,-0.9608246707241326
-0.0147449495270848,1.2848948240280151,-0.088203877210617,-0.5144861340522766,0.0160944983363151,0.002984473016113,0.0,0.0,0.1551827233104024,0.6545515499809222
-0.0154399871826171,1.273381233215332,-0.06824941188097,-0.5117039084434509,0.0148556381464004,-0.0247788690030574,0.0,0.0,0.1407322885183957,-0.9284662304685776
-0.0161169059574604,1.2615480422973633,-0.0680745244026184,-0.5259243845939636,0.0152325807139277,0.0075395973399281,0.0,0.0,-0.6763844725288122,0.6439183255969329
-0.0166934020817279,1.24904465675354,-0.0561862215399742,-0.5556926131248474,0.0137897925451397,-0.0288585238158702,0.0,0.0,0.9749573564559676,0.733124805806906
-0.0170381553471088,1.236391544342041,-0.0316633731126785,-0.562336266040802,0.0110029429197311,-0.0557422749698162,0.0,0.0,-0.7872591527026196,0.7924911309272313
-0.0172700881958007,1.2230708599090576,-0.0181776955723762,-0.5920029282569885,0.0060398406349122,-0.0992709472775459,0.0,0.0,0.6023644117556477,-0.9793439037339492
-0.0173900611698627,1.2096096277236938,-0.0088887410238385,-0.5982666015625,0.0029660072177648,-0.0614820048213005,0.0,0.0,0.786301484252925,-0.7966204919362363
-0.0174264907836914,1.196779727935791,-0.0021287440322339,-0.570212721824646,0.0014641041634604,-0.030040469020605,0.0,0.0,0.152322269121272,0.8351421826983684
-0.017430018633604,1.183863401412964,0.0031330995261669,-0.5740633010864258,-0.0019827557262033,-0.0689435005187988,0.0,0.0,-0.5509306403653869,0.6241132863322805
-0.0173422805964946,1.1702734231948853,0.0140197845175862,-0.6040143370628357,-0.0071755237877368,-0.1038645058870315,0.0,0.0,-0.6194273816217934,-0.9828073834067032
-0.0173007007688283,1.1560008525848389,0.0077176680788397,-0.6343598961830139,-0.0106982672587037,-0.0704611763358116,0.0,0.0,0.6838649086121524,0.7684264390570589
-0.0170185081660747,1.141878366470337,0.0332950875163078,-0.6277145147323608,-0.0157079603523015,-0.1002029627561569,0.0,0.0,-0.790345686970626,-0.925713617014603
-0.0167737957090139,1.1270689964294434,0.0281297508627176,-0.6582397222518921,-0.0193350724875926,-0.0725483372807502,0.0,0.0,-0.0660956409810533,-0.9762720029421657
-0.0165990833193063,1.1115869283676147,0.018962163478136,-0.6881076097488403,-0.0208075456321239,-0.0294521152973175,0.0,0.0,-0.5857353976668791,-0.9906771147217686
-0.0164981838315725,1.0954135656356812,0.0093567967414855,-0.7188025712966919,-0.0200763642787933,0.0146235525608062,0.0,0.0,0.6712877354424724,0.6099536345187652
-0.0163077358156442,1.0796664953231812,0.0197554565966129,-0.6998802423477173,-0.0207904987037181,-0.014282482676208,0.0,0.0,-0.9211806269792464,0.9332544437577136
-0.0160391815006732,1.063249111175537,0.0292962826788425,-0.729692280292511,-0.0231986865401268,-0.0481638722121715,0.0,0.0,0.3249354037971654,0.9228185024979078
-0.015785027295351,1.0470948219299316,0.0300385542213916,-0.7180513143539429,-0.0277681555598974,-0.0913891941308975,0.0,0.0,0.9794760014434224,-0.8657100582573174
-0.0155943874269723,1.0311390161514282,0.0222537461668252,-0.7092005610466003,-0.0309110842645168,-0.0628587454557418,0.0,0.0,-0.4840461021011415,0.6008380639417568
-0.0153401372954249,1.014510154724121,0.0300995968282222,-0.739169180393219,-0.0355224609375,-0.092227779328823,0.0,0.0,0.9562350966175026,0.6371758772019236
-0.0151033401489257,0.9979801774024964,0.0301389899104833,-0.7348294854164124,-0.0418993197381496,-0.1275370866060257,0.0,0.0,0.7172843992281639,-0.9237246615140692
-0.0149898529052734,0.9820407032966614,0.0163159482181072,-0.7085702419281006,-0.0468154288828372,-0.0983221232891082,0.0,0.0,-0.7071407383432702,-0.8546622772895478
-0.0149435047060251,0.96542090177536,0.0079458365216851,-0.7387666702270508,-0.050083365291357,-0.0653588697314262,0.0,0.0,-0.66067615950987,-0.7556938724120899
-0.0149495126679539,0.9481289982795716,0.001456148806028,-0.7685966491699219,-0.0521166883409023,-0.0406664237380027,0.0,0.0,-0.4557574261658876,0.9061911161139709
-0.0148780820891261,0.9301603436470032,0.0112963672727346,-0.7987599968910217,-0.0562327951192855,-0.0823219865560531,0.0,0.0,0.1946184411751268,-0.9742019933750934
-0.0148867610841989,0.912010133266449,0.0015603469219058,-0.806766152381897,-0.0586380325257778,-0.0481047220528125,0.0,0.0,-0.558203261170604,-0.6485609691207384
-0.0149449352174997,0.8931912183761597,-0.0043751178309321,-0.836452066898346,-0.0600538738071918,-0.0283167567104101,0.0,0.0,-0.301050392929068,-0.6146079300480398
-0.015058422461152,0.8737058043479919,-0.0110231321305036,-0.8660317659378052,-0.0603829510509967,-0.006581381894648,0.0,0.0,0.4617141485154465,0.8201325470556667
-0.0150532722473144,0.8543402552604675,0.0026752217672765,-0.8607783913612366,-0.0625200197100639,-0.0427414178848266,0.0,0.0,-0.8020935876238378,-0.7169278980781906
-0.0151237491518259,0.8343090415000916,-0.0063669783994555,-0.8903042674064636,-0.0631871670484542,-0.0133432997390627,0.0,0.0,0.1095329523086547,0.128972053527832
-0.0151009559631347,0.8141182661056519,0.0027730243746191,-0.8973884582519531,-0.063679002225399,-0.0098366290330886,0.0,0.0,0.8188804388046265,-0.3298242092132568
-0.0149638177827,0.7937560677528381,0.0139150992035865,-0.9049926400184632,-0.0638805255293846,-0.0040301652625203,0.0,0.0,0.6708242893218994,0.0015846490859985
-0.0147093776613473,0.7735065817832947,0.0253838151693344,-0.8999752402305603,-0.0638182163238525,0.0012460856232792,0.0,0.0,0.4706709384918213,-0.2299962639808654
-0.0144939422607421,0.7529749274253845,0.0218515954911708,-0.9125305414199828,-0.0641199871897697,-0.0060352068394422,0.0,0.0,0.2612920999526977,-0.5942298173904419
-0.0142929079011082,0.73214191198349,0.019328573718667,-0.9258801341056824,-0.0633607879281044,0.0151838762685656,0.0,0.0,0.5713882446289062,-0.4388624429702759
-0.0140319820493459,0.7112616300582886,0.02524552680552,-0.9279766082763672,-0.0625213906168937,0.0167877953499555,0.0,0.0,0.8308179378509521,-0.297812819480896
-0.0138650890439748,0.6910982728004456,0.0166146997362375,-0.896148145198822,-0.0624418258666992,0.001591382198967,0.0,0.0,0.0214964151382446,-0.6373565793037415
-0.0138406753540039,0.6710054278373718,0.0013497283216565,-0.8929712176322937,-0.0613712444901466,0.0214120298624038,0.0,0.0,0.4988622665405273,-0.2160916328430175
-0.0138398166745901,0.6509270668029785,-0.0007222114363685,-0.8923338651657104,-0.0605634562671184,0.0161557551473379,0.0,0.0,0.6463992595672607,-0.3071105480194092
-0.0136967655271291,0.6310099363327026,0.0129930498078465,-0.8851579427719116,-0.0592632628977298,0.0260036326944828,0.0,0.0,0.6941177845001221,-0.1621034741401672
-0.0136053087189793,0.6115511059761047,0.008272124454379,-0.8648056387901306,-0.058399673551321,0.0172715485095977,0.0,0.0,0.7455034255981445,-0.3611243963241577
-0.0134110450744628,0.5921072959899902,0.0181811843067407,-0.8641168475151062,-0.0571597106754779,0.0247992314398288,0.0,0.0,0.2776538133621216,-0.5779294967651367
-0.0132663724943995,0.5729184150695801,0.0122020067647099,-0.852756142616272,-0.0549152232706546,0.0448895208537578,0.0,0.0,0.767694354057312,-0.2909033894538879
-0.012978171929717,0.5538196563720703,0.0259456075727939,-0.8487290740013123,-0.0520792938768863,0.0567189827561378,0.0,0.0,0.6387939453125,0.0505930185317993
-0.0128068923950195,0.5347505211830139,0.014838932082057,-0.8474412560462952,-0.0498214550316333,0.0451566576957702,0.0,0.0,0.908276915550232,-0.2748900651931762
-0.0125301359221339,0.5163742899894714,0.0250262171030044,-0.816633403301239,-0.0471943579614162,0.0525418035686016,0.0,0.0,0.7447082996368408,-0.0669096112251281
-0.0121248243376612,0.4983769655227661,0.037315297871828,-0.7997837066650391,-0.0440193563699722,0.0635001361370086,0.0,0.0,-0.144589364528656,-0.550603449344635
-0.0118101118132472,0.4797098636627197,0.0273953862488269,-0.8295342326164246,-0.0400030687451362,0.0803260281682014,0.0,0.0,0.9558674097061156,0.1244667768478393
-0.0116029735654592,0.4617645442485809,0.0171835422515869,-0.7974812984466553,-0.0365155152976512,0.0697511285543441,0.0,0.0,0.8683595657348633,-0.2109056711196899
-0.0113790510222315,0.4437657594680786,0.0186920911073684,-0.7998586893081665,-0.0328640602529048,0.0730290785431861,0.0,0.0,0.9566712379455566,0.1355986595153808
-0.0113046644255518,0.4263402819633484,0.0043950816616415,-0.7744023203849792,-0.0298578366637229,0.0601244270801544,0.0,0.0,0.9014277458190918,-0.5351806879043579
-0.0111639024689793,0.4091230630874634,0.009603826329112,-0.7651275396347046,-0.0254355892539024,0.0884448066353797,0.0,0.0,0.9457727670669556,-0.0425294637680053
-0.0110383033752441,0.3923093378543854,0.0080345552414655,-0.7472055554389954,-0.0209638103842735,0.0894356220960617,0.0,0.0,0.982642412185669,0.1985954046249389
-0.0109560014680027,0.3755388259887695,0.003730536205694,-0.7452990412712097,-0.0165184773504734,0.0889067277312278,0.0,0.0,0.906779646873474,0.2013342380523681
-0.0110693927854299,0.3591169714927673,-0.0151134859770536,-0.7298241853713989,-0.0127946138381958,0.074477270245552,0.0,0.0,0.994188666343689,0.3971650600433349
-0.0112091060727834,0.3435659408569336,-0.0178167484700679,-0.6911278367042542,-0.0090017737820744,0.0758568495512008,0.0,0.0,0.982268452644348,0.0687861442565918
-0.0113139152526855,0.3278619349002838,-0.0147443460300564,-0.6979358196258545,-0.0047943089157342,0.0841492116451263,0.0,0.0,0.9923336505889891,0.4252498149871826
-0.0114491460844874,0.3130238950252533,-0.0178984142839908,-0.6594584584236145,-0.0004667766625061,0.0865506455302238,0.0,0.0,0.9453006982803344,0.2362196445465088
-0.0117636676877737,0.2983441352844238,-0.0353094600141048,-0.6524416208267212,0.003327916143462,0.0758942812681198,0.0,0.0,0.96461820602417,0.83113694190979
-0.0122044561430811,0.2841971516609192,-0.0459787659347057,-0.6287585496902466,0.0052072838880121,0.0375873707234859,0.0,0.0,0.976067304611206,0.8316482305526733
-0.0126140592619776,0.2704910635948181,-0.0412738323211669,-0.6091641783714294,0.0055201617069542,0.0062576448544859,0.0,0.0,0.985053300857544,0.6098142862319946
-0.013217831030488,0.257634550333023,-0.0590217225253582,-0.5713927149772644,0.0041765118949115,-0.026873093098402,0.0,0.0,0.9844745397567748,0.761156439781189
-0.013741398230195,0.2451414614915847,-0.0497067905962467,-0.5552453994750977,0.0015671856235712,-0.0521864779293537,0.0,0.0,0.978247880935669,0.4044215679168701
-0.0143794063478708,0.2326725572347641,-0.0610051564872264,-0.5541724562644958,-0.0011928991880267,-0.0552017614245414,0.0,0.0,0.9590706825256348,0.0991004705429077
-0.0150103569030761,0.2201035767793655,-0.0607335083186626,-0.5586236715316772,-0.003532234346494,-0.046786468476057,0.0,0.0,0.9549188613891602,0.5007930994033813
-0.0157146453857421,0.2074539959430694,-0.0669826045632362,-0.5622148513793945,-0.0069285752251744,-0.0679271221160888,0.0,0.0,0.9151911735534668,0.7371392250061035
-0.0164399147033691,0.1955118030309677,-0.0676578283309936,-0.5307925939559937,-0.0117436749860644,-0.0963018685579299,0.0,0.0,0.833244800567627,-0.1826156377792358
-0.0171417240053415,0.1842478811740875,-0.0658069029450416,-0.5006598234176636,-0.0160645078867673,-0.0864166989922523,0.0,0.0,0.8427314758300781,-0.520792543888092
-0.018079375848174,0.1736826300621032,-0.0901394486427307,-0.4696097671985626,-0.019640140235424,-0.0715129226446151,0.0,0.0,-0.2093936800956726,0.2833926677703857
-0.0190939903259277,0.1624393761157989,-0.0979421585798263,-0.4997523128986358,-0.023108784109354,-0.0693727433681488,0.0,0.0,0.8673542737960815,-0.1044662594795227
-0.0201196670532226,0.151856318116188,-0.0993878990411758,-0.4704126715660095,-0.0262478720396757,-0.0627819150686264,0.0,0.0,0.2680346965789795,0.5744404792785645
-0.0212514884769916,0.1412590146064758,-0.1088042482733726,-0.4710730314254761,-0.0305669177323579,-0.0863809436559677,0.0,0.0,0.7219359874725342,0.5297632217407227
-0.0224587433040142,0.1310460865497589,-0.115259826183319,-0.4540283977985382,-0.0359665155410766,-0.1079918593168258,0.0,0.0,0.8858821392059326,0.9271306991577148
-0.0236573219299316,0.1213535889983177,-0.1126609072089195,-0.4309678375720978,-0.0430839881300926,-0.142349511384964,0.0,0.0,0.8220443725585938,-0.5869508385658264
-0.0248507503420114,0.111941322684288,-0.113760694861412,-0.4184924662113189,-0.0485948845744133,-0.1102180257439613,0.0,0.0,0.9534256458282472,0.8601288795471191
-0.0260050781071186,0.1024420857429504,-0.1083681434392929,-0.4224361777305603,-0.0555830411612987,-0.1397629231214523,0.0,0.0,0.9817168712615968,0.8880938291549683
-0.0270201675593853,0.0929660201072692,-0.093074269592762,-0.4214913249015808,-0.0639139860868454,-0.1666192561388015,0.0,0.0,0.990622878074646,-0.401936411857605
-0.0278937332332134,0.0838254764676094,-0.0799662247300148,-0.4065813720226288,-0.0712317526340484,-0.1463551670312881,0.0,0.0,0.9921855926513672,-0.4794834852218628
-0.0286456104367971,0.0747007429599762,-0.0687795728445053,-0.4058623909950256,-0.0775694549083709,-0.1267541944980621,0.0,0.0,0.9963710308074952,-0.2446819543838501
-0.0294137950986623,0.066256582736969,-0.0706012770533561,-0.3756346106529236,-0.083727516233921,-0.1231611594557762,0.0,0.0,0.99703049659729,-0.7832716107368469
-0.0302062984555959,0.0585133656859397,-0.0749307721853256,-0.344389408826828,-0.0880107954144477,-0.085665538907051,0.0,0.0,0.9460616111755372,-0.1673994064331054
-0.030863856896758,0.0512465797364711,-0.0623502917587757,-0.3231700956821441,-0.0913875997066497,-0.0675363093614578,0.0,0.0,0.9647455215454102,-0.29015052318573
-0.0314470306038856,0.0438649281859397,-0.0556998737156391,-0.3282341063022613,-0.0939740762114524,-0.0517299883067607,0.0,0.0,0.9740722179412842,0.2733922004699707
-0.0321160331368446,0.0367223843932151,-0.064242847263813,-0.3176145255565643,-0.096608281135559,-0.0526838712394237,0.0,0.0,0.997250199317932,0.5613583326339722
-0.0326122269034385,0.030443225055933,-0.0464142635464668,-0.2792841792106628,-0.0997936576604843,-0.0637074559926986,0.0,0.0,0.9489176273345948,0.0910819768905639
-0.0331496223807334,0.0244918689131736,-0.0506606884300708,-0.2647150456905365,-0.1028502956032753,-0.0611326321959495,0.0,0.0,0.9520400762557985,0.5354869365692139
-0.0337838158011436,0.0192868802696466,-0.0590596012771129,-0.2316389232873916,-0.1071704179048538,-0.0864025056362152,0.0,0.0,0.7726525068283081,0.7587647438049316
-0.0342572219669818,0.0144981713965535,-0.0419498160481452,-0.2132299542427063,-0.1125216335058212,-0.1070243343710899,0.0,0.0,0.5587583780288696,0.2828943729400635
-0.0347821228206157,0.0100947711616754,-0.0471469387412071,-0.196118488907814,-0.1178336143493652,-0.106239914894104,1.0,0.0,0.8201093673706055,0.717511773109436
-0.0352108962833881,0.0067588542588055,-0.0469096302986145,-0.148314893245697,-0.1126661971211433,0.1048855036497116,1.0,0.0,0.5234832763671875,0.4434174299240112
-0.0354977622628212,0.0040167067199945,-0.0499960333108902,-0.120417945086956,-0.0914648696780204,0.4240975379943847,1.0,0.0,0.3390448093414306,0.7127782106399536
-0.0357099547982215,0.0018011308275163,-0.0537813231348991,-0.0968108475208282,-0.0591763779520988,0.6458406448364258,1.0,0.0,0.4330236911773681,0.7543587684631348
-0.0359435081481933,-0.0001677179388934,-0.0604743771255016,-0.0864605754613876,-0.0224572531878948,0.7344545722007751,1.0,0.0,0.786300778388977,0.9973056316375732
-0.0359621047973632,-0.0016479754121974,-0.0366090722382068,-0.0656356364488601,0.0118980221450328,0.6871582269668579,1.0,1.0,0.4435675144195556,0.9212853908538818
-0.0359295830130577,-0.0028132342267781,-0.0150082604959607,-0.0522093810141086,0.029214683920145,0.345418632030487,0.0,1.0,-0.2573744058609009,0.8444133996963501
-0.0359396934509277,-0.0039867185987532,0.0027275152970105,-0.0520907118916511,0.025510462000966,-0.0741017758846283,0.0,1.0,-0.0286197066307067,0.0881712436676025
-0.0359965339303016,-0.0047677778638899,0.0037548821419477,-0.0346007011830806,0.0162099134176969,-0.1859820336103439,1.0,1.0,0.0833134651184082,-0.0503550171852111
-0.035949420183897,-0.0043641948141157,0.0120461974292993,0.0179948676377534,0.0089659243822097,-0.1448903828859329,1.0,1.0,-0.1182616353034973,-0.1255459189414978
-0.035862348973751,-0.0036844874266535,0.0126911625266075,0.0302254930138587,0.0050154509954154,-0.0790180265903472,1.0,1.0,-0.6727524995803833,-0.3631734848022461
-0.0357310287654399,-0.0027555131819099,0.0134189650416374,0.0412873178720474,0.0047346875071525,-0.005624714307487,1.0,1.0,-0.4461555480957031,0.4806374311447143
-0.0355790145695209,-0.0016390347154811,0.0137500744313001,0.0496195591986179,0.0061545595526695,0.0283856503665447,1.0,1.0,-0.7863317131996155,0.5613960027694702
-0.0354620926082134,-0.0007354521658271,0.0185675788670778,0.040173090994358,-0.0006348725873976,-0.1357924938201904,1.0,1.0,-0.6581971645355225,-0.4078094363212585
-0.0353007316589355,-0.0004230284830555,0.0186016801744699,0.0138795105740427,-0.0030695227906107,-0.0486882515251636,1.0,1.0,-0.3842543363571167,-0.28833669424057
-0.0351521484553813,-0.0004247450851835,0.0148584870621562,-7.707650365773588e-05,-0.0030704881064593,-1.880990203062538e-05,1.0,1.0,-0.1626073122024536,-0.128286600112915
-0.0350674614310264,-0.0004269623896107,0.008469738997519,-9.887431224342436e-05,-0.0030717358458787,-2.413414404145442e-05,1.0,1.0,-0.7537441253662109,-0.0346761345863342
-0.0350469574332237,-0.0004269623896107,0.002054733922705,-8.210951705223124e-07,-0.0030717509798705,-2.158906227123225e-07,1.0,1.0,-0.6809738278388977,0.0268676280975341
-0.0350609794259071,-0.0004269623896107,-0.0014331139391288,-2.484746914888092e-07,-0.0030503585003316,0.0004160777316428,1.0,1.0,-0.250887393951416,0.3008143901824951
-0.03507661819458,-0.0004269623896107,-0.0016156376805156,-1.0466903859196464e-06,-0.0030262654181569,0.0004691452777478,1.0,1.0,-0.7002708911895752,0.1653769016265869
-0.0350825302302837,-0.0004269623896107,-0.00058992364211,-4.010518637187488e-07,-0.0030174800194799,0.0001713289238978,1.0,1.0,-0.3996846675872803,0.1233085393905639
