x_pos,y_pos,x_vel,y_vel,angle,ang_vel,leg_1,leg_2,main_booster,lat_booster
-0.0015286445850506,1.403273582458496,-0.1543916463851928,-0.3398421108722687,0.0013617553049698,0.0268322732299566,0.0,0.0,-0.4304361343383789,0.5107395648956299
-0.0030190467368811,1.3952970504760742,-0.1488548219203949,-0.354511559009552,0.0011830973671749,-0.0035728183574974,0.0,0.0,-0.1247646808624267,0.3504650592803955
-0.0045144082978367,1.3869690895080566,-0.1489469558000564,-0.3701260685920715,0.0006007581250742,-0.0116479033604264,0.0,0.0,-0.1337676644325256,0.6534016132354736
-0.0059735300019383,1.3782883882522583,-0.1438641101121902,-0.3858137726783752,-0.0014181159203872,-0.0403813421726226,0.0,0.0,-0.3362325429916382,0.6279215812683105
-0.0073774335905909,1.3692586421966553,-0.1364305466413498,-0.4013252556324005,-0.0053377784788608,-0.0784006565809249,0.0,0.0,0.1545097827911377,0.6848652362823486
-0.0086220744997262,1.3604456186294556,-0.118881955742836,-0.3917225301265716,-0.0108498027548193,-0.1102507710456848,0.0,0.0,-0.147003173828125,0.2103292942047119
-0.0098711969330906,1.3512821197509766,-0.1189525350928306,,-0.0167433898895978,-0.1178828328847885,0.0,0.0,-0.3926464319229126,-0.1869287490844726
-0.0111247058957815,1.3417683839797974,-0.1190181374549865,-0.422913908958435,-0.0230124276131391,-0.1253921836614608,0.0,0.0,-0.3116334676742553,-0.5565742254257202
-0.0124272350221872,1.3319120407104492,-0.124675378203392,-0.4381541311740875,-0.0285248663276433,-0.1102590188384056,0.0,0.0,0.1314127445220947,0.4964637756347656
-0.0137203214690089,1.3224514722824097,-0.1233637183904647,-0.4205980598926544,-0.034401673823595,-0.1175470948219299,0.0,0.0,0.1278653144836425,0.0164579153060913
-0.0149445533752441,1.3132457733154297,-0.1164154559373855,-0.4092887341976166,-0.0403526462614536,-0.1190304607152938,0.0,0.0,-0.0607747435569763,-0.2660772800445556
-0.0161727908998727,1.303689956665039,-0.1164566129446029,-0.4248861074447632,-0.0466490238904953,-0.1259390413761139,0.0,0.0,-0.7083922624588013,0.0466445684432983
-0.0174046512693166,1.2937840223312378,-0.1164880245923996,-0.440480500459671,-0.0532815717160701,-0.132663294672966,0.0,0.0,-0.332500696182251,-0.0420305728912353
-0.0186400413513183,1.2835283279418943,-0.1165095791220665,-0.4560765027999878,-0.0602409318089485,-0.1392001211643219,0.0,0.0,-0.5887725949287415,-0.7191028594970703
-0.0199218746274709,1.2729339599609375,-0.121932566165924,-0.4711251854896545,-0.0664217472076416,-0.1236277222633361,0.0,0.0,0.3523101806640625,0.3376270532608032
-0.021100902929902,1.2623447179794312,-0.1117913722991943,-0.470915287733078,-0.0724872127175331,-0.1213201507925987,0.0,0.0,-0.9067675471305848,-0.8038626313209534
-0.0223312377929687,1.2514199018478394,-0.1178626865148544,-0.4858036041259765,-0.0776130035519599,-0.1025253534317016,0.0,0.0,-0.0319031476974487,0.5929913520812988
-0.0235068313777446,1.24013352394104,-0.1106295138597488,-0.5019972324371338,-0.0844811871647834,-0.1373757421970367,0.0,0.0,0.3984311819076538,-0.6288861632347107
-0.0245864875614643,1.2295132875442505,-0.1022283807396888,-0.4723425805568695,-0.0901827588677406,-0.1140418872237205,0.0,0.0,-0.2419267296791076,-0.3575213551521301
-0.0256683342158794,1.2185428142547607,-0.1021837219595909,-0.4879479110240936,-0.0961423814296722,-0.1192031949758529,0.0,0.0,-0.6098583340644836,-0.4004465341567993
-0.0267519950866699,1.2072227001190186,-0.102121964097023,-0.5035423040390015,-0.1023445501923561,-0.1240542083978653,0.0,0.0,-0.1753768920898437,-0.963986337184906
-0.0279118530452251,1.1955580711364746,-0.1114084273576736,-0.5187429189682007,-0.1068935766816139,-0.0909886956214904,0.0,0.0,-0.2858056426048279,-0.5790464282035828
-0.0291086193174123,1.1835482120513916,-0.1158087030053138,-0.534054696559906,-0.1107510179281234,-0.0771555602550506,0.0,0.0,0.0015156269073486,-0.3771274089813232
-0.0302433967590332,1.171463131904602,-0.1096042171120643,-0.5374095439910889,-0.114608496427536,-0.0771562382578849,0.0,0.0,0.0617467164993286,-0.8778858184814453
-0.0315073020756244,1.1596765518188477,-0.12408097833395,-0.5240231156349182,-0.1169032528996467,-0.045899149030447,0.0,0.0,-0.4373978972434997,-0.92919921875
-0.0328634269535541,1.147539138793945,-0.135462611913681,-0.5394574999809265,-0.1170554608106613,-0.0030441465787589,0.0,0.0,0.2741936445236206,-0.4241390228271484
-0.034151267260313,1.135885238647461,-0.1284988224506378,-0.5179750919342041,-0.1173384040594101,-0.0056590638123452,0.0,0.0,-0.004943311214447,-0.0004999637603759
-0.0354388244450092,1.1238806247711182,-0.1283416450023651,-0.5335661768913269,-0.1177468076348304,-0.0081681217998266,0.0,0.0,-0.3906022310256958,0.4114787578582763
-0.0367256179451942,1.111525535583496,-0.1281669288873672,-0.5491570830345154,-0.1182611212134361,-0.0102864103391766,0.0,0.0,0.406430721282959,-0.1627150774002075
-0.0379801765084266,1.0994411706924438,-0.1247681826353073,-0.5371360778808594,-0.1189439445734024,-0.0136566665023565,0.0,0.0,-0.7715901136398315,0.5688101053237915
-0.0391867645084857,1.0870044231414795,-0.118724025785923,-0.5529041886329651,-0.1208598911762237,-0.0383190922439098,0.0,0.0,0.2125747203826904,-0.1259652376174926
-0.0404092781245708,1.0747060775756836,-0.1200188249349594,-0.5467711687088013,-0.123084157705307,-0.0444854535162448,0.0,0.0,0.5370583534240723,-0.6221145391464233
-0.0416692718863487,1.0631976127624512,-0.1248031854629516,-0.5115869045257568,-0.1242716982960701,-0.0237511210143566,0.0,0.0,-0.7624940276145935,0.1584564447402954
-0.0429266914725303,1.0513384342193604,-0.1245370879769325,-0.5271768569946289,-0.1254603713750839,-0.0237735491245985,0.0,0.0,-0.7904725074768066,-0.1342194676399231
-0.0441809669137001,1.039128303527832,-0.1242522150278091,-0.5427665710449219,-0.1266283094882965,-0.0233583990484476,0.0,0.0,-0.8970381021499634,0.1814495325088501
-0.0454317107796669,1.0265673398971558,-0.1239484697580337,-0.5583561062812805,-0.1277534514665603,-0.0225032716989517,0.0,0.0,-0.9138838052749634,-0.0132986307144165
-0.046678639948368,1.013655662536621,-0.1236258000135421,-0.5739453434944153,-0.1288138478994369,-0.0212076343595981,0.0,0.0,-0.7593569159507751,-0.6337684988975525
-0.0479673370718956,1.0004069805145264,-0.1290894895792007,-0.5888144373893738,-0.128599539399147,0.0042862761765718,0.0,0.0,-0.9423598051071168,0.038807988166809
-0.0492513664066791,0.9868074655532836,-0.1287290304899215,-0.6044030785560608,-0.1282766610383987,0.0064574503339827,0.0,0.0,-0.876408576965332,0.8374701738357544
-0.0504614822566509,0.9728443622589112,-0.1197051629424095,-0.6206871867179871,-0.1295742839574813,-0.0259522944688797,0.0,0.0,-0.7658023238182068,-0.7516904473304749
-0.0517348274588584,0.9585503935813904,-0.1279672682285308,-0.63523930311203,-0.1289501041173935,0.0124834505841135,0.0,0.0,-0.9568861722946168,0.6072834730148315
-0.052945040166378,0.9438926577568054,-0.1203559041023254,-0.6515108346939087,-0.1296158879995346,-0.0133156003430485,0.0,0.0,-0.9704080820083618,0.2895532846450805
-0.0541490539908409,0.928883731365204,-0.1199209466576576,-0.6670984625816345,-0.13008913397789,-0.0094652436673641,0.0,0.0,-0.5058530569076538,-0.6487769484519958
-0.0553890243172645,0.9135309457778932,-0.1248140707612037,-0.6822793483734131,-0.1292685270309448,0.0164119359105825,0.0,0.0,-0.8179844617843628,-0.0956702828407287
-0.0566218383610248,0.8978269100189209,-0.124342955648899,-0.6978667974472046,-0.1282164603471756,0.0210417658090591,0.0,0.0,-0.8415988683700562,0.3030568361282348
-0.0578473098576068,0.8817715644836426,-0.123854175209999,-0.7134541273117065,-0.126914381980896,0.0260419491678476,0.0,0.0,0.0506807565689086,0.0865124464035034
-0.058990478515625,0.865780770778656,-0.1160818189382553,-0.7105589509010315,-0.1251650154590606,0.0349877476692199,0.0,0.0,-0.0538378357887268,-0.0921586751937866
-0.0601256377995014,0.8494386076927185,-0.1155586466193199,-0.7261460423469543,-0.1231307238340377,0.0406857803463935,0.0,0.0,-0.4191354513168335,-0.3257093429565429
-0.0612524040043354,0.8327452540397644,-0.1150188222527504,-0.741733193397522,-0.1207952126860618,0.046710081398487,0.0,0.0,-0.3108679056167602,-0.2761332988739013
-0.0623703002929687,0.8157007098197937,-0.1144627556204795,-0.7573202252388,-0.1181429699063301,0.0530451461672782,0.0,0.0,0.1635504961013794,-0.1677817106246948
-0.0633314102888107,0.7988862991333008,-0.0995873287320137,-0.7470394968986511,-0.1146918758749961,0.0690220817923545,0.0,0.0,-0.1618279814720153,0.2834280729293823
-0.0642831772565841,0.7817205786705017,-0.0990001410245895,-0.7626269459724426,-0.1108953058719635,0.0759314596652984,0.0,0.0,-0.3970469832420349,0.3329997062683105
-0.0652253180742263,0.7642038464546204,-0.0983981266617775,-0.7782146334648132,-0.1067400649189949,0.0831044986844062,0.0,0.0,0.330708384513855,-0.0199902653694152
-0.0660865753889083,0.7472940683364868,-0.0906906947493553,-0.7512308955192566,-0.102201834321022,0.0907645151019096,0.0,0.0,0.0588480234146118,0.4367570877075195
-0.066810704767704,0.7304848432540894,-0.07781682908535,-0.7467147707939148,-0.0968391299247741,0.1072541251778602,0.0,0.0,-0.4418336749076843,0.7546613216400146
-0.0674745589494705,0.7133141160011292,-0.0709196329116821,-0.7628589868545532,-0.0923496559262275,0.0897896662354469,0.0,0.0,-0.3222628235816955,0.4965196847915649
-0.0681278258562088,0.6957924962043762,-0.0702636241912841,-0.7784473299980164,-0.0874562636017799,0.0978676751255989,0.0,0.0,0.2693700790405273,0.7985846996307373
-0.0685418099164962,0.6786731481552124,-0.0452709384262561,-0.7606349587440491,-0.0836138278245925,0.0768488273024559,0.0,0.0,0.2751882076263428,0.4917287826538086
-0.0688341110944747,0.6621455550193787,-0.0338042788207531,-0.7343116998672485,-0.0790822207927703,0.0906322747468948,0.0,0.0,0.200498342514038,0.5968917608261108
-0.0690836906433105,0.6461275815963745,-0.0286711044609546,-0.7117180228233337,-0.0754130408167839,0.0733838826417923,0.0,0.0,-0.6589114665985107,0.585902214050293
-0.0692721381783485,0.6297476291656494,-0.0217015594244003,-0.7278487086296082,-0.0725729018449783,0.0568023845553398,0.0,0.0,-0.1248332262039184,0.3897008895874023
-0.0694487541913986,0.6130169630050659,-0.0209919549524784,-0.7434365153312683,-0.0692872777581214,0.0657126754522323,0.0,0.0,0.1476447582244873,0.1982102394104004
-0.0695033073425293,0.5964636206626892,-0.0096274437382817,-0.73550945520401,-0.0651526004076004,0.0826932862401008,0.0,0.0,0.2695684432983398,0.6453864574432373
-0.0694441795349121,0.5802585482597351,0.0025386258494108,-0.7200853824615479,-0.06181076541543,0.0668366700410842,0.0,0.0,-0.2663747072219848,0.2745792865753174
-0.0693729370832443,0.563702404499054,0.0032717331778258,-0.7356738448143005,-0.0580049715936183,0.0761162191629409,0.0,0.0,0.2459543943405151,0.5378649234771729
-0.0693231597542762,0.5474682450294495,0.0019502828363329,-0.7214046120643616,-0.0550121925771236,0.0598557218909263,0.0,0.0,0.3365535736083984,0.113055944442749
-0.0692057609558105,0.5319185853004456,0.0081571023911237,-0.6909679174423218,-0.0514649599790573,0.0709444060921669,0.0,0.0,0.0446547269821167,0.2549099922180176
-0.0690145492553711,0.516291081905365,0.0147991059347987,-0.6944151520729065,-0.0471990518271923,0.0853180512785911,0.0,0.0,0.2919449806213379,-0.095737874507904
-0.0687583908438682,0.5013114809989929,0.0207168813794851,-0.6656131744384766,-0.0423526428639888,0.0969283208250999,0.0,0.0,-0.4693255424499511,0.0078972578048706
-0.0684896484017372,0.4859811663627624,0.0214732848107814,-0.681203305721283,-0.0370196923613548,0.1066591963171958,0.0,0.0,-0.4294993877410888,0.3879847526550293
-0.0682083144783973,0.4703003168106079,0.0222318135201931,-0.6967940926551819,-0.0311966631561517,0.1164605468511581,0.0,0.0,0.5769188404083252,-0.0142145752906799
-0.0678665190935134,0.4551581442356109,0.0276436861604452,-0.6728616952896118,-0.0247444529086351,0.1290441751480102,0.0,0.0,0.1075791120529174,0.6856374740600586
-0.0675416961312294,0.4405238628387451,0.0269405487924814,-0.650332510471344,-0.0192667040973901,0.1095550879836082,0.0,0.0,0.2552088499069214,0.5867600440979004
-0.0670876502990722,0.4261938631534576,0.0404029227793216,-0.6368328928947449,-0.0143409529700875,0.0985150560736656,0.0,0.0,0.2953331470489502,0.0941789150238037
-0.0666431412100792,0.4119738042354584,0.0390823930501937,-0.6319602727890015,-0.0090358406305313,0.1061023324728012,0.0,0.0,0.3446695804595947,0.5023086071014404
-0.0660840049386024,0.3977934122085571,0.0509007088840007,-0.6302162408828735,-0.0040825866162776,0.0990651473402977,0.0,0.0,0.6085267066955566,0.4490646123886108
-0.0655415505170822,0.383758544921875,0.0488565899431705,-0.6237688064575195,0.0012345022987574,0.1063418537378311,0.0,0.0,0.3492543697357178,0.7028813362121582
-0.0649392157793045,0.3703512847423553,0.0557573214173316,-0.5958883166313171,0.0056497510522603,0.0883049890398979,0.0,0.0,-0.1531068086624145,0.9753186702728271
-0.0642368346452713,0.3566039204597473,0.067467950284481,-0.6110059022903442,0.0083774412050843,0.0545539259910583,0.0,0.0,0.8608566522598267,0.524728536605835
-0.0636222809553146,0.3438908159732818,0.059625394642353,-0.5650354623794556,0.0101829431951045,0.0361099652945995,0.0,0.0,0.5897543430328369,0.7071660757064819
-0.0630789771676063,0.3312966823577881,0.0536819472908973,-0.5597466230392456,0.0108218910172581,0.0127789704129099,0.0,0.0,0.662839412689209,0.9059759378433228
-0.0624148361384868,0.3195551633834839,0.0670056417584419,-0.5218421816825867,0.0102406479418277,-0.011624926701188,0.0,0.0,-0.0057840943336486,0.6691746711730957
-0.0616943351924419,0.3074634969234466,0.0732420831918716,-0.5373972654342651,0.009068532846868,-0.0234421994537115,0.0,0.0,0.3571399450302124,-0.0847572684288024
-0.0610116012394428,0.2958557605743408,0.0691461414098739,-0.5158957242965698,0.0082053327932953,-0.0172642301768064,0.0,0.0,0.3874379396438598,0.5557523965835571
-0.0602885261178016,0.2847813069820404,0.0738030597567558,-0.4921878576278686,0.0067306449636816,-0.0294936094433069,0.0,0.0,-0.1780738234519958,0.2760868072509765
-0.0595535263419151,0.2733562290668487,0.0744768008589744,-0.5077782273292542,0.0057752984575927,-0.0191071070730686,0.0,0.0,0.6169488430023193,-0.2131790518760681
-0.0587852485477924,0.2620831727981567,0.0771547630429267,-0.5010259747505188,0.0054475106298923,-0.00655581895262,0.0,0.0,-0.0801925659179687,-0.6180278062820435
-0.0580466277897357,0.2504543960094452,0.0726088508963584,-0.5168362259864807,0.0066805379465222,0.0246607456356287,0.0,0.0,0.6806442737579346,0.2948126792907715
-0.0571506507694721,0.239347830414772,0.08711439371109,-0.4936370551586151,0.0091278124600648,0.0489455163478851,0.0,0.0,-0.0391220450401306,0.0167090892791748
-0.0562434196472168,0.2278907150030136,0.0877227932214737,-0.5092278122901917,0.0120976828038692,0.05939731746912,0.0,0.0,0.7616353034973145,-0.0232173204421997
-0.0553406700491905,0.2172843962907791,0.0867691785097122,-0.4714236557483673,0.0155628388747572,0.069302998483181,0.0,0.0,0.4608058929443359,-0.1546176671981811
-0.0544099807739257,0.2073342651128769,0.0889029502868652,-0.4422798454761505,0.0196783542633056,0.0823103487491607,0.0,0.0,0.1270910501480102,0.2437889575958252
-0.0533924102783203,0.1977186501026153,0.0966512337327003,-0.4274331927299499,0.0247111860662698,0.1006568670272827,0.0,0.0,0.1189397573471069,-0.6590980887413025
-0.0523448958992958,0.1880785822868347,0.0977009907364845,-0.4285822808742523,0.0316766798496246,0.1393099129199981,0.0,0.0,-0.2344846725463867,0.1420907974243164
-0.0512869842350482,0.1780886054039001,0.0981982052326202,-0.4441776275634765,0.0391673110425472,0.1498127877712249,0.0,0.0,0.3665413856506347,-0.5528662800788879
-0.0502149574458599,0.1688272505998611,0.0978130921721458,-0.4118898212909698,0.0484515912830829,0.1856854707002639,0.0,0.0,-0.1666252613067627,-0.0073701739311218
-0.0491331107914447,0.1592166572809219,0.0982563272118568,-0.4274890124797821,0.0582615993916988,0.1962002515792846,0.0,0.0,0.1268091201782226,-0.0750330686569213
-0.0481582656502723,0.1500619500875473,0.0874372795224189,-0.4072940945625305,0.0682050138711929,0.1988682001829147,0.0,0.0,-0.122613787651062,0.6184194087982178
-0.047118566930294,0.1405670791864395,0.0948190167546272,-0.4224375486373901,0.0772645398974418,0.1811902821063995,0.0,0.0,0.745307207107544,0.3213272094726562
-0.0461875908076763,0.131901815533638,0.0836808234453201,-0.3856337368488312,0.0865887552499771,0.1864842623472213,0.0,0.0,-0.1948399543762207,0.5859318971633911
-0.0452086441218853,0.1228968948125839,0.088975116610527,-0.4007589519023895,0.0954308658838272,0.1768425703048706,0.0,0.0,0.2002636194229126,0.4434010982513428
-0.0442741401493549,0.1140805780887603,0.0840975120663642,-0.3924603760242462,0.1047157794237136,0.1856981813907623,0.0,0.0,0.6962687969207764,0.7250368595123291
-0.043469525873661,0.1058256030082702,0.0723064169287681,-0.3674818277359009,0.1128067895770073,0.1618205606937408,0.0,0.0,0.3290859460830688,0.992871880531311
-0.0427666679024696,0.0978366211056709,0.0636745244264602,-0.3555807471275329,0.1193789467215538,0.1314433217048645,0.0,0.0,0.5909146070480347,0.8841962814331055
-0.0419568046927452,0.090566836297512,0.0754684507846832,-0.3235526382923126,0.1248714029788971,0.1098491922020912,0.0,0.0,-0.0763189792633056,0.9672291278839112
-0.041055966168642,0.0829547941684722,0.0861683636903762,-0.3386443853378296,0.1287654191255569,0.0778804123401641,0.0,0.0,0.6747221946716309,0.8873677253723145
-0.0400167480111122,0.0761954188346862,0.1010117679834365,-0.3006710708141327,0.1316626965999603,0.0579459257423877,0.0,0.0,0.0894043445587158,-0.2722865343093872
-0.0390539169311523,0.0698443055152893,0.0929141566157341,-0.2825747728347778,0.1350153386592865,0.067052848637104,0.0,0.0,-0.3180570602416992,0.2095049619674682
-0.0380858406424522,0.0631434321403503,0.0929141789674758,-0.2981714606285095,0.1388926059007644,0.0775455459952354,0.0,0.0,0.7845193147659302,0.6670105457305908
-0.0370592102408409,0.0570525266230106,0.0993735939264297,-0.2710168659687042,0.1421731114387512,0.0656099617481231,0.0,0.0,0.1867064237594604,0.6709322929382324
-0.0360651984810829,0.0514994226396083,0.0969399735331535,-0.247039645910263,0.1446243822574615,0.0490255542099475,0.0,0.0,0.1405104398727417,-0.717216432094574
-0.0351553931832313,0.0464080907404422,0.08652014285326,-0.2267233729362487,0.1490782797336578,0.0890780612826347,0.0,0.0,0.2661385536193847,0.3404889106750488
-0.0342333801090717,0.0415022931993007,0.0869377180933952,-0.2185739874839782,0.1543395966291427,0.1052260845899581,0.0,0.0,0.5312340259552002,0.1569358110427856
-0.0335084907710552,0.0370702855288982,0.0672199502587318,-0.1975300759077072,0.159597247838974,0.1051531881093978,0.0,0.0,0.4682693481445312,0.7056620121002197
-0.032923124730587,0.0329479090869426,0.0543978698551654,-0.1836674511432647,0.1637362986803054,0.0827811509370803,0.0,0.0,0.5015897750854492,0.831391453742981
-0.032376192510128,0.0292444564402103,0.0517362169921398,-0.1649238318204879,0.1666979789733886,0.059234045445919,0.0,0.0,-0.1347900032997131,0.863959789276123
-0.0317574515938758,0.0252076964825391,0.0601992532610893,-0.1796013861894607,0.1683722734451294,0.0334855243563652,0.0,0.0,0.6023290157318115,0.5824463367462158
-0.031015682965517,0.0213777162134647,0.0728256702423095,-0.1703749150037765,0.1697309613227844,0.0271735005080699,0.0,0.0,0.4789927005767822,-0.3261771202087402
-0.0302909854799509,0.0181253049522638,0.0702047348022461,-0.1448140889406204,0.1720066368579864,0.0455132611095905,0.0,0.0,-0.1675410270690918,-0.2026293277740478
-0.0296371467411518,0.0153215024620294,0.0806361511349678,-0.1229493170976638,0.1566534340381622,-0.3071870505809784,0.0,1.0,0.6139576435089111,0.0148183107376098
-0.0290600769221782,0.013285169377923,0.0882028937339782,-0.0877759009599685,0.1257289946079254,-0.619172990322113,0.0,1.0,0.5903661251068115,-0.2722120285034179
