x_pos,y_pos,x_vel,y_vel,angle,ang_vel,leg_1,leg_2,main_booster,lat_booster
-0.0015228271950036,1.403218150138855,-0.1539768278598785,-0.3423112332820892,0.0015178924659267,0.0299235340207815,0.0,0.0,-0.4889017343521118,0.9058606624603271
-0.0029683113098144,1.3951287269592283,-0.143824428319931,-0.3595300912857055,0.0007987338467501,-0.0143839968368411,0.0,0.0,0.0791972875595092,-0.2697628736495971
-0.0043272972106933,1.3870283365249634,-0.1353325247764587,-0.3600162267684936,0.0002460725081618,-0.0110544022172689,0.0,0.0,-0.1712769269943237,0.6731364727020264
-0.0056447982788085,1.3785192966461182,-0.1298517286777496,-0.3781804740428924,-0.0016290030907839,-0.0375048145651817,0.0,0.0,0.0303715467453002,0.33831787109375
-0.0068827630020678,1.370213747024536,-0.1220324262976646,-0.3691350817680359,-0.0033709241542965,-0.0348418876528739,0.0,0.0,0.2484493255615234,0.5425103902816772
-0.0079652788117527,1.3621159791946411,-0.1054085046052932,-0.3599128425121307,-0.0061879609711468,-0.0563460662961006,0.0,0.0,-0.368272066116333,0.0700347423553466
-0.0090503692626953,1.353611707687378,-0.1054117083549499,-0.3779765963554382,-0.0092570902779698,-0.0613879188895225,0.0,0.0,-0.5492775440216064,-0.3654600381851196
-0.0101385116577148,1.3447015285491943,-0.1054600924253463,-0.3960362672805786,-0.01257861033082,-0.066436231136322,0.0,0.0,-0.2266389727592468,0.2046924829483032
-0.0112301828339695,1.3353852033615112,-0.1055495962500572,-0.4140972793102264,-0.0161522813141345,-0.0714799240231514,0.0,0.0,-0.6941830515861511,-0.3339568376541137
-0.0123255727812647,1.325662612915039,-0.1056763082742691,-0.4321590960025787,-0.0199779644608497,-0.0765206664800643,0.0,0.0,-0.5538780093193054,-0.1872557401657104
-0.0134251592680811,1.3155338764190674,-0.1058361902832984,-0.4502212405204773,-0.0240554828196764,-0.0815580040216445,0.0,0.0,-0.5715296268463135,0.1995567083358764
-0.0145292282104492,1.3049992322921753,-0.1060252338647842,-0.4682836830615997,-0.0283846613019704,-0.0865917652845382,0.0,0.0,-0.5121703147888184,0.2167432308197021
-0.0156378746032714,1.2940584421157837,-0.106239415705204,-0.4863464534282684,-0.0329653397202491,-0.0916217118501663,0.0,0.0,0.5832568407058716,-0.7397372126579285
-0.0167258270084857,1.2832143306732178,-0.105545662343502,-0.4820349514484405,-0.0361865684390068,-0.0644303411245346,0.0,0.0,-0.7829720377922058,-0.22970050573349
-0.0178189277648925,1.2719640731811523,-0.1058033481240272,-0.5001013278961182,-0.039659921079874,-0.0694729834794998,0.0,0.0,-0.0953312516212463,0.0579267740249633
-0.0189172737300395,1.260307788848877,-0.1060733199119567,-0.5181629061698914,-0.0433839596807956,-0.0744874253869056,0.0,0.0,0.6756439208984375,-0.8596734404563904
-0.0198956485837698,1.2495497465133667,-0.0958187729120254,-0.478189617395401,-0.0453844182193279,-0.0400124564766883,0.0,0.0,-0.7342005968093872,-0.5497419238090515
-0.0209128372371196,1.2383830547332764,-0.1002787351608276,-0.4963440299034118,-0.0468038581311702,-0.0283914618194103,0.0,0.0,-0.4051008224487304,0.5931761264801025
-0.021880816668272,1.2268121242523191,-0.0937370806932449,-0.514365553855896,-0.0498412996530532,-0.0607542321085929,0.0,0.0,-0.9109673500061036,-0.89902663230896
-0.0229347236454486,1.2148404121398926,-0.104116216301918,-0.5321123600006104,-0.051102876663208,-0.025233369320631,0.0,0.0,-0.1993196606636047,-0.6008111238479614
-0.0240313522517681,1.202470064163208,-0.1090777665376663,-0.5498201847076416,-0.0516737811267375,-0.0114197311922907,0.0,0.0,-0.4321615099906921,-0.2815982103347778
-0.0251332279294729,1.1896933317184448,-0.10935640335083,-0.5678825378417969,-0.0524949841201305,-0.0164255648851394,0.0,0.0,0.1992698907852172,-0.5177592635154724
-0.0261574741452932,1.1770968437194824,-0.1026044711470604,-0.5598377585411072,-0.0523201860487461,0.0034961611963808,0.0,0.0,-0.4007706642150879,-0.2673202753067016
-0.0271867755800485,1.1640939712524414,-0.102854773402214,-0.5779043436050415,-0.0523960255086422,-0.0015170022379606,0.0,0.0,-0.5907686352729797,0.1268972158432006
-0.0282209403812885,1.1506850719451904,-0.1030822247266769,-0.5959657430648804,-0.0527211651206016,-0.0065032420679926,0.0,0.0,-0.738791286945343,-0.6264564394950867
-0.0293217655271291,1.1368567943572998,-0.1110631078481674,-0.6145616173744202,-0.0517466962337493,0.0194893088191747,0.0,0.0,-0.4934825897216797,-0.3923095464706421
-0.0304267890751361,1.12262225151062,-0.1112382635474205,-0.6326217651367188,-0.0510214157402515,0.0145057290792465,0.0,0.0,-0.8298765420913696,-0.3875839710235595
-0.0315357223153114,1.1079814434051514,-0.1113819032907486,-0.6506817936897278,-0.0505450740456581,0.0095271356403827,0.0,0.0,-0.4991631507873535,-0.6059166789054871
-0.0327063575387001,1.0929441452026367,-0.1187845021486282,-0.6682732105255127,-0.0488495342433452,0.0339108146727085,0.0,0.0,0.7059088945388794,0.1401917934417724
-0.0338772758841514,1.0782564878463743,-0.1184594854712486,-0.6527429819107056,-0.0475026406347751,0.026937847957015,0.0,0.0,-0.6511458158493042,0.3814146518707275
-0.0350510589778423,1.0631625652313232,-0.1184881553053855,-0.6708030104637146,-0.0464037507772445,0.0219778139144182,0.0,0.0,-0.863914430141449,0.3549455404281616
-0.0362271293997764,1.0476624965667725,-0.1184719800949096,-0.6888630390167236,-0.0455524586141109,0.0170255787670612,0.0,0.0,-0.6206716895103455,0.6519708633422852
-0.0373604781925678,1.0317593812942505,-0.1128087043762207,-0.7068207263946533,-0.0460667498409748,-0.0102856066077947,0.0,0.0,-0.6405806541442871,-0.6915095448493958
-0.0385557189583778,1.0154480934143066,-0.1202978268265724,-0.7249265313148499,-0.0453073270618915,0.0151884332299232,0.0,0.0,0.284501314163208,-0.0940945744514465
-0.0397171005606651,0.9994604587554932,-0.1167144998908042,-0.71054607629776,-0.0447355955839157,0.0114347711205482,0.0,0.0,-0.1149483323097229,0.3943384885787964
-0.0408786758780479,0.9830664992332458,-0.1164889112114906,-0.7286059856414795,-0.0444094575941562,0.0065229600295424,0.0,0.0,-0.6840856671333313,-0.1109383106231689
-0.0420398712158203,0.9662665724754332,-0.116204023361206,-0.7466657757759094,-0.0443282313644886,0.0016244836151599,0.0,0.0,0.6931984424591064,-0.6923736929893494
-0.0431776046752929,0.9502355456352234,-0.1151011958718299,-0.7124519348144531,-0.0430194623768329,0.0261753052473068,0.0,0.0,-0.8900335431098938,0.2523876428604126
-0.0443137176334857,0.9337982535362244,-0.1146902441978454,-0.7305119037628174,-0.0419540479779243,0.0213083736598491,0.0,0.0,-0.3878719806671142,0.4319057464599609
-0.045447539538145,0.9169549942016602,-0.1142128258943557,-0.7485717535018921,-0.0411310419440269,0.0164600424468517,0.0,0.0,0.5536978244781494,-0.4630402326583862
-0.0466485992074012,0.9008089900016784,-0.1202162876725196,-0.7175952196121216,-0.0410139113664627,0.0023424671962857,0.0,0.0,-0.7408497333526611,-0.8416354656219482
-0.0478987693786621,0.8842582106590271,-0.1262433230876922,-0.7355579733848572,-0.0398061461746692,0.0241551399230957,0.0,0.0,-0.5620215535163879,-0.2765241265296936
-0.0491445548832416,0.8673012256622314,-0.1255543678998947,-0.7536178827285767,-0.0388373397290706,0.0193762648850679,0.0,0.0,-0.0263645052909851,-0.108740746974945
-0.0503849983215332,0.8499380946159363,-0.1247913986444473,-0.7716776728630066,-0.0381060466170311,0.014625834301114,0.0,0.0,-0.6094776391983032,-0.1719226837158203
-0.0516194328665733,0.8321687579154968,-0.1239529252052307,-0.7897374629974365,-0.0376106910407543,0.009907123632729,0.0,0.0,-0.3916555047035217,-0.1030721664428711
-0.0528471954166889,0.8139930963516235,-0.1230376362800598,-0.8077971935272217,-0.0373495370149612,0.0052233645692467,0.0,0.0,0.797330379486084,-0.4523762464523315
-0.0539828315377235,0.7961361408233643,-0.1139063015580177,-0.793626070022583,-0.0370136462152004,0.0067177964374423,0.0,0.0,0.5678722858428955,0.2230507135391235
-0.0551874153316021,0.7790653109550476,-0.1200630217790603,-0.7587209343910217,-0.0374012701213359,-0.0077525465749204,0.0,0.0,-0.0078786015510559,-0.3802266120910644
-0.0563827529549598,0.7615880370140076,-0.1189111918210983,-0.7767807245254517,-0.0380166582763195,-0.0123080434277653,0.0,0.0,0.6406064033508301,-0.4313461184501648
-0.0575698837637901,0.7444629073143005,-0.1177593246102333,-0.7611417174339294,-0.038954459130764,-0.0187561884522438,0.0,0.0,0.0992188453674316,0.0929173231124877
-0.0586359016597271,0.7274954915046692,-0.1058758869767189,-0.7541277408599854,-0.0396731533110141,-0.0143738314509391,0.0,0.0,0.1435457468032837,0.3108816146850586
-0.0597098357975482,0.7108885645866394,-0.1062536612153053,-0.7381195425987244,-0.0407954603433609,-0.0224465020000934,0.0,0.0,-0.3689954280853271,0.0172019004821777
-0.0607711784541606,0.6938753128051758,-0.1047788858413696,-0.7561794519424438,-0.0421336852014064,-0.0267644468694925,0.0,0.0,0.099388837814331,-0.3729300498962402
-0.0617946609854698,0.6772513389587402,-0.1007830873131752,-0.7388890981674194,-0.0436742641031742,-0.0308117158710956,0.0,0.0,-0.2259000539779663,-0.3650745749473572
-0.0628038421273231,0.6602210998535156,-0.0991468057036399,-0.7569490075111389,-0.0454230941832065,-0.0349762812256813,0.0,0.0,0.4261229038238525,-0.023150622844696
-0.0638617500662803,0.6434000134468079,-0.1034356355667114,-0.7476829886436462,-0.0477573722600936,-0.0466854907572269,0.0,0.0,0.459301233291626,-0.4216576814651489
-0.0647871941328048,0.6272215247154236,-0.0903704762458801,-0.7191177010536194,-0.049906700849533,-0.0429865457117557,0.0,0.0,-0.5319861173629761,0.0788431167602539
-0.0656958594918251,0.6106368899345398,-0.0884958654642105,-0.7371777892112732,-0.0522502139210701,-0.0468701347708702,0.0,0.0,0.5421741008758545,-0.3662936091423034
-0.0664770156145095,0.5947917103767395,-0.0758884251117706,-0.7043038010597229,-0.0544598326086998,-0.0441923104226589,0.0,0.0,0.4498488903045654,0.2645688056945801
-0.0672690421342849,0.5795788764953613,-0.0764646679162979,-0.6762291789054871,-0.0571615770459175,-0.0540348775684833,0.0,0.0,-0.060738980770111,0.0115312337875366
-0.0680417045950889,0.5639598965644836,-0.0743603780865669,-0.6942895650863647,-0.0600400753319263,-0.0575698688626289,0.0,0.0,0.532526969909668,0.2093617916107177
-0.0688481330871582,0.5489175319671631,-0.0771256387233734,-0.6686972975730896,-0.06351900100708,-0.0695783495903015,0.0,0.0,0.0395952463150024,0.0013257265090942
-0.0695354491472244,0.5339487791061401,-0.0654155388474464,-0.6654202342033386,-0.0668015554547309,-0.0656508803367614,0.0,0.0,0.4488500356674194,-0.6382717490196228
-0.0701930075883865,0.5193822383880615,-0.0636108592152595,-0.6475003361701965,-0.0689230561256408,-0.0424298718571662,0.0,0.0,-0.1659889221191406,-0.1299974918365478
-0.0708280578255653,0.5044096112251282,-0.0612206347286701,-0.6655605435371399,-0.0711924880743026,-0.0453884489834308,0.0,0.0,0.1842596530914306,0.1593827009201049
-0.0714983940124511,0.4896740913391113,-0.0641848742961883,-0.6550481915473938,-0.0740121155977249,-0.0563925132155418,0.0,0.0,0.5342913866043091,0.0922226905822753
-0.0720662102103233,0.4757192432880401,-0.0538882538676261,-0.6203633546829224,-0.0768707022070884,-0.0571716912090778,0.0,0.0,-0.6419639587402344,-0.0411593317985534
-0.0726093277335167,0.4613581895828247,-0.0513033270835876,-0.6384237408638,-0.0798515453934669,-0.0596169754862785,0.0,0.0,-0.299060046672821,-0.7014682292938232
-0.0731796249747276,0.4466055631637573,-0.0552462451159954,-0.6557707190513611,-0.0816086158156395,-0.0351416543126106,0.0,0.0,0.8924027681350708,0.2619606256484985
-0.0737870186567306,0.4322704672813415,-0.0583609230816364,-0.6372463703155518,-0.0839678421616554,-0.0471844598650932,0.0,0.0,0.6513671875,-0.1351022124290466
-0.0744025260210037,0.418552428483963,-0.0586402490735054,-0.6098560094833374,-0.0868452936410904,-0.0575491078197956,0.0,0.0,0.9664418697357178,-0.3937630653381347
-0.0748898535966873,0.4055304229259491,-0.0459229238331317,-0.5789210796356201,-0.0896370112895965,-0.0558344237506389,0.0,0.0,0.3461353778839111,0.0250662565231323
-0.0753923431038856,0.3931444883346557,-0.0468611121177673,-0.5506942272186279,-0.0929876565933227,-0.0670128911733627,0.0,0.0,-0.0971508622169494,0.4113513231277466
-0.0758662223815918,0.3803524076938629,-0.0439489409327507,-0.5687545537948608,-0.0964013040065765,-0.0682730227708816,0.0,0.0,-0.6767892241477966,-0.1040030121803283
-0.0763110145926475,0.3671542406082153,-0.0409911759197711,-0.5868149399757385,-0.0998674780130386,-0.0693233534693718,0.0,0.0,0.7174584865570068,-0.8843691945075989
-0.0766845718026161,0.3540436625480652,-0.0357290431857109,-0.5828035473823547,-0.101487897336483,-0.0324082523584365,0.0,0.0,0.8603615760803223,-0.8346182107925415
-0.077094554901123,0.3411048352718353,-0.0409222580492496,-0.5750635862350464,-0.1015558838844299,-0.0013599538942798,0.0,0.0,0.9346059560775756,-0.3540219664573669
-0.0773894339799881,0.3291472494602203,-0.0293536931276321,-0.5314582586288452,-0.1016900986433029,-0.0026843165978789,0.0,0.0,0.1372873783111572,0.2271533012390136
-0.0775414481759071,0.3176129758358001,-0.0153140444308519,-0.5126291513442993,-0.101579874753952,0.00220448942855,0.0,0.0,0.5898313522338867,0.0063122510910034
-0.0776896476745605,0.3068623840808868,-0.0144311469048261,-0.4778286814689636,-0.101969301700592,-0.0077882395125925,0.0,0.0,-0.5628082156181335,-0.2238582372665405
-0.0778060927987098,0.2957054674625397,-0.0112582854926586,-0.4958876073360443,-0.102348618209362,-0.0075865872204303,0.0,0.0,0.3973816633224487,-0.7437202334403992
-0.0778421387076377,0.2851497232913971,-0.0048004742711782,-0.469064861536026,-0.1011639907956123,0.0236924886703491,0.0,0.0,-0.1676982045173645,-0.4753197431564331
-0.0778457671403884,0.2741875648498535,-0.0015793975908309,-0.4871237576007843,-0.0999495387077331,0.0242889001965522,0.0,0.0,-0.454509973526001,-0.5423676371574402
-0.077862836420536,0.262828379869461,-0.0041702333837747,-0.5046908259391785,-0.0975152254104614,0.0486866012215614,0.0,0.0,0.8600633144378662,0.1387841701507568
-0.077783778309822,0.2522400915622711,0.0054768505506217,-0.4704311192035675,-0.0950946137309074,0.0484120845794677,0.0,0.0,-0.3523910641670227,-0.4884650707244873
-0.0776712447404861,0.2412455379962921,0.0087471213191747,-0.4884901046752929,-0.0926165506243705,0.0495611652731895,0.0,0.0,0.3215042352676391,-0.3604447245597839
-0.077481172978878,0.2302509844303131,0.0163599289953708,-0.4884854257106781,-0.0899847149848938,0.0526365339756011,0.0,0.0,0.7043807506561279,-0.7077407240867615
-0.0771722793579101,0.2194590717554092,0.0265140291303396,-0.4793845415115356,-0.0856444761157035,0.086804948747158,0.0,0.0,0.2635800838470459,0.2536346912384033
-0.076679989695549,0.2088993191719055,0.0442279912531375,-0.4690465331077575,-0.0807014480233192,0.0988605841994285,0.0,0.0,0.3875269889831543,-0.1164473295211792
-0.0760106071829795,0.1984145194292068,0.0613126382231712,-0.4656968712806701,-0.075126975774765,0.1114893928170204,0.0,0.0,0.2525782585144043,-0.2926186323165893
-0.075268842279911,0.1883762031793594,0.0684685856103897,-0.4458727538585663,-0.069475270807743,0.1130339354276657,0.0,0.0,-0.0589614510536193,-0.6794533729553223
-0.074543759226799,0.1779424101114273,0.0653886869549751,-0.4634090363979339,-0.062435008585453,0.1408053934574127,0.0,0.0,0.4149916172027588,0.1852509975433349
-0.0736427307128906,0.1679482758045196,0.0823726207017898,-0.4438808560371399,-0.0547907389700412,0.1528854668140411,0.0,0.0,-0.0293706655502319,-0.5388849973678589
-0.072743609547615,0.1575459539890289,0.081160768866539,-0.4620331227779388,-0.0461379364132881,0.1730556786060333,0.0,0.0,0.7749642133712769,0.3186376094818115
-0.0718419998884201,0.1475618481636047,0.081550046801567,,-0.0376235470175743,0.1702878624200821,0.0,0.0,0.6146371364593506,0.3104023933410644
-0.0707923918962478,0.1384315341711044,0.0958210900425911,-0.4055869877338409,-0.0285981874912977,0.1805072724819183,0.0,0.0,0.4107180833816528,0.1499456167221069
-0.0697154998779296,0.1296255141496658,0.0985085442662239,-0.391231507062912,-0.0195312332361936,0.1813388764858245,0.0,0.0,0.5146218538284302,-0.3454641699790954
-0.0687052756547927,0.1215112283825874,0.0922280624508857,-0.3605452179908752,-0.0108532896265387,0.173558622598648,0.0,0.0,-0.0730661749839782,-0.0201558470726013
-0.0676623359322547,0.1129916012287139,0.0953595116734504,-0.3786104023456573,-0.0020318673923611,0.17642842233181,0.0,0.0,0.5748424530029297,0.7716845273971558
-0.0665808692574501,0.1051448211073875,0.1007199883460998,-0.3487523794174194,0.0053033544681966,0.1467045694589615,0.0,0.0,-0.2681022882461548,-0.3570298552513122
-0.0654672607779502,0.0968925580382347,0.1037733554840087,-0.3668159246444702,0.0127908727154135,0.149750143289566,0.0,0.0,0.7352855205535889,0.824777364730835
-0.06429223716259,0.0890169441699981,0.1114773750305175,-0.3500899970531463,0.0187414996325969,0.1190124973654747,0.0,0.0,0.5878574848175049,0.3028527498245239
-0.0632088631391525,0.0815991759300232,0.1026689037680625,-0.3297587931156158,0.024333581328392,0.111841894686222,0.0,0.0,0.1426194906234741,-0.3813614845275879
-0.0622076988220214,0.0743150115013122,0.094775877892971,-0.3238402307033539,0.0296080000698566,0.1054883375763893,0.0,0.0,0.4046311378479004,0.2008672952651977
-0.0611044876277446,0.067544899880886,0.1043938994407653,-0.3010196685791015,0.0354661643505096,0.1171631067991256,0.0,0.0,0.2959349155426025,0.6675117015838623
-0.0598755851387977,0.0608026832342147,0.1180459633469581,-0.2997771501541137,0.0402549467980861,0.0957757011055946,0.0,0.0,0.4955484867095947,0.1508792638778686
-0.0585143081843853,0.0546975471079349,0.1304865777492523,-0.2714991867542267,0.0458245389163494,0.1113921254873275,0.0,0.0,0.4925533533096313,-0.5545588731765747
-0.0572233200073242,0.0492372848093509,0.1222250834107399,-0.2429025471210479,0.052619345486164,0.1358960270881652,0.0,0.0,0.0664150714874267,0.1862680912017822
-0.0558419227600097,0.0442050322890281,0.1306532323360443,-0.2239384055137634,0.0600192919373512,0.1479988992214203,0.0,0.0,0.0702645778656005,-0.4822956323623657
-0.0544071197509765,0.0393339954316616,0.1355817764997482,-0.2168277353048324,0.0678295642137527,0.1562054753303527,0.0,0.0,0.253840684890747,0.0956015586853027
-0.0529940612614154,0.0349843837320804,0.1332522332668304,-0.1937019824981689,0.0757987201213836,0.1593830585479736,0.0,0.0,-0.0035035014152526,0.5839872360229492
-0.0515057556331157,0.0302403066307306,0.1418859809637069,-0.2112173289060592,0.0826727822422981,0.137481227517128,0.0,0.0,0.523784875869751,0.0152540206909179
-0.0499545112252235,0.02573212236166,0.1476494371891021,-0.2007968723773956,0.0900794640183448,0.1481335610151291,0.0,0.0,0.6504149436950684,0.5523338317871094
-0.0485230460762977,0.0217302665114402,0.1369335949420929,-0.1782455444335937,0.0962344706058502,0.1231000795960426,0.0,0.0,0.2456233501434326,-0.5364981293678284
-0.0472546592354774,0.0178796872496604,0.1195792108774185,-0.1716226190328598,0.1034327447414398,0.1439654380083084,0.0,0.0,0.3362553119659424,0.140316367149353
-0.0460301414132118,0.0143012618646025,0.1150854006409645,-0.1595679819583892,0.1107455119490623,0.1462554037570953,0.0,0.0,0.4917616844177246,0.0662132501602172
-0.0448162071406841,0.0110395522788167,0.113726831972599,-0.1455541253089904,0.1183637008070945,0.1523635685443878,0.0,1.0,0.8560878038406372,0.9221810102462769
-0.043454360216856,0.0084216091781854,0.1394090354442596,-0.1163704693317413,0.1142834424972534,-0.0827575176954269,0.0,1.0,0.840034008026123,0.3378365039825439
-0.0422444343566894,0.0069208955392241,0.1379335820674896,-0.0655027851462364,0.0974247902631759,-0.3372299075126648,0.0,1.0,-0.2853193283081054,-0.2167784571647644
-0.041147232055664,0.0052880384027957,0.1361239105463028,-0.0710741728544235,0.0712044835090637,-0.5244691967964172,0.0,1.0,0.2484496831893921,-0.4412711858749389
