x_pos,y_pos,x_vel,y_vel,angle,ang_vel,leg_1,leg_2,main_booster,lat_booster
-0.0015162468189373,1.4032530784606934,-0.1537434756755828,-0.3407615721225738,0.0018951568054035,0.0373934395611286,0.0,0.0,0.7472392364666833,0.8748291886990898
-0.0028963088989257,1.3959654569625854,-0.1383956223726272,-0.3238937258720398,0.0022803267929702,0.0077047757804393,0.0,0.0,-0.5173341028345635,0.8290524400278697
-0.0041888235136866,1.3883000612258911,-0.1277901828289032,-0.3406866788864136,0.0008386909030377,-0.0288354102522134,0.0,0.0,0.5032683133683016,0.6796389999760973
-0.0055388449691236,1.3809428215026855,-0.1321353614330291,-0.3269919455051422,-0.0020034308545291,-0.05684744566679,0.0,0.0,-0.7796096277545568,-0.9745214162107548
-0.0069406507536768,1.373217225074768,-0.139066070318222,-0.3433637022972107,-0.0031086402013897,-0.0221060011535882,0.0,0.0,0.0070574744556741,-0.7079132532248329
-0.0082921981811523,1.3656154870986938,-0.1357754617929458,-0.3378526270389557,-0.0024919642601162,0.0123344557359814,0.0,0.0,0.7616810618548027,0.9427601271858914
-0.0095860483124852,1.3585655689239502,-0.1283342838287353,-0.3133274912834167,-0.003527203341946,-0.0207067430019378,0.0,0.0,0.172706399426336,0.9064878190195788
-0.0106740947812795,1.351834774017334,-0.106282964348793,-0.2991616129875183,-0.0060160611756145,-0.0497818551957607,0.0,0.0,-0.3867163085532374,-0.8432213241727782
-0.0118206022307276,1.3447420597076416,-0.1141507402062416,-0.3152340054512024,-0.0065043824724853,-0.0097674643620848,0.0,0.0,0.0972536326497843,-0.9281464299319362
-0.0130282398313283,1.3380080461502075,-0.1224504709243774,-0.299283891916275,-0.0048420028761029,0.0332505628466606,0.0,0.0,0.8574521175952403,-0.51300060807016
-0.0141611099243164,1.3319048881530762,-0.1166348904371261,-0.271245002746582,-0.001520849764347,0.0664290487766265,0.0,0.0,-0.8398373161607615,0.8190645082180847
-0.0152121540158987,1.3254283666610718,-0.1069849506020546,-0.2878466248512268,0.0003289079759269,0.0369985736906528,0.0,0.0,0.589126914017406,0.5337170522293044
-0.0160772316157817,1.3195924758911133,-0.0880472064018249,-0.2593749463558197,0.001842004712671,0.030264850705862,0.0,0.0,0.023159625987406,0.5143119607423355
-0.0168451312929391,1.3137102127075195,-0.0777410566806793,-0.2614326775074005,0.0027892843354493,0.0189474448561668,0.0,0.0,0.2363140842874203,-0.8898058005907028
-0.0175530426204204,1.3083914518356323,-0.074004516005516,-0.236400693655014,0.0059672421775758,0.0635648667812347,0.0,0.0,-0.6022920717863478,0.8357929252706432
-0.0181730277836322,1.30269193649292,-0.0636322423815727,-0.2533164918422699,0.0075764977373182,0.0321882143616676,0.0,0.0,-0.5883765932544063,-0.9581757158498878
-0.018841553479433,1.2966315746307373,-0.0703652650117874,-0.2693658173084259,0.0110558755695819,0.069593921303749,0.0,0.0,0.2754457091293809,0.7907788928753776
-0.0193159095942974,1.2906302213668823,-0.0499386936426162,-0.2667463421821594,0.0135209299623966,0.0493056997656822,0.0,0.0,0.9926432416155784,-0.7204309876526551
-0.0197240822017192,1.2857179641723633,-0.0454973354935646,-0.2183731645345688,0.0181548167020082,0.0926860347390174,0.0,0.0,-0.4206418964185356,-0.5401106739855193
-0.0201704986393451,1.280432939529419,-0.0509957745671272,-0.2349821180105209,0.0244319941848516,0.1255547553300857,0.0,0.0,0.1350531278710693,-0.9700822084129446
-0.0205924026668071,1.2755600214004517,-0.050936259329319,-0.216737613081932,0.0330719053745269,0.17281374335289,0.0,0.0,0.3429932245714793,-0.8059014535115611
-0.0210692398250103,1.2708487510681152,-0.0584905855357646,-0.209652841091156,0.0437683686614036,0.2139484882354736,0.0,0.0,-0.3136435814206313,0.8963557348356199
-0.0214499477297067,1.2657721042633057,-0.0471493378281593,-0.2259171158075332,0.0527464225888252,0.1795772314071655,0.0,0.0,-0.9545568919318196,-0.8066278424296309
-0.0218768119812011,1.2603120803833008,-0.0536448657512664,-0.2430829256772995,0.0635999143123626,0.2170892506837844,0.0,0.0,-0.1438698405333067,-0.595533133840632
-0.022352123633027,1.2544790506362915,-0.0604149475693702,-0.2598440051078796,0.0763760283589363,0.2555447518825531,0.0,0.0,0.7103481219281138,0.8612648995878751
-0.0229709632694721,1.2493388652801514,-0.0732467472553253,-0.2290728241205215,0.0876175388693809,0.2248301059007644,0.0,0.0,-0.7211577868322501,0.7957515920912692
-0.0235170368105173,1.2438427209854126,-0.0648057609796524,-0.2449124157428741,0.097732126712799,0.2022918909788131,0.0,0.0,0.5611200236884177,0.6542650504594014
-0.0242119785398244,1.239135503768921,-0.078564666211605,-0.2098278999328613,0.1067264080047607,0.1798852533102035,0.0,0.0,0.4992590787862243,0.7526317868669262
-0.0250435825437307,1.235101580619812,-0.0909599363803863,-0.1798645555973053,0.1144731938838958,0.1549360156059265,0.0,0.0,-0.4661009965101452,0.5238567276572397
-0.025825310498476,1.230702519416809,-0.0854278057813644,-0.1960884183645248,0.1216942220926284,0.144420638680458,0.0,0.0,0.4038375924586161,0.5462229139526584
-0.0266246795654296,1.2270216941833496,-0.0866297632455825,-0.1641549617052078,0.1283473223447799,0.1330618858337402,0.0,0.0,-0.988066792488098,0.971881628036499
-0.0273472778499126,1.222977876663208,-0.0777306631207466,-0.1802060902118683,0.1338014155626297,0.1090817898511886,0.0,0.0,-0.9968805313110352,0.9826602935791016
-0.0279942508786916,1.2185863256454468,-0.0689586549997329,-0.1955679506063461,0.1380484253168106,0.0849399492144584,0.0,0.0,-0.9899965524673462,0.9892215728759766
-0.0285612102597951,1.2138298749923706,-0.0596762783825397,-0.2116744220256805,0.1410261839628219,0.0595552995800972,0.0,0.0,-0.9968572854995728,0.9771912097930908
-0.0290397647768259,1.2087218761444092,-0.0493355691432952,-0.2271668314933776,0.1424931436777115,0.0293393097817897,0.0,0.0,-0.995430052280426,0.9864873886108398
-0.029429817572236,1.2032676935195925,-0.0389311127364635,-0.2424014657735824,0.1424230933189392,-0.001400898094289,0.0,0.0,-0.9887035489082336,0.9774600267410278
-0.0297364238649606,1.197453856468201,-0.0292191561311483,-0.2582584917545318,0.1409870833158493,-0.0287202931940555,0.0,0.0,-0.994760811328888,0.9612292051315308
-0.0299540515989065,1.1912939548492432,-0.0187734402716159,-0.2734975218772888,0.1380065828561782,-0.0596100613474845,0.0,0.0,-0.9976155161857604,0.9171417951583862
-0.0300959590822458,1.1847875118255615,-0.0099775623530149,-0.2887841165065765,0.1338116079568863,-0.0838993266224861,0.0,0.0,-0.9413360953330994,0.9423809051513672
-0.030151080340147,1.1779279708862305,0.0001691231591394,-0.3043763041496277,0.1281500607728958,-0.1132306829094886,0.0,0.0,-0.9756312370300292,0.2725082635879516
-0.0301967617124319,1.1706979274749756,0.000606243032962,-0.3208938539028168,0.122994989156723,-0.1031012162566185,0.0,0.0,-0.9428892135620116,0.2645450830459595
-0.0302331931889057,1.163097858428955,0.0010329085635021,-0.3374107182025909,0.1183475255966186,-0.0929493457078933,0.0,0.0,-0.8950904011726379,0.6509394645690918
-0.0302004814147949,1.1551307439804075,0.0089596789330244,-0.3536537289619446,0.112702876329422,-0.1128929406404495,0.0,0.0,-0.9742252230644226,-0.1306039094924926
-0.030158519744873,1.146793246269226,0.0093647679314017,-0.3701706528663635,0.1075676679611206,-0.1027041673660278,0.0,0.0,-0.8523944616317749,-0.4791285395622253
-0.0301075931638479,1.1380853652954102,0.009758505038917,-0.3866868913173675,0.1029426231980323,-0.0925009176135063,0.0,0.0,-0.9594208598136902,-0.5185133814811707
-0.0300849918276071,1.1289958953857422,0.0054457513615489,-0.4037621319293976,0.0997853577136993,-0.0631451532244682,0.0,0.0,-0.9544368982315063,-0.2647491693496704
-0.0300534255802631,1.1195356845855713,0.005815920419991,-0.4202767014503479,0.0971393436193466,-0.0529200509190559,0.0,0.0,-0.9690594673156738,0.1706272363662719
-0.0300132744014263,1.109704852104187,0.0061739990487694,-0.4367908835411072,0.0950049832463264,-0.0426874384284019,0.0,0.0,-0.9447751045227052,0.419642686843872
-0.0299644470214843,1.0995031595230105,0.0065197548829019,-0.4533047974109649,0.0933825001120567,-0.0324494875967502,0.0,0.0,-0.8831802606582642,-0.6527719497680664
-0.0299601554870605,1.0889211893081665,0.0001841726189013,-0.4703189730644226,0.0936194360256195,0.004738756455481,0.0,0.0,-0.9826374650001526,0.0455242395401001
-0.029947567731142,1.0779684782028198,0.0005046562291681,-0.4868324100971222,0.0943684726953506,0.0149807333946228,0.0,0.0,-0.9397974610328674,0.5493543148040771
-0.0298878662288188,1.0666543245315552,0.0057012075558304,-0.5028737783432007,0.0946379676461219,0.0053900000639259,0.0,0.0,-0.965787410736084,-0.0654102563858032
-0.0298199653625488,1.0549691915512085,0.0059957457706332,-0.5193873047828674,0.0954193323850631,0.0156272873282432,0.0,0.0,-0.9274807572364808,-0.1433849334716797
-0.0297441482543945,1.0429131984710691,0.0062770955264568,-0.535900890827179,0.0967122465372085,0.025858100503683,0.0,0.0,-0.9177440404891968,0.6277726888656616
-0.0295987129211425,1.0304932594299316,0.0143003985285758,-0.5520185828208923,0.0969560593366622,0.0048765279352664,0.0,0.0,-0.957162082195282,0.0204315185546875
-0.0294455531984567,1.017702341079712,0.0145550267770886,-0.5685321688652039,0.0977105870842933,0.0150903509929776,0.0,0.0,-0.5715001225471497,0.4647011756896972
-0.0292848590761423,1.0045408010482788,0.014796195551753,-0.5850458741188049,0.0989751890301704,0.025291820988059,0.0,0.0,-0.8087750673294067,0.8019167184829712
-0.0290394779294729,0.9910231828689576,0.0247430000454187,-0.6007707715034485,0.0987827628850936,-0.003848657477647,0.0,0.0,-0.822979211807251,0.5535602569580078
-0.0287380218505859,0.97714763879776,0.031069004908204,-0.6166257858276367,0.0978562012314796,-0.0185312815010547,0.0,0.0,-0.8733298182487488,-0.1977356672286987
-0.0284296032041311,0.9629014730453492,0.0312696620821952,-0.6331394910812378,0.097437135875225,-0.0083811581134796,0.0,0.0,-0.5418958067893982,-0.722813606262207
-0.0281658172607421,0.9482704997062684,0.0249611288309097,-0.6503565311431885,0.0988450869917869,0.028159087523818,0.0,0.0,-0.4255895614624023,0.8695681095123291
-0.0278384201228618,0.9332817196846008,0.0322677753865718,-0.6661970019340515,0.0993115752935409,0.0093296905979514,0.0,0.0,0.1649999618530273,0.9068156480789183
-0.0273676868528127,0.9184901118278505,0.0478876456618309,-0.657353401184082,0.0985067337751388,-0.0160967037081718,0.0,0.0,-0.6385816335678101,-0.2440264821052551
-0.0268903728574514,0.9033276438713074,0.048035092651844,-0.6738670468330383,0.0982041507959365,-0.0060517285019159,0.0,0.0,-0.2554656267166137,0.5355286598205566
-0.0263636596500873,0.8877965807914734,0.0535564012825489,-0.6902039051055908,0.097322016954422,-0.0176425985991954,0.0,0.0,-0.2456084489822387,-0.0972020030021667
-0.0258306507021188,0.871894896030426,0.0536781176924705,-0.7067174315452576,0.0969386100769043,-0.0076680099591612,0.0,0.0,0.0468642711639404,0.0134878158569335
-0.025330638512969,0.8564339280128479,0.0498310327529907,-0.6871653199195862,0.0971148535609245,0.0035245604813098,0.0,0.0,0.0007181167602539,0.7632045745849609
-0.0247233398258686,0.8408748507499695,0.0615574233233928,-0.6914654970169067,0.0962899550795555,-0.0164979174733161,0.0,0.0,0.3922131061553955,0.8806352615356445
-0.0240849498659372,0.8260428309440613,0.0659200102090835,-0.6590668559074402,0.094224713742733,-0.0413051433861255,0.0,0.0,0.2778350114822387,-0.1957871913909912
-0.0235478393733501,0.8113765120506287,0.055642832070589,-0.6517162322998047,0.0923123434185981,-0.038247063755989,0.0,0.0,-0.5512828230857849,0.5859947204589844
-0.02296619489789,0.7963473200798035,0.0606005266308784,-0.6678183674812317,0.0898961946368217,-0.0483231619000434,0.0,0.0,-0.6707980036735535,0.2929120063781738
-0.022379208356142,0.7809471487998962,0.0606512352824211,-0.6843319535255432,0.0879639014601707,-0.0386456549167633,0.0,0.0,0.1886454820632934,0.973222017288208
-0.0218729972839355,0.7660908102989197,0.0540601722896099,-0.6600848436355591,0.0845555663108825,-0.0681667253375053,0.0,0.0,-0.1419407129287719,0.3416236639022827
-0.0213616378605365,0.7508636116981506,0.0540899559855461,-0.6765986084938049,0.0816244632005691,-0.0586220622062683,0.0,0.0,-0.2777334451675415,0.4222667217254638
-0.0208453182131052,0.7352656126022339,0.0541098192334175,-0.6931120753288269,0.0791668966412544,-0.0491512082517147,0.0,0.0,-0.2060670256614685,0.7168145179748535
-0.0202609058469533,0.7192966341972351,0.0620568692684173,-0.7095434665679932,0.0755920857191085,-0.0714963227510452,0.0,0.0,-0.5146979689598083,0.8277394771575928
-0.0196093562990427,0.7029557824134827,0.0698655471205711,-0.726030707359314,0.0709228888154029,-0.0933838635683059,0.0,0.0,-0.6219350099563599,-0.1423316001892089
-0.0189533233642578,0.6862441301345825,0.069858506321907,-0.7425447106361389,0.0667145773768425,-0.0841667503118515,0.0,0.0,0.1721675395965576,-0.7198755741119385
-0.0183243751525878,0.670035719871521,0.0651717036962509,-0.720274806022644,0.0644658282399177,-0.0449748560786247,0.0,0.0,0.0002665519714355,0.7597346305847168
-0.0177421569824218,0.6542028188705444,0.0615935698151588,-0.7035416960716248,0.0611212253570556,-0.0668918490409851,0.0,0.0,-0.265837550163269,0.0828915834426879
-0.017155934125185,0.6379989981651306,0.0615637116134166,-0.7200543880462646,0.0582220740616321,-0.0579830035567283,0.0,0.0,-0.4720754623413086,0.6975412368774414
-0.0165069587528705,0.6214355230331421,0.0688814520835876,-0.7360036373138428,0.0542798563838005,-0.0788442865014076,0.0,0.0,-0.250389039516449,0.1665133237838745
-0.0158540718257427,0.6045010685920715,0.0688390284776687,-0.7525162100791931,0.0507711358368396,-0.0701745674014091,0.0,0.0,-0.1701187491416931,-0.4620031118392944
-0.0151973720639944,0.587195634841919,0.0687910765409469,-0.7690285444259644,0.0476893745362758,-0.0616353563964366,0.0,0.0,-0.0471864938735961,0.0445467233657836
-0.0145368576049804,0.5695191025733948,0.0687381699681282,-0.7855404615402222,0.0450276583433151,-0.0532343015074729,0.0,0.0,0.5938613414764404,-0.3728920221328735
-0.0138140674680471,0.5523181557655334,0.074166253209114,-0.7644304633140564,0.0431678257882595,-0.0371967926621437,0.0,0.0,0.0513626337051391,-0.1575927138328552
-0.0130820274353027,0.535073459148407,0.0746020823717117,-0.7663918137550354,0.0417827814817428,-0.0277006421238183,0.0,0.0,0.0887048244476318,-0.63870769739151
-0.0123392101377248,0.5178515911102295,0.0739043205976486,-0.7654245495796204,0.0421530567109584,0.0074053355492651,0.0,0.0,0.4042954444885254,0.306947112083435
-0.0114887235686182,0.5009939074516296,0.083702377974987,-0.7492703795433044,0.0434901863336563,0.0267426464706659,0.0,0.0,0.5569543838500977,-0.0371014475822448
-0.0105198863893747,0.4843305051326751,0.0945280939340591,-0.7406638264656067,0.0458144098520278,0.046484462916851,0.0,0.0,0.4621334075927734,0.014591097831726
-0.0095834732055664,0.4682918787002563,0.0909367501735687,-0.7129117846488953,0.0484853945672512,0.0534197203814983,0.0,0.0,0.0412013530731201,-0.0936644077301025
-0.0086478237062692,0.452599823474884,0.0904059037566185,-0.6975306868553162,0.0516067519783973,0.0624272301793098,0.0,0.0,-0.1238616108894348,0.2984561920166015
-0.0077094077132642,0.4365367591381073,0.0903335437178611,-0.7140424847602844,0.0550780445337295,0.0694257542490959,0.0,0.0,0.5918107032775879,-0.0735174417495727
-0.0066884993575513,0.4205816090106964,0.097778782248497,-0.7092785239219666,0.05933802947402,0.0851998403668403,0.0,0.0,0.6382339000701904,0.4245502948760986
-0.0057469368912279,0.4050070643424988,0.089756891131401,-0.6923831105232239,0.0636850520968437,0.0869405046105384,0.0,0.0,0.3428778648376465,0.3798446655273437
-0.0047788619995117,0.3901179432868957,0.0917696729302406,-0.6619603633880615,0.068666785955429,0.0996350422501564,0.0,0.0,0.5470327138900757,0.8129950761795044
-0.003805065061897,0.3756591975688934,0.0937139391899108,-0.6427814960479736,0.0722960755228996,0.0725857466459274,0.0,0.0,0.1422888040542602,0.5647158622741699
-0.0029193877708166,0.3616520464420318,0.085910327732563,-0.6226738095283508,0.0749259665608406,0.0525978505611419,0.0,0.0,-0.0136137604713439,0.2395610809326172
-0.0020315169822424,0.3472737669944763,0.0858470201492309,-0.6391855478286743,0.0778352692723274,0.0581859648227691,0.0,0.0,0.7372809648513794,0.4142460823059082
-0.0012589454418048,0.333697646856308,0.0743057578802108,-0.6035387516021729,0.0807503685355186,0.0583021827042102,0.0,0.0,0.6775248050689697,0.5742342472076416
-0.000590705894865,0.3208858370780945,0.0650200322270393,-0.5695123672485352,0.0825417041778564,0.0358267724514007,0.0,0.0,-0.0429608225822448,0.2679328918457031
7.944107346702367e-05,0.307702898979187,0.0649684965610504,-0.5860236883163452,0.0845720469951629,0.0406069383025169,0.0,0.0,0.7802385091781616,0.8223114013671875
0.0006237030029296,0.2951087951660156,0.0540667288005352,-0.5597545504570007,0.0849245488643646,0.0070498688146471,0.0,0.0,-0.1850184202194214,0.743128776550293
0.0012136459117755,0.2821475267410278,0.0595505647361278,-0.5760266184806824,0.0843775048851966,-0.0109409755095839,0.0,0.0,0.9200587272644044,0.5800777673721313
0.0019111633300781,0.2700890898704529,0.0709018036723136,-0.5358668565750122,0.0832358375191688,-0.0228333827108144,0.0,0.0,0.6621025800704956,0.2927389144897461
0.0026408196426928,0.2582219243049621,0.0736502930521965,-0.5273904204368591,0.0825608745217323,-0.0134993847459554,0.0,0.0,0.8731179237365723,-0.4517282247543335
0.00346460333094,0.2472969591617584,0.0821195989847183,-0.4855711162090301,0.0828128457069397,0.0050396271981298,0.0,0.0,0.761709451675415,-0.7529904842376709
0.0041349409148097,0.2372331023216247,0.0651768893003463,-0.4473832249641418,0.0846583023667335,0.03690917044878,0.0,0.0,0.3460931777954101,-0.1299665570259094
0.0048636435531079,0.2278534471988678,0.0703265443444252,-0.417021095752716,0.0871776416897773,0.0503868386149406,0.0,0.0,0.5968468189239502,-0.7390664219856262
0.0055674551986157,0.218942791223526,0.0660688653588295,-0.3962871432304382,0.0914450213313102,0.0853475034236908,0.0,0.0,0.4921274185180664,-0.2680036425590515
0.0061985016800463,0.210761621594429,0.0587293580174446,-0.3638820052146911,0.0957880765199661,0.086860790848732,0.0,0.0,0.2889024019241333,-0.8039690256118774
0.0067616463638842,0.2031325697898864,0.0501733720302581,-0.3394771516323089,0.1018793433904647,0.1218252331018447,0.0,0.0,0.099662184715271,0.6947920322418213
0.0074103353545069,0.19560207426548,0.0599898286163806,-0.3350275456905365,0.1067248061299324,0.096909187734127,0.0,0.0,0.6630748510360718,-0.3554659485816955
0.0078713418915867,0.1886091530323028,0.0417307838797569,-0.3111152648925781,0.1110614091157913,0.0867321342229843,0.0,0.0,0.5143028497695923,0.9611823558807372
0.0082237245514988,0.1819362491369247,0.0328881703317165,-0.2967511117458343,0.1133918762207031,0.0466092675924301,0.0,0.0,0.7063131332397461,0.278314471244812
0.0084889410063624,0.1757559329271316,0.0242535360157489,-0.2748562395572662,0.1156508699059486,0.0451796501874923,0.0,0.0,0.4617033004760742,0.8207839727401733
0.008790778927505,0.1699215322732925,0.029509225860238,-0.2593566179275512,0.1163251847028732,0.0134862540289759,0.0,0.0,0.2430213689804077,0.0163004398345947
0.0091597558930516,0.1641359627246856,0.0357506163418293,-0.2572266161441803,0.1174569427967071,0.0226353090256452,0.0,0.0,0.364234447479248,-0.0865192413330078
0.0095431329682469,0.1588342040777206,0.036843653768301,-0.2357545644044876,0.1189501136541366,0.0298632383346557,0.0,0.0,-0.2685889005661011,-0.6690454483032227
0.0098765371367335,0.1531582921743393,0.0305716153234243,-0.2524841725826263,0.1216958910226821,0.0549158751964569,0.0,0.0,-0.1005563139915466,0.3251513242721557
0.0102105140686035,0.1471109539270401,0.0306835267692804,-0.2689938545227051,0.1244041472673416,0.0541651062667369,0.0,0.0,0.7917819023132324,0.4980179071426391
