x_pos,y_pos,x_vel,y_vel,angle,ang_vel,leg_1,leg_2,main_booster,lat_booster
-0.0015078544383868,1.4031832218170166,-0.1527486741542816,-0.3438632786273956,0.0017581953434273,0.0346815027296543,0.0,0.0,0.9794414024445616,-0.8820174112430663
-0.0030004500877112,1.3958529233932495,-0.1529003679752349,-0.325797438621521,0.0053637013770639,0.0721175596117973,0.0,0.0,-0.1245848093839607,0.7594968868101837
-0.0044009210541844,1.388075828552246,-0.1418368965387344,-0.3456540405750274,0.0071336906403303,0.0354030057787895,0.0,0.0,-0.5457621987707368,0.8362909253449773
-0.005727672483772,1.379855394363403,-0.1331217586994171,-0.3653570711612701,0.0075793033465743,0.0089131407439708,0.0,0.0,0.1225566676381557,-0.9319974344361244
-0.0070049287751317,1.371861457824707,-0.1300840377807617,-0.3552970290184021,0.0098990388214588,0.0463992543518543,0.0,0.0,-0.0688041489448278,0.9273246352426792
-0.0081684114411473,1.3634262084960938,-0.1164161562919616,-0.3749008476734161,0.0099708316847682,0.0014362718211486,0.0,0.0,-0.1048816522982252,-0.6827904577126824
-0.0093612670898437,1.3545489311218262,-0.1207915991544723,-0.3945575058460235,0.0114539479836821,0.0296650286763906,0.0,0.0,0.7633484709281046,0.5870107043696102
-0.0103169437497854,1.346271514892578,-0.0963804498314857,-0.367891788482666,0.0122546097263693,0.0160148199647665,0.0,0.0,-0.0850632865484002,0.5040090658668276
-0.011204051785171,1.3375587463378906,-0.0885345265269279,-0.3872300386428833,0.0120874531567096,-0.0033434987999498,0.0,0.0,-0.3976901721160817,0.6592977216218021
-0.0120076183229684,1.328410029411316,-0.0788784474134445,-0.4066037535667419,0.0106278015300631,-0.0291956309229135,0.0,0.0,-0.0782153314651965,0.7077046132577236
-0.0127139091491699,1.3188214302062988,-0.0675472468137741,-0.4261377453804016,0.0075787147507071,-0.060987364500761,0.0,0.0,0.6442585293379612,0.6666772631822613
-0.0132596967741847,1.3095804452896118,-0.0503557994961738,-0.4106934368610382,0.003401082009077,-0.0835601761937141,0.0,0.0,0.5396536850473976,0.615172744695031
-0.0135900499299168,1.3008801937103271,-0.0279100630432367,-0.3866740465164184,-0.0016706367023289,-0.1014438420534133,0.0,0.0,-0.8091366789478134,0.8911087459132161
-0.0138031961396336,1.2917306423187256,-0.0141992317512631,-0.4066737294197082,-0.0086960075423121,-0.1405200660228729,0.0,0.0,-0.3914049708459037,-0.8259297751747317
-0.0140252113342285,1.2821495532989502,-0.0163864195346832,-0.4258702993392944,-0.0144488401710987,-0.1150670275092125,0.0,0.0,-0.2140330220109294,-0.8111560845998849
-0.0142570491880178,1.2721190452575684,-0.0187238082289695,-0.4458469152450561,-0.0188696440309286,-0.0884239301085472,0.0,0.0,0.8391809532044303,-0.8472450670084417
-0.0143248559907078,1.26308274269104,-0.0043603172525763,-0.4016505181789398,-0.0212559793144464,-0.0477309301495552,0.0,0.0,0.457195646107069,0.5894692698079746
-0.0141565324738621,1.254089593887329,0.0200982242822647,-0.3997433483600616,-0.0244848188012838,-0.0645828694105148,0.0,0.0,-0.8262962147924033,-0.6829658070033332
-0.0139856338500976,1.2446634769439695,0.0191865246742963,-0.4189767837524414,-0.0265583395957946,-0.041473813354969,0.0,0.0,0.871398812979518,-0.6900390924312199
-0.0139015195891261,1.2357630729675293,0.00935267098248,-0.3955873250961303,-0.0274891834706068,-0.0186184719204902,0.0,0.0,0.3351020648963732,0.8338762187963668
-0.0135667799040675,1.2273309230804443,0.035948310047388,-0.3748092353343963,-0.0299302209168672,-0.0488256774842739,0.0,0.0,-0.7346652973273449,-0.8658965405770924
-0.0132465362548828,1.2184555530548096,0.0327661745250225,-0.3944762945175171,-0.0306683517992496,-0.0147638041526079,0.0,0.0,0.9151749374850904,0.9950304657145078
-0.0126069067046046,1.210072636604309,0.0664241462945938,-0.3726278245449066,-0.0330970622599124,-0.0485786832869052,0.0,0.0,0.5014503379263766,0.8264727400301606
-0.0117658618837594,1.201657772064209,0.0880960822105407,-0.3740902841091156,-0.0370507091283798,-0.0790801867842674,0.0,0.0,0.1290138714201043,-0.7971870821613902
-0.0110261915251612,1.1934728622436523,0.0764258354902267,-0.3638359010219574,-0.0394799411296844,-0.0485889017581939,0.0,0.0,-0.5680450052957493,-0.6046112375284078
-0.0102877616882324,1.184831976890564,0.074781484901905,-0.3840652108192444,-0.0404020883142948,-0.0184429679065942,0.0,0.0,-0.0839762483699353,0.536150375283353
-0.0094464300200343,1.175750732421875,0.0861336439847946,-0.4036720395088196,-0.0423843823373317,-0.0396458394825458,0.0,0.0,0.080355336035562,0.5706021607196756
-0.0085706710815429,1.167046070098877,0.0908616930246353,-0.3869699835777282,-0.0456375032663345,-0.0650622770190239,0.0,0.0,0.892320992422873,0.7814935829497549
-0.0076925279572606,1.15924334526062,0.0930343195796012,-0.3469616770744324,-0.0507867857813835,-0.1029856577515602,0.0,0.0,-0.2754076538745933,-0.8536915543919913
-0.0068201064132153,1.1510015726089478,0.0906538441777229,-0.3664209544658661,-0.054166842252016,-0.0676011219620704,0.0,0.0,0.3375884723887377,-0.5497659483284788
-0.0058721541427075,1.1433535814285278,0.0970658957958221,-0.3399898409843445,-0.0564040727913379,-0.0447448417544364,0.0,0.0,-0.5485811829566956,-0.9784687161445618
-0.0049451827071607,1.1352661848068235,0.0927279219031333,-0.3594425320625305,-0.056432444602251,-0.0005675705033354,0.0,0.0,-0.7410122156143188,-0.8720880746841431
-0.0040285112336277,1.126752257347107,0.0896802097558975,-0.378320038318634,-0.0544748529791832,0.0391519740223884,0.0,0.0,-0.9182504415512084,-0.6075217723846436
-0.0030963898170739,1.1177960634231567,0.0898629277944564,-0.3979343473911285,-0.0511709712445735,0.066077783703804,0.0,0.0,-0.8834125995635986,-0.8825500011444092
-0.0021623610518872,1.1084059476852417,0.088324099779129,-0.4171740412712097,-0.0461480319499969,0.1004586368799209,0.0,0.0,-0.8915867209434509,-0.6961807012557983
-0.0012107848888263,1.0985839366912842,0.0887155160307884,-0.4363495409488678,-0.0397713333368301,0.1275337636470794,0.0,0.0,-0.8853216171264648,-0.4757544994354248
-0.0001873016299214,1.088321089744568,0.0958850234746933,-0.4559641182422638,-0.0333854258060455,0.1277181804180145,0.0,0.0,-0.9235891103744508,-0.6016879081726074
0.0008644104236736,1.0776245594024658,0.0975642874836921,-0.4752484261989593,-0.025868996977806,0.1503286063671112,0.0,0.0,-0.8548017144203186,-0.3840416669845581
0.0019897460006177,1.0664877891540527,0.1049152165651321,-0.4948643743991852,-0.0183441005647182,0.150497704744339,0.0,0.0,-0.7407328486442566,-0.4841575622558594
0.0031896592117846,1.0549101829528809,0.1123502701520919,-0.5144803524017334,-0.0108111426234245,0.1506595313549041,0.0,0.0,-0.868960440158844,-0.3667739629745483
0.0044647217728197,1.0428922176361084,0.119865134358406,-0.5340964198112488,-0.0032704186160117,0.1508143842220306,0.0,0.0,-0.5333377122879028,-0.7907618880271912
0.0057659149169921,1.0304323434829712,0.1212127357721328,-0.5537782907485962,0.005527866538614,0.1759653687477111,0.0,0.0,-0.9283397793769836,-0.6758874654769897
0.0070990561507642,1.017524480819702,0.123248852789402,-0.5737488269805908,0.0154605060815811,0.1986531764268875,0.0,0.0,-0.7772759795188904,-0.4283028841018677
0.0085095409303903,1.0041768550872805,0.1309777200222015,-0.593368411064148,0.0253999084234237,0.1987881362438202,0.0,0.0,-0.8669528365135193,-0.9309473037719728
0.0099195484071969,0.9903755784034728,0.1289239078760147,-0.6136455535888672,0.0373232625424861,0.238467127084732,0.0,0.0,-0.6727784276008606,-0.226870059967041
0.0114080430939793,0.9761348366737366,0.1367752999067306,-0.6332687139511108,0.049252763390541,0.2385902404785156,0.0,0.0,-0.9126818776130676,0.1076370477676391
0.0129755977541208,0.9614548087120056,0.1446820497512817,-0.6528918743133545,0.0611881874501705,0.2387085855007171,0.0,0.0,-0.6486028432846069,-0.261178970336914
0.0146225932985544,0.9463354349136353,0.1526403129100799,-0.6725149750709534,0.0731293410062789,0.2388227432966232,0.0,0.0,-0.7712039947509766,-0.8096716403961182
0.0162714011967182,0.9307754635810852,0.1508270800113678,-0.6922991871833801,0.0870415791869163,0.2782447934150696,0.0,0.0,-0.5999636054039001,-0.0598440170288085
0.0180006027221679,0.9147769212722778,0.1588775962591171,-0.7119265794754028,0.1009590923786163,0.2783505916595459,0.0,0.0,-0.4552459716796875,-0.1873303651809692
0.0198104865849018,0.8983396291732788,0.1669686138629913,-0.7315539717674255,0.1148817688226699,0.2784537672996521,0.0,0.0,-0.0082188844680786,0.4980496168136596
0.021701430901885,0.8814635872840881,0.1750965267419815,-0.7511813640594482,0.1288095265626907,0.2785549461841583,0.0,0.0,0.1600664854049682,0.0533744096755981
0.0237098690122365,0.8646280169487,0.1865048110485077,-0.7495437860488892,0.143097311258316,0.2857557535171509,0.0,0.0,0.2109631299972534,0.0822919607162475
0.0257188789546489,0.8482226729393005,0.1865809261798858,-0.7305702567100525,0.157400831580162,0.2860704064369201,0.0,0.0,0.1886544227600097,-0.0621731877326965
0.0278609283268451,0.8319236636161804,0.1993927806615829,-0.726033627986908,0.1722051352262497,0.2960861027240753,0.0,0.0,-0.1728540658950805,-0.1238727569580078
0.0300849918276071,0.8151862621307373,0.2076338082551956,-0.7456631064414978,0.1870143413543701,0.2961841523647308,0.0,0.0,0.5410420894622803,0.5331854820251465
0.0323863998055458,0.7991487979888916,0.2162433564662933,-0.7145870327949524,0.2009938359260559,0.2795903384685516,0.0,0.0,0.2053209543228149,0.6135149002075195
0.0348286628723144,0.7834460735321045,0.2314076721668243,-0.6996889114379883,0.2139269113540649,0.2586614787578583,0.0,0.0,0.1512584686279297,0.8911205530166626
0.037358570843935,0.7681956887245178,0.241961121559143,-0.6794278025627136,0.2250833511352539,0.2231284826993942,0.0,0.0,-0.5438912510871887,0.9142172336578368
0.0400314331054687,0.7525344491004944,0.2578721642494201,-0.6975229978561401,0.23462975025177,0.1909278333187103,0.0,0.0,-0.2073292732238769,0.3060641288757324
0.0427871719002723,0.736433207988739,0.2661734223365783,-0.7171418070793152,0.2441815733909607,0.1910364478826522,0.0,0.0,-0.664898157119751,0.6717996597290039
0.0456680282950401,0.7199110388755798,0.279818445444107,-0.7357134222984314,0.2526052296161651,0.168473333120346,0.0,0.0,-0.883582592010498,0.6451296806335449
0.0486915595829486,0.7029697895050049,0.2956251502037048,-0.7541139721870422,0.2594644427299499,0.1371840834617614,0.0,0.0,-0.9292316436767578,0.206234335899353
0.051797866821289,0.6855880618095398,0.3039214313030243,-0.7737290859222412,0.2663294672966003,0.1373002231121063,0.0,0.0,-0.8006295561790466,-0.5165768265724182
0.0549489967525005,0.6677461862564087,0.3073896765708923,-0.7943969368934631,0.2742364108562469,0.1581384390592575,0.0,0.0,-0.5942590832710266,0.4555704593658447
0.0581827163696289,0.649463951587677,0.3156661987304687,-0.8140133023262024,0.2821494340896606,0.1582603305578231,0.0,0.0,0.4375231266021728,0.7213053703308105
0.0613645538687706,0.6318543553352356,0.3118802905082702,-0.7838822603225708,0.2886309325695038,0.1296303868293762,0.0,0.0,-0.7382267117500305,-0.1773298978805542
0.0646286979317665,0.613804042339325,0.3201208710670471,-0.8034970760345459,0.2951189577579498,0.129760205745697,0.0,0.0,0.095115065574646,0.4677150249481201
0.067827507853508,0.5961329936981201,0.3135153651237488,-0.7866870760917664,0.3016965389251709,0.1315515339374542,0.0,0.0,0.565079927444458,0.2367732524871826
0.0708897560834884,0.5786237120628357,0.3002686500549316,-0.7794407606124878,0.3078686892986297,0.1234422773122787,0.0,0.0,0.6990892887115479,0.8698499202728271
0.0737872123718261,0.5616558790206909,0.2856562733650207,-0.754997968673706,0.312105655670166,0.0847394168376922,0.0,0.0,0.4206440448760986,0.4034348726272583
0.076626680791378,0.5450232625007629,0.2797455191612243,-0.7401410341262817,0.3164723515510559,0.0873346999287605,0.0,0.0,0.450664758682251,0.6571913957595825
0.0792457610368728,0.5289797186851501,0.2592305839061737,-0.7136332392692566,0.3192619681358337,0.0557924024760723,0.0,0.0,0.7230637073516846,0.8835670948028564
0.0819031745195388,0.5134255886077881,0.2646512687206268,-0.6915332674980164,0.3203911185264587,0.0225829202681779,0.0,0.0,0.2959262132644653,-0.0291802883148193
0.0845188125967979,0.4978545606136322,0.2605814039707184,-0.6922633051872253,0.3214060962200165,0.020299632102251,0.0,0.0,0.7316193580627441,-0.194934070110321
0.0871737450361251,0.4823609590530395,0.2641923427581787,-0.6888933181762695,0.3227591812610626,0.0270616915076971,0.0,0.0,0.6393699645996094,-0.5088035464286804
0.0897319763898849,0.4668655395507812,0.2536027729511261,-0.689181387424469,0.3250746726989746,0.0463098064064979,0.0,0.0,0.9498478174209596,0.6225793361663818
0.0921045318245887,0.4522833824157715,0.2362768650054931,-0.6483170390129089,0.3260934948921203,0.0203763786703348,0.0,0.0,0.850009560585022,0.6740336418151855
0.0944021195173263,0.4386362433433532,0.2298805713653564,-0.6065102219581604,0.3259690701961517,-0.002488671336323,0.0,0.0,0.7650619745254517,0.7388126850128174
0.0964262038469314,0.4257609844207763,0.2042436152696609,-0.5718247294425964,0.3240636885166168,-0.0381073579192161,0.0,0.0,0.6738477945327759,0.7455649375915527
0.0983403176069259,0.4128739535808563,0.1949516087770462,-0.5719707608222961,0.3203751146793365,-0.0737713053822517,0.0,0.0,0.9040406942367554,0.4647825956344604
0.1000863090157508,0.4008647203445434,0.177937775850296,-0.5330075621604919,0.3169120848178863,-0.0692613720893859,0.0,0.0,0.7376468181610107,0.9739230871200562
0.1016768440604209,0.3892573416233063,0.1644413471221923,-0.5147174596786499,0.3113146126270294,-0.1119496449828147,0.0,0.0,0.9391043186187744,0.9978764057159424
0.1031020134687423,0.378352403640747,0.1499908119440078,-0.483077734708786,0.3035776615142822,-0.1547391861677169,0.0,0.0,0.9629027843475342,0.9844924211502076
0.1044081673026084,0.3682290315628052,0.140058159828186,-0.4479853510856628,0.2938170135021209,-0.1952130645513534,0.0,0.0,0.9964227676391602,0.5599071979522705
0.1057297736406326,0.3587430417537689,0.1424252539873123,-0.4195700883865356,0.2832526862621307,-0.2112873792648315,0.0,0.0,0.993160367012024,-0.7703233361244202
0.1069777458906173,0.3493919968605041,0.1334688514471054,-0.4139427840709686,0.2743422091007232,-0.1782087981700897,0.0,0.0,0.9815151691436768,0.4158116579055786
0.1082693114876747,0.3403431475162506,0.1373349279165268,-0.4006544053554535,0.2659592032432556,-0.1676599085330963,0.0,0.0,0.9906893968582152,-0.4102881550788879
0.1096167564392089,0.3319197297096252,0.1421396881341934,-0.373052179813385,0.2584095299243927,-0.1509934961795807,0.0,0.0,0.9534225463867188,-0.7768523097038269
0.111024186015129,0.3237713277339935,0.1461993753910064,-0.3612027764320373,0.2528491616249084,-0.111207976937294,0.0,0.0,0.9276714324951172,-0.844044029712677
0.112202450633049,0.3164332211017608,0.1216095313429832,-0.325489193201065,0.248989388346672,-0.0771953836083412,0.0,0.0,0.7748246192932129,-0.5711924433708191
0.1132307052612304,0.3098394274711609,0.1053685322403907,-0.2926283776760101,0.2463894784450531,-0.0519980117678642,0.0,0.0,0.7234816551208496,-0.6799395680427551
0.114232063293457,0.3038511574268341,0.1010241881012916,-0.2659969627857208,0.2454935163259506,-0.0179196037352085,0.0,0.0,0.5737700462341309,-0.2377945184707641
0.1153077110648155,0.2979092597961426,0.1079915016889572,-0.2640160918235779,0.2450585514307022,-0.0086991991847753,0.0,0.0,0.7722518444061279,-0.5894615650177002
0.1162017807364463,0.2922804653644562,0.0887956321239471,-0.25026935338974,0.2456759959459304,0.0123490551486611,0.0,0.0,0.3062911033630371,-0.5492830872535706
0.1170095428824424,0.2872202396392822,0.078917346894741,-0.2252107262611389,0.2475690692663192,0.0378613211214542,0.0,0.0,0.240180492401123,-0.2179602980613708
0.1177451163530349,0.2823337614536285,0.0717588812112808,-0.2174817472696304,0.249400332570076,0.0366252176463604,0.0,0.0,0.516362190246582,0.0634748935699462
0.1182366386055946,0.2780251502990722,0.0478518493473529,-0.1917150467634201,0.2507233619689941,0.0264603700488805,0.0,0.0,-0.2789341807365417,0.0205901861190795
0.1187721267342567,0.2732753455638885,0.0522337481379509,-0.2113268226385116,0.2520673274993896,0.0268796030431985,0.0,0.0,0.2062503099441528,-0.4896671175956726
0.1191742867231369,0.2688654959201813,0.039054300636053,-0.1961928308010101,0.2532523572444916,0.0237006209790706,0.0,0.0,0.4834247827529907,0.3105782270431518
0.1193741783499717,0.2649629116058349,0.0191383697092533,-0.1735946089029312,0.2541165649890899,0.0172839891165494,0.0,0.0,-0.4895355105400085,0.5849735736846924
0.1196520775556564,0.2606339752674103,0.0280239544808864,-0.1923565417528152,0.253872275352478,-0.0048858178779482,0.0,0.0,0.498875617980957,0.3772828578948974
0.1197219863533973,0.2566161751747131,0.0076842894777655,-0.1784487515687942,0.2531629502773285,-0.0141865964978933,0.0,0.0,0.2301101684570312,0.7878913879394531
0.1196591407060623,0.2526973485946655,-0.0039273304864764,-0.1737705618143081,0.2507674992084503,-0.0479087606072425,0.0,0.0,-0.3768817186355591,0.2523753643035888
0.1196208000183105,0.2483372986316681,-0.0015071218367666,-0.1933827549219131,0.2483982741832733,-0.0473841689527034,0.0,0.0,0.531180739402771,0.1946896314620971
0.1195742636919021,0.2440543472766876,-0.002611328382045,-0.1900087893009185,0.2463190704584121,-0.0415844693779945,0.0,0.0,-0.1153731942176818,0.2411884069442749
0.1195446997880935,0.239330306649208,-0.0009442881564609,-0.2096209228038787,0.2442675977945327,-0.041029255837202,0.0,0.0,0.5290622711181641,0.831710934638977
0.1193939223885536,0.2352324575185775,-0.01139313634485,-0.1815183609724044,0.2405250072479248,-0.074852168560028,0.0,0.0,0.046161413192749,0.218290090560913
0.1192111000418663,0.2315142750740051,-0.0150411650538444,-0.1647293418645858,0.2372293919324875,-0.0659124329686164,0.0,0.0,0.648201584815979,0.905754804611206
0.1190495491027832,0.228253424167633,-0.011256743222475,-0.1441442370414734,0.2322563529014587,-0.0994607657194137,0.0,0.0,0.3744028806686401,0.5598495006561279
0.1187682151794433,0.2255617678165435,-0.0221274234354496,-0.1186940521001815,0.2261656671762466,-0.1218133717775344,0.0,0.0,-0.2377026677131652,0.8359549045562744
0.1185529679059982,0.2224611341953277,-0.013690173625946,-0.1366234868764877,0.2182454615831375,-0.1584042161703109,0.0,0.0,-0.3396088480949402,0.6976007223129272
0.1183916106820106,0.2189372181892395,-0.0067501128651201,-0.1552573144435882,0.2087664008140564,-0.1895817965269088,0.0,0.0,-0.2806764245033264,0.6978486776351929
0.1182611435651779,0.2149883657693863,-0.0025620642118155,-0.1740612685680389,0.1981990486383438,-0.2113474309444427,0.0,0.0,-0.509013295173645,-0.0656542778015136
0.1181145682930946,0.2105997651815414,-0.004180203191936,-0.1936821341514587,0.1876628696918487,-0.2107235938310623,0.0,0.0,-0.1344985961914062,-0.0242620110511779
0.1179477721452713,0.2057714313268661,-0.006214995868504,-0.2133029252290725,0.1771578937768936,-0.2100994139909744,0.0,0.0,0.0855964422225952,-0.3879164457321167
0.117711640894413,0.2010254263877868,-0.0132373524829745,-0.2097301036119461,0.1667629778385162,-0.2078984677791595,0.0,0.0,-0.4069662690162658,-0.2018033862113952
0.117447093129158,0.1958396732807159,-0.0160905234515666,-0.2293506413698196,0.1563989967107772,-0.2072795927524566,0.0,0.0,0.0407805442810058,-0.7131932973861694
0.1170969009399414,0.1908585578203201,-0.0261658430099487,-0.220473974943161,0.1475441753864288,-0.1770965754985809,0.0,0.0,0.2845238447189331,-0.6482435464859009
0.1165882125496864,0.1863673329353332,-0.0433513298630714,-0.1988848149776458,0.1400488764047622,-0.1499057710170745,0.0,0.0,0.3211789131164551,-0.5119995474815369
0.1160198226571083,0.1818034946918487,-0.0504983775317668,-0.2022543847560882,0.1337369084358215,-0.1262393295764923,0.0,0.0,0.0509004592895507,-0.4003594517707824
0.1154173836112022,0.1773952394723892,-0.0542257726192474,-0.1953948438167572,0.1277428716421127,-0.1198808327317237,0.0,0.0,0.1193056106567382,-0.5270575284957886
