x_pos,y_pos,x_vel,y_vel,angle,ang_vel,leg_1,leg_2,main_booster,lat_booster
-0.0015397071838378,1.4035168886184692,-0.1559706926345825,-0.3290314376354217,0.0017964283470064,0.0354383662343025,0.0,0.0,0.8203916391958563,0.7662392867149634
-0.0029744147323071,1.3967881202697754,-0.1438741981983184,-0.2990505397319793,0.0021908949129283,0.0078908689320087,0.0,0.0,-0.2021279637955975,-0.1158625606914507
-0.0044263838790357,1.3899513483047483,-0.1456082314252853,-0.3038601279258728,0.0025982414372265,0.0081476597115397,0.0,0.0,-0.0713386143053274,-0.0693948680308216
-0.0058960914611816,1.383006930351257,-0.1473994255065918,-0.308642029762268,0.0030180781614035,0.0083974944427609,0.0,0.0,0.1199861509867072,0.1294214835646873
-0.0072980881668627,1.376618504524231,-0.1410587430000305,-0.2839349806308746,0.0038688695058226,0.0170175172388553,0.0,0.0,-0.4241333310156714,-0.4332061943520141
-0.0087189674377441,1.370122313499451,-0.1429626196622848,-0.2887212634086609,0.0047312402166426,0.0172486864030361,0.0,0.0,-0.7808215961757254,0.678052238328945
-0.0101079940795898,1.3635190725326538,-0.1384762674570083,-0.2934793531894684,0.0043130428530275,-0.0083644185215234,0.0,0.0,-0.9701664297181484,0.0091371207911847
-0.0115169528871774,1.3568081855773926,-0.1404825299978256,-0.2982602715492248,0.0039064441807568,-0.0081328321248292,0.0,0.0,0.1302323077692231,-0.0515442712502961
-0.0129568101838231,1.3508483171463013,-0.1435496211051941,-0.2648786008358001,0.0034705875441432,-0.0087179224938154,0.0,0.0,-0.1585673946253201,-0.7988872405848855
-0.0144806858152151,1.344785451889038,-0.1535636782646179,-0.2694633603096008,0.0046290610916912,0.0231715813279151,0.0,0.0,0.0920080789927177,-0.3521885334473319
-0.0159709937870502,1.3392049074172974,-0.1504811197519302,-0.2480295300483703,0.0060656536370515,0.0287345740944147,0.0,0.0,-0.7528359875794577,-0.8937353636986457
-0.0175455100834369,1.3335143327713013,-0.1604907810688018,-0.2529290616512298,0.0090739140287041,0.0601705312728881,0.0,0.0,-0.9579855022463608,0.5314983284139584
-0.0190916061401367,1.327719807624817,-0.1563598066568374,-0.2575490772724151,0.0108067691326141,0.0346604064106941,0.0,0.0,-0.3188587697663874,-0.9985384115180476
-0.0207303054630756,1.3218073844909668,-0.1674005538225174,-0.2628069519996643,0.0143000828102231,0.0698725134134292,0.0,0.0,-0.9724054372263008,0.3606225658357932
-0.0223924629390239,1.315787434577942,-0.1697488725185394,-0.2675891816616058,0.0177968591451644,0.0699417963624,0.0,0.0,-0.676193460405226,-0.0146742840165166
-0.0240784641355276,1.3096601963043213,-0.1721377670764923,-0.2723714113235473,0.0212973542511463,0.0700164288282394,0.0,0.0,-0.3449314211211614,0.6091079727858232
-0.025729751214385,1.3034343719482422,-0.1671668589115142,-0.2767333388328552,0.0233142673969268,0.0403418131172657,0.0,0.0,-0.2612054587495993,-0.0734687962809006
-0.0274055488407611,1.2971010208129885,-0.1696282923221588,-0.2815151214599609,0.0253329388797283,0.0403772257268428,0.0,0.0,0.8079224241094349,0.7677205903993345
-0.0289521217346191,1.2919913530349731,-0.1554076522588729,-0.2271109670400619,0.0260777119547128,0.0148968398571014,0.0,0.0,0.3816700365348962,0.1007366323161997
-0.0306037906557321,0.0,-0.1655937433242797,-0.2004701495170593,0.0265062544494867,0.0085714338347315,0.0,0.0,0.9262304049311773,0.1527633804663726
-0.0321555137634277,1.2841832637786863,-0.1563072204589843,-0.1465801894664764,0.0276260841637849,0.0223986022174358,0.0,0.0,-0.0329298460308913,-0.4979711609191036
-0.0337331779301166,1.280778169631958,-0.1589019745588302,-0.1513691544532776,0.0287408977746963,0.0222983099520206,0.0,0.0,-0.0373163595454726,0.3214678427228518
-0.0353372581303119,1.277265191078186,-0.1615265905857086,-0.1561460047960281,0.0298502016812562,0.0221881065517663,0.0,0.0,-0.2068731282340061,-0.9635162494964894
-0.0370349884033203,1.2736310958862305,-0.1726066917181015,-0.1615717709064483,0.0326467938721179,0.0559369809925556,0.0,0.0,-0.8778225043091983,-0.450474611521898
-0.038759708404541,1.2698895931243896,-0.1752915680408477,-0.1663540303707122,0.0354334861040115,0.0557388290762901,0.0,0.0,-0.3618588263646511,-0.3536065273850577
-0.0405110344290733,1.2660192251205444,-0.1779498159885406,-0.1720894873142242,0.0382099412381649,0.0555292144417762,0.0,0.0,0.0423058821835851,-0.3679787058478359
-0.0423048958182334,1.2627284526824951,-0.1821953356266021,-0.1463319808244705,0.04098517075181,0.0555045306682586,0.0,0.0,0.1973827881503618,-0.5105629861659609
-0.0442948341369628,1.260223150253296,-0.2025905847549438,-0.1114497259259224,0.044543270021677,0.071162149310112,0.0,0.0,-0.1707434178453799,0.4003179544761518
-0.0463125221431255,1.2576104402542114,-0.2053591758012771,-0.1162299886345863,0.0480851344764232,0.0708377063274383,0.0,0.0,-0.1414911991270042,-0.748366163850656
-999.0,1.2548832893371582,-0.2158192098140716,-0.1213818565011024,0.0531502626836299,0.1013025194406509,0.0,0.0,-0.6938227378291029,0.5167609747800795
-0.0505127906799316,1.2520579099655151,-0.2133619338274002,-0.1257171034812927,0.0571337193250656,0.0796688646078109,0.0,0.0,-0.9834067225456238,0.9820194244384766
-0.0525667183101177,1.2491252422332764,-0.2076846361160278,-0.1304285526275634,0.0593941211700439,0.0452081449329853,0.0,0.0,-0.9410001039505004,0.9163591861724854
-0.0545871742069721,1.2460992336273191,-0.202717587351799,-0.1345155239105224,0.0600545555353164,0.0132086453959345,0.0,0.0,-0.9865041375160216,0.8919060230255127
-0.0565731041133403,1.2429633140563965,-0.1976315230131149,-0.1393373012542724,0.0591031201183795,-0.0190286003053188,0.0,0.0,-0.9592307806015016,0.7962980270385742
-0.0585234649479389,1.2397271394729614,-0.1923945248126983,-0.1437230259180069,0.0564952902495861,-0.0521566644310951,0.0,0.0,-0.9331214427947998,0.8391493558883667
-0.0604347214102745,1.2363958358764648,-0.1867212653160095,-0.1479004770517349,0.0521353185176849,-0.0871994867920875,0.0,0.0,-0.9716404676437378,0.7185966968536377
-0.0623208060860633,1.2329578399658203,-0.1827765554189682,-0.1526073664426803,0.0463760718703269,-0.1151851862668991,0.0,0.0,-0.9200620055198668,0.4225380420684814
-0.0642361640930175,1.2294127941131592,-0.1856679767370224,-0.1573892533779144,0.0405825525522232,-0.1158705577254295,0.0,0.0,-0.9544731378555298,0.6775527000427246
-0.066131018102169,1.225771188735962,-0.1823030859231948,-0.1616668403148651,0.0334917716681957,-0.141815647482872,0.0,0.0,-0.9632219672203064,-0.6287797093391418
-0.0681026428937912,1.2220211029052734,-0.1911553591489792,-0.1665475219488144,0.0275546722114086,-0.1187419518828392,0.0,0.0,-0.8838005661964417,0.12504243850708
-0.0701038390398025,1.2181639671325684,-0.1940630674362182,-0.1713296622037887,0.0215774271637201,-0.1195448637008667,0.0,0.0,-0.9347105026245116,0.0524462461471557
-0.0721344947814941,1.214199781417847,-0.1969734728336334,-0.1761118620634079,0.0155581282451748,-0.1203860640525817,0.0,0.0,-0.9232781529426576,-0.5483577251434326
-0.0742311477661132,1.2101213932037354,-0.2044447362422943,-0.1812109500169754,0.0104097593575716,-0.1029673814773559,0.0,0.0,-0.9914357662200928,0.853992223739624
-0.0762785896658897,1.2059355974197388,-0.197477713227272,-0.1860015094280243,0.0032373713329434,-0.1434477269649505,0.0,0.0,-0.99778014421463,0.107552170753479
-0.0783555954694747,1.2016431093215942,-0.2003878355026245,-0.1907850801944732,-0.0039826268330216,-0.1444001048803329,0.0,0.0,-0.9863818287849426,-0.6177644729614258
-0.0805073752999305,1.1972373723983765,-0.2089626491069793,-0.1958336979150772,-0.0101174255833029,-0.1226959228515625,0.0,0.0,-0.9944838881492616,0.4262864589691162
-0.0826887115836143,1.1927248239517212,-0.2118654996156692,-0.2006161659955978,-0.0163033902645111,-0.1237193346023559,0.0,0.0,-0.9977795481681824,-0.3751251101493835
-0.0848994255065918,1.1881053447723389,-0.2147624492645263,-0.2053987234830856,-0.0225422363728284,-0.124777041375637,0.0,0.0,-0.9973013401031494,0.6662229299545288
-0.0870985016226768,1.183383226394653,-0.2124863862991333,-0.2099975496530532,-0.029868284240365,-0.1465212404727935,0.0,0.0,-0.903755247592926,-0.473442018032074
-0.0893269553780555,1.1785542964935305,-0.2153669893741607,-0.2147814631462097,-0.0372505448758602,-0.14764504134655,0.0,0.0,-0.9965406060218812,-0.2425465583801269
-0.0915846824645996,1.1736187934875488,-0.2182369977235794,-0.2195654660463333,-0.0446905829012393,-0.1488007456064224,0.0,0.0,-0.9442716240882874,0.4272389411926269
-0.093871496617794,1.1685763597488403,-0.2210946977138519,-0.2243495881557464,-0.0521899610757827,-0.1499875485897064,0.0,0.0,-0.9889787435531616,-0.120671808719635
-0.0961873084306716,1.163427233695984,-0.2239384204149246,-0.2291338443756103,-0.0597501918673515,-0.1512046605348587,0.0,0.0,-0.9939157962799072,0.1569422483444214
-0.0985320061445236,1.158171534538269,-0.2267663180828094,-0.233918234705925,-0.0673727542161941,-0.1524512618780136,0.0,0.0,-0.993488311767578,0.5303077697753906
-0.1008533462882042,1.1528018712997437,-0.2230314463376999,-0.2390861362218856,-0.0763766095042228,-0.1800775080919265,0.0,0.0,-0.982573628425598,0.8797845840454102
-0.1031450256705284,1.147315502166748,-0.2185133248567581,-0.2444201111793518,-0.0869209095835685,-0.2108858078718185,0.0,0.0,-0.9683058261871338,0.5658254623413086
-0.1054129600524902,1.1417218446731567,-0.2147814482450485,-0.2493546456098556,-0.0988335162401199,-0.2382519245147705,0.0,0.0,-0.996519148349762,-0.7048941254615784
-0.1077514663338661,1.1360316276550293,-0.222878023982048,-0.2536647617816925,-0.1097296550869941,-0.2179226577281952,0.0,0.0,-0.9744882583618164,0.0387735366821289
-0.1101178154349327,1.1302355527877808,-0.2255981415510177,-0.2584545910358429,-0.1206948459148407,-0.219304084777832,0.0,0.0,-0.99752676486969,0.0776727199554443
-0.1125116348266601,1.1243336200714111,-0.2282901257276535,-0.2632445693016052,-0.1317303925752639,-0.2207105159759521,0.0,0.0,-0.9552159905433656,-0.8744257092475891
-0.1149960532784462,1.1183308362960815,-0.2388939410448074,-0.2676735818386078,-0.1412428021430969,-0.1902482211589813,0.0,0.0,-0.963807225227356,0.3252649307250976
-0.1175073608756065,1.1122217178344729,-0.2415215671062469,-0.2724612057209015,-0.1508279740810394,-0.1917031854391098,0.0,0.0,-0.9422295093536376,0.7117719650268555
-0.1199782341718673,1.1059894561767578,-0.2357093393802642,-0.2781814038753509,-0.1622038930654525,-0.2275185585021972,0.0,0.0,-0.9900546669960022,0.0473256111145019
-0.1224752441048622,1.099651575088501,-0.2382631599903106,-0.2829724252223968,-0.1736547946929931,-0.2290181219577789,0.0,0.0,-0.9857465624809264,0.3587757349014282
-0.1249978989362716,1.0932081937789917,-0.240775391459465,-0.2877636253833771,-0.1851817667484283,-0.2305395305156707,0.0,0.0,-0.8896685838699341,-0.6109346151351929
-0.1276029646396637,1.0866752862930298,-0.2504284679889679,-0.2916420996189117,-0.1953079551458358,-0.2025237083435058,0.0,0.0,-0.9512627720832824,-0.1150189638137817
-0.1302327215671539,1.0800364017486572,-0.2528474926948547,-0.2964310944080353,-0.2055123448371887,-0.2040877640247345,0.0,0.0,-0.9415258169174194,-0.8186886310577393
-0.1329428702592849,1.0732989311218262,-0.2622224986553192,-0.3006904423236847,-0.2143815010786056,-0.1773827224969864,0.0,0.0,-0.8743906617164612,0.3545444011688232
-0.135676771402359,1.066455364227295,-0.2645346522331238,-0.3054775893688202,-0.2233308404684066,-0.1789872348308563,0.0,0.0,-0.6333518624305725,0.1508345603942871
-0.1384339332580566,1.0595054626464844,-0.2667882442474365,-0.31026491522789,-0.2323613762855529,-0.1806109994649887,0.0,0.0,-0.6769567728042603,0.4079073667526245
-0.1412136107683181,1.052449345588684,-0.2689794600009918,-0.3150524497032165,-0.2414740473031997,-0.1822536289691925,0.0,0.0,-0.7435271143913269,-0.1438701748847961
-0.1440149247646331,1.0452868938446045,-0.2711042761802673,-0.319840133190155,-0.2506697475910187,-0.1839147061109542,0.0,0.0,-0.6161937117576599,0.2437775135040283
-0.1468376219272613,1.0380183458328247,-0.2731586098670959,-0.3246279954910278,-0.2599494457244873,-0.1855939030647277,0.0,0.0,-0.4965933561325073,-0.3417615890502929
-0.1496805250644683,1.0306435823440552,-0.2751381397247314,-0.3294160962104797,-0.2693139612674713,-0.1872908622026443,0.0,0.0,-0.8668542504310608,0.7510519027709961
-0.1524902284145355,1.02313494682312,-0.2703522443771362,-0.3357051908969879,-0.2802059948444366,-0.2178406715393066,0.0,0.0,-0.8600375652313232,0.2893745899200439
-0.1553186476230621,1.015520691871643,-0.2721700072288513,-0.3404960036277771,-0.2911845743656158,-0.2195717841386795,0.0,0.0,-0.8555706739425659,0.4662073850631714
-0.1581647843122482,1.007800817489624,-0.2738995254039764,-0.3452871143817901,-0.3022505640983581,-0.2213197946548462,0.0,0.0,-0.8026087284088135,0.8933708667755127
-0.1609598100185394,0.9999522566795348,-0.2670206725597381,-0.3514725267887115,-0.3151894509792328,-0.2587775588035583,0.0,0.0,-0.8151496648788452,0.6868724822998047
-0.1637109816074371,0.991977035999298,-0.2610693871974945,-0.3575754165649414,-0.3297968506813049,-0.292147696018219,0.0,0.0,-0.9073617458343506,0.2162505388259887
-0.1664766371250152,0.9838972091674804,-0.2625097334384918,-0.3623741269111633,-0.3444939851760864,-0.2939428091049194,0.0,0.0,-0.861781120300293,0.3736379146575928
-0.1692558228969574,0.9757131338119508,-0.2638432681560516,-0.3671730458736419,-0.3592816591262817,-0.2957537770271301,0.0,0.0,-0.8662060499191284,-0.2060618996620178
-0.1720473319292068,0.967424750328064,-0.2650653719902038,-0.3719722032546997,-0.3741606473922729,-0.2975802421569824,0.0,0.0,-0.8397604823112488,-0.4537321329116821
-0.1748497933149337,0.9590319395065308,-0.2661714553833008,-0.3767716288566589,-0.3891317248344421,-0.2994217574596405,0.0,0.0,-0.5407477617263794,-0.4651404619216919
-0.1776621788740158,0.950534999370575,-0.267157107591629,-0.3815712928771972,-0.4041956067085266,-0.3012779355049133,0.0,0.0,-0.509053111076355,-0.8344910740852356
-0.1805434226989746,0.9419764876365662,-0.275684505701065,-0.3839791715145111,-0.4175858497619629,-0.2678049504756927,0.0,0.0,-0.6223278045654297,0.5530450344085693
-0.1833868026733398,0.9332834482192992,-0.2706585228443146,-0.3904730081558227,-0.432384043931961,-0.2959637939929962,0.0,0.0,-0.59348064661026,-0.6986768841743469
-0.1862856894731521,0.9245125651359558,-0.2775068283081054,-0.3936866521835327,-0.4458899199962616,-0.2701174318790436,0.0,0.0,-0.1156812310218811,0.1045669317245483
-0.1891892403364181,0.915636956691742,-0.2779676914215088,-0.3984832465648651,-0.4594912827014923,-0.2720272541046142,0.0,0.0,-0.3500496745109558,-0.6959959268569946
-0.192133143544197,0.906683623790741,-0.2829817533493042,-0.4017415046691894,-0.4720886945724487,-0.251948207616806,0.0,0.0,0.3374195098876953,-0.6144931316375732
-0.1948677003383636,0.8979954123497009,-0.2633853852748871,-0.3896047174930572,-0.4832772314548492,-0.2237703502178192,0.0,0.0,0.4146158695220947,-0.8222699761390686
-0.1973638534545898,0.8901098966598511,-0.2410578727722168,-0.3534890115261078,-0.49283167719841,-0.1910891234874725,0.0,0.0,0.7298262119293213,-0.5096888542175293
-0.1994870156049728,0.8831753134727478,-0.2047577798366546,-0.3109384775161743,-0.5013096928596497,-0.1695598512887954,0.0,0.0,0.8782467842102051,-0.7649769186973572
-0.2011599093675613,0.8770666122436523,-0.1614124774932861,-0.2736695110797882,-0.5079460740089417,-0.1327281147241592,0.0,0.0,0.9530744552612304,-0.7263942956924438
-0.202581450343132,0.8712979555130005,-0.1378012597560882,-0.2580099403858185,-0.5128631591796875,-0.0983422249555587,0.0,0.0,0.9815261363983154,-0.8741554021835327
-0.2038187533617019,0.866319477558136,-0.1208206862211227,-0.2223566174507141,-0.5161637663841248,-0.0660126060247421,0.0,0.0,0.9845153093338012,-0.7858554124832153
-0.2044924795627594,0.8625580668449402,-0.0660654976963996,-0.1676669865846634,-0.5176485776901245,-0.0296966731548309,0.0,0.0,0.8012934923171997,-0.9545832872390748
-0.2049407958984375,0.8595746159553528,-0.0451878458261489,-0.132463589310646,-0.5172507762908936,0.0079561183229088,0.0,0.0,-0.0400714874267578,-0.8792623281478882
-0.2054491937160492,0.8565526604652405,-0.0530950203537941,-0.1334577202796936,-0.5146929025650024,0.0511572770774364,0.0,0.0,0.2057812213897705,-0.966379463672638
-0.2056954354047775,0.8540939092636108,-0.0286064203828573,-0.1077870056033134,-0.5101829171180725,0.0901994407176971,0.0,0.0,0.305150032043457,-0.6959319114685059
-0.2057270109653473,0.852383017539978,-0.008311360143125,-0.07412950694561,-0.5043572187423706,0.1165138259530067,0.0,0.0,0.1683493852615356,-0.9091066122055054
-0.2056088000535965,0.8513676524162292,0.0050203194841742,-0.0426459871232509,-0.4967071115970611,0.1530018597841262,0.0,0.0,-0.4033037424087524,-0.7216072678565979
-0.2055280208587646,0.8502860069274902,-7.768235809635371e-05,-0.045153722167015,-0.487574428319931,0.1826535314321518,0.0,0.0,-0.086573839187622,-0.7504246234893799
-0.2054925411939621,0.8491484522819519,-0.0062495926395058,-0.0471313595771789,-0.4766531586647033,0.2184255421161651,0.0,0.0,-0.0849726200103759,-0.5946418046951294
-0.2054913491010666,0.847944438457489,-0.0110600534826517,-0.0497157499194145,-0.4642703533172607,0.2476562261581421,0.0,0.0,-0.4332782626152038,-0.5410656929016113
-0.2055013179779052,0.8466615080833435,-0.0130144525319337,-0.0530593767762184,-0.451045274734497,0.2645014524459839,0.0,0.0,-0.1324648857116699,-0.1608177423477172
-0.2054911106824875,0.8452739119529724,-0.0109859686344861,-0.0578552633523941,-0.4379154741764068,0.2625963091850281,0.0,0.0,-0.0288244485855102,-0.3035981655120849
-0.2054595947265625,0.8437813520431519,-0.0088472012430429,-0.0626509264111518,-0.4248799681663513,0.260710597038269,0.0,0.0,-0.366111159324646,-0.1765945553779602
-0.2054058611392974,0.8421837687492371,-0.0066032386384904,-0.0674463436007499,-0.4119375944137573,0.258847177028656,0.0,0.0,-0.2621868848800659,0.0682551860809326
-0.2053287923336029,0.840481162071228,-0.0042592277750372,-0.0722415223717689,-0.399087131023407,0.257009208202362,0.0,0.0,-0.1848905086517334,-0.2281924486160278
-0.2052275687456131,0.8386734127998352,-0.0018203196814283,-0.0770364329218864,-0.3863271474838257,0.2551998794078827,0.0,0.0,-0.1294227242469787,-0.2949291467666626
-0.2051012516021728,0.8367606997489929,0.0007083553937263,-0.0818311050534248,-0.3736560642719269,0.2534224092960357,0.0,0.0,-0.5764561891555786,-0.1207017302513122
-0.2049490511417389,0.8347426652908325,0.0033217337913811,-0.0866255313158035,-0.3610720634460449,0.251680314540863,0.0,0.0,-0.108973205089569,-0.2246860861778259
-0.2047701776027679,0.8326196074485779,0.0060148546472191,-0.0914197042584419,-0.3485732078552246,0.2499769926071167,0.0,0.0,-0.4190266132354736,0.0888398885726928
-0.2045638561248779,0.8303913474082947,0.0087828831747174,-0.09621362388134,-0.3361574113368988,0.2483161985874176,0.0,0.0,-0.1117576956748962,0.2028393745422363
-0.2043294459581375,0.8280578851699829,0.0116211324930191,-0.1010072976350784,-0.3238223493099212,0.2467015087604522,0.0,0.0,-0.7251155376434326,0.3630561828613281
-0.2040662318468094,0.8256189823150635,0.0145250828936696,-0.1058007106184959,-0.3115655183792114,0.2451366931200027,0.0,0.0,-0.4565682411193847,0.7054054737091064
-0.203718900680542,0.8230466246604919,0.0244232285767793,-0.1121431142091751,-0.300885260105133,0.2136050164699554,0.0,0.0,-0.6804523468017578,0.0804793834686279
-0.2033416777849197,0.8203685879707336,0.0274470504373312,-0.1169333085417747,-0.2902776300907135,0.2121523916721344,0.0,0.0,-0.6941638588905334,0.486189603805542
-0.2029340267181396,0.8175848126411438,0.0305240638554096,-0.1217232644557952,-0.2797395586967468,0.2107611894607544,0.0,0.0,-0.7722654938697815,0.7164840698242188
-0.2024377882480621,0.8146771788597107,0.040902741253376,-0.1275837272405624,-0.2707752585411072,0.179286316037178,0.0,0.0,-0.8711298704147339,0.7737365961074829
