x_pos,y_pos,x_vel,y_vel,angle,ang_vel,leg_1,leg_2,main_booster,lat_booster
-0.0015835762023925,1.40293288230896,-0.1602800190448761,-0.3549860715866089,0.0017200482543557,0.0339263752102851,0.0,0.0,-0.4330328702926636,0.8143512010574341
-0.0031579018104821,1.3942736387252808,-0.1572644412517547,-0.3848602473735809,0.0015553133562207,-0.0032942600082606,0.0,0.0,0.1953259706497192,0.8082482814788818
-0.0046181678771972,1.3853552341461182,-0.1442606747150421,-0.3963742852210998,-0.0001901020441437,-0.0349116213619709,0.0,0.0,0.5809202194213867,0.7811346054077148
-0.0062023163773119,1.376459717750549,-0.1547566950321197,-0.3953565657138824,-0.003816180396825,-0.072528101503849,0.0,0.0,-0.0897278785705566,0.0094670057296752
-0.0078454967588186,1.366873025894165,-0.1605584025382995,-0.4260969758033752,-0.0075353877618908,-0.0743910521268844,0.0,0.0,0.1174665689468383,0.8794708251953125
-0.0093667982146143,1.357142686843872,-0.146558478474617,-0.4324956834316253,-0.0130419442430138,-0.110141322016716,0.0,0.0,-0.0230376720428466,0.5851328372955322
-0.010901927947998,1.3467202186584473,-0.1467161923646927,-0.4632862508296966,-0.0197574943304061,-0.1343234479427337,0.0,0.0,0.1582989692687988,0.1359349489212036
-0.0123808858916163,1.3362842798233032,-0.1415194720029831,-0.4639213979244232,-0.0260684601962566,-0.1262308359146118,0.0,0.0,0.4954984188079834,0.2603214979171753
-0.0139082912355661,1.3262934684753418,-0.1462072432041168,-0.44416543841362,-0.0325272567570209,-0.1291877776384353,0.0,0.0,-0.0040572881698608,-0.1187188625335693
-0.0154922483488917,1.315611481666565,-0.1517766267061233,-0.4749109148979187,-0.0390812382102012,-0.131091684103012,0.0,0.0,0.4953662157058716,0.2485741376876831
-0.0170333869755268,1.3050405979156494,-0.1477598696947097,-0.4699955582618713,-0.0453610159456729,-0.1256072074174881,0.0,0.0,0.7006477117538452,0.4218407869338989
-0.0185324661433696,1.2945884466171265,-0.143816128373146,-0.4647367596626282,-0.0513925217092037,-0.1206412464380264,0.0,0.0,0.5899978876113892,0.7981188297271729
-0.0198498722165823,1.28444242477417,-0.1242082267999649,-0.4512163996696472,-0.0588525421917438,-0.1492137610912323,0.0,0.0,-0.3283684253692627,-0.1378750801086425
-0.0212212558835744,1.2736053466796875,-0.129506379365921,-0.4819622635841369,-0.0664084181189537,-0.1511313468217849,0.0,0.0,0.4021117687225342,-0.5598855018615723
-0.0225132945924997,1.2631220817565918,-0.1229082942008972,-0.4662198722362518,-0.0726439654827117,-0.124722696840763,0.0,0.0,-0.7514392137527466,-0.3727127909660339
-0.0238575935363769,1.2519476413726809,-0.1280366033315658,-0.4969684779644012,-0.0789773687720298,-0.1266793310642242,0.0,0.0,0.4217294454574585,-0.0238776803016662
-0.0250767711549997,1.241168975830078,-0.1159929037094116,-0.4793752431869507,-0.0848508030176162,-0.1174795180559158,0.0,0.0,0.6509575843811035,-0.0406981110572814
-0.0261724479496479,1.2302405834197998,-0.1042292863130569,-0.4860185384750366,-0.0901549533009529,-0.106092631816864,0.0,0.0,-0.5904409885406494,-0.1592699289321899
-0.0273171421140432,1.2186211347579956,-0.1090342551469802,-0.5167585611343384,-0.0955573767423629,-0.1080583557486534,0.0,0.0,-0.1112746000289917,-0.9674919247627258
-0.0285959243774414,1.2063225507736206,-0.1245373636484146,-0.5468254685401917,-0.0988742262125015,-0.0663430243730545,0.0,0.0,0.0796539783477783,-0.5236427783966064
-0.0298218727111816,1.1940622329711914,-0.1203724145889282,-0.5450516939163208,-0.1010785475373268,-0.0440903827548027,0.0,0.0,-0.6415038108825684,-0.9165958166122437
-0.0311638824641704,1.1811158657073977,-0.1336738467216491,-0.5754250288009644,-0.101593866944313,-0.0103074479848146,0.0,0.0,0.1174790859222412,-0.2173871994018554
-0.032424546778202,1.1680145263671875,-0.1258534491062164,-0.5823004245758057,-0.1018013507127761,-0.0041504274122416,0.0,0.0,0.0299715995788574,0.0670937299728393
-0.0336637496948242,1.1545052528381348,-0.1238130182027816,-0.600416362285614,-0.101907193660736,-0.0021169555839151,0.0,0.0,-0.4849030971527099,-0.3054511547088623
-0.0349428169429302,1.1403045654296875,-0.1276925504207611,-0.6311540007591248,-0.1021140813827514,-0.0041384161449968,0.0,0.0,0.0829930305480957,0.5616825819015503
-0.0362752899527549,1.1260924339294434,-0.1316435039043426,-0.6317665576934814,-0.1037123873829841,-0.0319662243127822,0.0,0.0,0.3989443778991699,-0.5752938985824585
-0.0376213081181049,1.1121166944503784,-0.1340526044368744,-0.6211846470832825,-0.1042570918798446,-0.0108941039070487,0.0,0.0,0.2446881532669067,0.8728704452514648
-0.0389794334769248,1.0983929634094238,-0.1333367377519607,-0.6101132035255432,-0.106720432639122,-0.0492668785154819,0.0,0.0,0.5445647239685059,-0.532676100730896
-0.040463350713253,1.085090160369873,-0.1465459167957306,-0.5913687348365784,-0.1085584014654159,-0.0367592051625251,0.0,0.0,-0.1848630309104919,0.5801557302474976
-0.0419320091605186,1.0710867643356323,-0.1437738835811615,-0.6226019263267517,-0.1116196885704994,-0.0612256824970245,0.0,0.0,0.8790020942687988,0.3891186714172363
-0.0432979576289653,1.057823896408081,-0.1335017383098602,-0.589695155620575,-0.1146891787648201,-0.0613900125026702,0.0,0.0,-0.1159472465515136,0.2359824180603027
-0.0446867942810058,1.0438698530197144,-0.1356934159994125,-0.6204308271408081,-0.1178663820028305,-0.063543900847435,0.0,0.0,0.7435352802276611,-0.099585473537445
-0.0460827834904193,1.0305001735687256,-0.1358903050422668,-0.594508945941925,-0.1215554997324943,-0.0737823173403739,0.0,0.0,-0.8886677026748657,-0.4810259342193603
-0.0474958419799804,1.0164390802383425,-0.1374882608652115,-0.6252450942993164,-0.1253545135259628,-0.0759799480438232,0.0,0.0,-0.3889715671539306,-0.9555891752243042
-0.0489956848323345,1.0017027854919434,-0.1479191184043884,-0.6551239490509033,-0.1274071037769317,-0.0410521849989891,0.0,0.0,-0.7846546173095703,-0.8087578415870667
-0.0505672469735145,0.9862928986549376,-0.1565618366003036,-0.6849325299263,-0.1280027478933334,-0.0119124632328748,0.0,0.0,-0.4757053852081299,-0.667861819267273
-0.0522014610469341,0.970198929309845,-0.1640991866588592,-0.7152294516563416,-0.1273211687803268,0.013631721958518,0.0,0.0,0.821082353591919,-0.0047416090965271
-0.0536916740238666,0.9546538591384888,-0.1497915089130401,-0.6908200979232788,-0.126559630036354,0.0152306901291012,0.0,0.0,-0.8449623584747314,-0.1740190982818603
-0.055182933807373,0.938417673110962,-0.1497771739959716,-0.7215552926063538,-0.1259131431579589,0.0129296313971281,0.0,0.0,-0.2649963498115539,0.7186646461486816
-0.0566128715872764,0.921479880809784,-0.1420123875141143,-0.7528755068778992,-0.1268846243619918,-0.0194296222180128,0.0,0.0,0.6907190084457397,-0.5203202962875366
-0.0580923072993755,0.9050706028938292,-0.1475825607776641,-0.7293323874473572,-0.1272531002759933,-0.0073694484308362,0.0,0.0,-0.5431336164474487,-0.6246020793914795
-0.0596021637320518,0.8879761099815369,-0.1514889299869537,-0.7597127556800842,-0.1267480105161667,0.010101924650371,0.0,0.0,0.030678391456604,-0.6811832189559937
-0.0610606186091899,0.8704711198806763,-0.1476596891880035,-0.7778502106666565,-0.1249432191252708,0.0360959991812706,0.0,0.0,0.5366711616516113,-0.5078515410423279
-0.0623844154179096,0.8529945611953735,-0.1353585422039032,-0.7764898538589478,-0.1219834461808204,0.0591959841549396,0.0,0.0,-0.0219061970710754,0.2264765501022339
-0.0636900886893272,0.8348267674446106,-0.13343046605587,-0.8072256445884705,-0.119142509996891,0.0568187534809112,0.0,0.0,0.4557965993881225,0.3615071773529053
-0.0648996382951736,0.8163990378379822,-0.1238789111375808,-0.8187768459320068,-0.1162333786487579,0.0581823699176311,0.0,0.0,0.82741379737854,0.3390662670135498
-0.065960980951786,0.7980049848556519,-0.1092568784952163,-0.8172789812088013,-0.1131312623620033,0.0620423629879951,0.0,0.0,0.9273924827575684,0.1612658500671386
-0.0670163184404373,0.7803915143013,-0.1079229936003685,-0.7826427817344666,-0.1107547432184219,0.0475303754210472,0.0,0.0,0.4520626068115234,-0.1699082851409912
-0.0680819526314735,0.7631387114524841,-0.1082879304885864,-0.7666623592376709,-0.1090364307165145,0.0343660488724708,0.0,0.0,0.1669559478759765,0.4125765562057495
-0.069091796875,0.7457326650619507,-0.1025293320417404,-0.7734854817390442,-0.1075056865811348,0.0306151006370782,0.0,0.0,0.5350313186645508,-0.3230321407318115
-0.0698784813284874,0.7284051775932312,-0.0807128027081489,-0.7699621915817261,-0.1054762452840805,0.0405886992812156,0.0,0.0,0.4212173223495483,-0.0840694904327392
-0.070611760020256,0.7113394141197205,-0.0750275999307632,-0.758352518081665,-0.1037930697202682,0.0336634181439876,0.0,0.0,0.4383828639984131,-0.0616073012351989
-0.0711724311113357,0.6941452622413635,-0.0580868497490882,-0.7640496492385864,-0.1017858684062957,0.0401439704000949,0.0,0.0,0.18328857421875,-0.191047191619873
-0.0716329589486122,0.6771117448806763,-0.0479692444205284,-0.7569090723991394,-0.0998833104968071,0.0380509942770004,0.0,0.0,0.2222830057144165,-0.5637822151184082
-0.0719397515058517,0.6599118113517761,-0.0338548868894577,-0.7642288208007812,-0.096739761531353,0.0628711134195327,0.0,0.0,-0.1258428692817688,0.1784207820892334
-0.0722035393118858,0.6420208811759949,-0.0294258091598749,-0.7949644327163696,-0.0937089174985885,0.0606165304780006,0.0,0.0,0.7269306182861328,-0.2338773012161255
-0.0722467452287674,0.6246688961982727,-0.0077233733609318,-0.7709899544715881,-0.0903348177671432,0.067482128739357,0.0,0.0,0.3982549905776977,0.045479416847229
-0.0720760375261306,0.6074625849723816,0.0132319079712033,-0.7644968628883362,-0.0865301713347435,0.0760931223630905,0.0,0.0,-0.0992997288703918,-0.369807481765747
-0.071858026087284,0.589565098285675,0.0180761273950338,-0.7952327728271484,-0.0828335434198379,0.0739322826266288,0.0,0.0,0.5107059478759766,-0.1536418199539184
-0.0716012939810752,0.5720590949058533,0.0223698429763317,-0.7778651714324951,-0.0795653462409973,0.0653641670942306,0.0,0.0,0.4167245626449585,-0.1070455312728881
-0.0712260231375694,0.5543314218521118,0.0341350622475147,-0.7877195477485657,-0.0761984214186668,0.0673383250832557,0.0,0.0,0.2250792980194091,-0.2060502767562866
-0.0708344429731369,0.5366988778114319,0.0361978039145469,-0.7835214734077454,-0.0732778757810592,0.0584112107753753,0.0,0.0,0.7452167272567749,-0.3162820339202881
-0.0702212303876876,0.5191779732704163,0.0578604862093925,-0.7785406708717346,-0.0698540955781936,0.0684753209352493,0.0,0.0,0.5751774311065674,-0.3892512321472168
-0.0694924369454383,0.5018379092216492,0.069419614970684,-0.7705110907554626,-0.0664245635271072,0.0685906857252121,0.0,0.0,0.80912184715271,-0.7181564569473267
-0.0687288269400596,0.4844630360603332,0.0715208947658538,-0.7720088362693787,-0.061641551554203,0.0956604480743408,0.0,0.0,0.6845070123672485,0.0542391538619995
-0.0680002197623252,0.4673108458518982,0.068714864552021,-0.7621539235115051,-0.0575361400842666,0.0821080952882766,0.0,0.0,0.852348804473877,-0.4930174350738525
-0.0671377182006836,0.4509022235870361,0.0820769891142845,-0.7291158437728882,-0.053410854190588,0.0825056731700897,0.0,0.0,0.4397487640380859,-0.6569496989250183
-0.0661801323294639,0.4341743290424347,0.0902020186185836,-0.7432761788368225,-0.0479161478579044,0.10989411175251,0.0,0.0,0.8903872966766357,-0.2010325193405151
-0.0650890320539474,0.4182166159152984,0.1034902930259704,-0.7090626358985901,-0.0423651449382305,0.1110201328992843,0.0,0.0,0.6926162242889404,-0.7772119641304016
-0.0640886276960372,0.4023020267486572,0.0931498706340789,-0.7071372866630554,-0.0355571582913398,0.1361596435308456,0.0,0.0,0.8956491947174072,0.1275876760482788
-0.063109204173088,0.3868667483329773,0.0916324853897094,-0.6858750581741333,-0.0293185394257307,0.124772310256958,0.0,0.0,0.7439038753509521,-0.4022749662399292
-0.0620207786560058,0.3717240691184997,0.1024486571550369,-0.6728970408439636,-0.0230093020945787,0.1261847764253616,0.0,0.0,0.4806777238845825,-0.3569915890693664
-0.0609728805720806,0.3570293486118316,0.0990224778652191,-0.6530198454856873,-0.0173113122582435,0.1139599531888961,0.0,0.0,0.6815097332000732,0.1486823558807373
-0.0597821250557899,0.3425231873989105,0.113033577799797,-0.6446619629859924,-0.0113421659916639,0.1193827763199806,0.0,0.0,0.7133086919784546,0.2449772357940673
-0.0585634224116802,0.3279348909854889,0.1160576567053794,-0.6483373641967773,-0.0056072347797453,0.1146989688277244,0.0,0.0,0.7461766004562378,0.0939066410064697
-0.0572124496102333,0.3131702244281769,0.1290248334407806,-0.6561954021453857,0.0003900817828252,0.1199463158845901,0.0,0.0,0.9627938270568848,-0.1810584068298339
-0.0558403022587299,0.2983193695545196,0.131380409002304,-0.6600496172904968,0.0061459350399672,0.115117035806179,0.0,0.0,0.8989356756210327,-0.3145523071289062
-0.0544242858886718,0.2841448783874511,0.1358776539564132,-0.6300123333930969,0.0117917880415916,0.1129168048501014,0.0,0.0,0.8224297761917114,-0.0448361039161682
-0.052871324121952,0.2706305384635925,0.149226427078247,-0.6006962060928345,0.0177827030420303,0.1198187470436096,0.0,0.0,0.8855209350585938,-0.4062767028808594
-0.051403522491455,0.2578206658363342,0.1413768976926803,-0.569401204586029,0.023120068013668,0.1067471131682396,0.0,0.0,0.8280506134033203,-0.0078660249710083
-0.0500276573002338,0.2448642402887344,0.1329171508550644,-0.5759212374687195,0.0277361422777175,0.0923214927315712,0.0,0.0,0.910208225250244,-0.2693449258804321
-0.0485705360770225,0.2325889468193054,0.1408732682466507,-0.545665979385376,0.0325109437108039,0.0954959765076637,0.0,0.0,0.7718390226364136,-0.2807896137237549
-0.0471820831298828,0.2205423861742019,0.1345745921134948,-0.535500705242157,0.0367280729115009,0.0843426212668418,0.0,0.0,0.7430515289306641,-0.5286964178085327
-0.0458632484078407,0.2088730633258819,0.1267836540937423,-0.5187699794769287,0.0417717210948467,0.1008727774024009,0.0,0.0,0.7683261632919312,-0.6484246253967285
-0.0445804595947265,0.1976335346698761,0.1219535619020462,-0.4997226297855377,0.0480199791491031,0.1249653249979019,0.0,0.0,0.7861504554748535,-0.3099226951599121
-0.0431733131408691,0.1866522878408432,0.134003460407257,-0.4882872998714447,0.0546548403799533,0.1326970756053924,0.0,0.0,0.8163857460021973,-0.5819045901298523
-0.0417441353201866,0.175536572933197,0.1350084394216537,-0.4943393170833587,0.0624760501086711,0.1564240604639053,0.0,0.0,0.806006908416748,0.3583567142486572
-0.0401805862784385,0.1643986105918884,0.1480176150798797,-0.4953898787498474,0.0707201436161995,0.1648820042610168,0.0,0.0,0.8766995668411255,-0.4562728404998779
-0.0384354591369628,0.1535584032535553,0.1654420495033264,-0.4822424054145813,0.0796926766633987,0.1794504970312118,0.0,0.0,0.9473963975906372,-0.6792193055152893
-0.036543846130371,0.1427324414253235,0.1783378720283508,-0.4817640483379364,0.0904233083128929,0.2146125137805938,0.0,0.0,0.8537502288818359,-0.2349840402603149
-0.0346737876534462,0.132474884390831,0.1762530505657196,-0.4565769135951996,0.1010826453566551,0.2131865471601486,0.0,0.0,0.9603092670440674,-0.6539239287376404
-0.0328465476632118,0.1228736490011215,0.1706260442733764,-0.427582710981369,0.1131062507629394,0.2404718101024627,0.0,0.0,0.872512936592102,-0.3623454570770263
-0.0309034343808889,0.1137336120009422,0.1815995723009109,-0.4072345495223999,0.1257433295249939,0.2527416348457336,0.0,0.0,0.8427412509918213,-0.1449628472328186
-0.0288334842771291,0.1044671833515167,0.193811148405075,-0.4130032360553741,0.1388624459505081,0.262382447719574,0.0,0.0,0.9142873287200928,-0.0241264104843139
-0.0268447883427143,0.0953752845525741,0.1860404014587402,-0.4053288400173187,0.1516626477241516,0.2560043632984161,0.0,0.0,0.983835220336914,0.3241740465164184
-0.0248513221740722,0.0871532782912254,0.1861101686954498,-0.3668256402015686,0.1648966521024704,0.2646797299385071,0.0,0.0,0.8832552433013916,0.0226383209228515
-0.0229296684265136,0.0791953429579734,0.1791078448295593,-0.3551869988441467,0.1779721826314926,0.2615108489990234,0.0,0.0,0.8426038026809692,0.3123929500579834
-0.0212409012019634,0.0718209818005561,0.1565283387899398,-0.3292817175388336,0.1903710514307022,0.2479773014783859,0.0,0.0,0.7764637470245361,0.694704532623291
-0.0194801334291696,0.0649098232388496,0.1649446189403534,-0.308632344007492,0.2015703469514846,0.2239858210086822,0.0,0.0,0.4141364097595215,0.1650713682174682
-0.0178319923579692,0.0582386367022991,0.1539503186941146,-0.2980127334594726,0.2125243246555328,0.2190794944763183,0.0,0.0,0.7316821813583374,-0.0567065477371215
-0.0163733474910259,0.0520007461309433,0.1354565918445587,-0.2787717580795288,0.2230443209409713,0.2104003131389618,0.0,0.0,0.6673426628112793,-0.0374873280525207
-0.014989566989243,0.0457995496690273,0.1281422674655914,-0.2771928906440735,0.2334157675504684,0.2074290066957473,0.0,0.0,0.8578118085861206,0.7623928785324097
-0.0137818334624171,0.0398667901754379,0.1123958677053451,-0.2650258839130401,0.2419078946113586,0.1698426157236099,0.0,0.0,0.8298609256744385,0.7173776626586914
-0.0127728460356593,0.0340417474508285,0.0944176465272903,-0.2599708139896393,0.2485121786594391,0.1320854723453521,0.0,0.0,0.9021009206771852,0.2619398832321167
-0.011788273230195,0.0287736747413873,0.0914549529552459,-0.2353395074605941,0.2556487619876861,0.142731562256813,0.0,0.0,0.8865023851394653,0.0876233577728271
-0.0108119966462254,0.0243925191462039,0.1079736799001693,-0.1929236799478531,0.2451956272125244,-0.2089306414127349,0.0,1.0,0.9746050834655762,0.7899994850158691
-0.0099304197356104,0.0215457305312156,0.1181666254997253,-0.1218087747693061,0.2147441804409027,-0.6090449094772339,0.0,1.0,0.7702997922897339,-0.6512765884399414
-0.0093742366880178,0.0197068788111209,0.0962144508957862,-0.0763439387083053,0.1738519966602325,-0.8178828358650208,0.0,1.0,0.4668546915054321,-0.9113571047782898
-0.0088961599394679,0.01844023168087,0.0889948159456253,-0.0519901067018508,0.132668986916542,-0.8236950635910034,0.0,1.0,0.561707615852356,-0.9469823241233826
-0.0084482189267873,0.017274223268032,0.0822513848543167,-0.048910304903984,0.0954363420605659,-0.7446532845497131,0.0,1.0,0.1585978269577026,-0.9141130447387696
-0.0081345560029149,0.0162870269268751,0.067133292555809,-0.0419750921428203,0.0600217618048191,-0.7082928419113159,0.0,0.0,-0.8980336785316467,-0.9561563730239868
-0.0078289983794093,0.0146263455972075,0.0646892189979553,-0.0727854222059249,0.0262862928211689,-0.674710214138031,0.0,0.0,-0.2144855856895446,-0.973429799079895
-0.0075297355651855,0.0122809503227472,0.0624249801039695,-0.1039804369211196,-0.0058028474450111,-0.6417833566665649,0.0,0.0,0.4719036817550659,-0.9733840227127076
-0.0073684691451489,0.0100866174325346,0.0468144863843917,-0.0979217141866684,-0.0361005254089832,-0.6059542894363403,0.0,0.0,0.4041225910186767,-0.9723777174949646
-0.0073331831954419,0.0078764418140053,0.0323585160076618,-0.0991704240441322,-0.0645898431539535,-0.5697871446609497,0.0,0.0,0.703857421875,-0.9373413920402528
-0.0072985650040209,0.0058641051873564,0.0304303430020809,-0.0908160433173179,-0.0912859141826629,-0.5339222550392151,1.0,0.0,0.7083785533905029,-0.3016337156295776
-0.0071403505280613,0.00449936138466,0.0309317708015441,-0.0620302446186542,-0.1047727093100547,-0.2677568793296814,1.0,0.0,0.0614564418792724,-0.3602766990661621
-0.0067516327835619,0.0034077740274369,0.0342380404472351,-0.0482142157852649,-0.1001005098223686,0.0935286730527877,1.0,0.0,-0.2327194809913635,-0.5673426985740662
-0.0063074110075831,0.0021917319390922,0.0232833884656429,-0.0527759864926338,-0.0790974497795105,0.4201194643974304,1.0,0.0,-0.152529239654541,-0.0964164733886718
-0.0058052064850926,0.0006518936133943,0.0190253052860498,-0.0670897588133812,-0.0481935553252697,0.6181398630142212,1.0,0.0,0.1955842971801757,0.1962665319442749
-0.0052258493378758,-0.0011001252569258,0.0228468291461467,-0.0771152228116989,-0.0135004092007875,0.693926215171814,1.0,0.0,0.6323254108428955,0.6021245718002319
