x_pos,y_pos,x_vel,y_vel,angle,ang_vel,leg_1,leg_2,main_booster,lat_booster
-0.0016122817760333,1.403249740600586,-0.1638419926166534,-0.3409098386764526,0.0023393633309751,0.0461888648569583,0.0,0.0,-0.616152286529541,0.6064391136169434
-0.0032663345336914,1.395224928855896,-0.1669000089168548,-0.3566630482673645,0.0038194931112229,0.0296062473207712,0.0,0.0,-0.0948741436004638,0.886976957321167
-0.0049323081038892,1.386818766593933,-0.166428655385971,-0.3736053109169006,0.0036516492255032,-0.0033569086808711,0.0,0.0,-0.1339972615242004,0.6864769458770752
-0.0066555975936353,1.3780359029769895,-0.1715487539768219,-0.3903546631336212,0.0028819241560995,-0.0153958378359675,0.0,0.0,0.3826977014541626,0.9389690160751344
-0.0082867620512843,1.36970055103302,-0.1610694825649261,-0.3704585134983063,0.0008543480653315,-0.0405550822615623,0.0,0.0,0.4873919486999511,0.7656552791595459
-0.0098278047516942,1.3617229461669922,-0.15125173330307,-0.3545657098293304,-0.0019699772819876,-0.056492131203413,0.0,0.0,0.3103399276733398,0.3795192241668701
-0.0114957811310887,1.354057550430298,-0.164314717054367,-0.3406918942928314,-0.0044167404994368,-0.0489398166537284,0.0,0.0,-0.5126639604568481,0.6588969230651855
-0.0132114412263035,1.3460187911987305,-0.1678998917341232,-0.3572929799556732,-0.0080380029976367,-0.0724321454763412,0.0,0.0,0.3800089359283447,0.6235885620117188
-0.0149981500580906,1.3386602401733398,-0.1741888225078582,-0.3270787000656128,-0.0124742174521088,-0.0887325182557106,0.0,0.0,-0.6077931523323059,0.252264142036438
-0.0169018749147653,1.3309266567230225,-0.1863327324390411,-0.3437477350234985,-0.0164789706468582,-0.0801020488142967,0.0,0.0,-0.1607558727264404,0.6450924873352051
-0.0188668258488178,1.3228176832199097,-0.1913858950138092,-0.3604633212089538,-0.0215262901037931,-0.1009554862976074,0.0,0.0,-0.6865725517272949,0.7072920799255371
-0.0208905227482318,1.3143309354782104,-0.1960920095443725,-0.3773011267185211,-0.0277339629828929,-0.1241650730371475,0.0,0.0,-0.7298333644866943,0.6705843210220337
-0.0229726787656545,1.3054702281951904,-0.2006992995738983,-0.3939597010612488,-0.0351664870977401,-0.1486642509698867,0.0,0.0,-0.6089633703231812,0.8110086917877197
-0.0251081474125385,1.2962242364883425,-0.2046011239290237,-0.4111681878566742,-0.0440162047743797,-0.1770106852054596,0.0,0.0,-0.6108796000480652,0.9006220102310181
-0.0272815711796283,1.28660786151886,-0.2065393030643463,-0.4277419447898865,-0.0547090470790863,-0.2138763219118118,0.0,0.0,-0.6738394498825073,0.5958106517791748
-0.0295269005000591,1.276606559753418,-0.2126758098602295,-0.4449744820594787,-0.0664571896195411,-0.2349843680858612,0.0,0.0,-0.6250564455986023,0.7848494052886963
-0.0318243987858295,1.2662339210510254,-0.2162903547286987,-0.4616615176200866,-0.0797931104898452,-0.2667428851127624,0.0,0.0,-0.5746573209762573,0.9471783638000488
-0.0341597571969032,0.0,-0.2180511951446533,-0.4793079495429992,-0.0951521918177604,-0.307209849357605,0.0,0.0,-0.35470712184906,0.8428609371185303
-0.0365481376647949,1.2443305253982544,-0.2217160016298294,-0.4962484240531921,-0.1121684163808822,-0.3403555750846863,0.0,0.0,-0.4429836273193359,0.5110385417938232
-0.0390334129333496,1.232814073562622,-0.230808824300766,-0.51326984167099,-0.1297996044158935,-0.3526555895805359,0.0,0.0,-0.1609029173851013,-0.7238362431526184
-0.0416952148079872,1.220940113067627,-0.2499014884233474,-0.5292341709136963,-0.146044835448265,-0.3249339163303375,0.0,0.0,-0.4704055786132812,-0.6327705383300781
-0.0445392616093158,1.2087008953094482,-0.2696272730827331,-0.5454773306846619,-0.1608306169509887,-0.2957422137260437,0.0,0.0,-0.4282460212707519,-0.3060266971588135
-0.0475177764892578,1.1960891485214231,-0.2832978069782257,-0.5621566772460938,-0.1754179000854492,-0.2917719483375549,0.0,0.0,-0.481827974319458,0.149726390838623
-0.0506315231323242,1.1831047534942627,-0.2970267534255981,-0.578835666179657,-0.1898301541805267,-0.2882711291313171,0.0,0.0,0.2353993654251098,-0.7732335925102234
-0.0539685264229774,1.170510172843933,-0.3209581971168518,-0.5614481568336487,-0.2026652693748474,-0.2567252218723297,0.0,0.0,-0.0456894636154174,-0.3072811365127563
-0.0574453361332416,1.1575212478637695,-0.3350786566734314,-0.5790611505508423,-0.2153766751289367,-0.2542279660701751,0.0,0.0,-0.208842396736145,-0.3809516429901123
-0.0610598549246788,1.1441594362258911,-0.3489885330200195,-0.5957304239273071,-0.2279914319515228,-0.2522951066493988,0.0,0.0,0.13819420337677,-0.1046656370162963
-0.0647719353437423,1.1312859058380127,-0.3584428429603576,-0.5741837620735168,-0.2409528195858001,-0.2592278718948364,0.0,0.0,-0.0288191437721252,-0.7455804944038391
-0.0686916336417198,1.1180708408355713,-0.3810780346393585,-0.5891550183296204,-0.2520351111888885,-0.2216452807188034,0.0,0.0,-0.6372371912002563,0.1026277542114257
-0.0727508515119552,1.1044824123382568,-0.3950894474983215,-0.6058223247528076,-0.2631014883518219,-0.2213273495435714,0.0,0.0,0.0056575536727905,0.5541003942489624
-0.0767606720328331,1.0912514925003052,-0.3890871405601501,-0.5902202129364014,-0.2752771377563476,-0.243513137102127,0.0,0.0,0.08974289894104,-0.0974723696708679
-0.0808818787336349,1.078086256980896,-0.3999997079372406,-0.5874595046043396,-0.2877281308174133,-0.2490201443433761,0.0,0.0,-0.3533082008361816,-0.8340094685554504
-0.0852142348885536,1.064587116241455,-0.4229719042778015,-0.6020148992538452,-0.2983100116252899,-0.2116378247737884,0.0,0.0,-0.3366357088088989,-0.4453721642494201
-0.089688204228878,1.0507149696350098,-0.4370745122432709,-0.6186838746070862,-0.3089827001094818,-0.213454008102417,0.0,0.0,-0.1584304571151733,0.3071099519729614
-0.094304084777832,1.0364701747894287,-0.4511935114860534,-0.635353684425354,-0.3197719156742096,-0.2157847881317138,0.0,0.0,0.1978006362915039,0.3390324115753174
-0.0988773331046104,1.0226271152496338,-0.4468947947025299,-0.6175845861434937,-0.3306420147418976,-0.2174014300107956,0.0,0.0,-0.7170397639274597,0.0021053552627563
-0.1035933494567871,1.0084114074707031,-0.4610399603843689,-0.6342562437057495,-0.3416783809661865,-0.2207273691892624,0.0,0.0,0.2633470296859741,0.1489192247390747
-0.1082297340035438,0.9946314692497252,-0.4530760645866394,-0.6149875521659851,-0.3527703285217285,-0.2218388319015503,0.0,0.0,-0.4981236457824707,0.0569573640823364
-0.1130093559622764,0.9804793000221252,-0.4672395288944244,-0.6316612362861633,-0.3640754818916321,-0.2261031419038772,0.0,0.0,0.3922514915466308,0.1815594434738159
-0.1177278533577919,0.9666601419448853,-0.4610461294651031,-0.6169635057449341,-0.3755059838294983,-0.2286103069782257,0.0,0.0,-0.6300216913223267,0.0575251579284668
-0.1225898712873458,0.952469289302826,-0.4752205312252044,-0.633639395236969,-0.3871933221817016,-0.2337469756603241,0.0,0.0,-0.2356182336807251,0.3738031387329101
-0.1275958120822906,0.9379065632820128,-0.4893980026245117,-0.650316596031189,-0.3991579711437225,-0.2392932176589965,0.0,0.0,0.2901368141174316,0.2462997436523437
-0.1325806677341461,0.9232667088508606,-0.4873954355716705,-0.6538257598876953,-0.4110685884952545,-0.2382126152515411,0.0,0.0,-0.1649695634841919,0.5783705711364746
-0.1376613676548004,0.9082228541374208,-0.4954659938812256,-0.6723373532295227,-0.4246926605701446,-0.2724814713001251,0.0,0.0,0.4895410537719726,-0.0028596520423889
-0.1428102552890777,0.8931940793991089,-0.501886248588562,-0.6719333529472351,-0.4388194680213928,-0.2825358510017395,0.0,0.0,0.1480549573898315,-0.8558703064918518
-0.1480342894792556,0.8781211972236633,-0.5108019113540649,-0.6735929250717163,-0.4515136778354645,-0.2538835108280182,0.0,0.0,0.0541422367095947,0.3541942834854126
-0.1532432585954666,0.8630368709564209,-0.5091902017593384,-0.6742514967918396,-0.4643937945365906,-0.2576020658016205,0.0,0.0,0.0773366689682006,-0.5366493463516235
-0.158461183309555,0.8483988642692566,-0.510735034942627,-0.6543230414390564,-0.476652055978775,-0.2451653927564621,0.0,0.0,0.6190762519836426,-0.5074186325073242
-0.1636263877153396,0.8345463871955872,-0.5057939291000366,-0.6194050312042236,-0.488600343465805,-0.2389659136533737,0.0,0.0,0.776007890701294,0.0115467309951782
-0.1686993539333343,0.8210636973381042,-0.4961837828159332,-0.6032251715660095,-0.5010622143745422,-0.2492368668317794,0.0,0.0,0.6499075889587402,-0.6671212911605835
-0.1735518425703048,0.8078859448432922,-0.4753817021846771,-0.589327871799469,-0.5122101902961731,-0.2229599207639694,0.0,0.0,0.8825242519378662,-0.1158180832862854
-0.178194522857666,0.795483410358429,-0.4538038671016693,-0.5551902055740356,-0.5240940451622009,-0.2376770675182342,0.0,0.0,0.7459096908569336,-0.7347238659858704
-0.1826883256435394,0.7832655310630798,-0.4401723444461822,-0.5465967655181885,-0.5346181988716125,-0.2104826718568802,0.0,0.0,0.8608222007751465,-0.5628432035446167
-0.1869010925292968,0.77187180519104,-0.4127930998802185,-0.5097702741622925,-0.5443811416625977,-0.1952590495347976,0.0,0.0,0.7683491706848145,-0.0759849548339843
-0.190851405262947,0.7606531977653503,-0.3868193030357361,-0.5019418597221375,-0.5538692474365234,-0.1897619366645813,0.0,0.0,0.7910418510437012,-0.355621337890625
-0.1947650015354156,0.7497975826263428,-0.3823825120925903,-0.4862022697925567,-0.5643081068992615,-0.2087775915861129,0.0,0.0,0.7185163497924805,-0.6914558410644531
-0.1983322203159332,0.7395857572555542,-0.3488567769527435,-0.4572060406208038,-0.5735160708427429,-0.1841587871313095,0.0,0.0,0.713911771774292,-0.907118558883667
-0.2015873491764068,0.7298159003257751,-0.3191227912902832,-0.4369937181472778,-0.5810445547103882,-0.1505697071552276,0.0,0.0,0.9462600946426392,-0.853026807308197
-0.2044251412153244,0.7208739519119263,-0.278713047504425,-0.3996529877185821,-0.5870417952537537,-0.1199446767568588,0.0,0.0,0.9368941783905028,-0.8195253014564514
-0.2070272415876388,0.712851345539093,-0.256069004535675,-0.3584048151969909,-0.5919565558433533,-0.0982949882745742,0.0,0.0,0.9542028903961182,-0.6052175164222717
-0.2095152884721756,0.7049842476844788,-0.2454819232225418,-0.3511473536491394,-0.5959152579307556,-0.0791742727160453,0.0,0.0,0.9617998600006104,-0.8229631185531616
-0.2118370085954666,0.6979467272758484,-0.2297077476978302,-0.3138972818851471,-0.5988621711730957,-0.0589387230575084,0.0,0.0,0.9910024404525756,-0.7536550760269165
-0.2138658463954925,0.6912224292755127,-0.2016420364379882,-0.2994229197502136,-0.6003502011299133,-0.0297607779502868,0.0,0.0,0.9380167722702026,-0.4285174608230591
-0.2156074941158294,0.6849938631057739,-0.1725902706384658,-0.2775466740131378,-0.6022328734397888,-0.0376533344388008,0.0,0.0,0.8794970512390137,-0.827713131904602
-0.2172794342041015,0.6789994239807129,-0.1666781455278396,-0.2666526436805725,-0.6028491258621216,-0.0123244700953364,0.0,0.0,0.9496562480926514,-0.6831121444702148
-0.2188694924116134,0.6736749410629272,-0.1589700877666473,-0.236660897731781,-0.6028943657875061,-0.0009050637600012,0.0,0.0,0.9455454349517822,-0.1405054926872253
-0.2200074642896652,0.6692032814025879,-0.113409474492073,-0.1989150941371917,-0.6033573150634766,-0.0092594493180513,0.0,0.0,0.9608559608459472,-0.8268672823905945
-0.2210573256015777,0.6647458076477051,-0.1057954281568527,-0.1977317184209823,-0.6023833155632019,0.0194795243442058,0.0,0.0,0.5144059658050537,-0.9202834367752076
-0.2218341827392578,0.6609305143356323,-0.079746276140213,-0.1686281561851501,-0.5999217629432678,0.0492308028042316,0.0,0.0,0.2538290023803711,-0.9246746301651
-0.2226753234863281,0.6573168635368347,-0.08736552298069,-0.1591272801160812,-0.5960361957550049,0.077710747718811,0.0,0.0,0.0120621919631958,-0.9257490634918212
-0.223534345626831,0.6539679169654846,-0.0904228836297988,-0.1468059867620468,-0.5906528234481812,0.1076679080724716,0.0,0.0,-0.2671260833740234,-0.8662208318710327
-0.2245819568634033,0.6503033638000488,-0.110327199101448,-0.1603947579860687,-0.5840474367141724,0.1321082562208175,0.0,0.0,0.4424089193344116,-0.7583439350128174
-0.2255083620548248,0.6473504900932312,-0.0990123078227043,-0.1284521669149398,-0.5765219926834106,0.1505090594291687,0.0,0.0,-0.2424029111862182,-0.741645336151123
-0.2266110926866531,0.6440690755844116,-0.1174039617180824,-0.1427849680185318,-0.5681536197662354,0.1673673242330551,0.0,0.0,0.266772985458374,-0.3157724142074585
-0.2277071475982666,0.6408173441886902,-0.1161860972642898,-0.1417385935783386,-0.5604605674743652,0.1538615524768829,0.0,0.0,0.0479300022125244,-0.5215834975242615
-0.2288210839033126,0.6374472379684448,-0.1185467019677162,-0.1468167304992675,-0.5521457195281982,0.1662966907024383,0.0,0.0,0.142412781715393,-0.6877837181091309
-0.2300110757350921,0.634062647819519,-0.1269484758377075,-0.1471961438655853,-0.5429582595825195,0.1837489902973175,0.0,0.0,0.6374883651733398,-0.2377387285232544
-0.2309306561946869,0.631324052810669,-0.0994236692786216,-0.1187395378947258,-0.5343704223632812,0.1717572659254074,0.0,0.0,0.1741018295288086,-0.6150527000427246
-0.2316666543483734,0.6289571523666382,-0.0818421766161918,-0.101970836520195,-0.5249394178390503,0.1886202096939087,0.0,0.0,0.0396496057510376,-0.2431840300559997
-0.2323312759399414,0.6269409656524658,-0.0739669650793075,-0.0867387130856514,-0.516399621963501,0.1707956492900848,0.0,0.0,-0.252787709236145,-0.8203048706054688
-0.2331897765398025,0.6246048212051392,-0.0947489067912101,-0.1004904359579086,-0.5063297152519226,0.2013979256153106,0.0,0.0,0.3059999942779541,-0.3422768115997314
-0.233838751912117,0.6226952075958252,-0.0734656527638435,-0.0817301422357559,-0.4966802895069122,0.1929888427257537,0.0,0.0,-0.2510191202163696,-0.5523367524147034
-0.2346512377262115,0.6204517483711243,-0.0905683860182762,-0.0963808298110961,-0.4862402677536011,0.2088010013103485,0.0,0.0,0.1445045471191406,0.0300514698028564
-0.2353946715593338,0.6184873580932617,-0.0830475240945816,-0.0842664688825607,-0.4765471518039703,0.1938626170158386,0.0,0.0,-0.2067738771438598,-0.5998535752296448
-0.2362939864397049,0.6161885261535645,-0.0993267148733139,-0.0989719480276107,-0.4661382436752319,0.2081787139177322,0.0,0.0,0.2489790916442871,-0.2573230266571045
-0.2370483875274658,0.6140645146369934,-0.0846398621797561,-0.0913487672805786,-0.4559991657733917,0.2027819156646728,0.0,0.0,0.0599141120910644,-0.5228331089019775
-0.2378381788730621,0.6118773818016052,-0.0887043699622154,-0.0940568819642067,-0.4453236758708954,0.2135099917650222,0.0,0.0,0.4385969638824463,0.2094036340713501
-0.2385096997022628,0.6097425222396851,-0.0767454802989959,-0.0918614044785499,-0.4348530173301697,0.2094137668609619,0.0,0.0,0.0710996389389038,-0.1807371377944946
-0.2390412837266922,0.6076808571815491,-0.0626641064882278,-0.0887175425887107,-0.4245215058326721,0.2066303193569183,0.0,0.0,0.1137900352478027,-0.4205385446548462
-0.2394766807556152,0.6055541634559631,-0.0529597625136375,-0.0917114093899726,-0.4143376648426056,0.203676626086235,0.0,0.0,-0.1886204481124878,-0.5056079030036926
-0.2400430142879486,0.6030846238136292,-0.0665431022644043,-0.1068853139877319,-0.4036749899387359,0.2132536619901657,0.0,0.0,0.2187727689743042,-0.1921818852424621
-0.240460067987442,0.601003110408783,-0.0512056574225425,-0.0898344442248344,-0.3934934139251709,0.2036313116550445,0.0,0.0,-0.0883065462112426,-0.7982196807861328
-0.2410095632076263,0.5985825061798096,-0.065172292292118,-0.1047875061631202,-0.3825889229774475,0.2180896699428558,0.0,0.0,0.1019148826599121,-0.3884884715080261
-0.24149851500988,0.5960568189620972,-0.0588926598429679,-0.1096034348011016,-0.3719645738601684,0.2124871760606765,0.0,0.0,-0.0921570062637329,-0.1047368049621582
-0.2420659512281417,0.5931605696678162,-0.0662343427538871,-0.1262880265712738,-0.3619338870048523,0.2006145417690277,0.0,0.0,0.2761306762695312,-0.6878286600112915
-0.2424517124891281,0.5908262133598328,-0.0489751994609832,-0.1011639907956123,-0.3509726226329803,0.219225212931633,0.0,0.0,0.3536932468414306,-0.3822227716445923
-0.2427640408277511,0.588787853717804,-0.0410243272781372,-0.0882381275296211,-0.3406984806060791,0.2054830342531204,0.0,0.0,-0.2927933931350708,-0.6155340075492859
-0.2431941032409668,0.5864134430885315,-0.0537171773612499,-0.1030412763357162,-0.329498678445816,0.2239962816238403,0.0,0.0,-0.0189753174781799,-0.6244118809700012
-0.2437218725681305,0.5836918354034424,-0.0640056580305099,-0.118447907269001,-0.3178077340126037,0.23381869494915,0.0,0.0,0.5580251216888428,-0.7749460935592651
-0.2441916465759277,0.5816680192947388,-0.0591045729815959,-0.0873399749398231,-0.3052296936511993,0.2515609562397003,0.0,0.0,0.2468241453170776,-0.7547101378440857
-0.244662195444107,0.580146074295044,-0.0600586608052253,-0.0649637728929519,-0.2917965352535248,0.2686630487442016,0.0,0.0,-0.0594277381896972,0.2724003791809082
-0.245174840092659,0.5782540440559387,-0.0637271329760551,-0.0816506966948509,-0.2789754271507263,0.2564220130443573,0.0,0.0,-0.1890593767166137,-0.3615228533744812
-0.2457239627838134,0.5759914517402649,-0.0668178498744964,-0.0983358174562454,-0.2667690217494964,0.2441282570362091,0.0,0.0,-0.3463066816329956,-0.6701696515083313
-0.2463677376508712,0.5733829140663147,-0.0773770064115524,-0.1136215850710868,-0.2534850537776947,0.2656801640987396,0.0,0.0,-0.242895245552063,-0.1340849995613098
-0.247036263346672,0.5704038143157959,-0.0792950913310051,-0.1303066164255142,-0.2408209145069122,0.2532830834388733,0.0,0.0,-0.1085956692695617,-0.7497350573539734
-0.2477765083312988,0.5670668482780457,-0.087220624089241,-0.1462092101573944,-0.2274253964424133,0.2679104208946228,0.0,0.0,-0.2073007822036743,0.3988051414489746
-0.2485298216342926,0.5633590817451477,-0.0879565775394439,-0.1628933548927307,-0.2146544903516769,0.2554182410240173,0.0,0.0,-0.2287572026252746,0.4610499143600464
-0.2492905110120773,0.5592803359031677,-0.0881035178899765,-0.1795756071805954,-0.2025103121995926,0.2428834438323974,0.0,0.0,0.0721901655197143,0.9047105312347412
-0.2497625350952148,0.5556005239486694,-0.0568369030952453,-0.1622582823038101,-0.1928083598613739,0.1940390616655349,0.0,0.0,-0.3632798194885254,0.9111764430999756
-0.2501509189605713,0.5515252947807312,-0.0458130165934562,-0.18023282289505,-0.1857980787754058,0.1402054727077484,0.0,0.0,0.3211698532104492,0.9453949928283693
-0.2503410279750824,0.5480300784111023,-0.0234724935144186,-0.154787391424179,-0.1813144385814666,0.0896727591753006,0.0,0.0,0.1553878784179687,0.142846941947937
-0.2503748834133148,0.5449630618095398,-0.0074214870110154,-0.13582643866539,-0.1772675812244415,0.0809371471405029,0.0,0.0,-0.5322611927986145,-0.2317981719970703
-0.2503882348537445,0.5415228605270386,-0.004738054703921,-0.1524949073791504,-0.1738544851541519,0.0682618468999862,0.0,0.0,-0.725683331489563,-0.2991359233856201
-0.250375747680664,0.5377094745635986,-0.0015256712213158,-0.169162780046463,-0.1710756123065948,0.0555773302912712,0.0,0.0,-0.454081654548645,0.2700628042221069
-0.2503323554992676,0.5335227847099304,0.0021999115124344,-0.1858301609754562,-0.1689310073852539,0.042891725897789,0.0,0.0,-0.5014196038246155,-0.4549111127853393
-0.2502530515193939,0.5289627313613892,0.0064218104816973,-0.2024971693754196,-0.1674203127622604,0.0302138477563858,0.0,0.0,-0.4259635210037231,-0.1597607731819152
-0.2501330971717834,0.5240293145179749,0.0111222248524427,-0.2191639095544815,-0.166542649269104,0.0175532884895801,0.0,0.0,-0.4066142439842224,-0.2067791223526001
-0.2499677687883377,0.5187224745750427,0.0162826441228389,-0.2358304411172866,-0.1662966459989547,0.0049204821698367,0.0,0.0,-0.6312119364738464,-0.6597520112991333
-0.249795526266098,0.5130560994148254,0.0165004339069128,-0.2517620623111725,-0.1655710339546203,0.0145121123641729,0.0,0.0,-0.7270127534866333,-0.6031939387321472
-0.2496137171983719,0.5070332288742065,0.0169241558760404,-0.2675437331199646,-0.164311408996582,0.0251929070800542,0.0,0.0,-0.2246826291084289,-0.5494007468223572
