x_pos,y_pos,x_vel,y_vel,angle,ang_vel,leg_1,leg_2,main_booster,lat_booster
-0.0015804290305823,1.403099775314331,-0.160989224910736,-0.3475733399391174,0.0026491764001548,0.052323181182146,0.0,0.0,0.3232514858245849,0.8920279741287231
-0.0031013488769531,1.395328164100647,-0.1538296490907669,-0.345408022403717,0.0043569183908402,0.0341589748859405,0.0,0.0,-0.2457970380783081,0.870598554611206
-0.0045963288284838,1.3870254755020142,-0.1499431282281875,-0.3690102994441986,0.00480238487944,0.0089099816977977,0.0,0.0,0.1900990009307861,0.7136858701705933
-0.0061913491226732,1.3787353038787842,-0.1592462956905365,-0.3684524893760681,0.0045458851382136,-0.0051303948275744,0.0,0.0,0.2057645320892334,0.5802731513977051
-0.0076968194916844,1.3706369400024414,-0.1501832902431488,-0.3599231839179992,0.0041914712637662,-0.0070888316258788,0.0,0.0,-0.092879831790924,0.5428845882415771
-0.0092076305299997,1.362013339996338,-0.1502405256032943,-0.3832661807537079,0.003364571603015,-0.0165395624935627,0.0,0.0,0.1026908159255981,0.927488088607788
-0.010722255334258,1.353443622589111,-0.1496206372976303,-0.3808742165565491,0.001546676037833,-0.0363615229725837,0.0,0.0,0.5094276666641235,0.9205535650253296
-0.0120684625580906,1.3452389240264893,-0.1319937407970428,-0.3646522760391235,-0.0010446895612403,-0.0518322996795177,0.0,0.0,-0.0277397632598876,0.6006319522857666
-0.0134256361052393,1.33651602268219,-0.1327798068523407,-0.3876945078372955,-0.003950850572437,-0.0581288039684295,0.0,0.0,0.1414746046066284,0.8590700626373291
-0.0147708896547555,1.3280260562896729,-0.1307294815778732,-0.3773407936096191,-0.0077069918625056,-0.075129747390747,0.0,0.0,0.4451639652252197,0.4956283569335937
-0.0160935409367084,1.3197904825210571,-0.1296898871660232,-0.3660419285297394,-0.0102520426735281,-0.050905417650938,0.0,0.0,-0.700958251953125,0.5510540008544922
-0.0174240116029977,1.3110281229019165,-0.1301092058420181,-0.3894602060317993,-0.0131643703207373,-0.0582519397139549,0.0,0.0,-0.34027099609375,0.0295644998550415
-0.0188105590641498,1.3017410039901731,-0.1365648508071899,-0.4127799570560455,-0.0152217354625463,-0.0411509685218334,0.0,0.0,-0.4399077892303467,0.9757742881774902
-0.0201666839420795,1.29191792011261,-0.1322173029184341,-0.4366154670715332,-0.0185818746685981,-0.0672088712453842,0.0,0.0,0.4084954261779785,0.8201701641082764
-0.0213642120361328,1.2826272249221802,-0.1157633885741233,-0.4129803776741028,-0.0225265491753816,-0.0789007395505905,0.0,0.0,-0.9027354121208192,0.7368215322494507
-0.0225469581782817,1.272800326347351,-0.113413967192173,-0.4368259608745575,-0.0273445770144462,-0.0963689461350441,0.0,0.0,-0.5561151504516602,0.4865926504135132
-0.0237828250974416,1.262448787689209,-0.1195835694670677,-0.4601451158523559,-0.0313067510724067,-0.0792505145072937,0.0,0.0,-0.1416196227073669,0.4356116056442261
-0.0250708572566509,1.2515723705291748,-0.1256635040044784,-0.4834670722484588,-0.0344143323600292,-0.0621572025120258,0.0,0.0,-0.7675424814224243,0.8593442440032959
-0.0263311378657817,1.2401748895645142,-0.121743306517601,-0.5066555142402649,-0.0386482514441013,-0.084686242043972,0.0,0.0,-0.2606986761093139,0.0891363620758056
-0.0276412963867187,1.228252649307251,-0.1276078820228576,-0.5299779772758484,-0.0420273654162883,-0.0675884038209915,0.0,0.0,-0.0057677030563354,-0.0874204635620117
-0.0290003772825002,1.2158048152923584,-0.1333537250757217,-0.553299605846405,-0.0445538088679313,-0.050533253699541,0.0,0.0,0.6564157009124756,0.6093044281005859
-0.0303265564143657,1.2034893035888672,-0.1297308206558227,-0.5474445819854736,-0.04740896448493,-0.0571082904934883,0.0,0.0,0.5706846714019775,-0.6784442663192749
-0.031593132764101,1.191417217254639,-0.1262794286012649,-0.5365475416183472,-0.0477807372808456,-0.0074361027218401,0.0,0.0,-0.4976787567138672,0.7522542476654053
-0.0328383445739746,1.1788066625595093,-0.1233137845993042,-0.560507595539093,-0.048975683748722,-0.0239009466022253,0.0,0.0,-0.4353905916213989,0.6395735740661621
-0.034087847918272,1.1656699180603027,-0.1236244440078735,-0.5839046835899353,-0.050293743610382,-0.0263634137809276,0.0,0.0,0.025929570198059,0.6833698749542236
-0.0354067794978618,1.1526484489440918,-0.1299522817134857,-0.5787887573242188,-0.0522146858274936,-0.0384188666939735,0.0,0.0,-0.2344923615455627,-0.0111843347549438
-0.0367651954293251,1.1391021013259888,-0.1347588002681732,-0.6021066308021545,-0.0532918870449066,-0.0215438269078731,0.0,0.0,-0.6780548095703125,-0.4292452335357666
-0.038161277770996,1.1250301599502563,-0.1393681466579437,-0.6254241466522217,-0.0535277351737022,-0.0047170193865895,0.0,0.0,-0.7701540589332581,0.0213385820388793
-0.0395928397774696,1.1104329824447632,-0.143769085407257,-0.6487416625022888,-0.0529248751699924,0.012057214975357,0.0,0.0,-0.670174241065979,-0.0060603022575378
-0.0410578735172748,1.0953104496002195,-0.1479503214359283,-0.6720592379570007,-0.051486138254404,0.0287746302783489,0.0,0.0,-0.7387928366661072,0.6064630746841431
-0.0425042137503623,1.0796657800674438,-0.1456760019063949,-0.6952865719795227,-0.0504576973617076,0.0205689892172813,0.0,0.0,-0.2987279295921325,-0.3179910182952881
-0.0439792647957801,1.0634957551956177,-0.1493834853172302,-0.7186042666435242,-0.0485997535288333,0.0371589586138725,0.0,0.0,0.1577839851379394,0.0878372192382812
-0.0455108657479286,1.047646403312683,-0.1556146144866943,-0.7043373584747314,-0.0461836419999599,0.0483222566545009,0.0,0.0,-0.6425393223762512,0.466350793838501
-0.0470662117004394,1.031272053718567,-0.1588025540113449,-0.727655827999115,-0.0429453924298286,0.0647650212049484,0.0,0.0,-0.3618435859680176,0.2681204080581665
-0.0486422553658485,1.0143725872039795,-0.1617137193679809,-0.7509750127792358,-0.0388890877366066,0.0811261385679245,0.0,0.0,0.3683608770370483,0.7092294692993164
-0.0501389503479003,0.9978880286216736,-0.1532014161348343,-0.7325537204742432,-0.0354023613035678,0.0697347149252891,0.0,0.0,-0.257651686668396,0.5017333030700684
-0.0516127571463584,0.9808741211891174,-0.1507695168256759,-0.756100058555603,-0.0320615023374557,0.0668170228600502,0.0,0.0,0.1108477115631103,0.0275814533233642
-0.0530567169189453,0.964101493358612,-0.1487032920122146,-0.7453691363334656,-0.0277983099222183,0.0852639600634574,0.0,0.0,-0.7744330763816833,0.7328581809997559
-0.0544550903141498,0.946809947490692,-0.1435833424329757,-0.768454372882843,-0.0240980144590139,0.0740057900547981,0.0,0.0,0.595282793045044,0.7179088592529297
-0.0557580962777137,0.9298712611198424,-0.1334683895111084,-0.7527773380279541,-0.0209733601659536,0.0624930635094642,0.0,0.0,-0.5843085050582886,0.6596177816390991
-0.0570203773677349,0.9124119877815248,-0.1290973722934723,-0.7759263515472412,-0.0181405823677778,0.056655466556549,0.0,0.0,-0.1079838871955871,0.7926485538482666
-0.0582059845328331,0.8944241404533386,-0.1202925592660904,-0.799441397190094,-0.0164268407970666,0.0342748090624809,0.0,0.0,0.1270064115524292,0.1349198818206787
-0.0593171119689941,0.876230776309967,-0.1139424070715904,-0.8085708022117615,-0.0136328795924782,0.0558791868388652,0.0,0.0,0.2715880870819092,0.8565731048583984
-0.0602590553462505,0.8581177592277527,-0.0961512550711631,-0.8050042986869812,-0.0117035117000341,0.038587424904108,0.0,0.0,-0.1454675197601318,0.0490766763687133
-0.0611891746520996,0.8394801020622253,-0.095732495188713,-0.8283251523971558,-0.0090155387297272,0.0537596121430397,0.0,0.0,0.8034515380859375,0.8567237854003906
-0.0619772896170616,0.8208542466163635,-0.0806754976511001,-0.827802300453186,-0.0071792285889387,0.0367261692881584,0.0,0.0,0.9132953882217408,0.9563758373260498
-0.0625884085893631,0.8024731874465942,-0.0619326420128345,-0.8169370889663696,-0.0063693178817629,0.0161983892321586,0.0,0.0,0.9234833717346193,0.588227391242981
-0.0632631331682205,0.7850305438041687,-0.0674615129828453,-0.7752310633659363,-0.0063840080983936,-0.0002939632977358,0.0,0.0,0.5586562156677246,-0.2030651569366455
-0.0640314072370529,0.7681795358657837,-0.0769548565149307,-0.7489321827888489,-0.0062555810436606,0.0025688386522233,0.0,0.0,0.2928395271301269,-0.5813683867454529
-0.0648304969072341,0.7513997554779053,-0.0819057822227478,-0.7457621097564697,-0.0042954958043992,0.0392019748687744,0.0,0.0,-0.1978200078010559,0.6893810033798218
-0.0655276328325271,0.7340945601463318,-0.0706818029284477,-0.7691159844398499,-0.0033323629759252,0.019262570887804,0.0,0.0,-0.144546627998352,0.2845277786254883
-0.0661863312125206,0.7162646651268005,-0.0675382614135742,-0.7924370169639587,-0.0016806937055662,0.0330333188176155,0.0,0.0,0.7227022647857666,0.711567759513855
-0.0666214004158973,0.6986010074615479,-0.0447079017758369,-0.7850520014762878,-0.0004978686920367,0.0236565917730331,0.0,0.0,0.7034342288970947,0.3951478004455566
-0.0670066848397255,0.6816462874412537,-0.0404191799461841,-0.753542959690094,0.0013624083949252,0.0372057594358921,0.0,0.0,0.4501699209213257,0.1266179084777832
-0.0672121047973632,0.6648091673851013,-0.0236891470849514,-0.7483221292495728,0.0044757323339581,0.062266319990158,0.0,0.0,0.5291355848312378,0.9338366985321044
-0.0673920661211013,0.6480972170829773,-0.019802737981081,-0.7427567839622498,0.0062504368834197,0.0354941710829734,0.0,0.0,0.1832724809646606,0.4393728971481323
-0.0674511939287185,0.6317176222801208,-0.0086515713483095,-0.7279984951019287,0.0089533356949687,0.0540580227971077,0.0,0.0,-0.2213773131370544,0.6669154167175293
-0.0673847198486328,0.6148169636726379,0.0049499035812914,-0.7511518001556396,0.010625678114593,0.0334469750523567,0.0,0.0,0.5544471740722656,0.630570650100708
-0.0671359077095985,0.5985620617866516,0.0236953534185886,-0.7224471569061279,0.0117948865517973,0.0233844649046659,0.0,0.0,-0.0168841481208801,0.2189112901687622
-0.0668194741010665,0.5817825794219971,0.0298886988312006,-0.7457691431045532,0.0135266259312629,0.0346345454454422,0.0,0.0,0.3539814949035644,0.4881062507629394
-0.0663942322134971,0.5649346113204956,0.040024034678936,-0.7488247752189636,0.0159946642816066,0.049360804259777,0.0,0.0,0.7093372344970703,0.8621809482574463
-0.065953254699707,0.5486537218093872,0.0429989472031593,-0.7236026525497437,0.0170741863548755,0.021590631455183,0.0,0.0,-0.487764835357666,0.3946250677108764
-0.0654351264238357,0.5318483710289001,0.0502238683402538,-0.7469248175621033,0.018652169033885,0.0315595902502536,0.0,0.0,0.845085620880127,0.2926759719848633
-0.0648230537772178,0.5155457854270935,0.0590069778263568,-0.7245883345603943,0.020826568827033,0.0434879288077354,0.0,0.0,0.3245023488998413,0.8595001697540283
-0.0640591606497764,0.4991965889930725,0.0754523128271102,-0.7266457676887512,0.0217487607151269,0.0184438489377498,0.0,0.0,0.518120288848877,0.2127177715301513
-0.0633348450064659,0.4831335246562958,0.0716005340218544,-0.7139282822608948,0.0225685574114322,0.0163961350917816,0.0,0.0,0.6553483009338379,0.2171723842620849
-0.0625197440385818,0.4678324162960052,0.080177403986454,-0.6800693273544312,0.0238844286650419,0.0263174325227737,0.0,0.0,0.4964354038238525,0.4595932960510254
-0.0615455619990825,0.452406644821167,0.095370776951313,-0.6856245398521423,0.0259125512093305,0.0405624434351921,0.0,0.0,0.7061777114868164,0.0656268596649169
-0.0604726783931255,0.4377793073654175,0.1047597378492355,-0.6501468420028687,0.0284085273742675,0.0499198362231254,0.0,0.0,0.150619626045227,0.2925310134887695
-0.0593788139522075,0.4231190681457519,0.1068488955497741,-0.6516186594963074,0.0309096090495586,0.050021756440401,0.0,0.0,0.077466607093811,0.2584311962127685
-0.0582605376839637,0.4085935056209564,0.1092964857816696,-0.6456329822540283,0.0334103927016258,0.0500156804919242,0.0,0.0,-0.0037142634391784,0.5147759914398193
-0.0569993965327739,0.3935465216636657,0.1244163140654563,-0.668792724609375,0.0350790694355964,0.0333734638988971,0.0,0.0,0.6914777755737305,-0.3839936852455139
-0.055798627436161,0.379264235496521,0.1188006177544593,-0.6348011493682861,0.036348458379507,0.0253876745700836,0.0,0.0,0.3920924663543701,-0.5415627360343933
-0.0544874183833599,0.3651880025863647,0.1284042745828628,-0.6256772875785828,0.0390268117189407,0.0535671114921569,0.0,0.0,-0.4200060963630676,0.1451383829116821
-0.0530709251761436,0.3505871891975403,0.1387985795736313,-0.6489995718002319,0.0418473184108734,0.0564102232456207,0.0,0.0,0.4273897409439087,-0.0829719305038452
-0.051500417292118,0.335886538028717,0.1538067311048507,-0.6534589529037476,0.0450464896857738,0.0639835149049758,0.0,0.0,0.7811551094055176,0.1816437244415283
-0.0498721115291118,0.3212073445320129,0.1596861183643341,-0.6525077819824219,0.0481593832373619,0.0622577480971813,0.0,0.0,0.7651679515838623,-0.7612228989601135
-0.0482449531555175,0.3072751760482788,0.1580243855714798,-0.6193658113479614,0.0528007447719574,0.0928271934390068,0.0,0.0,0.6583443880081177,0.2088059186935424
-0.0464695915579795,0.2940514385700226,0.1724586486816406,-0.5879061222076416,0.0578132234513759,0.1002496108412742,0.0,0.0,-0.1238198280334472,-0.3652939796447754
-0.0445820800960063,0.2803033590316772,0.1837188899517059,-0.6112293601036072,0.0627895146608352,0.0995257496833801,0.0,0.0,0.871896505355835,-0.6300399899482727
-0.0428112968802452,0.266566663980484,0.1712672561407089,-0.610773503780365,0.0685408487915992,0.1150268539786338,0.0,0.0,0.8397833108901978,-0.0648384094238281
-0.0409416183829307,0.2536275386810303,0.1810555160045623,-0.5753536224365234,0.0743927359580993,0.1170377507805824,0.0,0.0,0.862450122833252,-0.1109697222709655
-0.0391187667846679,0.2411217242479324,0.1770493686199188,-0.5560844540596008,0.0795742124319076,0.1036295443773269,0.0,0.0,0.8671587705612183,-0.5246387124061584
-0.0373476967215538,0.2292261719703674,0.1711907684803009,-0.5290156602859497,0.0854323431849479,0.1171625703573226,0.0,0.0,0.5487796068191528,-0.4496428966522217
-0.0355268493294715,0.217784434556961,0.1764397323131561,-0.5088565945625305,0.0910289213061332,0.1119314432144165,0.0,0.0,0.0238039493560791,-0.48305743932724
-0.0335672385990619,0.206364020705223,0.1903039366006851,-0.5079302191734314,0.0966331660747528,0.1120850443840026,0.0,0.0,0.5028063058853149,-0.7108989953994751
-0.0315512642264366,0.1948722153902053,0.1947521120309829,-0.5112049579620361,0.1034269258379936,0.1358750313520431,0.0,0.0,0.6643074750900269,-0.4001692533493042
-0.0293652527034282,0.1834755539894104,0.2116293013095855,-0.5070178508758545,0.1103482171893119,0.1384258866310119,0.0,0.0,0.6909918785095215,-0.7245259284973145
-0.0270174983888864,0.1724433749914169,0.22634918987751,-0.4909656643867492,0.1187239363789558,0.1675143241882324,0.0,0.0,0.7318520545959473,-0.7030544877052307
-0.0244956016540527,0.1615157723426818,0.2423707544803619,-0.4864835143089294,0.1284933686256408,0.1953883320093155,0.0,0.0,0.6617960929870605,-0.3927288055419922
-0.0219556801021099,0.1511869728565216,0.2445991486310959,-0.4598927497863769,0.1378460079431533,0.1870530992746353,0.0,0.0,0.701075553894043,-0.6013953685760498
-0.0194157604128122,0.1414961963891983,0.2437424659729004,-0.4316819310188293,0.1480673253536224,0.2044261693954467,0.0,0.0,0.6603492498397827,-0.7261492013931274
-0.0167750362306833,0.1322962790727615,0.2525532245635986,-0.4100722372531891,0.1595765948295593,0.2301854342222213,0.0,0.0,0.44986093044281,-0.7776643633842468
-0.014020537957549,0.1229976043105125,0.2627134025096893,-0.4146892726421356,0.172330766916275,0.2550834715366363,0.0,0.0,0.785111665725708,-0.7868484258651733
-0.011360740289092,0.113954409956932,0.2523045241832733,-0.4035668671131134,0.1860503405332565,0.2743915021419525,0.0,0.0,0.7694500684738159,-0.2338687777519226
-0.0086606023833155,0.105774886906147,0.2564582526683807,-0.3652897179126739,0.1996801048517227,0.2725952267646789,0.0,0.0,0.5853884220123291,-0.3970187902450561
-0.0059683797881007,0.097867950797081,0.256336897611618,-0.3532131314277649,0.2126771956682205,0.2599418759346008,0.0,0.0,0.0612645149230957,-0.5793533325195312
-0.0033942223526537,0.0901486948132515,0.244087666273117,-0.3450581431388855,0.2261589467525482,0.2696346044540405,0.0,0.0,0.6910457611083984,-0.6778674721717834
-0.0008156776311807,0.0829675272107124,0.243568018078804,-0.3214204609394073,0.2406525164842605,0.2898714244365692,0.0,0.0,0.2823274135589599,-0.6541545391082764
0.0016513824230059,0.0760806202888488,0.2318183630704879,-0.3085923790931701,0.2558048665523529,0.3030471205711365,0.0,0.0,0.0722674131393432,-0.7037635445594788
0.0040046693757176,0.069335900247097,0.2197485715150833,-0.3025619685649872,0.2717245817184448,0.3183944225311279,0.0,0.0,-0.1089104413986206,-0.2685437798500061
0.0064811706542968,0.0620673261582851,0.2327321320772171,-0.3258898556232452,0.2870313227176666,0.3061351478099823,0.0,0.0,0.3712203502655029,0.0715105533599853
0.0088467597961425,0.0549514628946781,0.2227602452039718,-0.3190415799617767,0.3012635111808777,0.2846440374851227,0.0,0.0,0.60455322265625,-0.1372947692871093
0.0110453609377145,0.0479742139577865,0.2073969393968582,-0.3127343356609344,0.314180314540863,0.2583360373973846,0.0,0.0,0.8311320543289185,-0.555384635925293
0.0131982807070016,0.0416489206254482,0.2020854651927948,-0.2840449512004852,0.3279184997081756,0.2747637629508972,0.0,0.0,0.4293627738952636,0.307227611541748
0.0154224392026662,0.035277422517538,0.2096618413925171,-0.2861292958259582,0.3412399291992187,0.2664287686347961,0.0,0.0,0.9086989164352416,-0.0697377920150756
0.0176465027034282,0.030849203467369,0.2262814491987228,-0.1959145814180374,0.3371749818325043,-0.0813229233026504,0.0,1.0,0.9938234090805054,0.8959665298461914
0.0194935798645019,0.0281254388391971,0.2076670676469802,-0.1160566955804824,0.312658429145813,-0.4911894202232361,0.0,1.0,0.9797751903533936,-0.803021252155304
0.0209462158381938,0.0268415547907352,0.1810267120599746,-0.0498115569353103,0.2756883800029754,-0.7394905090332031,0.0,1.0,0.8322126865386963,-0.9143036603927612
0.0222033504396677,0.0260789487510919,0.1628541201353073,-0.0273596979677677,0.2377134263515472,-0.7595791220664978,0.0,1.0,0.3669719696044922,-0.9347344636917114
0.0232511516660451,0.0257424209266901,0.1388512998819351,-0.0098287891596555,0.2032113373279571,-0.6900714635848999,0.0,1.0,0.21364426612854,-0.8421748876571655
0.0241726879030466,0.0257396325469017,0.1243476867675781,0.0039722207002341,0.1708592921495437,-0.6470414400100708,0.0,0.0,-0.9992381930351256,-0.6865222454071045
0.0251708980649709,0.0252086259424686,0.1316805332899093,-0.0202450659126043,0.1390170454978943,-0.6368453502655029,0.0,0.0,-0.9970123767852784,-0.6889921426773071
0.0262269023805856,0.0241520497947931,0.1366356462240219,-0.0443510562181472,0.1081373915076255,-0.6175934672355652,0.0,0.0,-0.948583722114563,-0.8833448886871338
0.0273218154907226,0.0225658267736434,0.1391924917697906,-0.0686138793826103,0.0786935538053512,-0.5888769030570984,0.0,0.0,-0.7378684282302856,-0.9600862860679626
0.0284616462886333,0.0204552505165338,0.1424702107906341,-0.092545136809349,0.0505195595324039,-0.5634802579879761,0.0,0.0,0.4261820316314697,-0.8761287927627563
0.0296579357236623,0.0185146182775497,0.1470874845981598,-0.0855498015880584,0.0233986712992191,-0.5424181222915649,0.0,0.0,0.4436006546020508,-0.873748779296875
0.0310306549072265,0.0165235623717308,0.1635573953390121,-0.0882808268070221,-0.0025588585995137,-0.5191508531570435,0.0,0.0,0.5680210590362549,-0.964467465877533
0.0325571075081825,0.0149939870461821,0.1776200830936432,-0.0682053864002227,-0.0272136311978101,-0.4930952191352844,0.0,0.0,0.4332194328308105,-0.929533839225769
0.0341776832938194,0.0140078635886311,0.1858649402856826,-0.044427178800106,-0.050733346492052,-0.4703949093818664,0.0,0.0,0.1261850595474243,-0.8789000511169434
0.0359135642647743,0.0128148170188069,0.1963290274143219,-0.0539494231343269,-0.0732331201434135,-0.4499951899051666,0.0,0.0,0.3945938348770141,-0.6279954314231873
