x_pos,y_pos,x_vel,y_vel,angle,ang_vel,leg_1,leg_2,main_booster,lat_booster
-0.0014604568714275,1.403518557548523,-0.14816714823246,-0.3289591073989868,0.0018911511870101,0.0373146161437034,0.0,0.0,-0.6965423822402954,0.8206491470336914
-0.0027873038779944,1.3960304260253906,-0.1329235136508941,-0.3328068852424621,0.0021300234366208,0.0047786654904484,0.0,0.0,-0.2166702151298523,0.7421426773071289
-0.0039786337874829,1.3884307146072388,-0.1177209466695785,-0.3377660512924194,0.0007310095825232,-0.0279828272759914,0.0,0.0,-0.1865252256393432,0.3249391317367553
-0.0051055909134447,1.3807249069213867,-0.1114271730184555,-0.3424781858921051,-0.0005164096946828,-0.0249506551772356,0.0,0.0,-0.4136911630630493,-0.2761744260787964
-0.0061679841019213,1.3729132413864136,-0.1051196232438087,-0.3471876084804535,-0.001616409048438,-0.0220023225992918,0.0,0.0,-0.6814134120941162,-0.1701268553733825
-0.0071657178923487,1.3649954795837402,-0.0988060608506202,-0.3518963754177093,-0.0025720538105815,-0.0191147550940513,0.0,0.0,-0.430377721786499,0.3760802745819092
-0.0080989841371774,1.3569718599319458,-0.0924945995211601,-0.3566050827503204,-0.0033868830651044,-0.0162982530891895,0.0,0.0,-0.773615300655365,-0.1427942514419555
-0.0089677814394235,1.3488423824310305,-0.0861931592226028,-0.3613138198852539,-0.0040646055713295,-0.0135557428002357,0.0,0.0,-0.6854110360145569,0.7662050724029541
-0.0097132679075002,1.3406150341033936,-0.0724890083074569,-0.3656728565692901,-0.0060961176641285,-0.0406340919435024,0.0,0.0,-0.8090731501579285,-0.6034436225891113
-0.0104422569274902,1.3322856426239014,-0.0721954777836799,-0.3701906502246856,-0.0068003893829882,-0.0140869691967964,0.0,0.0,-0.5603629946708679,0.3062896728515625
-0.0111078266054391,1.3238505125045776,-0.0659698992967605,-0.3748994171619415,-0.0073802904225885,-0.0115989977493882,0.0,0.0,-0.7978914380073547,0.1041243076324462
-0.0117103578522801,1.3153094053268433,-0.0597844496369361,-0.3796082437038421,-0.0078389700502157,-0.0091743487864732,0.0,0.0,-0.8629588484764099,0.4005031585693359
-0.0122502325102686,1.3066622018814087,-0.0536469034850597,-0.3843170404434204,-0.0081810690462589,-0.0068426607176661,0.0,0.0,-0.3182811737060547,-0.0772246122360229
-0.0127281192690134,1.2979092597961426,-0.0475643053650856,-0.3890259861946106,-0.008411162532866,-0.0046021286398172,0.0,0.0,-0.902763605117798,0.4263169765472412
-0.0131448749452829,1.2890503406524658,-0.0415437370538711,-0.3937349319458008,-0.0085339415818452,-0.0024556389544159,0.0,0.0,-0.7197762727737427,-0.2412537932395935
-0.0135009763762354,1.2800853252410889,-0.0355921275913715,-0.3984438776969909,-0.0085542453452944,-0.0004061248619109,0.0,0.0,-0.5646922588348389,-0.7514889240264893
-0.0138429645448923,1.2710237503051758,-0.0354516878724098,-0.4027314484119415,-0.007326447404921,0.0245586074888706,0.0,0.0,-0.5344782471656799,-0.4049805998802185
-0.0141262058168649,1.261856198310852,-0.0296617597341537,-0.4074406623840332,-0.0060069523751735,0.0263922847807407,0.0,0.0,-0.8779857158660889,-0.4518972635269165
-0.0143515588715672,1.252582550048828,-0.0239603966474533,-0.4121498763561249,-0.0046003386378288,0.0281351394951343,0.0,0.0,-0.9461170434951782,-0.128767728805542
-0.0145200733095407,1.2432031631469729,-0.0183544270694255,-0.4168591797351837,-0.003112182021141,0.02976556122303,0.0,0.0,-0.953865110874176,-0.4138344526290893
-0.0146326068788766,1.233717918395996,-0.0128499520942568,-0.4215685725212097,-0.0015480604488402,0.0312856659293174,0.0,0.0,-0.9786061644554138,-0.6619774699211121
-0.0147420885041356,1.2241230010986328,-0.0138907730579376,-0.4264379441738128,0.0013760791625827,0.058487843722105,0.0,0.0,-0.9266117811203004,0.1858470439910888
-0.0147979734465479,0.0,-0.0086112190037965,-0.4311479032039642,0.0043641510419547,0.0597667209804058,0.0,0.0,-0.9700863361358644,-0.0308204889297485
-0.0148017881438136,1.2046157121658323,-0.0034503128845244,-0.4358579516410827,0.0074111483991146,0.0609452798962593,0.0,0.0,-0.9468178749084472,-0.7237805724143982
-0.0148254390805959,1.1947046518325806,-0.0072935842908918,-0.4405230283737182,0.0122893406078219,0.097572349011898,0.0,0.0,-0.939192831516266,0.1074403524398803
-0.0147992130368947,1.1846665143966677,-0.0023744041100144,-0.4461881220340729,0.017214210703969,0.0984974801540374,0.0,0.0,-0.9249867796897888,-0.0869552493095398
-0.0147249223664402,1.174522876739502,0.0024058024864643,-0.4508973360061645,0.0221807993948459,0.0993315801024437,0.0,0.0,-0.9452509880065918,0.7513378858566284
-0.0145573616027832,1.1642827987670898,0.0128751741722226,-0.4551734626293182,0.0260127559304237,0.0766389966011047,0.0,0.0,-0.9278393983840942,0.609898567199707
-0.0143068311735987,1.1539435386657717,0.0221048593521118,-0.4595757126808166,0.0289244148880243,0.0582329928874969,0.0,0.0,-0.5641447901725769,0.2004196643829345
-0.0140125276520848,1.1434986591339111,0.026452088728547,-0.4642835557460785,0.0318607427179813,0.0587268956005573,0.0,0.0,-0.8215054869651794,-0.1410653591156005
-0.0136760715395212,1.13294780254364,0.0306464023888111,-0.4689914286136627,0.0348160788416862,0.0591067448258399,0.0,0.0,-0.8911521434783936,0.2353322505950927
-0.0132991792634129,1.1222913265228271,0.034683957695961,-0.4736992716789245,0.0377847328782081,0.0593730397522449,0.0,0.0,-0.9203026294708252,0.5344927310943604
-0.0128471376374363,1.111535906791687,0.0431252308189868,-0.4780688285827636,0.0398428328335285,0.0411623083055019,0.0,0.0,-0.8820897340774536,0.2267022132873535
-0.0123579027131199,1.100674748420715,0.0468389466404914,-0.4827762842178345,0.0419030226767063,0.0412038043141365,0.0,0.0,-0.9604528546333312,0.3388044834136963
-0.0118332859128713,1.089707612991333,0.0503862127661705,-0.4874837100505829,0.043959766626358,0.041134625673294,0.0,0.0,-0.861295759677887,0.2510982751846313
-0.0112748146057128,1.0786347389221191,0.0537644699215889,-0.4921911656856537,0.046007577329874,0.0409564673900604,0.0,0.0,-0.9294618964195251,-0.0222578048706054
-0.01068458519876,1.0674560070037842,0.0569714717566967,-0.4968985617160797,0.0480411387979984,0.0406712517142295,0.0,0.0,-0.8631950616836548,0.4670929908752441
-0.0100641250610351,1.056171417236328,0.060005348175764,-0.5016059279441833,0.05005519464612,0.0402812324464321,0.0,0.0,-0.8831748962402344,-0.2489802837371826
-0.0094153406098485,1.044780969619751,0.0628645867109298,-0.5063132643699646,0.0520446337759494,0.0397888720035553,0.0,0.0,-0.7982978224754333,0.5156345367431641
-0.0086974147707223,1.0332883596420288,0.0708990544080734,-0.5108054280281067,0.0529300719499588,0.0177088286727666,0.0,0.0,-0.9456135034561156,0.3314058780670166
-0.0079547883942723,1.021690011024475,0.0734059810638427,-0.5155124664306641,0.0537810735404491,0.0170199535787105,0.0,0.0,-0.8589333295822144,0.0310860872268676
-0.0071892738342285,1.0099859237670898,0.0757360085844993,-0.5202194452285767,0.0545929409563541,0.0162373166531324,0.0,0.0,-0.9646109342575072,0.3643679618835449
-0.0064025879837572,0.99817556142807,0.0778891518712043,-0.5249264240264893,0.0553611628711223,0.0153641207143664,0.0,0.0,-0.9323063492774964,0.1455930471420288
-0.00559663772583,0.9862595796585084,0.0798658356070518,-0.5296333432197571,0.0560813546180725,0.0144038498401641,0.0,0.0,-0.8918523788452148,0.1993273496627807
-0.0047732354141771,0.9742375612258912,0.0816668644547462,-0.5343402028083801,0.0567492954432964,0.0133587419986724,0.0,0.0,-0.8352867960929871,0.4678704738616943
-0.0039340974763035,0.962109386920929,0.083293430507183,-0.5390470623970032,0.0573610067367553,0.0122342612594366,0.0,0.0,-0.941533386707306,-0.1580779552459716
-0.0030810355674475,0.0,0.0847471505403518,-0.5437538623809814,0.0579126626253128,0.011033016256988,0.0,0.0,-0.7258747220039368,0.1515877246856689
-0.0022158622741699,0.9375356435775756,0.0860299989581108,-0.5484607219696045,0.0584005899727344,0.0097585944458842,0.0,0.0,-0.965283215045929,0.2463016510009765
-0.0013401031028479,0.9250895977020264,0.0871443599462509,-0.553167462348938,0.0588213093578815,0.0084145199507474,0.0,0.0,-0.8433428406715393,-0.2862446308135986
-0.0004556655767373,0.9125378727912904,0.0880929827690124,-0.5578742623329163,0.0591715313494205,0.0070043369196355,0.0,0.0,-0.9465456008911132,0.4882717132568359
0.00043592453585,0.8998799920082092,0.0888789966702461,-0.562580943107605,0.0594481080770492,0.005531532689929,0.0,0.0,-0.7117022275924683,-0.4224679470062256
0.0013330460060387,0.8871162533760071,0.0895058810710907,-0.5672876238822937,0.0596481002867221,0.0039995284751057,0.0,0.0,-0.9151372313499452,-0.3472960591316223
0.0022339820861816,0.87424635887146,0.0899774953722953,-0.5719943642616272,0.0597686879336833,0.0024117471184581,0.0,0.0,-0.913023054599762,-0.0266969203948974
0.0031373023521155,0.8612707853317261,0.0902980417013168,-0.5767010450363159,0.0598072595894336,0.0007713885279372,0.0,0.0,-0.9298462867736816,-0.2349122166633606
0.0040416717529296,0.8481888771057129,0.0904720276594162,-0.5814077258110046,0.0597613453865051,-0.0009180808556266,0.0,0.0,-0.8246707916259766,-0.6730231046676636
0.0048838616348803,0.8349927067756653,0.0827869027853012,-0.5865557193756104,0.0611813962459564,0.0284012611955404,0.0,0.0,-0.9680438041687012,0.5466641187667847
0.0057739256881177,0.8217002749443054,0.0889265090227127,-0.5907834768295288,0.0612533502280712,0.0014390866272151,0.0,0.0,-0.6906979084014893,-0.064225435256958
0.006660652346909,0.8083018064498901,0.0886912196874618,-0.5954900979995728,0.0612343661487102,-0.0003798110410571,0.0,0.0,-0.408387541770935,-0.5688789486885071
0.0075032236054539,0.7947995066642761,0.083368495106697,-0.6001384854316711,0.062113057821989,0.01757388189435,0.0,0.0,-0.8983759880065918,0.4572224617004394
0.0083399768918752,0.7811911702156067,0.0828885957598686,-0.6048451662063599,0.0628972128033638,0.0156828612089157,0.0,0.0,-0.7739028334617615,0.9156112670898438
0.0092487335205078,0.7674762606620789,0.092174120247364,-0.6094909906387329,0.0616094172000885,-0.0257560368627309,0.0,0.0,-0.7912054061889648,-0.7275931239128113
0.0100822448730468,0.7536531090736389,0.0830478146672248,-0.6143759489059448,0.061912540346384,0.0060621337033808,0.0,0.0,-0.8277788162231445,-0.0775423049926757
0.01090669631958,0.7397240996360779,0.0822487324476242,-0.6190824508666992,0.0621166601777076,0.0040821996517479,0.0,0.0,-0.7531894445419312,0.4366061687469482
0.0117213251069188,0.7256887555122375,0.081356942653656,-0.6237890720367432,0.0622205175459384,0.002077235141769,0.0,0.0,-0.9129027724266052,0.7660150527954102
0.0125866886228322,0.7115477323532104,0.0880933254957199,-0.6284277439117432,0.0606796443462371,-0.0308176167309284,0.0,0.0,-0.7125009298324585,-0.6491220593452454
0.013378620147705,0.6972955465316772,0.0792803615331649,-0.6334323287010193,0.0605938695371151,-0.0017154697561636,0.0,0.0,-0.8970311880111694,0.5827308893203735
0.0142055507749319,0.6829483509063721,0.0841090530157089,-0.6375954151153564,0.0592019483447074,-0.0278385821729898,0.0,0.0,-0.2236539721488952,-0.4819519519805908
0.0150197027251124,0.6684953570365906,0.0829203054308891,-0.6423021554946899,0.0577058047056198,-0.029922679066658,0.0,0.0,0.059097409248352,-0.5760701298713684
0.0157622341066598,0.6547601222991943,0.0746916458010673,-0.610436737537384,0.0572784803807735,-0.0085465610027313,0.0,0.0,-0.4881129264831543,-0.7112879157066345
0.0164259914308786,0.6409103274345398,0.065260000526905,-0.6155927777290344,0.0583829917013645,0.0220901407301425,0.0,0.0,-0.946353316307068,0.9270886182785034
0.017137337476015,0.62696373462677,0.0717051178216934,-0.6198241710662842,0.0578165426850318,-0.0113288797438144,0.0,0.0,-0.5893210172653198,-0.2534230351448059
0.0178339965641498,0.6129112243652344,0.0703459456562995,-0.6245306730270386,0.0571433492004871,-0.0134637774899601,0.0,0.0,-0.5082091093063354,0.0183491706848144
0.0185157768428325,0.5987527966499329,0.0689650401473045,-0.6292372345924377,0.0563629642128944,-0.0156074911355972,0.0,0.0,-0.5112751126289368,-0.689985454082489
0.0191347114741802,0.5844842791557312,0.0615654289722442,-0.6341697573661804,0.0566806308925151,0.0063534849323332,0.0,0.0,-0.7548733353614807,0.2954062223434448
0.0197384841740131,0.5701096653938293,0.060166947543621,-0.6388763189315796,0.0568904541432857,0.0041961586102843,0.0,0.0,-0.8622521162033081,0.6310292482376099
0.0203829761594533,0.5556272864341736,0.0657602697610855,-0.6436147093772888,0.0555957891047,-0.0258931573480367,0.0,0.0,-0.0222802758216857,-0.7293699383735657
0.0209521297365427,0.5410264730453491,0.0567956790328025,-0.6489267349243164,0.0557220056653022,0.0025240483228117,0.0,0.0,-0.4950610399246216,-0.1797565221786499
0.0215066913515329,0.5263197422027588,0.0554370358586311,-0.6536332964897156,0.0557397902011871,0.0003557060845196,0.0,0.0,-0.7419836521148682,-0.0846318006515502
0.0220468528568744,0.511506974697113,0.0541096441447734,-0.6583398580551147,0.0556490831077098,-0.0018141526961699,0.0,0.0,-0.645948052406311,-0.7010160684585571
0.0225071907043457,0.4965898990631103,0.0445518009364604,-0.6630399823188782,0.0571034848690032,0.0290879867970943,0.0,0.0,-0.8811244964599609,0.1445411443710327
0.0229538921266794,0.4815667569637298,0.043314304202795,-0.6677466630935669,0.0584494173526763,0.0269184075295925,0.0,0.0,-0.7872925400733948,0.3955261707305908
0.0233878139406442,0.4664376676082611,0.0421355180442333,-0.6724533438682556,0.0596869327127933,0.024750517681241,0.0,0.0,-0.1504251956939697,-0.4504159688949585
0.0238094329833984,0.4512025713920593,0.0410246700048446,-0.6771599650382996,0.0608161874115467,0.0225851945579051,0.0,0.0,-0.4928745031356811,-0.2830299735069275
0.0242197029292583,0.4358615577220917,0.0399910099804401,-0.6818665266036987,0.0618373602628707,0.0204233042895793,0.0,0.0,0.3927334547042846,0.0642677545547485
0.0245729442685842,0.421296089887619,0.0344436541199684,-0.64738929271698,0.0627039894461631,0.0173324216157197,0.0,0.0,-0.8455838561058044,-0.0669182538986206
0.0249164588749408,0.4066246151924133,0.0335921272635459,-0.6520958542823792,0.0634630024433136,0.0151801612228155,0.0,0.0,-0.3468911051750183,-0.3429572582244873
0.0252514835447073,0.3918472230434418,0.0328455194830894,-0.6568023562431335,0.0641146972775459,0.013033902272582,0.0,0.0,0.530802845954895,0.053911805152893
0.0256410595029592,0.3775305151939392,0.0379997640848159,-0.6363383531570435,0.0650570169091224,0.0188464559614658,0.0,0.0,-0.0449306964874267,0.2916009426116943
0.0260244365781545,0.3631078004837036,0.0374905280768871,-0.6410449147224426,0.0658927485346794,0.0167146641761064,0.0,0.0,0.5657827854156494,0.4654128551483154
0.0265101436525583,0.3491516709327698,0.0472189784049987,-0.6203342080116272,0.067233458161354,0.0268141143023967,0.0,0.0,-0.2017276287078857,0.144521951675415
0.0269925110042095,0.3350895345211029,0.0469833835959434,-0.6250407695770264,0.0684684365987777,0.0246998537331819,0.0,0.0,0.2158354520797729,0.0698678493499755
0.0274573322385549,0.3217591047286987,0.0452459603548049,-0.5925201177597046,0.0697035193443298,0.0247015599161386,0.0,0.0,0.5003209114074707,-0.1737092733383178
0.0279926303774118,0.3092409670352936,0.0518559627234935,-0.5564393997192383,0.0713570341467857,0.0330700352787971,0.0,0.0,-0.1913054585456848,0.1064447164535522
0.0285292621701955,0.2966169118881225,0.0520969703793525,-0.561146080493927,0.0729064047336578,0.0309873614460229,0.0,0.0,0.1998685598373413,0.1420619487762451
0.0290040019899606,0.2844359874725342,0.0461934395134449,-0.5414390563964844,0.0741756781935691,0.0253854934126138,0.0,0.0,0.2740737199783325,-0.0698320865631103
0.0294995307922363,0.2731515169143677,0.048069916665554,-0.5016034245491028,0.0756439268589019,0.029364813119173,0.0,0.0,0.0002380609512329,-0.5418968796730042
0.0299174301326274,0.2622697055339813,0.0393463820219039,-0.4837623536586761,0.0780656039714813,0.0484335012733936,0.0,0.0,0.4285221099853515,0.297605037689209
0.0301834102720022,0.252297967672348,0.0247531775385141,-0.4432862102985382,0.0798879191279411,0.0364463701844215,0.0,0.0,0.0780500173568725,0.7069857120513916
0.0305442810058593,0.2429191023111343,0.0357078984379768,-0.4168587923049927,0.0802592262625694,0.0074264979921281,0.0,0.0,0.1846115589141845,-0.7115651369094849
0.0307754520326852,0.2342316657304763,0.0214679725468158,-0.3861952424049377,0.0818947032094001,0.0327093079686164,0.0,0.0,0.1169861555099487,0.6296210289001465
0.0309673305600881,0.226198062300682,0.0190014913678169,-0.3570612370967865,0.0820887684822082,0.0038812782149761,0.0,0.0,0.222367525100708,-0.2115004062652588
0.0311284065246582,0.2186069041490554,0.0160965267568826,-0.3373837769031524,0.0820991545915603,0.0002078546385746,0.0,0.0,0.0486024618148803,0.7542399168014526
0.031252384185791,0.2114780247211456,0.0140446722507476,-0.3167508840560913,0.0804575905203819,-0.032831072807312,0.0,0.0,0.0665434598922729,-0.4642531275749206
0.0312746055424213,0.2047369629144668,0.0044350223615765,-0.2994858026504516,0.0782698318362236,-0.0437552519142627,0.0,0.0,-0.4345263242721557,0.0731580257415771
0.0313217155635356,0.1978898793458938,0.0070150708779692,-0.3041926622390747,0.0759860947728157,-0.0456744842231273,0.0,0.0,0.0838123559951782,-0.4651854038238525
0.0314179435372352,0.1913035959005355,0.0118321971967816,-0.2926152646541595,0.0737934485077858,-0.0438527166843414,0.0,0.0,0.106393814086914,-0.8173542022705078
0.0315539352595806,0.1853871494531631,0.0142076266929507,-0.2629203498363495,0.0731898322701454,-0.0120723284780979,0.0,0.0,-0.6541570425033569,-0.739628255367279
0.0316615104675293,0.179364264011383,0.0099140089005231,-0.2677258253097534,0.0740201100707054,0.0166056305170059,0.0,0.0,-0.2164569497108459,-0.2300547957420349
0.031804084777832,0.1732353717088699,0.0135127454996109,-0.2724323570728302,0.0747581347823143,0.014760504476726,0.0,0.0,0.0088744163513183,-0.4744504690170288
0.0320043563842773,0.1675351411104202,0.0191597640514373,-0.2533876895904541,0.0756203904747963,0.0172447878867387,0.0,0.0,-0.3290191888809204,-0.6436071395874023
0.0321932807564735,0.161729484796524,0.016804601997137,-0.2581343650817871,0.0776876211166381,0.0413447394967079,0.0,0.0,0.3428974151611328,-0.3097596168518066
0.0324247367680072,0.1567809879779815,0.0209160521626472,-0.2200495153665542,0.0798936486244201,0.0441204831004142,0.0,0.0,-0.7703899145126343,0.0171175003051757
0.0327018722891807,0.151726633310318,0.025574654340744,-0.2247564047574997,0.0820113942027092,0.0423552691936492,0.0,0.0,-0.2521107792854309,-0.3010317683219909
0.0330273620784282,0.1465662121772766,0.0305004268884658,-0.2294632643461227,0.0840419307351112,0.0406106784939765,0.0,0.0,0.2661609649658203,-0.8444004654884338
0.0331921577453613,0.1418649107217788,0.012915601953864,-0.2091549932956695,0.0875726342201232,0.0706138908863067,0.0,0.0,-0.2157760858535766,-0.2660130858421325
0.0334106460213661,0.137057676911354,0.0183745026588439,-0.2138624787330627,0.0910181775689125,0.0689109936356544,0.0,0.0,-0.0125567913055419,0.3811249732971191
0.0336855873465538,0.1321445852518081,0.0240981467068195,-0.2185699045658111,0.0943796262145042,0.0672291666269302,0.0,0.0,0.1334483623504638,-0.3551667928695678
0.0340853706002235,0.1275067180395126,0.0362623110413551,-0.2063671201467514,0.0980725064873695,0.0738573968410492,0.0,0.0,0.0681203603744506,-0.5793018341064453
0.0345279686152935,0.1234291866421699,0.0393446609377861,-0.1815536171197891,0.1029418557882309,0.0973869860172271,0.0,0.0,-0.3349707722663879,-0.0106535553932189
0.0350347533822059,0.1192459464073181,0.0458492375910282,-0.1862619668245315,0.1077302619814872,0.095768317580223,0.0,0.0,-0.0277805924415588,-0.4043587446212768
0.0356081947684288,0.1149569824337959,0.0526079125702381,-0.190970242023468,0.1124387979507446,0.0941706970334053,0.0,0.0,-0.114158809185028,-0.8774169683456421
0.0361930839717388,0.1105540841817855,0.0523590445518493,-0.1961592584848404,0.1185331717133522,0.1218874230980873,0.0,0.0,-0.2429184317588806,-0.3272913694381714
