x_pos,y_pos,x_vel,y_vel,angle,ang_vel,leg_1,leg_2,main_booster,lat_booster
-0.0015211105346679,1.4029568433761597,-0.1541978269815445,-0.3539260625839233,0.0018637733301147,0.0367723144590854,0.0,0.0,0.0949047803878784,0.7812539339065552
-0.0029400824569165,1.3948038816452026,-0.142300859093666,-0.3623488247394562,0.0022600414231419,0.0079268086701631,0.0,0.0,-0.1811257600784301,0.6171412467956543
-0.0042986869812011,1.3859784603118896,-0.1348434388637542,-0.3922398388385772,0.0012555177090689,-0.0200921036303043,0.0,0.0,-0.2469978332519531,0.4352097511291504
-0.0056567192077636,1.3764853477478027,-0.1348767578601837,-0.4219169914722442,0.0003394220257177,-0.018323965370655,0.0,0.0,0.1821950674057006,0.592286229133606
-0.0068661691620945,1.3670263290405271,-0.1191104426980018,-0.4203987419605255,-0.0014711419353261,-0.0362144894897937,0.0,0.0,-0.0769464969635009,0.7658936977386475
-0.0080021861940622,1.356898307800293,-0.1099800467491149,-0.4501384496688843,-0.0050571649335324,-0.0717270746827125,0.0,0.0,0.2670671939849853,0.1350965499877929
-0.0091544147580862,1.3467674255371094,-0.1115982681512832,-0.450281023979187,-0.0086423140019178,-0.071709468960762,0.0,0.0,0.4977943897247314,0.7323935031890869
-0.0100957872346043,1.3368480205535889,-0.0894149541854858,-0.4408942461013794,-0.01331053301692,-0.0933730378746986,0.0,0.0,-0.4665285348892212,0.2096483707427978
-0.0110391620546579,1.326261281967163,-0.0897007808089256,-0.4705758988857269,-0.0178994555026292,-0.0917867124080658,0.0,0.0,0.0184929370880126,-0.7987349033355713
-0.0120404241606593,1.315685153007507,-0.0971688032150268,-0.4700849950313568,-0.0208290964365005,-0.0585982613265514,0.0,0.0,-0.0185143947601318,-0.1160528659820556
-0.0130447391420602,1.3044414520263672,-0.097539484500885,-0.4997665286064148,-0.0236848723143339,-0.0571207888424396,0.0,0.0,-0.4823799729347229,-0.0496049523353576
-0.0140522960573434,1.2925300598144531,-0.0979437455534935,-0.5294408798217773,-0.026468051597476,-0.0556685030460357,0.0,0.0,0.3982083797454834,-0.0684366226196289
-0.0149376867339015,1.2808341979980469,-0.0863132178783416,-0.5198514461517334,-0.0286600589752197,-0.0438445396721363,0.0,0.0,-0.7561215162277222,-0.3736594915390014
-0.0158269889652729,1.2684707641601562,-0.0867768600583076,-0.5495348572731018,-0.0307849328964948,-0.0425016097724437,0.0,0.0,-0.6217538714408875,-0.7384657263755798
-0.0167648307979106,1.2554491758346558,-0.0928431823849678,-0.5787535309791565,-0.0317213125526905,-0.0187292732298374,0.0,0.0,-0.107794165611267,-0.8826262950897217
-0.0177643783390522,1.2417523860931396,-0.1005191802978515,-0.6087388396263123,-0.0311637576669454,0.0111521203070878,0.0,0.0,0.0698664188385009,-0.213771641254425
-0.0186621658504009,1.228214144706726,-0.0908236801624298,-0.6016784310340881,-0.0301277562975883,0.020721897482872,0.0,0.0,-0.3926510214805603,-0.4476745128631592
-0.0195647235959768,1.2140079736709597,-0.0913650393486023,-0.6313608884811401,-0.0290345940738916,0.02186537720263,0.0,0.0,0.2290984392166137,-0.8476300835609436
-0.0204386711120605,1.2000370025634766,-0.0903239995241165,-0.6208786368370056,-0.0261356532573699,0.0579841509461402,0.0,0.0,-0.2390332221984863,0.1452234983444214
-0.0213176719844341,1.1853982210159302,-0.0908832773566246,-0.650562047958374,-0.0231857746839523,0.0590026676654815,0.0,0.0,-0.4776238203048706,-0.0154381394386291
-0.0222017280757427,1.1700918674468994,-0.0914421305060386,-0.6802364587783813,-0.0201863143593072,0.059994526207447,0.0,0.0,-0.2843167781829834,0.1932505369186401
-0.0230910293757915,1.1541180610656738,-0.0919984653592109,-0.7099118828773499,-0.0171403288841247,0.0609250292181968,0.0,0.0,0.1872525215148925,0.1562271118164062
-0.0238852500915527,1.1380611658096311,-0.0829881727695465,-0.7136103510856628,-0.0136167285963892,0.0704781860113143,0.0,0.0,-0.1023604273796081,0.2367428541183471
-0.0246846191585063,1.1213363409042358,-0.0835297778248786,-0.743291437625885,-0.0100523652508854,0.0712932795286178,0.0,0.0,0.0068997144699096,0.2006474733352661
-0.0255714412778615,1.1045336723327637,-0.0919127762317657,-0.7467634081840515,-0.0068506593815982,0.0640394911170005,0.0,0.0,0.7269247770309448,0.1233136653900146
-0.0266102794557809,1.0881474018096924,-0.1064469367265701,-0.728267252445221,-0.0043174531310796,0.0506640784442424,0.0,0.0,-0.6304605007171631,0.3610190153121948
-0.0276535041630268,1.0710935592651367,-0.1069275736808776,-0.7579418420791626,-0.0017506221774965,0.0513366274535656,0.0,0.0,0.2276316881179809,0.3949582576751709
-0.0287970546633005,1.0542924404144287,-0.1165307536721229,-0.7467230558395386,0.0003979126340709,0.0429707802832126,0.0,0.0,-0.9237381219863892,-0.7684813141822815
-0.0300186164677143,1.0368298292160034,-0.1262452006340026,-0.7761178612709045,0.0044339401647448,0.080720767378807,0.0,0.0,-0.3734089136123657,0.2529748678207397
-0.0312439911067485,1.0187000036239624,-0.1266458332538604,-0.8057932257652283,0.0084956148639321,0.0812335461378097,0.0,0.0,0.2784953117370605,0.5821782350540161
-0.032416246831417,1.0008925199508667,-0.1202313676476478,-0.791459321975708,0.0114533090963959,0.0591540038585662,0.0,0.0,-0.044008731842041,0.8329946994781494
-0.0335342399775981,0.982413649559021,-0.1133571043610572,-0.8212950825691223,0.0129891438409686,0.0307165626436471,0.0,0.0,0.9788089990615844,-0.0478959679603576
-0.034766387194395,0.9647051692008972,-0.1243193745613098,-0.7870479822158813,0.0140853784978389,0.021924627944827,0.0,0.0,-0.2147302031517028,0.4155597686767578
-0.0360008254647254,0.9463292956352234,-0.1245707720518112,-0.8167220950126648,0.015197048895061,0.0222334992140531,0.0,0.0,0.7153137922286987,0.7176826000213623
-0.0371718406677246,0.9282656311988832,-0.1168392673134803,-0.8028303384780884,0.0149338981136679,-0.0052628405392169,0.0,0.0,0.4202247858047485,-0.5109099745750427
-0.0383776649832725,0.9105126857757568,-0.1214013323187828,-0.7890282273292542,0.0157387107610702,0.0160960555076599,0.0,0.0,0.6290621757507324,0.0424290895462036
-0.0396175384521484,0.8927647471427917,-0.1246830374002456,-0.7888022661209106,0.0164320692420005,0.013867157511413,0.0,0.0,0.7222754955291748,0.6084802150726318
-0.0407799705862998,0.8755462765693665,-0.115843079984188,-0.7652624249458313,0.0160280410200357,-0.00808044988662,0.0,0.0,-0.3913288116455078,0.3827152252197265
-0.0419424995779991,0.857660174369812,-0.1158474534749984,-0.79493647813797,0.0156277995556592,-0.0080045526847243,0.0,0.0,-0.8194466233253479,0.282644510269165
-0.0431044586002826,0.8391062617301941,-0.1157953888177871,-0.8246105909347534,0.0152292139828205,-0.0079715754836797,0.0,0.0,0.7809386253356934,-0.0846493244171142
-0.0443931594491004,0.8211410641670227,-0.1279296278953552,-0.7984473705291748,0.0142977284267544,-0.0186295881867408,0.0,0.0,-0.5665723085403442,0.5448734760284424
-0.045628260821104,0.8025079369544983,-0.1212387904524803,-0.8281141519546509,0.0120582217350602,-0.0447901487350463,0.0,0.0,0.9222232103347778,0.6605274677276611
-0.046691607683897,0.7837506532669067,-0.103048488497734,-0.8336412906646729,0.008812085725367,-0.0649226382374763,0.0,0.0,0.709903359413147,-0.3974193930625915
-0.0476541519165039,0.7651476860046387,-0.0934375971555709,-0.8267862200737,0.0060350610874593,-0.0555406212806701,0.0,0.0,0.9092321395874025,0.2462931871414184
-0.0486620888113975,0.7463871240615845,-0.0977559983730316,-0.8337913155555725,0.0030327122658491,-0.0600465722382068,0.0,0.0,0.887347936630249,-0.2917405366897583
-0.0496145263314247,0.7275319695472717,-0.0924387201666832,-0.8380078077316284,0.0002634421980474,-0.0553853511810302,0.0,0.0,0.7819631099700928,0.087894320487976
-0.0504963882267475,0.7087321877479553,-0.0856807604432106,-0.8355475664138794,-0.0022127837873995,-0.0495246015489101,0.0,0.0,0.954113245010376,0.0443117618560791
-0.0515034683048725,0.6907445192337036,-0.0975634306669235,-0.7994583249092102,-0.0053168386220932,-0.0620809905230999,0.0,0.0,0.4613065719604492,0.6016662120819092
-0.0525808334350585,0.6731410622596741,-0.1030784398317337,-0.7824006676673889,-0.0099108312278985,-0.0918801575899124,0.0,0.0,0.5312149524688721,0.3559083938598633
-0.0536661148071289,0.655577540397644,-0.1037713438272476,-0.7806385159492493,-0.0146112414076924,-0.0940078794956207,0.0,0.0,0.7463796138763428,-0.0661456584930419
-0.0545834526419639,0.63824862241745,-0.0876575484871864,-0.7702178359031677,-0.0186271779239177,-0.0803188383579254,0.0,0.0,0.6437323093414307,0.0010962486267089
-0.0555358901619911,0.621353268623352,-0.0908980667591095,-0.7509706616401672,-0.0229262858629226,-0.0859820693731308,0.0,0.0,0.7977355718612671,0.0001646280288696
-0.0563493743538856,0.6045116186141968,-0.077529028058052,-0.7485779523849487,-0.0266943238675594,-0.0753610432147979,0.0,0.0,0.7114953994750977,-0.3610709309577942
-0.0571276657283306,0.5882415771484375,-0.0740095600485801,-0.723188579082489,-0.0304672978818416,-0.0754593536257743,0.0,0.0,0.6535663604736328,0.3581079244613647
-0.0577316284179687,0.5720288157463074,-0.0572455339133739,-0.7206347584724426,-0.0335715226829052,-0.0620846226811409,0.0,0.0,0.3910913467407226,0.1808089017868042
-0.0583913810551166,0.5557473301887512,-0.0624366290867328,-0.7237032651901245,-0.0370698794722557,-0.0699673891067504,0.0,0.0,0.5083317756652832,-0.2459000349044799
-0.0589265823364257,0.5398843288421631,-0.0503501407802104,-0.7051059007644653,-0.0401938930153846,-0.0624803602695465,0.0,0.0,0.1639693975448608,-0.2475028038024902
-0.0593328475952148,0.524060070514679,-0.0378963202238082,-0.703377366065979,-0.0428914800286293,-0.0539518482983112,0.0,0.0,0.8277095556259155,-0.4167014360427856
-0.0596041679382324,0.5089279413223267,-0.0247626211494207,-0.6726111769676208,-0.0452306158840656,-0.046782549470663,0.0,0.0,0.6118142604827881,-0.7839160561561584
-0.0599706657230854,0.4942934513092041,-0.0356838442385196,-0.6504489779472351,-0.046179786324501,-0.0189837031066417,0.0,0.0,0.3794491291046142,0.6329922676086426
-0.0602112784981727,0.4794424474239349,-0.0218975450843572,-0.6601116061210632,-0.048323355615139,-0.0428713932633399,0.0,0.0,0.5160412788391113,-0.643963098526001
-0.060556698590517,0.4649025797843933,-0.0334256403148174,-0.6462551951408386,-0.0494222827255725,-0.0219786968082189,0.0,0.0,0.034799575805664,0.7625257968902588
-0.0607201568782329,0.4501672983169555,-0.0137256858870387,-0.6549895405769348,-0.0520173460245132,-0.051901064813137,0.0,0.0,0.762305736541748,-0.2405317425727844
-0.0608078949153423,0.4357419013977051,-0.0062393760308623,-0.6412183046340942,-0.0545213297009468,-0.0500794872641563,0.0,0.0,0.6585545539855957,-0.5907019972801208
-0.0608946792781353,0.4212503731250763,-0.0073384852148592,-0.6441164016723633,-0.0558547973632812,-0.0266692489385604,0.0,0.0,0.738438606262207,-0.0796747803688049
-0.0610589012503623,0.4070335328578949,-0.0144430082291364,-0.6319336295127869,-0.0578159242868423,-0.039222277700901,0.0,0.0,0.7751064300537109,0.0925393104553222
-0.06112851947546,0.3935241401195526,-0.0050535951741039,-0.6004951596260071,-0.0596952699124813,-0.037587035447359,0.0,0.0,0.7118031978607178,-0.127470314502716
-0.0610759742558002,0.3797931671142578,0.0067841112613677,-0.6103276014328003,-0.061205830425024,-0.0302112903445959,0.0,0.0,0.857107400894165,-0.7015790343284607
-0.0609672553837299,0.3668414354324341,0.0109330732375383,-0.575635552406311,-0.0612646453082561,-0.0011762776412069,0.0,0.0,0.5464804172515869,-0.4461673498153686
-0.0608990676701068,0.353893518447876,0.0073152454569935,-0.5754834413528442,-0.0617547743022441,-0.0098025538027286,0.0,0.0,0.579216480255127,-0.6868792772293091
-0.0609201416373252,0.3412638306617737,-0.0027710134163498,-0.5612961053848267,-0.0610978789627552,0.0131376478821039,0.0,0.0,0.672126293182373,0.2958967685699463
-0.0608504302799701,0.3289066553115845,0.0061905728653073,-0.5491772890090942,-0.0603196322917938,0.0155647872015833,0.0,0.0,0.49655282497406,-0.4933766722679138
-0.060829259455204,0.3170377612113952,0.0019022421911358,-0.5274971127510071,-0.0601031631231308,0.0043295631185173,0.0,0.0,0.694544792175293,-0.0755747556686401
-0.0606749542057514,0.3053812384605407,0.014877550303936,-0.5180438756942749,-0.0595592521131038,0.010878168977797,0.0,0.0,0.3405636548995971,0.0939233303070068
-0.0605064406991004,0.2935347557067871,0.0164530873298645,-0.5264963507652283,-0.059162188321352,0.0079412404447793,0.0,0.0,0.835006833076477,-0.5369538068771362
-0.0602559074759483,0.2815521359443664,0.0233613438904285,-0.5324922204017639,-0.0574882812798023,0.0334780551493167,0.0,0.0,0.8138608932495117,0.1904879808425903
-0.0599950775504112,0.2694630324840545,0.024570170789957,-0.5372372269630432,-0.0559932105243206,0.0299014002084732,0.0,0.0,0.7799954414367676,-0.5614407062530518
-0.0597163215279579,0.2579958438873291,0.0252765603363513,-0.5095608234405518,-0.0534232668578624,0.0513986051082611,0.0,0.0,0.5706435441970825,0.359167218208313
-0.0592959411442279,0.247016504406929,0.0390990488231182,-0.487865149974823,-0.0505174361169338,0.0581165477633476,0.0,0.0,0.6171107292175293,0.0298631191253662
-0.0589202865958213,0.236576572060585,0.0351521968841552,-0.4639218747615814,-0.0481346175074577,0.0476564466953277,0.0,0.0,0.3962888717651367,-0.5670016407966614
-0.0586702339351177,0.2258943617343902,0.0217332411557436,-0.4746618866920471,-0.0449016690254211,0.0646590664982795,0.0,0.0,0.2720111608505249,0.2854084968566894
-0.0583367347717285,0.215454563498497,0.0299434252083301,-0.4638917148113251,-0.0415372774004936,0.067287728190422,0.0,0.0,0.4876606464385986,0.6446671485900879
-0.0580051429569721,0.2051268368959427,0.0312683172523975,-0.4589578807353973,-0.0396725609898567,0.0372942723333835,0.0,0.0,0.4609992504119873,0.0860310792922973
-0.0576727874577045,0.1950327306985855,0.0315902568399906,-0.4485814273357391,-0.0380414500832557,0.0326219908893108,0.0,0.0,0.7003293037414551,-0.3154369592666626
-0.0572996139526367,0.1853505223989486,0.0357325822114944,-0.4302828907966614,-0.0364751517772674,0.0313260182738304,0.0,0.0,0.3758318424224853,-0.3361355066299438
-0.0568103790283203,0.1757228970527649,0.0470059476792812,-0.4278467893600464,-0.0345792286098003,0.0379184149205684,0.0,0.0,0.2819726467132568,-0.6130557060241699
-0.0563142783939838,0.1658213287591934,0.0464170277118682,-0.4399983584880829,-0.0314322188496589,0.0629403814673423,0.0,0.0,0.4589439630508423,-0.6523931622505188
-0.0557429306209087,0.1557788401842117,0.0524572245776653,-0.4462419152259826,-0.0268120970577001,0.0924025923013687,0.0,0.0,0.5228739976882935,0.24658203125
-0.0549958236515522,0.1458528190851211,0.0693995952606201,-0.4410701096057892,-0.0215659718960523,0.1049225479364395,0.0,0.0,0.6239895820617676,-0.8181890845298767
-0.0541270263493061,0.1358320116996765,0.079651765525341,-0.4452845752239227,-0.0144356088712811,0.1426072269678115,0.0,0.0,0.7620084285736084,-0.8745276927947998
-0.0532964691519737,0.1263540834188461,0.0740818530321121,-0.4211804568767547,-0.0055753542110323,0.1772049516439438,0.0,0.0,0.7914968729019165,0.3538733720779419
-0.0524017326533794,0.1174430698156356,0.0803396552801132,-0.3960380554199219,0.0034440057352185,0.1803869754076004,0.0,0.0,0.5981143712997437,-0.2697603702545166
-0.0513627044856548,0.1088339686393737,0.0941906422376632,-0.3826756477355957,0.0130262915045022,0.1916458457708358,0.0,0.0,0.7478370666503906,0.6167095899581909
-0.0501385703682899,0.1000730842351913,0.1136406660079956,-0.389474093914032,0.0216781720519065,0.1730376183986663,0.0,0.0,0.9104174375534058,-0.6375296115875244
-0.0490172393620014,0.0915230587124824,0.1022566780447959,-0.3801712393760681,0.0314370170235633,0.1951770484447479,0.0,0.0,0.9166297912597656,0.2489106655120849
-0.0478036887943744,0.0838120281696319,0.1110065132379531,-0.342962771654129,0.0416612923145294,0.2044855803251266,0.0,0.0,0.7711237668991089,0.5927926301956177
-0.0465701110661029,0.0763500556349754,0.1142557710409164,-0.3319240212440491,0.0506493709981441,0.1797616779804229,0.0,0.0,0.6499512195587158,0.4247536659240722
-0.045475959777832,0.069402128458023,0.1008930951356887,-0.3091087639331817,0.0590775907039642,0.1685643792152404,0.0,0.0,0.5427870750427246,0.6724100112915039
-0.0442537292838096,0.0627791509032249,0.114851988852024,-0.2946642339229584,0.0663661360740661,0.14577117562294,0.0,0.0,0.5202699899673462,0.7179877758026123
-0.0430506691336631,0.0565278157591819,0.114469014108181,-0.2781079411506653,0.0721420347690582,0.1155179738998413,0.0,0.0,0.3126996755599975,0.4768202304840088
-0.0419320091605186,0.050492201000452,0.1063135266304016,-0.26852548122406,0.0776346251368522,0.1098518371582031,0.0,0.0,0.6329374313354492,0.0014216899871826
-0.0408524498343467,0.0445225350558757,0.1024980992078781,-0.2656095623970032,0.0830361545085907,0.1080307215452194,0.0,0.0,0.5618165731430054,0.1224863529205322
-0.0399068817496299,0.0387218110263347,0.0895977839827537,-0.2580962479114532,0.0879520773887634,0.0983183085918426,0.0,0.0,0.7267137765884399,0.7252558469772339
-0.039100456982851,0.0330548398196697,0.0774870663881301,-0.2520540952682495,0.0910833179950714,0.0626253113150596,0.0,0.0,0.8858211040496826,0.6349341869354248
-0.0381674766540527,0.027973948046565,0.0910470634698867,-0.2259570509195327,0.0933129489421844,0.0445926003158092,0.0,0.0,0.7208839654922485,0.3896613121032715
-0.0371851921081543,0.0228083711117506,0.0956516712903976,-0.2297427803277969,0.0958683043718338,0.0511072948575019,0.0,0.0,0.6709468364715576,-0.5238344073295593
-0.0361413955688476,0.018148049712181,0.1002864241600036,-0.2073926627635955,0.0999254584312439,0.0811433121562004,0.0,0.0,0.676892876625061,-0.1419786214828491
-0.0351791381835937,0.0139924148097634,0.0922155231237411,-0.1849671155214309,0.1039089635014534,0.0796699896454811,0.0,0.0,0.6441284418106079,-0.4638935923576355
-0.0341443046927452,0.0104602668434381,0.0987720414996147,-0.1573216766119003,0.1085848286747932,0.0935176461935043,0.0,1.0,0.9740338325500488,0.9060375690460204
-0.0331090912222862,0.0080739948898553,0.1189262419939041,-0.1052198186516761,0.0926548987627029,-0.3194497227668762,0.0,1.0,0.5005226135253906,-0.1732571125030517
-0.0322548858821392,0.0066405152902007,0.1157879382371902,-0.0621179342269897,0.0625394582748413,-0.6023672819137573,0.0,1.0,0.4309463500976562,-0.6383697986602783
-0.0314158424735069,0.0055473539978265,0.1117447614669799,-0.0476493090391159,0.0350251607596874,-0.5502861738204956,0.0,1.0,-0.0763221383094787,-0.3161821365356445
-0.0305769927799701,0.0037966943345963,0.1117495447397232,-0.0773867443203926,0.0075122900307178,-0.5502574443817139,0.0,0.0,0.313860535621643,-0.9207422137260436
-0.0299080852419137,0.0021247840486466,0.0929466858506202,-0.0743762031197547,-0.0182090736925601,-0.5144273042678833,0.0,0.0,0.4053407907485962,-0.958604335784912
-0.0294144637882709,0.0004530882870312,0.0735414549708366,-0.074764959514141,-0.0420827157795429,-0.477473109960556,1.0,0.0,0.2906191349029541,-0.4233375191688537
-0.0288745872676372,-0.000762274255976,0.0672873184084892,-0.0547701679170131,-0.0539457350969314,-0.2356026470661163,1.0,0.0,0.1577932834625244,-0.5263367891311646
-0.0282235145568847,-0.0015402579447254,0.0601395852863788,-0.034419197589159,-0.048990424722433,0.0991655737161636,1.0,0.0,-0.3378397822380066,-0.6299216747283936
-0.0275314338505268,-0.0025261307600885,0.0500215180218219,-0.0433052629232406,-0.0300051756203174,0.3797464370727539,1.0,0.0,-0.0378471612930297,-0.5604451894760132
-0.0268287658691406,-0.0038854025769978,0.0420382246375083,-0.0600937418639659,-0.002098724944517,0.5581754446029663,1.0,1.0,0.7501131296157837,0.5395088195800781
-0.0261928550899028,-0.0041221883147954,0.0475355014204978,-0.0107425348833203,0.0129772992804646,0.30055633187294,1.0,1.0,0.2437936067581176,0.6662087440490723
-0.0256476402282714,-0.0040812399238348,0.0538235493004322,0.0018030252540484,0.0136593542993068,0.0136367185041308,1.0,1.0,-0.6779323816299438,-0.8383338451385498
