x_pos,y_pos,x_vel,y_vel,angle,ang_vel,leg_1,leg_2,main_booster,lat_booster
-0.0014793395530432,1.403316855430603,-0.1495121419429779,-0.3379271924495697,0.0013986988924443,0.0275639742612838,0.0,0.0,-0.6636033401368113,-0.6296651124842536
-0.0029601096175611,1.395425796508789,-0.1502475440502166,-0.3507176339626312,0.0035557714290916,0.0431459918618202,0.0,0.0,-0.3709470903168519,0.5251619777315022
-0.0043463706970214,1.3872230052947998,-0.139180451631546,-0.3645727038383484,0.0041001955978572,0.0108895590528845,0.0,0.0,-0.6132848644636857,0.6130972906215348
-0.0056502344086766,1.3787105083465576,-0.1296061873435974,-0.3783283531665802,0.0033286346588283,-0.0154327303171157,0.0,0.0,-0.3354006540808312,0.9163752732443454
-0.0068232538178563,1.3698937892913818,-0.1139466390013694,-0.3918533623218536,1.3590345588454513e-05,-0.066306933760643,0.0,0.0,0.4759704288286104,-0.8596501762793309
-0.0078827859833836,1.3614959716796875,-0.1041798964142799,-0.3732392191886902,-0.0017428478458896,-0.0351320840418338,0.0,0.0,0.0390952778304067,-0.5107029662354756
-0.0089550968259572,1.3533352613449097,-0.1060975342988967,-0.3627010285854339,-0.0028628823347389,-0.0224027447402477,0.0,0.0,-0.7005358660507197,0.7044221492439662
-0.0099161146208643,1.3448686599731443,-0.0928714945912361,-0.3763048946857452,-0.006065878085792,-0.0640657544136047,0.0,0.0,-0.8585306452440036,-0.9851391773885484
-0.0109148975461721,1.3361058235168457,-0.0983004719018936,-0.3894643485546112,-0.0076200920157134,-0.0310870464891195,0.0,0.0,0.0383357801889092,0.6953088752976324
-0.0118151661008596,1.3277239799499512,-0.0867134183645248,-0.3725494146347046,-0.0108959134668111,-0.0655228495597839,0.0,0.0,0.6418653090462036,-0.6974554735130218
-0.0126304626464843,1.319920301437378,-0.0794655978679657,-0.3468445837497711,-0.0129217207431793,-0.0405198335647583,0.0,0.0,0.5626390723549266,0.8944784650401232
-0.013254165649414,1.3125537633895874,-0.0583001673221588,-0.3274419605731964,-0.0169544611126184,-0.0806622579693794,0.0,0.0,0.96373484833833,0.9553434401273796
-0.0135787967592477,1.306125521659851,-0.0264567174017429,-0.2857831418514251,-0.0228979047387838,-0.1188796758651733,0.0,0.0,0.9860392742862452,-0.813925260720229
-0.0138299940153956,1.300021409988403,-0.0206123683601617,-0.2713650465011596,-0.0273605361580848,-0.0892604738473892,0.0,0.0,-0.1017862277181356,0.5360753795911652
-0.0139924045652151,1.2936135530471802,-0.0100606149062514,-0.2849174439907074,-0.0334752276539802,-0.1223050579428672,0.0,0.0,0.8191328859031759,-0.9901797116696622
-0.0140518192201852,1.28737473487854,-0.0016198843950405,-0.2773816287517547,-0.0377529002726078,-0.0855611339211463,0.0,0.0,-0.0498647029074881,-0.8014229403208175
-0.0141254421323537,1.2808407545089722,-0.0039413655176758,-0.2904964983463287,-0.0411408059298992,-0.067763976752758,0.0,0.0,0.1353634333143618,-0.5566259107677602
-0.0140913007780909,1.2743762731552124,0.0058639026246964,-0.287372887134552,-0.0435626469552516,-0.0484411530196666,0.0,0.0,-0.7393047010351073,0.601475375395649
-0.0139700891450047,1.2676067352294922,0.0163085032254457,-0.3010033965110779,-0.0477066524326801,-0.0828877314925193,0.0,0.0,0.0331800871971064,0.6134836126012219
-0.0138099668547511,1.2610604763031006,0.0218383409082889,-0.2911402285099029,-0.053474985063076,-0.1153772324323654,0.0,0.0,-0.3745378421013865,0.966811279926288
-0.013528156094253,1.2542067766189575,0.0367009565234184,-0.3049263954162597,-0.0619022436439991,-0.1685602068901062,0.0,0.0,0.4937017487887196,-0.6261157123539242
-0.0132318492978811,1.2476454973220823,0.0371841266751289,-0.2919394373893738,-0.0693889930844307,-0.1497485041618347,0.0,0.0,-0.8840549092975065,0.7016582355017291
-0.0128423692658543,1.2407697439193726,0.0485449060797691,-0.306062638759613,-0.0789019986987114,-0.1902772784233093,0.0,0.0,-0.7694431197008356,0.82109841513922
-0.0123567581176757,1.2335703372955322,0.0603230223059654,-0.3206309974193573,-0.0905667394399643,-0.2333156168460846,0.0,0.0,-0.1685866260603394,0.6052575956175531
-0.0118117332458496,1.226062536239624,0.0674915686249733,-0.3345261812210083,-0.1034750863909721,-0.2581899762153625,0.0,0.0,0.8453378202008239,0.8183708796430389
-0.0112792011350393,1.219423770904541,0.0685924068093299,-0.2961870729923248,-0.1186935231089592,-0.3043689727783203,0.0,0.0,0.3987994087015556,-0.6849843526151298
-0.0107048992067575,1.2134100198745728,0.0716729909181594,-0.2684713006019592,-0.1328560560941696,-0.2832510471343994,0.0,0.0,0.9108989478622832,-0.8157781962772062
-0.0102141378447413,1.2085648775100708,0.0623062141239643,-0.2165746986865997,-0.1460468173027038,-0.2638154923915863,0.0,0.0,-0.0369638470936044,0.7571318015091204
-0.0096618654206395,1.203411102294922,0.0699447393417358,-0.2305643260478973,-0.1607335954904556,-0.2937354445457458,0.0,0.0,0.1580580272160092,-0.8455686125691746
-0.009125423617661,1.198475956916809,0.0669484436511993,-0.2208335548639297,-0.1740482449531555,-0.2662934362888336,0.0,0.0,-0.0526859010623592,-0.6714956150415974
-0.0086283683776855,1.1932566165924072,0.0619744360446929,-0.2334501147270202,-0.186360478401184,-0.246244877576828,0.0,0.0,0.0505121946334838,-0.9955317378044128
-0.0082084657624363,1.1881756782531738,0.052531111985445,-0.227179542183876,-0.1969521939754486,-0.21183443069458,0.0,0.0,-0.6305311322212219,-0.9935472011566162
-0.0078693386167287,1.1828243732452393,0.0424761101603508,-0.2389981001615524,-0.2055665850639343,-0.172287717461586,0.0,0.0,-0.9245767593383788,-0.9903427958488464
-0.0076129911467432,1.1771845817565918,0.0322864055633544,-0.2515956163406372,-0.2122797966003418,-0.1342645585536956,0.0,0.0,-0.082628846168518,-0.998628318309784
-0.0074308393523097,1.1712647676467896,0.0232081804424524,-0.2638334631919861,-0.2173261642456054,-0.10092693567276,0.0,0.0,-0.4997700452804565,-0.999028742313385
-0.0073243142105638,1.1650701761245728,0.0139857847243547,-0.2758074104785919,-0.2207010984420776,-0.0674986392259597,0.0,0.0,-0.5374216437339783,-0.8335027098655701
-0.0072901723906397,1.1585874557495115,0.0052965013310313,-0.2884127199649811,-0.2226070016622543,-0.0381182320415973,0.0,0.0,-0.8342561721801758,-0.9293756484985352
-0.0073293684981763,1.151827335357666,-0.0034997300244867,-0.3005101382732391,-0.2230274081230163,-0.008408204652369,0.0,0.0,-0.7854648232460022,-0.9554777145385742
-0.0074552535079419,1.144797444343567,-0.0139443632215261,-0.3122391402721405,-0.2216568440198898,0.0274111628532409,0.0,0.0,-0.6913149952888489,-0.9889310002326964
-0.0076663019135594,1.1374863386154177,-0.0240755956619977,-0.3244924545288086,-0.2186483293771743,0.0601699352264404,0.0,0.0,-0.8618392944335938,-0.9685235023498536
-0.0079792980104684,1.1299058198928833,-0.0363105870783329,-0.3361808359622955,-0.2135923504829406,0.1011197715997695,0.0,0.0,-0.67014479637146,-0.9663830995559692
-0.0083701135590672,1.1220358610153198,-0.0453771725296974,-0.3488789200782776,-0.2072391360998153,0.1270647346973419,0.0,0.0,-0.7523536086082458,-0.9480929374694824
-0.0088448524475097,1.1138685941696167,-0.0551092103123664,-0.3619342148303985,-0.1995340138673782,0.154102474451065,0.0,0.0,-0.8605926632881165,-0.4544824361801147
-0.0093430522829294,1.1053950786590576,-0.0572529844939708,-0.3756178915500641,-0.1920599341392517,0.1494819968938827,0.0,0.0,-0.7443271279335022,-0.5087047219276428
-0.0099105834960937,1.0966216325759888,-0.0650490969419479,-0.3888779580593109,-0.1837218999862671,0.166760504245758,0.0,0.0,-0.8198323845863342,0.4385522603988647
-0.0105072017759084,1.087541937828064,-0.0677558556199073,-0.4025618731975555,-0.1755967587232589,0.1625028550624847,0.0,0.0,-0.860937237739563,0.3388981819152832
-0.0111354831606149,1.0781558752059937,-0.0707412585616111,-0.4162453114986419,-0.1676745861768722,0.1584435254335403,0.0,0.0,-0.7809683680534363,0.6488075256347656
-0.011756420135498,1.0684595108032229,-0.0687578544020652,-0.4302058517932892,-0.1609978973865509,0.1335338652133941,0.0,0.0,0.0647602081298828,0.053512692451477
-0.0124173164367675,1.0592292547225952,-0.0721916854381561,-0.4095914959907532,-0.1548980772495269,0.1219962611794471,0.0,0.0,-0.9188981652259828,0.0766160488128662
-0.0131177902221679,1.049691915512085,-0.0759934112429618,-0.4232717156410217,-0.1489679366350174,0.1186030954122543,0.0,0.0,-0.6762776374816895,0.6622525453567505
-0.0137964244931936,1.0398329496383667,-0.0720070153474807,-0.4377651512622833,-0.1448353826999664,0.0826513320207595,0.0,0.0,-0.3083643317222595,0.6718369722366333
-0.0144717218354344,1.0296608209609983,-0.0703162103891372,-0.4518267214298248,-0.1420598924160003,0.055510152131319,0.0,0.0,-0.8058978915214539,0.3375370502471924
-0.0151941301301121,1.0191813707351685,-0.074891448020935,-0.4655039608478546,-0.1394153088331222,0.0528917387127876,0.0,0.0,-0.8815644383430481,-0.4403964877128601
-0.0159658435732126,1.008394479751587,-0.0797124877572059,-0.4791808724403381,-0.1368875652551651,0.0505551286041736,0.0,0.0,-0.9010950922966005,0.4235258102416992
-0.0167892463505268,0.9973002672195436,-0.0847724378108978,-0.4928575456142425,-0.1344620138406753,0.0485114231705665,0.0,0.0,-0.9289448261260986,0.5983233451843262
-0.0176271442323923,0.9858877658843994,-0.0851336866617202,-0.5070980787277222,-0.1331305354833603,0.0266296118497848,0.0,0.0,-0.9674097299575806,0.6060278415679932
-0.0184656139463186,0.9741622805595398,-0.0837037935853004,-0.5211442112922668,-0.1332675516605377,-0.0027405493892729,0.0,0.0,-0.9431829452514648,0.6103594303131104
-0.0193028450012207,0.9621198177337646,-0.0820293575525283,-0.5353705286979675,-0.1349576115608215,-0.0338010750710964,0.0,0.0,-0.9576966762542723,-0.1074587106704711
-0.0201998706907033,0.9497697949409484,-0.087969571352005,-0.5490462779998779,-0.1366865634918213,-0.0345786623656749,0.0,0.0,-0.8924285173416138,-0.4708086252212524
-0.021158505231142,0.9371122121810912,-0.0941099002957344,-0.562721848487854,-0.1384376734495163,-0.0350218191742897,0.0,0.0,-0.6258397102355957,-0.2636579871177673
-0.0221805572509765,0.9241470694541932,-0.1004420891404151,-0.5763971209526062,-0.1401939839124679,-0.0351262167096138,0.0,0.0,-0.8462659120559692,-0.188206136226654
-0.0232675559818744,0.9108741879463196,-0.1069578900933265,-0.5900722146034241,-0.1419384628534317,-0.0348890498280525,0.0,0.0,-0.986951231956482,0.0027617216110229
-0.0244213100522756,0.8972936272621155,-0.1136490553617477,-0.6037470698356628,-0.1436539143323898,-0.0343092754483222,0.0,0.0,-0.9908202290534972,-0.4327892065048218
-0.0256430618464946,0.8834052085876465,-0.1205073818564415,-0.6174216866493225,-0.1453232765197754,-0.0333874709904193,0.0,0.0,-0.9611835479736328,-0.8470318913459778
-0.0270005222409963,0.8692172765731812,-0.1357997506856918,-0.6305703520774841,-0.1452611684799194,0.0012420937418937,0.0,0.0,-0.8260320425033569,-0.1204907298088073
-0.0284287445247173,0.8547214865684509,-0.1429682672023773,-0.6442444324493408,-0.1451192051172256,0.0028391540981829,0.0,0.0,-0.9588152766227722,0.3150085210800171
-0.0299291610717773,0.8399178385734558,-0.1502801328897476,-0.6579182744026184,-0.1448808908462524,0.0047663608565926,0.0,0.0,-0.8155980110168457,-0.2068453431129455
-0.0315029136836528,0.8248061537742615,-0.1577277332544326,-0.6715919375419617,-0.1445300579071045,0.0070165344513952,0.0,0.0,-0.2726792097091675,-0.4481328129768371
-0.0331510528922081,0.809386670589447,-0.1653037220239639,-0.6852654814720154,-0.1440510004758834,0.0095811747014522,0.0,0.0,-0.9500395059585572,-0.6635448932647705
-0.0349351875483989,0.7936694025993347,-0.1805687397718429,-0.6983368992805481,-0.1418959945440292,0.043100032955408,0.0,0.0,-0.4093717932701111,-0.4328093528747558
-0.0367958061397075,0.7776442170143127,-0.1883803904056549,-0.7120104432106018,-0.1395828127861023,0.0462635681033134,0.0,0.0,-0.8354707956314087,-0.4444152116775512
-0.0387338623404502,0.7613110542297363,-0.1962997019290924,-0.7256839871406555,-0.1370973140001297,0.049709815531969,0.0,0.0,-0.8042224645614624,-0.1305730938911438
-0.0407503135502338,0.7446700930595398,-0.2043203562498092,-0.7393573522567749,-0.1344259828329086,0.0534265451133251,0.0,0.0,-0.8012544512748718,-0.4153156876564026
-0.0428459160029888,0.727721095085144,-0.21243616938591,-0.7530307769775391,-0.1315559297800064,0.0574010722339153,0.0,0.0,-0.6973790526390076,0.0309362411499023
-0.0450213439762592,0.7104641199111938,-0.2206413000822067,-0.7667042016983032,-0.1284749060869217,0.0616205334663391,0.0,0.0,0.6805702447891235,0.192420482635498
-0.0471664443612098,0.6933779120445251,-0.2181538641452789,-0.7590784430503845,-0.1248513311147689,0.072471484541893,0.0,0.0,0.842613935470581,0.7184584140777588
-0.0493279471993446,0.676536500453949,-0.2184901237487793,-0.7483094930648804,-0.1225197836756706,0.0466310605406761,0.0,0.0,0.2533339262008667,0.7583410739898682
-0.0514447204768657,0.6602800488471985,-0.2127490788698196,-0.7224214673042297,-0.121463768184185,0.0211202651262283,0.0,0.0,-0.95742666721344,0.1235729455947876
-0.0536441802978515,0.6437155604362488,-0.2212580740451812,-0.736094057559967,-0.120154321193695,0.026188800111413,0.0,0.0,-0.1658622622489929,0.1235568523406982
-0.0559267029166221,0.6268429756164551,-0.2298310101032257,-0.7497665286064148,-0.118582434952259,0.0314377658069133,0.0,0.0,-0.1110712885856628,0.4254649877548218
-0.0582928657531738,0.6096621751785278,-0.2384635210037231,-0.7634390592575073,-0.1167396456003189,0.0368554182350635,0.0,0.0,0.3477652072906494,0.8481758832931519
-0.0605634674429893,0.5931234955787659,-0.227538377046585,-0.7350205183029175,-0.1162688806653022,0.0094155799597501,0.0,0.0,0.8415143489837646,0.0336601734161376
-0.0629564300179481,0.5772518515586853,-0.2395265847444534,-0.7053840160369873,-0.1160344779491424,0.0046881204470992,0.0,0.0,-0.818867027759552,0.7918441295623779
-0.0653773322701454,0.5610656142234802,-0.2411887198686599,-0.7194607257843018,-0.1169422790408134,-0.0181558318436145,0.0,0.0,-0.3643702268600464,0.8108094930648804
-0.0678209289908409,0.5445643067359924,-0.2421503812074661,-0.7335641384124756,-0.1191352903842926,-0.0438601151108741,0.0,0.0,0.4144463539123535,0.5739548206329346
-0.0701651573181152,0.5284743905067444,-0.2315567731857299,-0.7153416275978088,-0.1219895407557487,-0.0570848807692527,0.0,0.0,-0.8930228352546692,0.4219893217086792
-0.072595402598381,0.5120763182640076,-0.2404677122831344,-0.7290140986442566,-0.1245335191488266,-0.0508793704211711,0.0,0.0,0.658151388168335,0.5974349975585938
-0.0749156028032302,0.4959398210048675,-0.228829339146614,-0.7174490690231323,-0.1277101933956146,-0.0635333731770515,0.0,0.0,0.2722785472869873,0.2313328981399536
-0.0771538764238357,0.4801277220249176,-0.2214938849210739,-0.7029605507850647,-0.1300429701805114,-0.0466553904116153,0.0,0.0,0.106955885887146,0.5139877796173096
-0.0793029814958572,0.4643687903881073,-0.2120473384857177,-0.7006514668464661,-0.1328858137130737,-0.0568567588925361,0.0,0.0,0.5616588592529297,0.8896090984344482
-0.0813805609941482,0.4493510723114013,-0.2034453153610229,-0.6678420305252075,-0.1371830403804779,-0.0859445929527282,0.0,0.0,0.1564646959304809,0.9766714572906494
-0.0833701118826866,0.4348007440567016,-0.1930270045995712,-0.6472408771514893,-0.1430971026420593,-0.1182812005281448,0.0,0.0,-0.2186096310615539,0.6082733869552612
-0.0853895172476768,0.4199325144290924,-0.1948708742856979,-0.6615074276924133,-0.1501429080963134,-0.1409161388874054,0.0,0.0,-0.4839472770690918,0.9436500072479248
-0.0874114036560058,0.4047273397445678,-0.1932524293661117,-0.6767095923423767,-0.1590600907802581,-0.1783437728881836,0.0,0.0,-0.5471158027648926,0.2631629705429077
-0.0895208343863487,0.3892147839069366,-0.2023718655109405,-0.6903867125511169,-0.1676368564367294,-0.1715355813503265,0.0,0.0,-0.035294771194458,0.7264591455459595
-0.0916524901986122,0.3733870387077331,-0.2032970488071441,-0.7045977115631104,-0.1775254011154174,-0.1977712363004684,0.0,0.0,0.6608881950378418,0.186885118484497
-0.0937941521406173,0.3581030368804931,-0.2045393735170364,-0.6804689168930054,-0.1871772408485412,-0.1930368542671203,0.0,0.0,0.3699188232421875,-0.2917135953903198
-0.0960022956132888,0.3435126543045044,-0.2110860347747802,-0.6497198343276978,-0.1969592422246933,-0.1956399083137512,0.0,0.0,-0.4897950887680053,-0.4787073135375976
-0.0982984527945518,0.3286148309707641,-0.2202563285827636,-0.6633970141410828,-0.2063922435045242,-0.1886601001024246,0.0,0.0,0.7086688280105591,0.0509443283081054
-0.1005779281258583,0.3145657777786255,-0.2186956703662872,-0.6257210373878479,-0.215730682015419,-0.1867686808109283,0.0,0.0,0.050023078918457,0.6112513542175293
-0.102853775024414,0.3009144067764282,-0.2174079716205597,-0.6082475781440735,-0.2260181307792663,-0.2057490348815918,0.0,0.0,-0.1379344463348388,0.2765947580337524
-0.1052176505327224,0.2869555354118347,-0.2265964448451995,-0.6219245791435242,-0.2359520941972732,-0.1986793875694275,0.0,0.0,0.5861423015594482,0.2594379186630249
-0.1076436042785644,0.2735705971717834,-0.2326675951480865,-0.5965118408203125,-0.2460494935512542,-0.2019480019807815,0.0,0.0,0.5236806869506836,0.245855450630188
-0.1101747527718544,0.2606316208839416,-0.2429210841655731,-0.5768080949783325,-0.2564331293106079,-0.2076723277568817,0.0,0.0,0.1638375520706176,0.4876559972763061
-0.1125933676958084,0.2480911165475845,-0.232390359044075,-0.5590422749519348,-0.2661149203777313,-0.1936362981796264,0.0,0.0,0.8720904588699341,0.2280800342559814
-0.114923283457756,0.235820397734642,-0.2241875231266021,-0.5469867587089539,-0.2751176953315735,-0.1800557672977447,0.0,0.0,0.7279760837554932,0.1240744590759277
-0.1169783622026443,0.2243316769599914,-0.1977724283933639,-0.5120838284492493,-0.2830605804920196,-0.1588583290576934,0.0,0.0,0.8384401798248291,-0.701476514339447
-0.118958756327629,0.2138186991214752,-0.19199238717556,-0.4684303402900696,-0.2892791926860809,-0.1243720427155494,0.0,0.0,0.5340230464935303,-0.0163860917091369
-0.1206738501787185,0.2040810734033584,-0.1664169132709503,-0.4338053464889526,-0.2945257723331451,-0.1049317121505737,0.0,0.0,0.8893671035766602,-0.9646183848381042
-0.1222643852233886,0.1949768662452697,-0.1563746035099029,-0.4051738679409027,-0.2972966134548187,-0.0554166734218597,0.0,0.0,0.9369852542877196,-0.9265706539154052
-0.1237391456961631,0.186981588602066,-0.1469655036926269,-0.3554532825946808,-0.2978302538394928,-0.0106728840619325,0.0,0.0,0.0289958715438842,-0.4744568467140198
-0.1251215934753418,0.1793639063835144,-0.1382493078708648,-0.338562548160553,-0.2978287637233734,3.001711957040243e-05,0.0,0.0,0.7041666507720947,-0.4820610880851745
-0.1263733804225921,0.1720786690711975,-0.1259017884731292,-0.3236386477947235,-0.2970821857452392,0.0149315875023603,0.0,0.0,-0.2048015594482422,-0.8174201846122742
-0.127786248922348,0.1645198464393615,-0.1443017721176147,-0.3353386521339416,-0.293973445892334,0.0621748380362987,0.0,0.0,0.498467206954956,0.7686636447906494
-0.1292172372341156,0.1573501974344253,-0.1447427570819854,-0.3183187842369079,-0.2922737300395965,0.0339945778250694,0.0,0.0,-0.506516695022583,-0.4730116724967956
-0.1307350099086761,0.1498715430498123,-0.1537794768810272,-0.3319852948188782,-0.2902129590511322,0.041215531527996,0.0,0.0,0.6487820148468018,0.8658537864685059
-0.1320942938327789,0.1428058296442031,-0.1366177499294281,-0.3138965368270874,-0.2895078659057617,0.0141019225120544,0.0,0.0,-0.3747214078903198,-0.8534291386604309
-0.1335918456315994,0.1354462057352066,-0.1521056592464447,-0.3266313672065735,-0.2870919406414032,0.0483186170458793,0.0,0.0,0.8285017013549805,0.8195643424987793
-0.1347848922014236,0.1287920325994491,-0.1206141337752342,-0.2954834997653961,-0.2857464551925659,0.0269095413386821,0.0,0.0,0.9093170166015624,-0.3371096849441528
-0.1357728987932205,0.1231581792235374,-0.1005906090140342,-0.2500425279140472,-0.2839065790176391,0.0367971137166023,0.0,0.0,0.1783596277236938,-0.8150004148483276
