x_pos,y_pos,x_vel,y_vel,angle,ang_vel,leg_1,leg_2,main_booster,lat_booster
-0.0015054702525958,1.4035139083862305,-0.1522227227687835,-0.3291607499122619,0.0014930892502889,0.0294327046722173,0.0,0.0,-0.2588050365447998,0.4775848388671875
-0.0029952048789709,1.3960204124450684,-0.1501708626747131,-0.3330434560775757,0.0026840378995984,0.0238220579922199,0.0,0.0,-0.4309098720550537,0.8427901268005371
-0.0043901442550122,1.388410210609436,-0.1383763551712036,-0.338231474161148,0.0015784325078129,-0.0221142880618572,0.0,0.0,-0.0724324584007263,0.8604295253753662
-0.0057191848754882,1.3806867599487305,-0.1301456987857818,-0.3432627618312835,-0.0011500815162435,-0.0545754842460155,0.0,0.0,-0.0573863387107849,0.4469591379165649
-0.0070389746688306,1.3728530406951904,-0.128967672586441,-0.3481732308864593,-0.0041326829232275,-0.0596574172377586,0.0,0.0,-0.1087262630462646,0.5459508895874023
-0.0082992557436227,1.3649077415466309,-0.1214262843132019,-0.3531370460987091,-0.0086925411596894,-0.0912051349878311,0.0,0.0,-0.5542202591896057,-0.2586959600448608
-0.0095553398132324,1.356852412223816,-0.1207484379410743,-0.3580488562583923,-0.0134988846257328,-0.0961356908082962,0.0,0.0,-0.4894896745681762,-0.1588814854621887
-0.0108096124604344,1.3486870527267456,-0.1203297227621078,-0.3629607856273651,-0.0185488276183605,-0.1010080128908157,0.0,0.0,-0.420677125453949,-0.7413886785507202
-0.0121242525056004,1.340421199798584,-0.1276316940784454,-0.3674231171607971,-0.02233980409801,-0.0758261457085609,0.0,0.0,-0.7050264477729797,-0.0380704998970031
-0.0134424213320016,1.3320451974868774,-0.1277412474155426,-0.3723347783088684,-0.0263668689876794,-0.0805489793419838,0.0,0.0,-0.5693670511245728,0.1406108140945434
-0.0147665981203317,1.323559045791626,-0.1281118988990783,-0.3772467672824859,-0.0306247938424348,-0.0851663127541542,0.0,0.0,0.3118902444839477,0.4497783184051513
-0.0160303115844726,1.3155889511108398,-0.1221115142107009,-0.3543173670768738,-0.0348435826599597,-0.0843833982944488,0.0,0.0,-0.8532297015190125,0.3902561664581299
-0.0173050872981548,1.3075087070465088,-0.1229979544878006,-0.3592348098754883,-0.0392846725881099,-0.0888295844197273,0.0,0.0,0.2502397298812866,0.0388041734695434
-0.0185306556522846,1.299717903137207,-0.1181049793958664,-0.346372127532959,-0.0436963737010955,-0.0882419496774673,0.0,0.0,-0.8215384483337402,0.6191973686218262
-0.0197118762880563,1.2918198108673096,-0.1119128838181495,-0.3512238264083862,-0.0498359128832817,-0.1228020042181015,0.0,0.0,-0.7272509336471558,-0.3910106420516968
-0.0209112167358398,1.2838118076324463,-0.1135252863168716,-0.3561369180679321,-0.0561818219721317,-0.126929834485054,0.0,0.0,-0.9363994002342224,-0.3538688421249389
-0.0221309661865234,1.2756942510604858,-0.11536605656147,-0.3610512614250183,-0.0627299770712852,-0.1309749186038971,0.0,0.0,-0.8163464069366455,0.159037709236145
-0.0233733169734478,1.26746666431427,-0.117425262928009,-0.3659667372703552,-0.0694747641682624,-0.1349079310894012,0.0,0.0,-0.8721898794174194,-0.2329310774803161
-0.0246402733027935,1.259129524230957,-0.1196926236152648,-0.3708826601505279,-0.0764107406139373,-0.1387321949005127,0.0,0.0,-0.3672181367874145,-0.6544941663742065
-0.0259921066462993,1.250688910484314,-0.1294933259487152,-0.3754388391971588,-0.0820565596222877,-0.1129260063171386,0.0,0.0,-0.8802733421325684,-0.0030595660209655
-0.0273723602294921,0.0,-0.1321500241756439,-0.3803538680076599,-0.0878832340240478,-0.1165442317724227,0.0,0.0,-0.6709296703338623,0.1141703128814697
-0.0287826545536518,1.233478307723999,-0.1349826604127884,-0.3852693736553192,-0.0938842073082923,-0.1200302392244339,0.0,0.0,-0.6747416853904724,0.6014053821563721
-0.0301671028137207,1.2246992588043213,-0.1307652443647384,-0.39067542552948,-0.1015103682875633,-0.152536928653717,0.0,0.0,-0.6673394441604614,0.2126878499984741
-0.0315846428275108,1.2158105373382568,-0.1339136064052581,-0.3955936729907989,-0.1092986091971397,-0.1557787954807281,0.0,0.0,-0.9301183223724364,0.4272079467773437
-0.0330365188419818,1.2068125009536743,-0.1372065246105194,-0.4005123972892761,-0.1172438561916351,-0.1589191108942031,0.0,0.0,-0.6441500782966614,0.5067124366760254
-0.0344957336783409,1.1976813077926636,-0.1369918435811996,-0.4065575003623962,-0.1261059045791626,-0.1772410720586776,0.0,0.0,-0.808998703956604,0.5767092704772949
-0.0359459891915321,1.1884361505508425,-0.134818434715271,-0.4117985963821411,-0.1362713575363159,-0.203309491276741,0.0,0.0,-0.3601735830307007,0.3354477882385254
-0.0374344810843467,1.1790820360183716,-0.1385087817907333,-0.4167173504829407,-0.1465771049261093,-0.2061150819063186,0.0,0.0,-0.7713194489479065,0.125951886177063
-0.0389620773494243,1.1696192026138306,-0.1423059552907943,-0.4216362833976745,-0.1570173054933548,-0.2088039219379425,0.0,0.0,-0.94431471824646,0.4148752689361572
-0.040529727935791,1.1600476503372192,-0.1462016254663467,-0.4265555441379547,-0.167586088180542,-0.21137535572052,0.0,0.0,-0.8534787893295288,0.2856955528259277
-0.0421382896602153,1.1503673791885376,-0.1501879394054412,-0.4314750432968139,-0.1782775223255157,-0.2138288468122482,0.0,0.0,-0.8332687616348267,0.2950985431671142
-0.0437885299324989,1.1405785083770752,-0.1542576253414154,-0.4363947212696075,-0.1890857070684433,-0.2161640375852584,0.0,0.0,-0.7501615881919861,-0.7545170187950134
-0.0455467216670513,1.1307069063186646,-0.1666845977306366,-0.4399375319480896,-0.19827800989151,-0.1838456988334655,0.0,0.0,-0.775258481502533,0.2673956155776977
-0.0473479256033897,1.1207261085510254,-0.1709001809358596,-0.444854736328125,-0.2075752019882202,-0.1859436482191085,0.0,0.0,-0.6810473799705505,-0.4201270341873169
-0.0491928085684776,1.1106362342834473,-0.175180047750473,-0.4497720599174499,-0.2169713079929351,-0.1879224479198455,0.0,0.0,-0.8699690699577332,-0.7471656203269958
-0.0511367805302143,1.1004611253738403,-0.1864670813083648,-0.4534135162830353,-0.2249976843595504,-0.160526841878891,0.0,0.0,-0.7784827351570129,-0.3289746046066284
-0.0531253814697265,1.0901768207550049,-0.1908590495586395,-0.4583289325237274,-0.2331110835075378,-0.1622680723667144,0.0,0.0,-0.0808928608894348,0.2650502920150757
-0.0551590919494628,1.0797829627990725,-0.195300281047821,-0.4632444679737091,-0.2413056045770645,-0.1638907343149185,0.0,0.0,-0.2734487056732178,-0.6795994639396667
-0.0572924613952636,1.069307565689087,-0.2066501826047897,-0.466688334941864,-0.2481076419353485,-0.136040449142456,0.0,0.0,-0.6551369428634644,-0.4212316870689392
-0.0594717040657997,1.0587223768234253,-0.2111770361661911,-0.4716020822525024,-0.2549790441989898,-0.1374280303716659,0.0,0.0,-0.7519317269325256,0.5711067914962769
-0.061660386621952,1.0480185747146606,-0.2111444920301437,-0.4770935475826263,-0.2628598511219024,-0.1576156467199325,0.0,0.0,-0.1863815784454345,-0.4544241428375244
-0.0638953223824501,1.0372052192687988,-0.2157439291477203,-0.4820083677768707,-0.2707984149456024,-0.1587715446949005,0.0,0.0,-0.7371749877929688,-0.6083347797393799
-0.0662170425057411,1.026291847229004,-0.2253775149583816,-0.4863075315952301,-0.2777616679668426,-0.1392651051282882,0.0,0.0,0.3681583404541015,-0.0424526929855346
-0.0683865547180175,1.015866756439209,-0.2104952037334442,-0.4645883440971374,-0.2843910753726959,-0.1325884163379669,0.0,0.0,-0.6514578461647034,-0.6308099627494812
-0.0706555396318435,1.0053465366363523,-0.2217405289411544,-0.4685693681240082,-0.2897018492221832,-0.1062154993414878,0.0,0.0,-0.2000135779380798,0.5549237728118896
-0.0729279518127441,0.9946913123130798,-0.2208696156740188,-0.4748521447181701,-0.2962671220302582,-0.1313051730394363,0.0,0.0,-0.8339278101921082,-0.4558637142181396
-0.0752477645874023,0.983926236629486,-0.2256005555391311,-0.4797648787498474,-0.3028625845909118,-0.1319092214107513,0.0,0.0,0.5007562637329102,-0.5663545727729797
-0.0775360092520713,0.9742106795310974,-0.2233010977506637,-0.4329632520675659,-0.3085812032222748,-0.1143729537725448,0.0,0.0,-0.1907315254211425,-0.6980465650558472
-0.0799346938729286,0.9644215106964112,-0.2360092848539352,-0.4359002709388733,-0.3125781118869781,-0.0799382403492927,0.0,0.0,0.0459442138671875,-0.3165986537933349
-0.0822949409484863,0.9549880027770996,-0.2321058213710785,-0.4201217591762543,-0.3166519403457641,-0.0814764946699142,0.0,0.0,0.4504008293151855,-0.7462791204452515
-0.0844700783491134,0.9461206793785096,-0.2152592688798904,-0.3946000337600708,-0.3189940750598907,-0.0468432158231735,0.0,0.0,0.7687842845916748,-0.5030643939971924
-0.0865449905395507,0.9383188486099244,-0.2060442417860031,-0.3470664918422699,-0.3204986453056335,-0.0300914254039526,0.0,0.0,0.6336944103240967,-0.3340407609939575
-0.0884270668029785,0.930981457233429,-0.1872398555278778,-0.3263246119022369,-0.32150399684906,-0.0201069749891757,0.0,0.0,0.3163678646087646,0.0542820692062377
-0.0901541709899902,0.9244367480278016,-0.1717604100704193,-0.2910842895507812,-0.3224939703941345,-0.0197996236383914,0.0,0.0,0.477154016494751,0.245570421218872
-0.0916651710867881,0.9183384776115416,-0.1507462561130523,-0.2711121141910553,-0.3228598833084106,-0.0073184473440051,0.0,0.0,0.5354174375534058,0.3434978723526001
-0.0931698828935623,0.9127949476242064,-0.1497335433959961,-0.2465447783470153,-0.323624700307846,-0.0152961956337094,0.0,0.0,0.8325161933898926,-0.2650123834609985
-0.0943430885672569,0.9083483219146729,-0.1170594096183776,-0.1976863294839859,-0.3238913714885711,-0.0053331786766648,0.0,0.0,0.7967735528945923,-0.3857731819152832
-0.0951889976859092,0.9047624468803406,-0.0850230455398559,-0.1592734903097152,-0.3234442770481109,0.0089417155832052,0.0,0.0,0.3358383178710937,-0.6066932678222656
-0.0958528518676757,0.902009904384613,-0.0681552439928054,-0.1219404488801956,-0.321603000164032,0.0368256606161594,0.0,0.0,0.7569267749786377,-0.6137142777442932
-0.0964283943176269,0.9004052877426147,-0.0603517480194568,-0.0706964284181594,-0.3186931610107422,0.0581965930759906,0.0,0.0,0.243162989616394,-0.4724981784820556
-0.096928596496582,0.8990688920021057,-0.053022600710392,-0.0587310716509819,-0.3155756592750549,0.0623501911759376,0.0,0.0,-0.1990957260131836,-0.5424138903617859
-0.0975241661071777,0.897648274898529,-0.0638342201709747,-0.0622197203338146,-0.311132401227951,0.0888642966747284,0.0,0.0,0.2174315452575683,-0.7123401761054993
-0.0980077758431434,0.8966384530067444,-0.0541975125670433,-0.0436410792171955,-0.3050809800624847,0.1210285574197769,0.0,0.0,0.0769546031951904,0.3676850795745849
-0.0984051674604415,0.8960831165313721,-0.0456993356347084,-0.0234381984919309,-0.2989206910133362,0.1232058405876159,0.0,0.0,0.027603268623352,0.3056529760360718
-0.0987730994820594,0.8957731127738953,-0.0428165160119533,-0.0125554678961634,-0.2926976978778839,0.1244598999619484,0.0,0.0,-0.410228967666626,0.7634701728820801
-0.0991436019539833,0.8953325152397156,-0.0419435538351535,-0.0186067912727594,-0.2876646220684051,0.1006617918610572,0.0,0.0,-0.4949101209640503,0.7672533988952637
-0.0995010361075401,0.8947634696960449,-0.0391108505427837,-0.0246279258280992,-0.2841922044754028,0.0694486051797866,0.0,0.0,-0.375522255897522,0.416607141494751
-0.0999069213867187,0.8940839767456055,-0.0440166220068931,-0.0295363459736108,-0.2806737124919891,0.0703704431653022,0.0,0.0,-0.6968773007392883,0.6842412948608398
-0.100305750966072,0.8932780623435974,-0.0419518314301967,-0.0354181043803691,-0.2785505652427673,0.0424626693129539,0.0,0.0,-0.2358032464981079,-0.1364797353744506
-0.1007531136274337,0.8923616409301758,-0.0468565635383129,-0.0403258800506591,-0.2763785123825073,0.0434412434697151,0.0,0.0,0.0794202089309692,0.5749287605285645
-0.1011486053466796,0.8919841647148132,-0.0404876247048378,-0.0165977850556373,-0.2754197418689728,0.0191755406558513,0.0,0.0,-0.3764615058898926,0.2190552949905395
-0.1015926375985145,0.8914961814880371,-0.0453890562057495,-0.021505232900381,-0.2744100689888,0.0201936922967433,0.0,0.0,-0.2660414576530456,-0.3823878765106201
-0.1020851135253906,0.8908976912498474,-0.0502879843115806,-0.0264126770198345,-0.2733488082885742,0.0212252959609031,0.0,0.0,-0.0383813977241516,0.0520403385162353
-0.1026260405778884,0.8901883959770203,-0.0551837682723999,-0.0313201248645782,-0.2722354829311371,0.0222662203013896,0.0,0.0,0.1707607507705688,0.3459042310714721
-0.1031639128923416,0.8897785544395447,-0.0548164434731006,-0.0180239118635654,-0.2711803913116455,0.0211021304130554,0.0,0.0,0.5200014114379883,0.4622160196304321
-0.1036097556352615,0.8896651268005371,-0.0459466278553009,-0.0047872206196188,-0.2697835266590118,0.027937576174736,0.0,0.0,-0.3267920017242431,-0.1278741955757141
-0.1041039451956749,0.8894411325454712,-0.0508289560675621,-0.0096947466954588,-0.2683344185352325,0.0289820171892642,0.0,0.0,0.3340601921081543,0.1744805574417114
-0.1044829338788986,0.8900356292724609,-0.0393433794379234,0.0266821216791868,-0.2668646872043609,0.0293943528085947,0.0,0.0,-0.4527218341827392,0.463707685470581
-0.1049101799726486,0.8905194401741028,-0.0442130677402019,0.0217745471745729,-0.2653436362743377,0.0304210539907217,0.0,0.0,-0.0142402648925781,0.1086921691894531
-0.1053855866193771,0.8908928036689758,-0.0490752346813678,0.016866935417056,-0.2637719810009002,0.0314329639077186,0.0,0.0,-0.2977715730667114,0.6433124542236328
-0.1058717742562294,0.8911334276199341,-0.0491994619369506,0.0108021711930632,-0.263179212808609,0.0118553536012768,0.0,0.0,-0.6456459760665894,0.3099231719970703
-0.1064060181379318,0.8912636041641235,-0.0540438070893287,0.0058946679346263,-0.2625379264354706,0.0128257842734456,0.0,0.0,-0.4968934059143066,0.5195217132568359
-0.1069551482796669,0.8912697434425354,-0.0547329597175121,0.0002425622951705,-0.2627241015434265,-0.0037232220638543,0.0,0.0,-0.1491370201110839,-0.2444373369216919
-0.1075520515441894,0.8911653161048889,-0.0595555715262889,-0.0046649808064103,-0.2628645896911621,-0.0028096928726881,0.0,0.0,0.0160859823226928,0.0820270776748657
-0.1080920249223709,0.8915759921073914,-0.0538663566112518,0.0182344857603311,-0.2629951238632202,-0.0026105653960257,0.0,0.0,-0.0957440137863159,0.4045120477676391
-0.1086794883012771,0.8918762803077698,-0.0586627200245857,0.0133268665522336,-0.2630835771560669,-0.0017688159132376,0.0,0.0,-0.6567885279655457,0.2162649631500244
-0.1093144416809082,0.8920658230781555,-0.0634440332651138,0.0084192035719752,-0.2631320059299469,-0.0009683280368335,0.0,0.0,0.133263349533081,0.209444522857666
-0.1098633781075477,0.892520010471344,-0.0551678352057933,0.0202385131269693,-0.262848287820816,0.0056742862798273,0.0,0.0,-0.0302065014839172,0.2127962112426757
-0.1104594245553016,0.8928636312484741,-0.0599147193133831,0.0153307430446147,-0.262529194355011,0.0063820192590355,0.0,0.0,0.2284085750579834,0.3089600801467895
-0.1109261512756347,0.8934813141822815,-0.0474899485707283,0.0275930538773536,-0.2616977989673614,0.0166276339441537,0.0,0.0,-0.3168638944625854,0.3933019638061523
-0.1114397048950195,0.893988311290741,-0.0521958544850349,0.0226851161569356,-0.2608363330364227,0.017229463905096,0.0,0.0,0.0765386819839477,0.5490208864212036
-0.111808106303215,0.8950797915458679,-0.0366618037223815,0.0484765842556953,-0.2610187232494354,-0.0036478633992373,0.0,0.0,-0.4120727777481079,-0.1686879396438598
-0.1122228652238845,0.8960606455802917,-0.0413190461695194,0.0435685664415359,-0.2611769437789917,-0.0031645626295357,0.0,0.0,-0.6590167880058289,-0.3288923501968384
-0.1126836761832237,0.8969311118125916,-0.0459486916661262,0.0386604852974414,-0.2613142132759094,-0.0027451058849692,0.0,0.0,-0.6501514911651611,0.2627087831497192
-0.1131902709603309,0.897691011428833,-0.0505483224987983,0.033752329647541,-0.2614338397979736,-0.0023922524414956,0.0,0.0,-0.5417194366455078,0.3328306674957275
-0.1137424483895301,0.8983404636383057,-0.0551153235137462,0.0288441013544797,-0.2615392804145813,-0.0021087760105729,0.0,0.0,-0.5733235478401184,0.4585216045379638
-0.1143398284912109,0.8988794684410095,-0.0596468858420848,0.0239357948303222,-0.2616341412067413,-0.0018972369143739,0.0,0.0,-0.3079912662506103,0.1624375581741333
-0.1149821281433105,0.899307906627655,-0.0641399621963501,0.0190274100750684,-0.2617221474647522,-0.0017602319130674,0.0,0.0,-0.1199116110801696,0.3991502523422241
-0.1156688705086708,0.8996260762214661,-0.0685912743210792,0.0141189405694603,-0.2618071436882019,-0.0016999806975945,0.0,0.0,0.2154661417007446,0.2379457950592041
-0.1162947639822959,0.9006485939025879,-0.0623352006077766,0.045401893556118,-0.262075275182724,-0.0053628766909241,0.0,0.0,-0.6656948924064636,0.4829201698303222
-0.1169643402099609,0.9015607237815856,-0.0666921213269233,0.0404932461678981,-0.2623484134674072,-0.0054629980586469,0.0,0.0,-0.3692584037780761,0.4770853519439697
-0.117677018046379,0.9023625254631042,-0.070995882153511,0.0355845093727111,-0.2626307308673858,-0.005646358244121,0.0,0.0,-0.5491587519645691,0.4725693464279175
-0.1184324249625206,0.903053879737854,-0.0752421095967292,0.0306756775826215,-0.2629264593124389,-0.0059148245491087,0.0,0.0,-0.3107315897941589,0.2385584115982055
-0.1192296966910362,0.9036349654197692,-0.0794261321425437,0.0257667507976293,-0.2632399499416351,-0.006270095705986,0.0,0.0,0.4364198446273803,0.5419268608093262
-0.1197677627205848,0.9049580097198486,-0.0526399202644825,0.0585916750133037,-0.264436662197113,-0.0239341519773006,0.0,0.0,-0.6939396858215332,-0.0686326622962951
-0.1203466430306434,0.9061707854270936,-0.0566843338310718,0.053682442754507,-0.2656600475311279,-0.0244678817689418,0.0,0.0,-0.6785246133804321,-0.336280345916748
-0.1209653839468956,0.9072731733322144,-0.0606506653130054,0.0487730987370014,-0.2669146955013275,-0.0250928960740566,0.0,0.0,-0.620771586894989,0.1836968660354614
-0.1216234192252159,0.9082653522491456,-0.0645329877734184,0.0438636429607868,-0.2682052254676819,-0.0258104689419269,0.0,0.0,-0.0648394227027893,0.1197109222412109
-0.1223196014761924,0.9091471433639526,-0.0683250650763511,0.0389540754258632,-0.2695363163948059,-0.026621576398611,0.0,0.0,-0.1491397619247436,0.0145703554153442
-0.1230532675981521,0.90991872549057,-0.0720203518867492,0.0340443886816501,-0.2709126770496368,-0.0275271423161029,0.0,0.0,0.1338672637939453,-0.3814641237258911
-0.1236781105399131,0.9113919138908386,-0.0610691308975219,0.065212570130825,-0.2723619639873504,-0.0289859268814325,0.0,0.0,-0.5113396048545837,-0.1785234212875366
-0.1243383437395095,0.912755012512207,-0.0645501688122749,0.0603026263415813,-0.2738660871982574,-0.0300825741142034,0.0,0.0,-0.4230078458786011,-0.4629459381103515
-0.1250327080488205,0.9140077233314514,-0.0679132416844368,0.0553925596177578,-0.275429904460907,-0.0312755182385444,0.0,0.0,-0.2256228923797607,-0.7226055264472961
-0.1258257925510406,0.915179431438446,-0.0794395953416824,0.0521010793745517,-0.2752944231033325,0.0027095931582152,0.0,0.0,-0.5762766599655151,0.2039334774017334
-0.1266505271196365,0.9162408709526062,-0.0825441256165504,0.0471909716725349,-0.2752282619476318,0.0013233659556135,0.0,0.0,-0.2213300466537475,0.5781435966491699
-0.1274635344743728,0.9171740412712096,-0.0801840797066688,0.0412630848586559,-0.2763668000698089,-0.0227707587182521,0.0,0.0,-0.2961562275886535,0.1162600517272949
-0.1283053457736969,0.9179970026016236,-0.0829995274543762,0.0363526381552219,-0.2775843143463135,-0.0243503637611866,0.0,0.0,0.0776543617248535,0.1197614669799804
-0.1290284097194671,0.9190132021903992,-0.0714219883084297,0.0449971780180931,-0.2784915864467621,-0.0181455425918102,0.0,0.0,-0.3203514814376831,0.2182916402816772
-0.1297772377729416,0.9199193120002748,-0.0739179104566574,0.0400865338742733,-0.2794874608516693,-0.0199174731969833,0.0,0.0,0.3569008111953735,-0.0379729270935058
-0.130347728729248,0.9216619729995728,-0.0560796782374382,0.0772669166326522,-0.2804814875125885,-0.0198803655803203,0.0,0.0,-0.6806216835975647,-0.3366000652313232
