x_pos,y_pos,x_vel,y_vel,angle,ang_vel,leg_1,leg_2,main_booster,lat_booster
-0.0015915870899334,1.4033631086349487,-0.1612185537815094,-0.3358644843101501,0.0018390320474281,0.0362825207412242,0.0,0.0,-0.5790032650606993,-0.5412233360669529
-0.0032880783546715,1.395565390586853,-0.1724677979946136,-0.3465738296508789,0.0046321898698806,0.0558689013123512,0.0,0.0,0.8102878239686311,0.680789265849213
-0.0048377988860011,1.3881663084030151,-0.1568686366081237,-0.328851968050003,0.0065063768997788,0.0374874547123909,0.0,0.0,0.8713615559441872,0.8494339102001525
-0.006532478146255,1.3813512325286863,-0.1693708449602127,-0.3028964698314667,0.0064094993285834,-0.001937840366736,0.0,0.0,-0.0422785738371467,0.7521141928655579
-0.0082121845334768,1.3742778301239014,-0.1660699844360351,-0.3143714666366577,0.0045338398776948,-0.0375168696045875,0.0,0.0,-0.5359651060343349,-0.5440986727080014
-0.0099784852936863,1.3669419288635254,-0.175595998764038,-0.3260293304920196,0.0035183408763259,-0.0203118044883012,0.0,0.0,0.0066270097326641,0.8023999827013908
-0.0117490766569972,1.3598730564117432,-0.1744458377361297,-0.3141716718673706,0.0009366018348373,-0.0516397878527641,0.0,0.0,-0.765092918058466,-0.6035200375219543
-0.0136019708588719,1.3525444269180298,-0.183619350194931,-0.3257148563861847,-0.0007140874513424,-0.03301652520895,0.0,0.0,0.7212021693599353,-0.7238057272343504
-0.0155679704621434,1.346270203590393,-0.1963764727115631,-0.2788525819778442,-0.0009308180888183,-0.0043355328962206,0.0,0.0,-0.2458744129382677,0.9071819776292698
-0.0175018310546875,1.3397400379180908,-0.1913847029209137,-0.2902308702468872,-0.0029088826850056,-0.0395647548139095,0.0,0.0,0.9259186378400792,0.7771500167599505
-0.0192985534667968,1.3339881896972656,-0.1764066070318222,-0.2556522190570831,-0.0061335051432251,-0.0644986405968666,0.0,0.0,0.0653289900098492,-0.7614091739257355
-0.0211319923400878,1.328484058380127,-0.1816799193620681,-0.2446276545524597,-0.0077722873538732,-0.0327788665890693,0.0,0.0,0.8181314987044253,-0.6751567973282158
-0.0228851325809955,1.3238756656646729,-0.1754429936408996,-0.2048161029815673,-0.0076454784721136,0.0025363231543451,0.0,0.0,0.4921057952771466,0.6290414583846818
-0.0245416648685932,1.3194797039031982,-0.1647081077098846,-0.1953807473182678,-0.0085743684321641,-0.0185794066637754,0.0,0.0,-0.813907688066368,0.8934819592491733
-0.0261302944272756,1.3148305416107178,-0.1557609736919403,-0.206645518541336,-0.0116457920521497,-0.0614343956112861,0.0,0.0,-0.6132318715848974,0.6304262770751209
-0.0276751518249511,1.309912085533142,-0.1499407291412353,-0.218644693493843,-0.0161494873464107,-0.0900817960500717,0.0,0.0,-0.3276295661515089,0.902008631023996
-0.0291433334350585,1.3047409057617188,-0.1400873214006424,-0.2299117296934127,-0.022803908213973,-0.1331003010272979,0.0,0.0,-0.2481195268013587,0.9939428129476852
-0.030521297827363,0.0,-0.1286400407552719,-0.2420899420976638,-0.0318475253880023,-0.180889219045639,0.0,0.0,-0.2566097673635117,-0.7417022170592007
-0.0319504737854003,1.2936030626296997,-0.1350761651992797,-0.253268837928772,-0.0396013148128986,-0.1550900936126709,0.0,0.0,0.2413370878118619,-0.6960769412821185
-0.0334839820861816,1.2882922887802124,-0.1468620151281356,-0.2362163513898849,-0.0460164695978164,-0.1283149570226669,0.0,0.0,0.1150796517818799,0.7966614762479458
-0.0348258018493652,1.2834757566452026,-0.1262326538562774,-0.2143301516771316,-0.0538905747234821,-0.1574960947036743,0.0,0.0,-0.353799995551598,0.7984841231130574
-0.0360937118530273,1.2783889770507812,-0.1172651052474975,-0.2264437526464462,-0.0633236393332481,-0.1886781007051468,0.0,0.0,0.9831559303068964,0.5606267093200108
-0.0370970740914344,1.2739999294281006,-0.0902455002069473,-0.1955253779888153,-0.0733249187469482,-0.2000440657138824,0.0,0.0,-0.0361389784795391,-0.8723469368943597
-0.0381441116333007,1.2693473100662231,-0.0962227433919906,-0.2072126120328903,-0.0817287862300872,-0.168092280626297,0.0,0.0,0.2553512882495306,0.5707054362759378
-0.0392026901245117,1.2651762962341309,-0.0960861966013908,-0.1859427392482757,-0.091434009373188,-0.1941217184066772,0.0,0.0,0.7579006267278254,-0.9004022873312441
-0.0404114723205566,1.26188063621521,-0.1126849874854087,-0.1469962000846862,-0.0995558276772499,-0.1624360084533691,0.0,0.0,0.6759992252881077,0.5461769489589272
-0.0414711013436317,1.2594207525253296,-0.0967736914753913,-0.1099622249603271,-0.1086820363998413,-0.1825243532657623,0.0,0.0,0.0291425955242012,-0.8931200380825166
-0.0426088348031044,1.2575035095214844,-0.1064688190817833,-0.085759125649929,-0.1159376353025436,-0.1451117098331451,0.0,0.0,0.4724050788455216,-0.5733791180216736
-0.0438014976680278,1.2563886642456057,-0.112905777990818,-0.0500638149678707,-0.1222583577036857,-0.1264142394065857,0.0,0.0,-0.2580178968470759,0.7915576091836427
-0.0448960289359092,1.2549986839294434,-0.1016547903418541,-0.0624267384409904,-0.1300233602523803,-0.1552998721599578,0.0,0.0,0.7428290059947202,0.6418157888426952
-0.0457612983882427,1.254670023918152,-0.077582262456417,-0.0154167022556066,-0.1389298737049102,-0.178130567073822,0.0,0.0,-0.9840424060821532,-0.8337866067886353
-0.0466563217341899,1.2540913820266724,-0.0825530290603637,-0.0263854060322046,-0.1458679139614105,-0.1387603729963302,0.0,0.0,-0.9599564671516418,-0.926416277885437
-0.0475859642028808,1.253278374671936,-0.0882109850645065,-0.0366040654480457,-0.1506020724773407,-0.0946835726499557,0.0,0.0,-0.9977258443832396,-0.8365617990493774
-0.0485388748347759,1.2522131204605105,-0.0924996510148048,-0.0476319640874862,-0.1533932387828827,-0.0558233857154846,0.0,0.0,-0.9982085227966307,-0.921278953552246
-0.0495094284415245,1.250904560089111,-0.0961592271924018,-0.0582523606717586,-0.1542896181344986,-0.0179279576987028,0.0,0.0,-0.9790667295455932,-0.870912492275238
-0.050490666180849,1.249356389045715,-0.0990272313356399,-0.068717211484909,-0.1533884555101394,0.0180232655256986,0.0,0.0,-0.0228930115699768,-0.9014661312103271
-0.0514890663325786,1.2475590705871582,-0.1027307510375976,-0.0795791894197464,-0.1504998356103897,0.0577722713351249,0.0,0.0,-0.9506135582923888,-0.3614735007286072
-0.0524284355342388,1.245500564575195,-0.096945010125637,-0.0911905691027641,-0.1474997103214264,0.0600023977458477,0.0,0.0,-0.9700740575790404,-0.4898970127105713
-0.0533067695796489,1.243180751800537,-0.0909612849354744,-0.1028019934892654,-0.1443843394517898,0.0623074062168598,0.0,0.0,-0.9926027059555054,0.0742967128753662
-0.054122257977724,1.2405993938446045,-0.084791213274002,-0.1144134551286697,-0.1411499977111816,0.064687006175518,0.0,0.0,-0.9947685599327089,0.7735581398010254
-0.0548226349055767,1.2377524375915527,-0.0721278339624404,-0.1263307780027389,-0.1390618681907653,0.0417625606060028,0.0,0.0,-0.9742082953453064,0.3867430686950683
-0.0554566383361816,1.2346442937850952,-0.0656182020902633,-0.1379417777061462,-0.1368473619222641,0.0442897714674472,0.0,0.0,-0.9245404601097108,0.7524592876434326
-0.0559549331665039,1.2312520742416382,-0.0504327416419982,-0.1507083922624588,-0.1362532377243042,0.0118827410042285,0.0,0.0,-0.9572727084159852,-0.6217020153999329
-0.0564246177673339,1.2276055812835691,-0.0487445816397666,-0.1619081944227218,-0.1344887018203735,0.0352909937500953,0.0,0.0,-0.9144176244735718,0.0166257619857788
-0.0568235404789447,1.223697543144226,-0.041802454739809,-0.173519030213356,-0.1325870603322982,0.0380332544445991,0.0,0.0,-0.8405193090438843,0.8838624954223633
-0.0570767410099506,1.2195041179656982,-0.0254496373236179,-0.1863594949245453,-0.1324495524168014,0.0027500994037836,0.0,0.0,-0.9069325923919678,0.7161507606506348
-0.0571950897574424,1.215032935142517,-0.0105357440188527,-0.1988322138786316,-0.1337455511093139,-0.0259201042354106,0.0,0.0,-0.8542324900627136,-0.4499605298042297
-0.0572390556335449,1.2103004455566406,-0.0032430193386971,-0.2104427963495254,-0.1348942369222641,-0.0229741148650646,0.0,0.0,-0.8691632747650146,0.268588662147522
-0.0572075843811035,1.2053061723709106,0.0041502555832266,-0.2220532894134521,-0.1358923912048339,-0.0199632365256547,0.0,0.0,-0.487039566040039,-0.6453448534011841
-0.0571522712707519,1.200059413909912,0.0050472384318709,-0.2331466227769851,-0.135402962565422,0.0097886268049478,0.0,0.0,-0.7508754134178162,0.7180979251861572
-0.056949995458126,1.194536566734314,0.0213669203221797,-0.2455601096153259,-0.1365335285663604,-0.0226114708930253,0.0,0.0,-0.8376549482345581,-0.0133488774299621
-0.0566695220768451,1.188752293586731,0.0290180202573537,-0.2571704685688019,-0.137504369020462,-0.0194168798625469,0.0,0.0,-0.6401331424713135,-0.1912011504173278
-0.0563101768493652,1.182706356048584,0.0367415733635425,-0.268780767917633,-0.1383125931024551,-0.0161643214523792,0.0,0.0,-0.8983136415481567,0.1451618671417236
-0.0558713898062706,1.176398992538452,0.0445313341915607,-0.2803909480571747,-0.1389554142951965,-0.0128566827625036,0.0,0.0,-0.8668676018714905,-0.9280098080635072
-0.0554073341190815,1.1698379516601562,0.0454807952046394,-0.2915147542953491,-0.1380361765623092,0.0183851178735494,0.0,0.0,-0.8751268982887268,-0.948207437992096
-0.054948903620243,1.1630293130874634,0.0425403304398059,-0.3023101091384887,-0.1347527801990509,0.0656679421663284,0.0,0.0,-0.5692673325538635,-0.6337010264396667
-0.0544507019221782,1.1559734344482422,0.0452833771705627,-0.3131888508796692,-0.1302250921726226,0.0905537828803062,0.0,0.0,-0.945830225944519,-0.6533961892127991
-0.0539098754525184,1.1486668586730957,0.0483441427350044,-0.3242507576942444,-0.1245148107409477,0.1142055243253707,0.0,0.0,-0.9273793697357178,0.0432112216949462
-0.0532868392765522,1.141098976135254,0.0563796460628509,-0.3358636796474457,-0.118626944720745,0.1177576929330825,0.0,0.0,-0.7006312012672424,0.0522115230560302
-0.0525813102722168,1.133270263671875,0.0644489750266075,-0.3474768996238708,-0.112559325993061,0.1213523522019386,0.0,0.0,-0.8573333621025085,-0.2553319931030273
-0.0517929084599018,1.1251802444458008,0.0725474208593368,-0.3590903580188751,-0.106309950351715,0.1249874830245971,0.0,0.0,-0.809386134147644,-0.25583016872406
-0.0509213432669639,1.1168293952941897,0.0806704089045524,-0.3707040846347809,-0.0998768955469131,0.1286611109972,0.0,0.0,-0.8839663863182068,-0.174243688583374
-0.0499664321541786,1.108217477798462,0.0888135284185409,-0.3823180794715881,-0.0932583287358284,0.1323712915182113,0.0,0.0,-0.7348105311393738,0.1613998413085937
-0.0489280708134174,1.0993447303771973,0.0969724580645561,-0.3939323425292969,-0.0864525288343429,0.136116161942482,0.0,0.0,-0.7646717429161072,-0.3907350301742553
-0.0478060729801654,1.090211272239685,0.1051429882645607,-0.4055469334125519,-0.0794578418135643,0.1398937851190567,0.0,0.0,-0.9213534593582152,-0.6563255786895752
-0.0466626174747943,1.080824851989746,0.105491004884243,-0.416729599237442,-0.070696622133255,0.1752242594957351,0.0,0.0,-0.7676020264625549,0.0881972312927246
-0.0454354286193847,1.071177959442139,0.1136722788214683,-0.4283470213413238,-0.0617435574531555,0.1790613085031509,0.0,0.0,-0.7816956639289856,0.7096743583679199
-0.0440609939396381,1.0612564086914062,0.1298107206821441,-0.4406701922416687,-0.0542043931782245,0.1507835686206817,0.0,0.0,-0.9179399013519288,-0.7072871327400208
-0.0426559448242187,1.0510867834091189,0.1313189268112182,-0.4516806900501251,-0.0451247878372669,0.1815920770168304,0.0,0.0,-0.9132333397865297,-0.4227473735809326
-0.0411671623587608,1.040656805038452,0.1394870281219482,-0.4632989764213562,-0.0358494967222213,0.1855057775974273,0.0,0.0,-0.601403534412384,-0.6405829191207886
-0.0396532043814659,1.0299726724624634,0.140323668718338,-0.4746237993240356,-0.024908572435379,0.2188186645507812,0.0,0.0,-0.8625528216362,0.438247799873352
-0.0380557067692279,1.019028902053833,0.1484635919332504,-0.4862455129623413,-0.0137698715552687,0.2227742373943328,0.0,0.0,-0.8656584620475769,0.6201316118240356
-0.0363363251090049,1.007831335067749,0.1614303886890411,-0.4976037740707397,-0.003401564899832,0.2073661088943481,0.0,0.0,-0.4004158973693847,0.0230568647384643
-0.0345340743660926,0.9963741302490234,0.1695271283388137,-0.5092247724533081,0.0071663428097963,0.2113581895828247,0.0,0.0,-0.9303953647613524,-0.5290923714637756
-0.0326931960880756,0.984652817249298,0.1720509231090545,-0.521056592464447,0.0190457645803689,0.2375884801149368,0.0,0.0,-0.810387134552002,0.7994754314422607
-0.0306994430720806,0.9726652503013612,0.1889332085847854,-0.53294438123703,0.0293573290109634,0.2062314003705978,0.0,0.0,-0.8375828266143799,-0.6113170981407166
-0.0286744125187397,0.9604100584983826,0.1905623972415924,-0.5449618101119995,0.0411509722471237,0.2358728945255279,0.0,0.0,-0.8430619239807129,-0.7958608269691467
-0.0266317371279001,0.947898805141449,0.1905018389225006,-0.5564864873886108,0.0547510311007499,0.2720014452934265,0.0,0.0,-0.8836095333099365,0.4446114301681518
-0.0245079044252634,0.935128927230835,0.1984236538410186,-0.5681149363517761,0.0685538128018379,0.2760553359985351,0.0,0.0,-0.8805011510848999,0.8174319267272949
-0.0222513191401958,0.9221140146255492,0.212850883603096,-0.5790781378746033,0.0812333300709724,0.2535903751850128,0.0,0.0,-0.8479335308074951,0.0338492393493652
-0.0199146270751953,0.9088401198387146,0.2206751406192779,-0.5907049775123596,0.0941163301467895,0.2576597332954407,0.0,0.0,-0.368163526058197,-0.2164561748504638
-0.0174983032047748,0.8953074812889099,0.2284447252750396,-0.6023325324058533,0.1072030439972877,0.2617340683937073,0.0,0.0,-0.5580894351005554,-0.287602961063385
-0.0150029184296727,0.8815160989761353,0.2361555397510528,-0.6139608025550842,0.1204936131834983,0.2658117413520813,0.0,0.0,-0.5151220560073853,0.3587589263916015
-0.0124292373657226,0.867466151714325,0.243803471326828,-0.6255895495414734,0.1339881718158722,0.269891083240509,0.0,0.0,-0.1332406401634216,0.0183513164520263
-0.0097779277712106,0.8531577587127686,0.251384437084198,-0.6372191309928894,0.1476866900920868,0.273970365524292,0.0,0.0,-0.5027512907981873,-0.0233507752418518
-0.0070498464629054,0.8385911583900452,0.2588940858840942,-0.6488493084907532,0.1615890711545944,0.2780478298664093,0.0,0.0,-0.4770618677139282,-0.0693625211715698
-0.0042456625960767,0.8237660527229309,0.2663282752037048,-0.6604802012443542,0.1756951659917831,0.2821216583251953,0.0,0.0,-0.6823439598083496,-0.1328017711639404
-0.0013662338024005,0.8086828589439392,0.2736826837062835,-0.6721116304397583,0.1900046616792678,0.2861899733543396,0.0,0.0,-0.5031427145004272,0.0174541473388671
0.0015873908996582,0.7933418154716492,0.2809530198574066,-0.6837438344955444,0.20451720058918,0.2902507185935974,0.0,0.0,-0.3538819551467895,-0.509101927280426
0.0045848847366869,0.7777296304702759,0.2843825221061706,-0.6960728168487549,0.2200215607881546,0.3100878596305847,0.0,0.0,-0.1652331352233886,0.1360584497451782
0.0076547623611986,0.7618599534034729,0.2914721667766571,-0.7077083587646484,0.2357278615236282,0.3141264617443084,0.0,0.0,0.3552058935165405,0.1416236162185669
0.0106752393767237,0.7466492056846619,0.2862868905067444,-0.6786333918571472,0.2517527937889099,0.3204988837242126,0.0,0.0,0.5346808433532715,0.9375569820404052
0.0138094900175929,0.7321611046791077,0.299250841140747,-0.6464134454727173,0.2662231922149658,0.2894080281257629,0.0,0.0,-0.0183618068695068,-0.2750417590141296
0.0170129779726266,0.7174150943756104,0.306034117937088,-0.6580469012260437,0.2808931171894073,0.2933979034423828,0.0,0.0,-0.2180669903755188,0.6735031604766846
0.0203314777463674,0.702429473400116,0.3186102509498596,-0.6686345338821411,0.2945158779621124,0.2724558115005493,0.0,0.0,0.3636718988418579,0.5743647813796997
0.0236249919980764,0.688267171382904,0.3169655799865722,-0.6319935917854309,0.307320237159729,0.2560871243476867,0.0,0.0,0.3634519577026367,0.8689569234848022
0.0268866531550884,0.6745383739471436,0.3153636157512665,-0.6124868988990784,0.318530261516571,0.2242004424333572,0.0,0.0,0.0184732675552368,0.6198809146881104
0.0300220493227243,0.6612369418144226,0.3038975894451141,-0.5933322310447693,0.3285700380802154,0.2007953822612762,0.0,0.0,-0.1695623397827148,0.8711512088775635
0.033294104039669,0.6477183103561401,0.3193626999855041,-0.6026410460472107,0.3367597758769989,0.1637945175170898,0.0,0.0,-0.2859054207801819,0.7550836801528931
0.0366781242191791,0.633971631526947,0.3317429423332214,-0.6125281453132629,0.3437258601188659,0.1393216848373413,0.0,0.0,-0.6850829124450684,0.6090141534805298
0.0401606559753418,0.6199902892112732,0.3424707353115082,-0.6227933168411255,0.3497986495494842,0.121455505490303,0.0,0.0,-0.5123650431632996,0.7541346549987793
0.0437565818428993,0.6057755351066589,0.3550466001033783,-0.6328771114349365,0.3545772135257721,0.0955713242292404,0.0,0.0,-0.2340702414512634,0.5315341949462891
0.0474418625235557,0.591318666934967,0.3646526038646698,-0.6434882283210754,0.3586581647396087,0.0816189050674438,0.0,0.0,-0.407383918762207,0.41397225856781
0.0511835105717182,0.5766016244888306,0.3701285719871521,-0.6551068425178528,0.3629184365272522,0.0852055996656417,0.0,0.0,-0.113243818283081,0.0435320138931274
0.0549800880253315,0.5616243481636047,0.3754531741142273,-0.6667256951332092,0.3673546612262726,0.088724710047245,0.0,0.0,-0.2044406533241272,0.0160303115844726
0.0588297843933105,0.5463868975639343,0.3806232810020447,-0.6783444881439209,0.3719631731510162,0.092170275747776,0.0,0.0,-0.0887758135795593,0.6750633716583252
0.0627911537885665,0.5309298634529114,0.3932655453681946,-0.6877287030220032,0.375009536743164,0.0609272792935371,0.0,0.0,0.8767716884613037,0.2580512762069702
0.0664555579423904,0.5164286494255066,0.363525927066803,-0.6452656984329224,0.378099650144577,0.0618020296096801,0.0,0.0,-0.0451093912124633,0.0511783361434936
0.0701682120561599,0.5016670823097229,0.3682148158550262,-0.6568834185600281,0.3813490867614746,0.0649889186024665,0.0,0.0,0.8209090232849121,0.4373291730880737
0.0737679451704025,0.4875814914703369,0.3564043939113617,-0.6269832849502563,0.3851417601108551,0.0758538693189621,0.0,0.0,0.3834195137023926,0.8599143028259277
0.0772097557783126,0.474228024482727,0.3421568274497986,-0.5940349698066711,0.3872919380664825,0.0430035330355167,0.0,0.0,-0.0694465637207031,0.3874748945236206
0.0806946754455566,0.4606139659881592,0.3463448882102966,-0.6056519150733948,0.3895853161811828,0.045867770910263,0.0,0.0,0.1385807991027832,0.4322788715362549
0.084152415394783,0.4472095966339111,0.3432596325874328,-0.5964423418045044,0.3922725915908813,0.0537455268204212,0.0,0.0,0.0285592079162597,0.2103892564773559
0.0874323844909668,0.4340345859527588,0.3256858587265014,-0.5861954092979431,0.3947381377220154,0.0493107214570045,0.0,0.0,0.4968758821487427,0.651181697845459
0.0905010253190994,0.421199232339859,0.3059397637844085,-0.5707167387008667,0.3957326114177704,0.0198897346854209,0.0,0.0,0.5269811153411865,0.8273987770080566
0.0934446305036544,0.4088487029075622,0.2949396967887878,-0.5487510561943054,0.3951027989387512,-0.0125961620360612,0.0,0.0,0.9050072431564332,0.7553014755249023
0.0962707549333572,0.3971406817436218,0.2844962477684021,-0.5198344588279724,0.3930933177471161,-0.0401898398995399,0.0,0.0,0.8868498802185059,0.6249217987060547
0.0991665869951248,0.3858557939529419,0.2921865582466125,-0.5008331537246704,0.3903100192546844,-0.0556658916175365,0.0,0.0,0.9447448253631592,-0.0354539155960083
0.1018930450081825,0.3754921853542328,0.2746698558330536,-0.4600513279438019,0.3881485760211944,-0.0432290099561214,0.0,0.0,0.8871526718139648,-0.1256742477416992
0.1043262481689453,0.3661633133888244,0.2451483309268951,-0.414121150970459,0.3862015306949615,-0.0389403626322746,0.0,0.0,0.7182736396789551,0.6189084053039551
0.1067773848772049,0.3570858538150787,0.2479017972946167,-0.402688980102539,0.3832300305366516,-0.0594299919903278,0.0,0.0,0.905951738357544,0.6622055768966675
