x_pos,y_pos,x_vel,y_vel,angle,ang_vel,leg_1,leg_2,main_booster,lat_booster
-0.00156831741333,1.4031394720077517,-0.1590994149446487,-0.3458035886287689,0.002035800833255,0.0401783660054206,0.0,0.0,-0.9043687720064612,0.7010811398382493
-0.0031217574141919,1.3948938846588137,-0.156071588397026,-0.3664708733558655,0.002751147840172,0.0143093317747116,0.0,0.0,-0.4726594969335864,-0.6929367670788316
-0.004762458615005,1.386157751083374,-0.1661167740821838,-0.3882811367511749,0.0047719934955239,0.0404206588864326,0.0,0.0,0.7936724349387423,0.7912612066313627
-0.0065299989655613,1.3777470588684082,-0.1771484762430191,-0.3738097250461578,0.0051554604433476,0.0076700774952769,0.0,0.0,-0.5589186994168669,-0.9899758737547288
-0.0084036830812692,1.36885404586792,-0.1895580440759658,-0.3952587842941284,0.0073233149014413,0.0433612018823623,0.0,0.0,0.2939133479258229,0.7109218587856123
-0.0101491929963231,1.3601150512695312,-0.1757613718509674,-0.3884069323539734,0.0085215242579579,0.0239665433764457,0.0,0.0,-0.776909285029963,-0.6847350135468457
-0.0119954105466604,1.3508903980255127,-0.1875056773424148,-0.4100058674812317,0.011373252607882,0.057039625942707,0.0,0.0,-0.0128034218012509,0.8252121500887315
-0.0138053894042968,1.3411846160888672,-0.1820777356624603,-0.4313734471797943,0.012433742173016,0.0212116539478302,0.0,0.0,-0.1750435328740756,0.6283467648030698
-0.0156117435544729,1.33100163936615,-0.1807307302951812,-0.452573299407959,0.0125255556777119,0.0018364960560575,0.0,0.0,0.025144153566847,0.8357553265405808
-0.0174033157527446,1.3210163116455078,-0.1778249740600586,-0.4437812566757202,0.0112130707129836,-0.0262520667165517,0.0,0.0,0.5752202870234913,-0.9536193045697412
-0.0192279815673828,1.3113971948623655,-0.1834342628717422,-0.4275287091732025,0.0121637983247637,0.0190166719257831,0.0,0.0,0.1878591061423447,-0.6005866331768486
-0.0210928916931152,1.3018615245819092,-0.1890212446451187,-0.423826515674591,0.0146591747179627,0.0499122664332389,0.0,0.0,-0.1868448634550852,0.847797692340404
-0.0229212753474712,1.2918471097946167,-0.1835565268993377,-0.4450898170471191,0.0153656527400016,0.014131024479866,0.0,0.0,0.958851340765654,-0.6332560116842254
-0.0247629173099994,1.2819745540618896,-0.1866648644208908,-0.4388118386268616,0.017828831449151,0.0492680072784423,0.0,0.0,0.0354019325274317,-0.9331653765162532
-0.0266266819089651,1.27240252494812,-0.1909697502851486,-0.4254880845546722,0.0223822779953479,0.0910769701004028,0.0,0.0,-0.6933651280997659,0.987629349910509
-0.0284424778074026,1.2623372077941897,-0.1841199547052383,-0.4473907053470611,0.0248784553259611,0.0499284118413925,0.0,0.0,0.9988817591105784,0.6586900946891248
-0.0300981514155864,1.2533553838729858,-0.167523056268692,-0.3992273211479187,0.026811571791768,0.0386659651994705,0.0,0.0,-0.2027014543616165,-0.987901353461322
-0.031857680529356,1.243877649307251,-0.1796776354312896,-0.4213009178638458,0.0305033754557371,0.0738426372408866,0.0,0.0,-0.4576738760368524,0.9512637505999352
-0.0335744842886924,1.2339283227920532,-0.1734522879123687,-0.4422287940979004,0.0322609916329383,0.0351553410291671,0.0,0.0,0.0526892494475044,-0.8063977203027985
-0.0354705825448036,1.2240285873413086,-0.1932466924190521,-0.4400719702243805,0.0358579121530056,0.0719450563192367,0.0,0.0,-0.450376006361566,-0.7653962476908411
-0.0374586097896099,1.2136472463607788,-0.2039151936769485,-0.4615266025066376,0.0409144274890422,0.1011392921209335,0.0,0.0,0.6800565362401629,0.6048608424749459
-0.0394484512507915,1.203455924987793,-0.2031708657741546,-0.4530644416809082,0.0450638607144355,0.0829959437251091,0.0,0.0,0.9591891166779764,0.8008206851637565
-0.0412804596126079,1.1937618255615234,-0.1864272505044937,-0.4309438169002533,0.0482580550014972,0.0638893097639083,0.0,0.0,-0.8506229848387876,-0.5110202125310415
-0.043191622942686,1.1835750341415403,-0.195525661110878,-0.4529014527797699,0.0526159852743148,0.0871662199497222,0.0,0.0,-0.3134007237086322,-0.7389018206005418
-0.0452186577022075,1.1729000806808472,-0.2092122733592987,-0.474681943655014,0.0590545758605003,0.1287834495306015,0.0,0.0,0.0785863824312325,0.6916799257890811
-0.0473691932857036,1.16240656375885,-0.2203269451856613,-0.466592013835907,0.0642737820744514,0.104384109377861,0.0,0.0,-0.1701893242000733,0.5962331896026242
-0.0495155341923236,1.1514370441436768,-0.2189769297838211,-0.4877271950244903,0.0685633793473243,0.0857920944690704,0.0,0.0,0.6861419748021498,0.9756639722481144
-0.0518357269465923,1.1412460803985596,-0.2344642579555511,-0.4530467092990875,0.0709781497716903,0.0482952855527401,0.0,0.0,-0.4786062640111239,0.7319294165279118
-0.0541538223624229,1.130581259727478,-0.2333511114120483,-0.4740632176399231,0.0725155100226402,0.0307472310960292,0.0,0.0,0.3139380266069407,-0.8221978919904267
-0.0566259399056434,1.119999885559082,-0.2506718039512634,-0.470455527305603,0.0759364068508148,0.068417839705944,0.0,0.0,0.518038198440212,-0.793029734160255
-0.0592432990670204,1.1101016998291016,-0.2670753598213196,-0.4402047991752624,0.0812301710247993,0.1058751568198204,0.0,0.0,-0.9458662867546082,0.9841917753219604
-0.0618345253169536,1.0997215509414673,-0.2630180120468139,-0.461554616689682,0.0850838273763656,0.0770732834935188,0.0,0.0,-0.8555238842964172,0.998764991760254
-0.0644000023603439,1.0888750553131104,-0.2589672803878784,-0.4822091162204742,0.0874828174710273,0.0479797795414924,0.0,0.0,-0.1326618194580078,0.9979982376098632
-0.0669358223676681,1.077544093132019,-0.2544759213924408,-0.5036485195159912,0.0883716866374015,0.0177773162722587,0.0,0.0,-0.4927984476089477,0.9940694570541382
-0.0694320648908615,1.0657413005828855,-0.2487392723560333,-0.5245139002799988,0.0874903574585914,-0.0176264010369777,0.0,0.0,-0.6215617060661316,0.9963057041168212
-0.0718883499503135,1.0534721612930298,-0.2429362535476684,-0.545143187046051,0.0848260149359703,-0.0532869920134544,0.0,0.0,0.0432881116867065,0.9657182693481444
-0.0743523612618446,1.041150450706482,-0.2420392334461212,-0.5473887324333191,0.0805104598402977,-0.0863110199570655,0.0,0.0,-0.9680150747299194,0.9955037832260132
-0.0767726898193359,1.028362274169922,-0.2358133792877197,-0.5680406093597412,0.0743480548262596,-0.1232479661703109,0.0,0.0,-0.998776376247406,0.9710960388183594
-0.0791608840227127,1.0151088237762451,-0.2310323268175125,-0.5886724591255188,0.0666384994983673,-0.154191106557846,0.0,0.0,-0.9769251346588136,0.755303144454956
-0.0815251320600509,1.0013790130615234,-0.2272951602935791,-0.6098392605781555,0.0576172247529029,-0.180425614118576,0.0,0.0,-0.9965681433677672,0.8501627445220947
-0.0838720351457595,0.987177550792694,-0.2244156301021576,-0.6308144927024841,0.0474645979702472,-0.2030525952577591,0.0,0.0,-0.996818780899048,0.5909981727600098
-0.086199477314949,0.9724956154823304,-0.2213029116392135,-0.6522114276885986,0.0361568555235862,-0.2261545360088348,0.0,0.0,-0.9867485761642456,0.1824789047241211
-0.0885631591081619,0.9573304653167723,-0.2251790761947631,-0.6737746000289917,0.0251100528985261,-0.2209360152482986,0.0,0.0,-0.950446367263794,-0.4112284183502197
-0.0909621268510818,0.9416822791099548,-0.2289698421955108,-0.6953369975090027,0.0143233649432659,-0.2157338410615921,0.0,0.0,-0.973215878009796,-0.4930542111396789
-0.0933954268693924,0.9255505204200744,-0.2326677292585373,-0.7168987393379211,0.0037958801258355,-0.2105496674776077,0.0,0.0,-0.9758371114730836,0.3317360877990722
-0.0958621054887771,0.9089354276657104,-0.2362647950649261,-0.7384596467018127,-0.006473384797573,-0.2053854167461395,0.0,0.0,-0.9729391932487488,0.1209243535995483
-0.0983610153198242,0.8918366432189941,-0.2397526204586029,-0.7600200176239014,-0.0164855346083641,-0.2002430409193039,0.0,0.0,-0.954024612903595,0.3849234580993652
-0.1008910164237022,0.8742542266845703,-0.2431223392486572,-0.7815797328948975,-0.026241760700941,-0.1951245069503784,0.0,0.0,-0.8514450788497925,0.6512064933776855
-0.1034106239676475,0.8561922907829285,-0.2413144409656524,-0.8029717206954956,-0.0367527157068252,-0.2102189362049102,0.0,0.0,-0.7691654562950134,0.5143349170684814
-0.1059194579720497,0.8376434445381165,-0.2394986599683761,-0.8247184157371521,-0.0479978322982788,-0.2249023467302322,0.0,0.0,-0.6170477271080017,0.012721300125122
-0.1084551811218261,0.8186110854148865,-0.2424566745758056,-0.8462796807289124,-0.0589912310242652,-0.2198679000139236,0.0,0.0,0.6643719673156738,0.7773222923278809
-0.1109746918082237,0.8002120852470398,-0.239409327507019,-0.8182764053344727,-0.0714011490345001,-0.2481983006000518,0.0,0.0,0.1807038784027099,-0.6143412590026855
-0.1134572029113769,0.7817975878715515,-0.2373431175947189,-0.8189809918403625,-0.082201063632965,-0.215998500585556,0.0,0.0,0.4887489080429077,-0.6935703754425049
-0.1159538254141807,0.7639865279197693,-0.2404116690158844,-0.7921391129493713,-0.091365210711956,-0.183283269405365,0.0,0.0,0.3623263835906982,-0.4682067036628723
-0.1183115020394325,0.7462749481201172,-0.2273449450731277,-0.7877172827720642,-0.0997168123722076,-0.167031705379486,0.0,0.0,0.1043028831481933,0.0054453611373901
-0.1207195296883583,0.7285587787628174,-0.2323313653469085,-0.7879762649536133,-0.1081218048930168,-0.168099820613861,0.0,0.0,-0.0276057124137878,0.0933554172515869
-0.1231435760855674,0.7103582620620728,-0.2341879904270172,-0.8095316290855408,-0.1162870824337005,-0.1633053869009018,0.0,0.0,0.9057605266571044,-0.5422972440719604
-0.1253659278154373,0.692812442779541,-0.2158323973417282,-0.7803271412849426,-0.1226437166333198,-0.1271327883005142,0.0,0.0,0.4841123819351196,-0.5400039553642273
-0.1274793595075607,0.6758827567100525,-0.2064601629972458,-0.7528370022773743,-0.1275086998939514,-0.0972997099161148,0.0,0.0,-0.3961173892021179,-0.7989752292633057
-0.1296723335981369,0.6584886312484741,-0.216442734003067,-0.773323118686676,-0.130341425538063,-0.0566546022891998,0.0,0.0,0.936651349067688,0.6788390874862671
-0.1316990852355957,0.6412259340286255,-0.1988615691661834,-0.7675687074661255,-0.1341418027877807,-0.0760072767734527,0.0,0.0,0.9094448089599608,0.6192984580993652
-0.1336960792541504,0.6247014999389648,-0.194544181227684,-0.7348905205726624,-0.1392824500799179,-0.1028128638863563,0.0,0.0,0.8027322292327881,-0.8228693008422852
-0.1355347633361816,0.6085109710693359,-0.1808770895004272,-0.7198646068572998,-0.1422710716724395,-0.0597720444202423,0.0,0.0,0.8747836351394653,0.3311020135879516
-0.1372480392456054,0.5928622484207153,-0.1686746925115585,-0.6957539916038513,-0.1449170559644699,-0.0529195591807365,0.0,0.0,0.6633162498474121,-0.3628091812133789
-0.1388923674821853,0.5773256421089172,-0.1620339900255203,-0.6907538175582886,-0.1473112851381302,-0.0478843860328197,0.0,0.0,0.8069045543670654,0.2463536262512207
-0.1405703574419021,0.5622926354408264,-0.1649865210056305,-0.6684150099754333,-0.1501202583312988,-0.0561794154345989,0.0,0.0,0.796011209487915,0.6619877815246582
-0.1420239508152008,0.5481444597244263,-0.1414873450994491,-0.6292017102241516,-0.1539810597896576,-0.0772159844636917,0.0,0.0,0.1384024620056152,-0.5967460870742798
-0.1434213668107986,0.5337991714477539,-0.1373766809701919,-0.6378180384635925,-0.1563494354486465,-0.0473674461245536,0.0,0.0,0.2924124002456665,-0.2435507774353027
-0.1446812599897384,0.5199530720710754,-0.1239189058542251,-0.6155995726585388,-0.1584209203720092,-0.0414297990500927,0.0,0.0,0.300672173500061,-0.0169703364372253
-0.1459405869245529,0.5061913132667542,-0.1237083300948143,-0.6118737459182739,-0.1606405824422836,-0.0443932302296161,0.0,0.0,0.6570905447006226,-0.8633522987365723
-0.1472421586513519,0.4929943084716797,-0.1296907067298889,-0.5865816473960876,-0.1611025631427765,-0.0092396829277277,0.0,0.0,0.2875665426254272,0.3227057456970215
-0.1484227180480957,0.4800243675708771,-0.1178974732756614,-0.5764593482017517,-0.1612689048051834,-0.0033268188126385,0.0,0.0,0.939833402633667,0.9466023445129396
-0.1495126783847808,0.4680700302124023,-0.1068253368139267,-0.5315433144569397,-0.1634392738342285,-0.0434070378541946,0.0,0.0,-0.706297755241394,0.7011616230010986
-0.1505177468061447,0.4556152820587158,-0.0969435423612594,-0.5539405345916748,-0.1670109778642654,-0.0714341476559639,0.0,0.0,0.9015102386474608,-0.4045886993408203
-0.1514609307050705,0.4433507919311523,-0.090740829706192,-0.545490562915802,-0.1705940663814544,-0.0716619938611984,0.0,0.0,0.0201212167739868,-0.5569692850112915
-0.1523407995700836,0.4308913946151733,-0.0857414677739143,-0.5540102124214172,-0.1728344708681106,-0.0448080040514469,0.0,0.0,0.2522008419036865,-0.2656102180480957
-0.1531710624694824,0.4183330535888672,-0.0808433145284652,-0.5584030747413635,-0.1750300228595733,-0.0439112074673175,0.0,0.0,0.8333276510238647,-0.6577731966972351
-0.1538781225681305,0.406611680984497,-0.0699540823698043,-0.5210390686988831,-0.1757792681455612,-0.0149846989661455,0.0,0.0,0.9245538711547852,0.7990467548370361
-0.1542239189147949,0.3957731127738952,-0.0326022692024707,-0.4819479882717132,-0.177765354514122,-0.0397218540310859,0.0,0.0,0.921471357345581,-0.9258254766464232
-0.1545812636613845,0.3859196007251739,-0.0354833528399467,-0.4379657506942749,-0.1780131161212921,-0.0049550961703062,0.0,0.0,0.6248917579650879,0.3622426986694336
-0.1549717932939529,0.376095563173294,-0.0383419655263423,-0.4367094039916992,-0.1787233203649521,-0.0142037468031048,0.0,0.0,0.6289335489273071,-0.1292183399200439
-0.1551489830017089,0.3669261336326599,-0.0173214748501777,-0.4075768887996673,-0.179131731390953,-0.0081680733710527,0.0,0.0,-0.7279747724533081,0.722626805305481
-0.1552431136369705,0.3572587966918945,-0.0079032490029931,-0.4298385381698608,-0.1806363314390182,-0.0300920903682708,0.0,0.0,0.6082110404968262,-0.8576661348342896
-0.1553058624267578,0.3481178283691406,-0.0065002017654478,-0.4062385261058807,-0.1804090589284896,0.0045455722138285,0.0,0.0,0.2571287155151367,-0.3158203363418579
-0.1552436798810959,0.339279294013977,0.0059417122974991,-0.3927888572216034,-0.1801336407661438,0.0055084833875298,0.0,0.0,-0.5624158382415771,0.5443062782287598
-0.1550938636064529,0.3299425542354584,0.0158669538795948,-0.4150741994380951,-0.1810275465250015,-0.0178781431168317,0.0,0.0,0.2623786926269531,-0.5923373103141785
-0.1548843383789062,0.3205081820487976,0.020563643425703,-0.4192573726177215,-0.1806303858757019,0.007943064905703,0.0,0.0,-0.2249638438224792,-0.6253419518470764
-0.1546759605407714,0.3105955123901367,0.0193335004150867,-0.4403793215751648,-0.1791162192821502,0.0302836596965789,0.0,0.0,0.597083330154419,0.0638473033905029
-0.1541881561279297,0.3009746968746185,0.0465711429715156,-0.4273283779621124,-0.1768962740898132,0.0443989224731922,0.0,0.0,-0.1904449462890625,-0.4899315237998962
-0.1536586731672287,0.2908689081668854,0.0506964698433876,-0.4488798975944519,-0.1746398508548736,0.0451282784342765,0.0,0.0,0.572519063949585,-0.5463584065437317
-0.1530105620622635,0.2813512086868286,0.0614524856209754,-0.4226181805133819,-0.1712758243083953,0.0672803968191146,0.0,0.0,0.2130146026611328,-0.5259087085723877
-0.1522409468889236,0.2721801400184631,0.0724803283810615,-0.4070933759212494,-0.1667918711900711,0.0896791070699691,0.0,0.0,0.293032169342041,-0.2747544050216675
-0.1512456834316253,0.2632724046707153,0.0945966243743896,-0.3953530192375183,-0.1618563085794448,0.0987110361456871,0.0,0.0,-0.9275411367416382,-0.5599609017372131
-0.1502441465854644,0.2538833320140838,0.0942950919270515,-0.4166679978370666,-0.1560021787881851,0.1170829385519027,0.0,0.0,-0.7357183694839478,-0.1781538724899292
-0.1491990983486175,0.244009867310524,0.0986664965748786,-0.4382227957248688,-0.1501715928316116,0.1166115850210189,0.0,0.0,0.0700247287750244,-0.6650825142860413
-0.1480161696672439,0.2344864457845688,0.1110697016119957,-0.4225499033927917,-0.1429756581783294,0.1439187377691269,0.0,0.0,-0.6747868061065674,-0.5729151368141174
-0.1468358933925628,0.2244889587163925,0.1096617206931114,-0.4435539543628692,-0.1346379369497299,0.1667547523975372,0.0,0.0,-0.5230544805526733,0.4768675565719604
-0.1456113755702972,0.2140075266361236,0.1141363009810447,-0.4651120603084564,-0.1263599097728729,0.165560781955719,0.0,0.0,0.5416709184646606,0.4986611604690552
-0.1441799104213714,0.2039958834648132,0.1345283985137939,-0.4442543387413025,-0.1177775710821151,0.1716464161872863,0.0,0.0,-0.0733473896980285,0.6159002780914307
-0.14265938103199,0.1934970021247863,0.1446272134780883,-0.4660526216030121,-0.1103961318731308,0.1476286798715591,0.0,0.0,0.6407721042633057,0.1335008144378662
-0.1410939246416092,0.1836362034082412,0.1495936661958694,-0.4377602040767669,-0.1034886240959167,0.1381499469280243,0.0,0.0,0.5125937461853027,0.1574082374572754
-0.1394591331481933,0.1739749461412429,0.1567227840423584,-0.4289357960224151,-0.0967910587787628,0.1339513510465622,0.0,0.0,0.4091596603393554,-0.2506683468818664
-0.137828916311264,0.164609745144844,0.1568388193845749,-0.4158442318439483,-0.0906686931848526,0.1224475502967834,0.0,0.0,0.7161283493041992,-0.5639256238937378
-0.1363159120082855,0.1556005328893661,0.1445673555135727,-0.4000142514705658,-0.0839899331331253,0.1335751712322235,0.0,0.0,0.1925628185272216,-0.0142872333526611
-0.134638026356697,0.1468729078769683,0.1608152687549591,-0.3875188827514648,-0.0770917311310768,0.1379640996456146,0.0,0.0,0.4578509330749511,-0.5569493174552917
-0.1328758299350738,0.1381417065858841,0.1681390702724456,-0.3876599073410034,-0.0690914541482925,0.1600057482719421,0.0,0.0,0.1299693584442138,-0.7352635264396667
-0.1309771537780761,0.1297075599431991,0.1803354769945144,-0.3744412958621979,-0.059671327471733,0.1884025931358337,0.0,0.0,0.6398425102233887,-0.7328459024429321
-0.1290698945522308,0.1219566166400909,0.1799296289682388,-0.3440859615802765,-0.0490007363259792,0.2134120762348175,0.0,0.0,-0.2290853261947631,-0.2773704528808594
-0.1271175444126129,0.113722451031208,0.1846154034137725,-0.3656478524208069,-0.038497470319271,0.2100649625062942,0.0,0.0,-0.0868117213249206,-0.4135268926620483
-0.1251197755336761,0.1050048470497131,0.1893117576837539,-0.3872093260288238,-0.0281686894595623,0.2065758258104324,0.0,0.0,0.799663782119751,-0.5610201358795166
-0.123104378581047,0.0971453264355659,0.1901528388261795,-0.3491322696208954,-0.01692770794034,0.224819540977478,0.0,0.0,0.6995338201522827,-0.3472914695739746
-0.1209675818681716,0.0900161564350128,0.2021886557340622,-0.3167586326599121,-0.0055854595266282,0.2268449515104293,0.0,0.0,0.0635141134262085,0.7437543869018555
-0.1186653152108192,0.0828415006399154,0.2203922718763351,-0.3188602030277252,0.0041265590116381,0.1942404210567474,0.0,0.0,0.6536566019058228,-0.8034506440162659
-0.1165191680192947,0.0761118754744529,0.2036006152629852,-0.2991590201854706,0.0149958888068795,0.2173865139484405,0.0,0.0,0.6027674674987793,0.1052358150482177
-0.1144597083330154,0.0696448907256126,0.1957204043865203,-0.2875506579875946,0.0250856522470712,0.2017954289913177,0.0,0.0,0.5066626071929932,0.6752667427062988
-0.1123360618948936,0.0634659379720687,0.203765720129013,-0.2747890651226043,0.0335814394056797,0.1699160039424896,0.0,0.0,0.6246095895767212,0.7858810424804688
-0.110094353556633,0.057592187076807,0.2173222750425338,-0.2612228989601135,0.040352489799261,0.1354209631681442,0.0,0.0,0.4729037284851074,-0.8453786969184875
-0.1077560409903526,0.0517109259963035,0.2253190577030182,-0.2616438269615173,0.0487639531493186,0.168229192495346,0.0,0.0,0.3914241790771484,-0.8358458280563354
-0.1053740531206131,0.0462141148746013,0.2281205952167511,-0.2446610778570175,0.0587283819913864,0.1992882937192917,0.0,0.0,0.8178374767303467,-0.9069989919662476
-0.103040412068367,0.0415678136050701,0.2216422259807586,-0.2070011049509048,0.0703251361846923,0.2319350689649582,0.0,0.0,0.5561530590057373,-0.9199838042259216
-0.1006867438554763,0.0368674360215663,0.2219354808330536,-0.2095901519060135,0.0836135149002075,0.2657677829265594,0.0,0.0,0.6912316083908081,-0.3641868829727173
