x_pos,y_pos,x_vel,y_vel,angle,ang_vel,leg_1,leg_2,main_booster,lat_booster
-0.001529598259367,1.4033454656600952,-0.1551779210567474,-0.3366511166095733,0.00199153739959,0.0393014922738075,0.0,0.0,-0.3099972732813496,0.6214383488400634
-0.0030120848678052,1.3955121040344238,-0.1490761041641235,-0.3481499850749969,0.0028130966238677,0.016433322802186,0.0,0.0,-0.0520908071694823,-0.7665541676966837
-0.0045470236800611,1.387393593788147,-0.1557362824678421,-0.3608328402042389,0.0050289467908442,0.0443212501704692,0.0,0.0,0.8911109263257264,-0.9505442435074284
-0.0063161849975585,1.3798490762710571,-0.1809870153665542,-0.3353296518325805,0.0090539129450917,0.0805067047476768,0.0,0.0,-0.3883445824667073,0.8880504486239915
-0.0080059049651026,1.372029423713684,-0.171102836728096,-0.3475509881973266,0.0111581441015005,0.0420887283980846,0.0,0.0,-0.3749032988062126,0.8459726696920233
-0.0096190450713038,1.3639311790466309,-0.161576822400093,-0.359927237033844,0.0114203514531254,0.0052445884793996,0.0,0.0,0.0264724191868681,0.7220920484942805
-0.0112004280090332,1.3560926914215088,-0.1571546494960785,-0.3483678698539734,0.0104510458186268,-0.0193877797573804,0.0,0.0,0.1254808550947712,-0.8054055966472408
-0.0127367973327636,1.3486394882202148,-0.1545812040567398,-0.3312625586986542,0.0113772405311465,0.018525531515479,0.0,0.0,-0.9541147634396928,-0.9716828349863228
-0.0143559454008936,1.340916395187378,-0.1650310158729553,-0.3432717621326446,0.0144738014787435,0.0619365982711315,0.0,0.0,-0.2623961340234872,0.7795781496975036
-0.0159177780151367,1.332920789718628,-0.1579736769199371,-0.3553803563117981,0.0162347853183746,0.0352229811251163,0.0,0.0,-0.7803527392573546,0.8802695409316929
-0.0174043662846088,1.3246487379074097,-0.1486295163631439,-0.3676460087299347,0.0162096470594406,-0.0005027673905715,0.0,0.0,0.075056644481454,0.9778670213971438
-0.0187679287046194,1.3166143894195557,-0.1345647424459457,-0.357060045003891,0.0144427809864282,-0.0353405997157096,0.0,0.0,0.4399578435025293,0.951873960072376
-0.0199386589229106,1.3092248439788818,-0.1137140542268753,-0.3283956944942474,0.0111218290403485,-0.0664252564311027,0.0,0.0,0.6435511859388152,-0.7679380210289866
-0.0211009979248046,1.302079439163208,-0.1147751584649086,-0.317569762468338,0.0096764136105775,-0.0289106760174036,0.0,0.0,0.0300915833122221,-0.7266340002356408
-0.0222269054502248,1.2954339981079102,-0.1128672212362289,-0.2953538596630096,0.0099483570083975,0.0054392223246395,0.0,0.0,0.4196063966774155,0.8866232293735947
-0.0231806747615337,1.2888848781585691,-0.0941957011818885,-0.2910656929016113,0.0087824007496237,-0.0233212262392044,0.0,0.0,0.5621287777854431,0.7737399918430502
-0.0239380840212106,1.283281683921814,-0.0734671950340271,-0.2490175515413284,0.0065383249893784,-0.0448857843875885,0.0,0.0,-0.3448569598615505,0.8655449701062283
-0.0246123317629098,1.2773929834365845,-0.0632028952240943,-0.2617078125476837,0.0023640955332666,-0.0834921225905418,0.0,0.0,0.4922698177554885,0.9538191659506317
-0.0251139644533395,1.2723228931427002,-0.0443311408162117,-0.2253371328115463,-0.0034065265208482,-0.1154228448867797,0.0,0.0,-0.8630921699630385,-0.6471271421318883
-0.0256740562617778,1.2669740915298462,-0.051845259964466,-0.2377467602491378,-0.0075311670079827,-0.0825002193450927,0.0,0.0,-0.0304173153146347,0.6355080679402213
-0.0261734966188669,1.2613505125045776,-0.0444094091653823,-0.2499768286943435,-0.0130008235573768,-0.1094029545783996,0.0,0.0,-0.0639671366931142,-0.7361184534835228
-0.0267295837402343,1.2554450035095217,-0.0517205484211444,-0.2625031769275665,-0.0168532263487577,-0.077054850757122,0.0,0.0,0.1069448986648455,-0.728766588496983
-0.0272372253239154,1.2498056888580322,-0.0485969670116901,-0.2506627440452575,-0.0189872700721025,-0.0426846668124198,0.0,0.0,-0.3483535251006033,-0.72198800739669
-0.0277942661195993,1.2438805103302002,-0.0550032965838909,-0.263344943523407,-0.019678933545947,-0.0138348462060093,0.0,0.0,-0.4470912066717993,0.9115520911543552
-0.0282946582883596,1.2376773357391355,-0.0481052324175834,-0.2757221758365631,-0.0215852800756692,-0.0381302870810031,0.0,0.0,-0.5449358583427213,-0.6277802012569995
-0.0288549419492483,1.231179118156433,-0.055836409330368,-0.2888175547122955,-0.0217739511281251,-0.0037734690122306,0.0,0.0,0.4195825099318238,-0.8444007456870064
-0.0294622424989938,1.225345253944397,-0.0624057836830616,-0.259262353181839,-0.0201169084757566,0.033140655606985,0.0,0.0,-0.6537544478861093,0.7942918710272802
-0.0300173759460449,1.2192391157150269,-0.0560926012694835,-0.2713775634765625,-0.0195394121110439,0.0115498881787061,0.0,0.0,0.0010367036850207,-0.7285917589691636
-0.0307090766727924,1.2135682106018066,-0.0713251754641532,-0.2520133256912231,-0.0174126923084259,0.0425344556570053,0.0,0.0,-0.2958973037553933,-0.7921484543098642
-0.0314619056880474,1.207617163658142,-0.0792429596185684,-0.2644505798816681,-0.0135095845907926,0.0780623331665992,0.0,0.0,-0.4398817084901594,-0.754400818512166
-0.0322684273123741,1.201397180557251,-0.0862214416265487,-0.2764071822166443,-0.0080118449404835,0.1099548488855362,0.0,0.0,-0.1781954381170314,-0.9360013483614706
-0.0331541076302528,1.194894313812256,-0.0964019149541854,-0.2889952957630157,-0.0002778870111797,0.1546791493892669,0.0,0.0,-0.7471111615818693,-0.9667775750564028
-0.0341218002140522,1.1881227493286133,-0.1069564595818519,-0.3009937107563019,0.0097703915089368,0.2009652554988861,0.0,0.0,0.424338877878162,-0.83259860790289
-0.0352150909602642,1.1815307140350342,-0.1212308034300804,-0.2931024730205536,0.0215172450989484,0.2349371016025543,0.0,0.0,-0.4055700879889738,0.6217697825656221
-0.0362524017691612,1.1746642589569092,-0.1144489645957946,-0.3053645491600036,0.0321086309850215,0.2118279039859771,0.0,0.0,0.490626313597988,0.839228181343033
-0.0372209548950195,1.1685538291931152,-0.1060237735509872,-0.2718062102794647,0.0411627106368541,0.1810817718505859,0.0,0.0,-0.841325260329238,0.962367407773501
-0.0381103530526161,1.1621646881103516,-0.0963577926158905,-0.2841803133487701,0.0484860800206661,0.1464676409959793,0.0,0.0,-0.5691461116863761,0.6830927727296187
-0.0389361381530761,1.155506610870361,-0.0886155441403389,-0.2961176037788391,0.0544551312923431,0.1193811073899269,0.0,0.0,0.619199287726115,-0.8749567808917706
-0.0399127006530761,1.1498078107833862,-0.1054658070206642,-0.2535857260227203,0.06218221783638,0.154541477560997,0.0,0.0,0.9977614083171492,0.7747771158080683
-0.0408297553658485,1.144941329956055,-0.0981248170137405,-0.2165697067975998,0.0685271918773651,0.1268995106220245,0.0,0.0,-0.5621715830637113,0.6711308031215875
-0.0416964516043663,1.1398065090179443,-0.0920306593179702,-0.2284711897373199,0.0738372430205345,0.1062011569738388,0.0,0.0,-0.9795444011688232,0.984760880470276
-0.0424619689583778,1.1344012022018433,-0.079591654241085,-0.2403919845819473,0.0768414586782455,0.0600843355059623,0.0,0.0,-0.994010090827942,0.99152410030365
-0.0431286804378032,1.1287164688110352,-0.0674323886632919,-0.2526925504207611,0.0776024088263511,0.0152185261249542,0.0,0.0,-0.997246026992798,0.9795496463775636
-0.0436975471675396,1.122761368751526,-0.0553985014557838,-0.2645949423313141,0.0761284604668617,-0.0294789467006921,0.0,0.0,-0.9741876125335692,0.990004062652588
-0.0441852584481239,1.11652410030365,-0.0454493537545204,-0.277049571275711,0.0728463307023048,-0.0656427517533302,0.0,0.0,-0.995409905910492,0.957543134689331
-0.044583223760128,1.110007405281067,-0.0344254449009895,-0.2893856763839721,0.0675314590334892,-0.1062976270914077,0.0,0.0,-0.991423487663269,0.7724742889404297
-0.0449058525264263,1.1032146215438845,-0.0251884013414382,-0.3015943169593811,0.0605303831398487,-0.1400214880704879,0.0,0.0,-0.8920853734016418,0.1762315034866333
-0.0452204719185829,1.09614360332489,-0.0243806485086679,-0.3139972686767578,0.0535253100097179,-0.1401013731956482,0.0,0.0,-0.9777435660362244,-0.1116273403167724
-0.0455270782113075,1.0887943506240845,-0.023556338623166,-0.3264002203941345,0.0465055853128433,-0.1403941810131073,0.0,0.0,-0.982128381729126,0.4752312898635864
-0.0458254814147949,1.0811665058135986,-0.0227167103439569,-0.3388031721115112,0.0394605435431003,-0.1409009844064712,0.0,0.0,-0.9937650561332704,-0.2213053703308105
-0.0461157783865928,1.0732605457305908,-0.0218629129230976,-0.3512061238288879,0.0323794297873973,-0.1416220068931579,0.0,0.0,-0.9170730710029602,0.0785356760025024
-0.0463979728519916,1.0650763511657717,-0.0209960248321294,-0.363609105348587,0.0252516064792871,-0.142556607723236,0.0,0.0,-0.9897055625915528,-0.2251245379447937
-0.0466718673706054,1.056613564491272,-0.0201170481741428,-0.3760121464729309,0.018066432327032,-0.1437032520771026,0.0,0.0,-0.9273694157600404,0.5060505867004395
-0.0468974113464355,1.0478785037994385,-0.0141815869137644,-0.3881469368934631,0.0098013831302523,-0.1653010696172714,0.0,0.0,-0.9705766439437866,-0.0136763453483581
-0.0471147522330284,1.0388654470443726,-0.0132811311632394,-0.4005514681339264,0.0014582048170268,-0.1668636500835418,0.0,0.0,-0.886283278465271,-0.8891275525093079
-0.0474054329097271,1.0295698642730713,-0.0225999988615512,-0.4131422340869903,-0.0049246572889387,-0.1276572942733764,0.0,0.0,-0.9889847040176392,-0.7983782887458801
-0.0477412231266498,1.0200034379959106,-0.0283683389425277,-0.4251963198184967,-0.0100658815354108,-0.1028245091438293,0.0,0.0,-0.981897234916687,-0.2292250394821167
-0.0480688102543354,1.0101585388183594,-0.027441581711173,-0.4375975430011749,-0.0153149180114269,-0.1049805283546447,0.0,0.0,-0.9955915808677672,-0.6078733801841736
-0.0484302528202533,1.000042200088501,-0.0317870900034904,-0.4496666491031647,-0.0196219198405742,-0.0861401706933975,0.0,0.0,-0.979580283164978,-0.5847116708755493
-0.0488356575369834,0.9896537661552428,-0.0373780280351638,-0.4617549777030945,-0.0227448735386133,-0.0624588541686534,0.0,0.0,-0.9929744601249696,-0.4445292949676513
-0.0492329597473144,0.9789865612983704,-0.0364305712282657,-0.4741549789905548,-0.0260026361793279,-0.0651551708579063,0.0,0.0,-0.994204580783844,-0.5965011715888977
-0.0496771819889545,0.9680455923080444,-0.0423786267638206,-0.4862977564334869,-0.0280193537473678,-0.0403343774378299,0.0,0.0,-0.996814489364624,-0.1555488109588623
-0.0501132979989051,0.9568259119987488,-0.0414199456572532,-0.4986973702907562,-0.0301871411502361,-0.0433557666838169,0.0,0.0,-0.9990341067314148,-0.2675929069519043
-0.0505414009094238,0.9453273415565492,-0.0404563322663307,-0.5110970735549927,-0.0325135663151741,-0.0465284809470176,0.0,0.0,-0.9940298795700072,-0.4596849083900451
-0.0509615913033485,0.93354994058609,-0.0394881814718246,-0.5234968662261963,-0.0350058041512966,-0.0498447529971599,0.0,0.0,-0.9095734357833862,-0.3334943652153015
-0.0513737685978412,0.9214937090873718,-0.0385158732533454,-0.5358966588973999,-0.0376706421375274,-0.0532965362071991,0.0,0.0,-0.994048237800598,-0.336016297340393
-0.0517779365181922,0.9091587066650392,-0.0375397503376007,-0.5482968091964722,-0.0405145101249218,-0.0568774528801441,0.0,0.0,-0.9875721335411072,-0.7857546210289001
-0.052228070795536,0.8965387344360352,-0.0433183722198009,-0.560931921005249,-0.0421947836875915,-0.0336053185164928,0.0,0.0,-0.9140847325325012,-0.0703828930854797
-0.052670381963253,0.8836401104927063,-0.0423355214297771,-0.5733316540718079,-0.0440658256411552,-0.0374209135770797,0.0,0.0,-0.9683526754379272,-0.2299003005027771
-0.053104780614376,0.8704625368118286,-0.041349746286869,-0.585731565952301,-0.0461329668760299,-0.0413431264460086,0.0,0.0,-0.9949755668640136,-0.1832404136657714
-0.0535313598811626,0.8570061326026917,-0.0403612963855266,-0.5981317162513733,-0.0484012365341186,-0.0453650988638401,0.0,0.0,-0.9980058073997498,-0.3916673064231872
-0.0539500229060649,0.8432710766792297,-0.0393704213201999,-0.6105319261550903,-0.0508752353489398,-0.0494800843298435,0.0,0.0,-0.9866544604301452,-0.6958659887313843
-0.054427433758974,0.82927006483078,-0.0467277504503726,-0.6223022937774658,-0.051877062767744,-0.0200365837663412,0.0,0.0,-0.9728145003318788,-0.5991016030311584
-0.0549386031925678,0.8149934411048889,-0.0509484335780143,-0.6345217823982239,-0.0520463660359382,-0.0033858190290629,0.0,0.0,-0.9105011224746704,-0.3079853057861328
-0.0554420463740825,0.8004379868507385,-0.0499514862895011,-0.646921694278717,-0.0524335391819477,-0.0077436282299458,0.0,0.0,-0.9277335405349731,-0.905826985836029
-0.05600156635046,0.7855991721153259,-0.0569539070129394,-0.6594680547714233,-0.051444936543703,0.0197722725570201,0.0,0.0,-0.8664502501487732,-0.8879568576812744
-0.0566275604069232,0.770478367805481,-0.0652513727545738,-0.6719430685043335,-0.048822920769453,0.0524401441216468,0.0,0.0,-0.8557937741279602,0.0519086122512817
-0.0572458282113075,0.755078911781311,-0.0642500668764114,-0.6843435168266296,-0.0464285090565681,0.0478880628943443,0.0,0.0,-0.7638797163963318,0.0323148965835571
-0.0578564628958702,0.7394008040428162,-0.0632475838065147,-0.6967438459396362,-0.0442644692957401,0.0432805940508842,0.0,0.0,-0.7597047090530396,-0.0760965347290039
-0.0584593787789344,0.7234436869621277,-0.0622440949082374,-0.7091439366340637,-0.0423333644866943,0.0386220104992389,0.0,0.0,-0.5077944993972778,-0.1188123226165771
-0.0590545646846294,0.7072078585624695,-0.0612397268414497,-0.7215440273284912,-0.0406375713646411,0.0339161530137062,0.0,0.0,-0.4324405193328857,0.2042049169540405
-0.0596421249210834,0.6906933188438416,-0.0602346174418926,-0.7339439392089844,-0.0391792319715023,0.0291666947305202,0.0,0.0,-0.2871882915496826,0.2120583057403564
-0.0602220520377159,0.6738998293876648,-0.0592288896441459,-0.7463437914848328,-0.0379603803157806,0.0243769995868206,0.0,0.0,0.1472457647323608,0.3834067583084106
-0.0608145706355571,0.657535195350647,-0.0600604638457298,-0.7272959351539612,-0.0371589511632919,0.0160282924771308,0.0,0.0,0.1696348190307617,-0.7894805669784546
-0.0614530555903911,0.6416419148445129,-0.065998837351799,-0.7063183188438416,-0.0350376479327678,0.0424263849854469,0.0,0.0,-0.1847317814826965,0.5926735401153564
-0.0620303153991699,0.6254670023918152,-0.0582585446536541,-0.7188709378242493,-0.0345106087625026,0.0105407489463686,0.0,0.0,0.2014082670211792,0.2982040643692016
-0.0625741928815841,0.6093855500221252,-0.0547499768435955,-0.7147237062454224,-0.0341499112546443,0.0072138393297791,0.0,0.0,-0.0718429684638977,0.2177708148956298
-0.0631104484200477,0.5930252075195312,-0.0537429451942443,-0.7271233797073364,-0.0340366140007972,0.0022661206312477,0.0,0.0,0.3733870983123779,-0.5241473317146301
-0.0635321587324142,0.5770928859710693,-0.0433993116021156,-0.7080762386322021,-0.0328183621168136,0.0243649296462535,0.0,0.0,0.0815351009368896,0.4347299337387085
-0.0638465881347656,0.5612642168998718,-0.0328511707484722,-0.7034635543823242,-0.0314277336001396,0.0278125461190938,0.0,0.0,-0.1806060075759887,0.5099363327026367
-0.0641135200858116,0.5451585650444031,-0.0268235150724649,-0.715803325176239,-0.0312922224402427,0.0027102157473564,0.0,0.0,0.6124522686004639,-0.2779899835586548
-0.0643194168806076,0.5298826098442078,-0.0206218492239713,-0.6789318323135376,-0.0312687903642654,0.0004686509200837,0.0,0.0,-0.493602991104126,0.7202378511428833
-0.0644491165876388,0.514327347278595,-0.0109841302037239,-0.6913911700248718,-0.0332265123724937,-0.0391544960439205,0.0,0.0,0.7760363817214966,0.2847052812576294
-0.0644512176513671,0.4990138411521911,0.0015155833680182,-0.6806383728981018,-0.0349360853433609,-0.0341915600001812,0.0,0.0,0.6698288917541504,0.0845454931259155
-0.0644810646772384,0.4841958880424499,-0.0007400251924991,-0.658628523349762,-0.0371453985571861,-0.0441863723099231,0.0,0.0,-0.4589718580245971,-0.0181142091751098
-0.0645033866167068,0.4690991938114166,0.0002628816291689,-0.6710287928581238,-0.0396094247698783,-0.0492805764079093,0.0,0.0,0.6411962509155273,-0.6005479693412781
-0.0645683258771896,0.4545752108097076,-0.0048901811242103,-0.6455551385879517,-0.0411950685083866,-0.0317128337919712,0.0,0.0,0.835421085357666,0.2129100561141967
-0.0647275000810623,0.441105455160141,-0.0134124904870986,-0.5987260341644287,-0.0436760932207107,-0.0496203228831291,0.0,0.0,-0.580140233039856,-0.7509701251983643
-0.0649300590157508,0.4273641109466553,-0.0187751166522502,-0.6107725501060486,-0.0451347529888153,-0.029173444956541,0.0,0.0,0.5967707633972168,0.0215989351272583
-0.0651440620422363,0.4144339859485626,-0.0194301530718803,-0.5747316479682922,-0.0470895878970623,-0.0390965566039085,0.0,0.0,0.0459033250808715,-0.0393760204315185
-0.0653808563947677,0.4019391238689422,-0.0211878586560487,-0.5554081201553345,-0.0495438538491725,-0.0490854904055595,0.0,0.0,-0.092251181602478,0.0092989206314086
-0.0656102150678634,0.3891655206680298,-0.0201941207051277,-0.5678085684776306,-0.0522556118667125,-0.0542353317141532,0.0,0.0,-0.2180659770965576,0.7822320461273193
-0.0657824501395225,0.376110166311264,-0.0129455896094441,-0.5803925395011902,-0.0564801469445228,-0.0844904482364654,0.0,0.0,-0.1576541662216186,-0.400898814201355
-0.065947338938713,0.3627762794494629,-0.0119565743952989,-0.5927941799163818,-0.0609627179801464,-0.0896515250205993,0.0,0.0,0.8998992443084717,-0.9301944375038148
-0.0659933090209961,0.3504010140895843,-0.001919220550917,-0.5501247048377991,-0.0636131837964057,-0.0530093237757682,0.0,0.0,0.0408293008804321,0.0162256956100463
-0.0659787207841873,0.3380913734436035,0.0042189764790236,-0.5472162961959839,-0.0663433149456977,-0.0546026155352592,0.0,0.0,-0.0195486545562744,-0.2396837472915649
-0.0659569725394249,0.3255031108856201,0.0051991427317261,-0.559617280960083,-0.0693320631980896,-0.0597750656306743,0.0,0.0,0.8977651596069336,-0.7595241069793701
-0.0659544020891189,0.3139855563640594,0.0020747808739542,-0.5119774341583252,-0.0711299702525138,-0.0359581187367439,0.0,0.0,0.3446532487869262,-0.9265785217285156
-0.0658346191048622,0.3032341003417969,0.0120816584676504,-0.4778458476066589,-0.0712390840053558,-0.0021819523535668,0.0,0.0,-0.0604158639907836,0.3731048107147217
-0.0657078772783279,0.2922040224075317,0.0130500569939613,-0.4902463257312774,-0.0716070458292961,-0.0073594180867075,0.0,0.0,0.0864697694778442,-0.4171603918075561
-0.0655404105782508,0.2816989719867706,0.0174061935395002,-0.4669219255447387,-0.072255864739418,-0.0129764657467603,0.0,0.0,-0.3905935287475586,-0.8363056182861328
-0.0654249191284179,0.2709290087223053,0.0109519008547067,-0.4786367118358612,-0.0716641470789909,0.0118340011686086,0.0,0.0,0.0746060609817504,0.4546296596527099
-0.0652288421988487,0.2603208422660827,0.0190234370529651,-0.4714458882808685,-0.0710888728499412,0.011505733244121,0.0,0.0,-0.3643550872802734,-0.3483234643936157
-0.0650260001420974,0.2494339346885681,0.0199699867516756,-0.4838463068008423,-0.0707723125815391,0.0063309259712696,0.0,0.0,0.2747411727905273,-0.8444412350654602
-0.0649679154157638,0.2388795465230941,0.0041457670740783,-0.4690085649490356,-0.069133348762989,0.0327793024480342,0.0,0.0,-0.0191789269447326,-0.4254122972488403
-0.0649032592773437,0.2280464321374893,0.0050779934972524,-0.4814091920852661,-0.067752830684185,0.0276100076735019,0.0,0.0,0.6251611709594727,-0.1052597761154174
-0.064770795404911,0.2177172750234604,0.0119853280484676,-0.4590173661708832,-0.0665124803781509,0.0248070042580366,0.0,0.0,0.3647149801254272,-0.3046988248825073
-0.0645044296979904,0.2075431942939758,0.0251350942999124,-0.4521147310733795,-0.0650311782956123,0.029625991359353,0.0,0.0,0.2231059074401855,-0.493833839893341
-0.0641267746686935,0.1978411078453064,0.0361947827041149,-0.4311371445655823,-0.0634738951921463,0.0311456322669982,0.0,0.0,-0.0072514414787292,-0.7947275042533875
-0.0638025254011154,0.1878736615180969,0.0295739714056253,-0.4428793787956238,-0.0606561936438083,0.0563538447022438,0.0,0.0,-0.2535154819488525,-0.4588245749473572
