x_pos,y_pos,x_vel,y_vel,angle,ang_vel,leg_1,leg_2,main_booster,lat_booster
-0.001478862715885,1.4029316902160645,-0.1500313580036163,-0.3550399243831634,0.0019227368757128,0.037939466536045,0.0,0.0,-0.3512019858743378,0.9326456312120144
-0.0028328895568847,1.394269347190857,-0.1354543417692184,-0.3849907219409942,0.0019676417578011,0.0008991964859887,0.0,0.0,-0.4303095405022576,0.9783658745541018
-0.004047489259392,1.3849068880081177,-0.1192796677350997,-0.4161041676998138,-0.0001838721364038,-0.0430341064929962,0.0,0.0,0.4012996916385261,-0.6747981109335486
-0.005380630493164,1.3754853010177612,-0.1324316561222076,-0.4187408089637756,-0.0010625845752656,-0.0175755899399518,0.0,0.0,0.5928574723726898,-0.8332226944366568
-0.0065942765213549,1.366316318511963,-0.1225491762161254,-0.4075094163417816,0.0001005027297651,0.0232638623565435,0.0,0.0,0.0721981564857412,0.6299008513859685
-0.0076121329329907,1.3569822311401367,-0.1019820123910904,-0.4148456156253814,0.0003007473715115,0.0040050772950053,0.0,0.0,0.396777035324356,-0.8820905770980727
-0.0086749074980616,1.3476877212524414,-0.108360506594181,-0.413089394569397,0.0023558591492474,0.0411062724888324,0.0,0.0,-0.4266836372513882,-0.614016748202459
-0.0097278598695993,1.3377021551132202,-0.1084228605031967,-0.4438108205795288,0.0054493648931384,0.0618759170174598,0.0,0.0,0.8382160608443712,-0.7212797325535292
-0.0108109470456838,1.328428030014038,-0.1129617467522621,-0.4122103154659271,0.0100505920127034,0.0920329242944717,0.0,0.0,0.1871321879032321,-0.9156801715830022
-0.0119257923215627,1.3192486763000488,-0.1180746108293533,-0.4080256223678589,0.0165696386247873,0.1303929984569549,0.0,0.0,-0.5959124906480227,-0.8725102585198079
-0.0130531312897801,1.30937659740448,-0.1209280118346214,-0.4388733208179474,0.0246643871068954,0.1619096100330352,0.0,0.0,-0.9892427532447798,-0.9583465931038054
-0.0142009733244776,1.298808455467224,-0.1247386708855629,-0.4698902368545532,0.0345195084810256,0.1971207410097122,0.0,0.0,0.2128076386616908,-0.7495297195748183
-0.0152709009125828,1.2883250713348389,-0.1186669245362281,-0.4662299752235412,0.0460633710026741,0.2308983355760574,0.0,0.0,0.059384127825848,0.6045455855604576
-0.0162077900022268,1.2774930000305176,-0.1042611971497535,-0.4817862808704376,0.0565406009554863,0.2095635831356048,0.0,0.0,0.1844390629704815,-0.8756903385360995
-0.0170839317142963,1.266868233680725,-0.1000655740499496,-0.4727316498756408,0.0688744857907295,0.2467000037431717,0.0,0.0,0.767658338507673,-0.6024599061115435
-0.0178573615849018,1.256029725074768,-0.0913603454828262,-0.4824122786521911,0.0827774181962013,0.2780836820602417,0.0,0.0,0.2415470544879387,-0.9121149188637758
-0.0185905452817678,1.2454792261123655,-0.0892566666007042,-0.4698783457279205,0.0985872894525528,0.3162263035774231,0.0,0.0,0.0854801966226959,-0.8052781716804671
-0.0192568786442279,1.2346066236495972,-0.0842316895723342,-0.4844813942909241,0.1160748377442359,0.3497831225395202,0.0,0.0,-0.4742354952754122,-0.8781948782214202
-0.019936179742217,1.2230437994003296,-0.0869500711560249,-0.5154945254325867,0.1350272446870803,0.3790823817253113,0.0,0.0,0.0247378293812197,-0.798203186860492
-0.0207376480102539,1.2112901210784912,-0.1006848663091659,-0.5243746638298035,0.1555403769016266,0.4103000164031982,0.0,0.0,0.9377188811836764,-0.6667691084866325
-0.0215243343263864,1.200186252593994,-0.1008529663085937,-0.4959775507450104,0.1777755171060562,0.4447433054447174,0.0,0.0,-0.3111273877782792,-0.8460031343354568
-0.0223300941288471,1.1883742809295654,-0.1042891964316368,-0.5280007719993591,0.2016388773918151,0.4773096144199371,0.0,0.0,0.3364325521941325,-0.9260346844782754
-0.0231328010559082,1.1765376329421997,-0.1057443991303443,-0.5297533869743347,0.2274022996425628,0.5153145790100098,0.0,0.0,-0.2635000185093483,0.91559914453369
-0.0238113403320312,1.164032816886902,-0.0910999625921249,-0.5595270991325378,0.2510546147823334,0.4730882048606872,0.0,0.0,0.1004307420115098,0.9367163137791364
-0.0245894435793161,1.1514527797698977,-0.0990240722894668,-0.5628905892372131,0.2727501690387726,0.4339505732059479,0.0,0.0,0.9546460375104916,0.7950668692164115
-0.0256646163761615,1.139320969581604,-0.1265918612480163,-0.542862594127655,0.2923433780670166,0.3918642997741699,0.0,0.0,0.8232492224667456,0.9087469507266228
-0.0268542282283306,1.127690672874451,-0.1360398977994918,-0.520435631275177,0.3100033402442932,0.3531998097896576,0.0,0.0,-0.5784253964102255,0.8779298164472591
-0.0279491432011127,1.11540424823761,-0.1250458061695099,-0.5494705438613892,0.3261546194553375,0.3230258524417877,0.0,0.0,0.2629756961992917,-0.9871571387330084
-0.0293750762939453,1.1031839847564695,-0.1598319411277771,-0.5471174120903015,0.344180554151535,0.3605186939239502,0.0,0.0,-0.6667202565093653,0.6102204396421125
-0.0307122226804494,1.0902955532073977,-0.149602860212326,-0.5767072439193726,0.3608850538730621,0.3340899646282196,0.0,0.0,-0.889012189126769,0.6361441204664691
-0.0319582931697368,1.0767509937286377,-0.1390101164579391,-0.6056802272796631,0.3761069476604461,0.3044386804103851,0.0,0.0,0.3893085545424315,-0.785854061165322
-0.0334199890494346,1.062951683998108,-0.1617814600467682,-0.6175070405006409,0.392724335193634,0.3323475122451782,0.0,0.0,-0.8626259967206251,-0.6616415903825233
-0.0348938927054405,0.0,-0.1641985476016998,-0.6499640345573425,0.4107442796230316,0.3603990375995636,0.0,0.0,0.7365829256136558,-0.9623623443502184
-0.0366109833121299,1.0336509943008425,-0.190014436841011,-0.6624723672866821,0.4305199682712555,0.3955136835575104,0.0,0.0,0.0635094804151061,0.8759420573526135
-0.0383803360164165,1.018781065940857,-0.1932433098554611,-0.6659834384918213,0.4483111798763275,0.3558241724967956,0.0,0.0,-0.3873290045886957,0.879870450030823
-0.040044117718935,1.0032730102539062,-0.1806892901659011,-0.693920373916626,0.4640350341796875,0.3144769668579101,0.0,0.0,-0.0788479235806558,0.8030498160563541
-0.0416095741093158,0.987110435962677,-0.1691324710845947,-0.722605288028717,0.4779841601848602,0.2789826989173889,0.0,0.0,-0.7571618705387027,0.7566242179728834
-0.043077565729618,0.9703044891357422,-0.1576190590858459,-0.7507173418998718,0.4900567829608917,0.2414527386426925,0.0,0.0,0.2714870022956257,-0.8959377790203427
-0.0449031814932823,0.9535995721817015,-0.194801464676857,-0.7468578219413757,0.5037991404533386,0.2748468816280365,0.0,0.0,0.6609464955234827,-0.9016215338976142
-0.0470150932669639,0.9369789958000184,-0.22489695250988,-0.7438061833381653,0.5192952156066895,0.3099211752414703,0.0,0.0,0.722162613840666,0.9900112279806016
-0.0495316497981548,0.9206953644752502,-0.2630876898765564,-0.7281343936920166,0.5323429703712463,0.2609547972679138,0.0,0.0,-0.1715807318687439,0.9568980932235718
-0.0519272796809673,0.9037857055664062,-0.2486222982406616,-0.7551281452178955,0.542745053768158,0.2080418765544891,0.0,0.0,-0.3054550290107727,0.9854073524475098
-0.0542001724243164,0.8862429261207581,-0.2340187728404998,-0.7824105024337769,0.5505239367485046,0.1555775105953216,0.0,0.0,-0.3476237058639526,0.9705724716186525
-0.0563548095524311,0.8680738806724548,-0.2199117839336395,-0.8093463182449341,0.5556864142417908,0.1032491475343704,0.0,0.0,-0.4099692106246948,0.9578680992126464
-0.0584039688110351,0.8492562174797058,-0.207544133067131,-0.8374311327934265,0.5587478280067444,0.0612277165055274,0.0,0.0,-0.3335001468658447,0.9390480518341064
-0.0603408813476562,0.8297988176345825,-0.1942936927080154,-0.8650178909301758,0.559449315071106,0.0140301156789064,0.0,0.0,-0.2282003760337829,0.9354376792907716
-0.0621663108468055,0.8097068667411804,-0.1810743361711502,-0.8923627734184265,0.557738184928894,-0.0342225655913353,0.0,0.0,0.0222789049148559,0.9450359344482422
-0.0642354935407638,0.7895781397819519,-0.2035558223724365,-0.893215537071228,0.5538240671157837,-0.07828239351511,0.0,0.0,0.1208041906356811,0.945219874382019
-0.0665760040283203,0.7694187760353088,-0.2287525832653045,-0.8937981724739075,0.5476812720298767,-0.1228542551398277,0.0,0.0,-0.0663994550704956,0.9868571758270264
-0.0688121765851974,0.74862140417099,-0.2163368463516235,-0.9213985800743104,0.5392851233482361,-0.1679225265979766,0.0,0.0,-0.0365436077117919,0.9824391603469848
-0.070927619934082,0.7272035479545593,-0.201760932803154,-0.9480488300323486,0.5280703902244568,-0.2242947071790695,0.0,0.0,-0.3389463424682617,0.9687291383743286
-0.0729477852582931,0.7051501870155334,-0.1903154402971267,-0.9756597876548768,0.5147526264190674,-0.2663550972938537,0.0,0.0,-0.1297070980072021,0.9356918334960938
-0.0748533234000206,0.6824644207954407,-0.176495149731636,-1.0030436515808103,0.4988678395748138,-0.3176958560943603,0.0,0.0,-0.1181300282478332,0.91294264793396
-0.0766621604561805,0.6591464877128601,-0.1647263467311859,-1.0305997133255005,0.4807970225811004,-0.3614167869091034,0.0,0.0,0.4284067153930664,0.7145111560821533
-0.0784532576799392,0.6358346343040466,-0.1614364683628082,-1.0300726890563965,0.4612140953540802,-0.3916592001914978,0.0,0.0,0.7776403427124023,0.6681451797485352
-0.0804868713021278,0.6124727725982666,-0.1837945580482483,-1.0319793224334717,0.4397427141666412,-0.4294274747371673,0.0,0.0,0.606473445892334,0.8083081245422363
-0.0826700180768966,0.5895864367485046,-0.1968919932842254,-1.0106343030929563,0.4164942800998688,-0.4649689197540283,0.0,0.0,0.7618825435638428,0.7858760356903076
-0.0849084854125976,0.5671380162239075,-0.2007366865873336,-0.991100549697876,0.391675055027008,-0.4963849186897278,0.0,0.0,0.6483088731765747,0.811570405960083
-0.0872961059212684,0.5452339053153992,-0.2137191593647003,-0.9668527841567992,0.3650618493556976,-0.5322638750076294,0.0,0.0,0.8612689971923828,0.6462873220443726
-0.090009406208992,0.52386873960495,-0.2443151026964187,-0.94293612241745,0.336639940738678,-0.5684389472007751,0.0,0.0,0.9272900819778442,0.8929328918457031
-0.0927063003182411,0.502492368221283,-0.2405225783586502,-0.9435494542121888,0.3062758445739746,-0.6072825193405151,0.0,0.0,0.978859543800354,0.2858343124389648
-0.095743179321289,0.4815815687179565,-0.2734494209289551,-0.9233018159866332,0.2751112282276153,-0.6232923865318298,0.0,0.0,0.924342155456543,0.5548100471496582
-0.0987275093793869,0.4609383344650268,-0.267007052898407,-0.9118865132331848,0.2430126518011093,-0.6419724822044373,0.0,0.0,0.9601774215698242,0.2634376287460327
-0.1018340140581131,0.4406838715076446,-0.278862327337265,-0.8952673077583313,0.2107983529567718,-0.6442864537239075,0.0,0.0,0.9896306991577148,0.3544697761535644
-0.1050078421831131,0.4204607307910919,-0.2851752638816833,-0.8945398926734924,0.1783827841281891,-0.648311972618103,0.0,0.0,0.993492841720581,-0.3102936744689941
-0.1084320098161697,0.4005714058876037,-0.3090852499008178,-0.8803061842918396,0.1450319439172744,-0.6670170426368713,0.0,0.0,0.973668098449707,-0.465328574180603
-0.1119567900896072,0.3815265893936157,-0.3188506960868835,-0.8435054421424866,0.1115560084581375,-0.6695193648338318,0.0,0.0,0.8454995155334473,-0.1205049753189086
-0.1154063194990158,0.3623057305812835,-0.311388611793518,-0.8520925641059875,0.0782611370086669,-0.6658974885940552,0.0,0.0,0.8940315246582031,-0.8076741099357605
-0.1189439743757247,0.3438752293586731,-0.3215501606464386,-0.8177570700645447,0.0464012250304222,-0.6371986865997314,0.0,0.0,0.9414501190185548,0.3099198341369629
-0.1226003617048263,0.325591504573822,-0.3326258659362793,-0.811911404132843,0.0137885371223092,-0.6522541046142578,0.0,0.0,0.9422032833099364,-0.6175453066825867
-0.1264164000749588,0.3078218400478363,-0.3492488265037536,-0.7897710800170898,-0.0181480906903743,-0.6387327313423157,0.0,0.0,0.9873802661895752,-0.4720796346664428
-0.1301677674055099,0.2904950380325317,-0.3427446484565735,-0.7707864046096802,-0.0501522906124591,-0.6400840878486633,0.0,0.0,0.8866280317306519,-0.405958890914917
-0.1340057402849197,0.2739453911781311,-0.3505136668682098,-0.736980140209198,-0.0830738395452499,-0.6584316492080688,0.0,0.0,0.700330376625061,-0.669116735458374
-0.137755200266838,0.2576019465923309,-0.3430424332618713,-0.7284517884254456,-0.114710547029972,-0.632734477519989,0.0,0.0,0.8761563301086426,-0.4631630182266235
-0.1414836943149566,0.24124775826931,-0.3406480848789215,-0.7296335697174072,-0.1467578709125518,-0.6409469842910767,0.0,0.0,0.9447970390319824,-0.6187180280685425
-0.1451144218444824,0.2247676998376846,-0.3322644531726837,-0.7357744574546814,-0.1775723844766616,-0.6162906289100647,0.0,0.0,0.9537339210510254,-0.762174665927887
-0.1487706154584884,0.2082192450761795,-0.3361574411392212,-0.7392809987068176,-0.2071857899427414,-0.5922684073448181,0.0,0.0,0.97025465965271,-0.7379704117774963
-0.1522972136735916,0.192405954003334,-0.3246023058891296,-0.7069927453994751,-0.2355637550354004,-0.5675595998764038,0.0,0.0,0.9851919412612916,-0.8437888026237488
-0.1555570662021637,0.1773349344730377,-0.2997849583625793,-0.6742390394210815,-0.2622400224208832,-0.5335259437561035,0.0,0.0,0.9920257329940796,-0.7615439891815186
-0.1587627381086349,0.1630960553884506,-0.295512855052948,-0.6375287771224976,-0.2879302501678467,-0.5138044357299805,0.0,0.0,0.9540979862213136,-0.511198878288269
-0.162057489156723,0.1488180458545684,-0.3049214482307434,-0.6396285891532898,-0.3132933378219604,-0.5072615146636963,0.0,0.0,0.9707682132720948,-0.5156611800193787
-0.1650588065385818,0.1352012306451797,-0.2767266631126404,-0.6104360818862915,-0.3376673460006714,-0.487480103969574,0.0,0.0,0.9629381895065308,-0.5298620462417603
-0.1680033653974533,0.1219516843557357,-0.271723598241806,-0.5943757891654968,-0.3615480065345764,-0.4776133596897125,0.0,0.0,0.966312289237976,-0.6233287453651428
-0.1707856208086013,0.1092144101858139,-0.2565198540687561,-0.5717422962188721,-0.3845442831516266,-0.4599254727363586,0.0,0.0,0.9946452379226683,-0.6600953340530396
-0.1733275353908538,0.0970064997673034,-0.2337293624877929,-0.5482501983642578,-0.4064262807369232,-0.4376397728919983,0.0,0.0,0.9960615634918212,-0.6906461119651794
-0.1755546629428863,0.0850460603833198,-0.2038163691759109,-0.5371329188346863,-0.4268071353435516,-0.4076178669929504,0.0,0.0,0.9998047351837158,-0.8903273344039917
-0.1776671409606933,0.0729802697896957,-0.1940805613994598,-0.5415791869163513,-0.4454961121082306,-0.3737801611423492,0.0,0.0,0.9998756647109984,-0.9273026585578918
-0.1795475929975509,0.0608474574983119,-0.1727830320596695,-0.5441868901252747,-0.4622431099414825,-0.3349400162696838,0.0,0.0,0.9999790191650392,-0.960210144519806
-0.1810352355241775,0.0488727204501628,-0.1355529576539993,-0.5366677045822144,-0.4768498539924621,-0.2921346426010132,0.0,0.0,0.9999899864196776,-0.9157987236976624
-0.1823542565107345,0.0380482524633407,-0.1357143223285675,-0.4796290099620819,-0.4731554985046386,0.0730730891227722,1.0,0.0,0.972665786743164,-0.3724714517593384
-0.183183953166008,0.0286781881004571,-0.1028664335608482,-0.4097423851490021,-0.4516696333885193,0.4290686547756195,1.0,0.0,0.999098300933838,-0.660245954990387
-0.1834979057312011,0.0199700221419334,-0.0578112788498401,-0.3787735104560852,-0.4228534400463104,0.5763474106788635,1.0,0.0,0.9992399215698242,-0.3530425429344177
-0.1833477914333343,0.0124448873102664,-0.0248434580862522,-0.3237200975418091,-0.377614289522171,0.9083078503608704,1.0,0.0,0.9999730587005616,0.2103842496871948
-0.1827881783246994,0.0053801629692316,-0.0051407516002655,-0.299235999584198,-0.3133530616760254,1.2853626012802124,1.0,0.0,0.9979543685913086,0.3082413673400879
-0.1820156127214431,-0.0010123992105945,0.0040633296594023,-0.2701811194419861,-0.2380248606204986,1.506800413131714,1.0,1.0,-0.426790714263916,0.996262788772583
-0.1810231208801269,-0.0071379924193024,0.0369389466941356,-0.2637310326099396,-0.1768032312393188,1.222437620162964,1.0,1.0,-0.8424524068832397,0.985381841659546
-0.1799155175685882,-0.0130272293463349,0.0621169432997703,-0.2567344009876251,-0.1282409727573394,0.9712054133415222,1.0,1.0,0.8773852586746216,0.9926643371582032
-0.1788386404514312,-0.0173302069306373,0.0713787525892257,-0.1885548233985901,-0.0922084376215934,0.7206263542175293,1.0,1.0,0.9316067695617676,0.97267484664917
-0.177558034658432,-0.0202253833413124,0.1024395227432251,-0.1273098737001419,-0.0668511912226677,0.5071276426315308,1.0,1.0,0.3109121322631836,0.6886284351348877
-0.1762821227312088,-0.0220061559230089,0.1110350638628006,-0.0784958079457283,-0.0504776798188686,0.3274617791175842,1.0,1.0,-0.4156049489974975,-0.9652270674705504
-0.1751241683959961,-0.0235387701541185,0.1021836400032043,-0.0677194967865943,-0.0370330885052681,0.2688876092433929,1.0,1.0,-0.7502226829528809,-0.9973259568214417
-0.1740682572126388,-0.0247981920838356,0.0934216529130935,-0.055722776800394,-0.0250115953385829,0.2404267787933349,1.0,1.0,-0.8271375298500061,-0.9968709349632264
-0.1731199324131012,-0.0257668998092412,0.0830036550760269,-0.0429032258689403,-0.0133394366130232,0.2334394454956054,1.0,1.0,-0.7915154099464417,-0.9863996505737304
-0.1722833663225174,-0.0264579430222511,0.0722126886248588,-0.0306548383086919,-0.0020404441747814,0.2259745597839355,1.0,1.0,-0.833241879940033,-0.9728262424468994
-0.1715281456708908,-0.026876762509346,0.0657238513231277,-0.0186321027576923,0.0076240533962845,0.1932858526706695,1.0,1.0,-0.666570782661438,-0.737104058265686
-0.1708449423313141,-0.0270436666905879,0.0606501772999763,-0.0074766217730939,0.0151952244341373,0.1514208912849426,1.0,1.0,-0.5472497344017029,-0.6964408755302429
-0.1702231466770172,-0.0269464626908302,0.056858904659748,0.0042568296194076,0.0204518996179103,0.1051326841115951,1.0,1.0,-0.7002789974212646,-0.6775717735290527
-0.1696751564741134,-0.026584543287754,0.0513555593788623,0.0160348713397979,0.0238473694771528,0.0679091364145279,1.0,1.0,-0.2576926946640014,-0.7334851026535034
-0.1691895425319671,-0.0259505417197942,0.0472173132002353,0.0281551778316497,0.0251787304878234,0.0266280230134725,1.0,1.0,-0.2985305786132812,-0.5842556357383728
-0.1687560975551605,-0.0250716358423233,0.0433051511645317,0.0390617959201335,0.0252133756875991,0.0006943871849216,1.0,1.0,0.0821226835250854,-0.5199814438819885
-0.1683061569929123,-0.0233092810958623,0.0442734882235527,0.0783130824565887,0.0259401816874742,0.0145402085036039,1.0,1.0,-0.2585718035697937,-0.1824469566345214
-0.1677970886230468,-0.0216435939073562,0.0504248738288879,0.0740210935473442,0.0264259185642004,0.0097198709845542,1.0,1.0,-0.1216462850570678,-0.0767268538475036
-0.1672662794589996,-0.0201857592910528,0.0528996177017688,0.0647834688425064,0.0266190320253372,0.0038836053572595,1.0,1.0,-0.3952638506889343,-0.0774779319763183
-0.1667344123125076,-0.0190059803426265,0.052910279482603,0.0524320118129253,0.0268928296864032,0.0054770233109593,1.0,1.0,-0.5632343292236328,-0.4181222915649414
-0.1661992967128753,-0.0181317944079637,0.0528259165585041,0.0388392396271228,0.0275728777050972,0.0136027438566088,1.0,1.0,-0.4628643989562988,-0.3653597831726074
-0.1656615287065506,-0.0175426751375198,0.0527848303318023,0.0261646453291177,0.0285536181181669,0.0196169354021549,1.0,1.0,-0.3402845859527588,-0.504008412361145
-0.1651629507541656,-0.017180647701025,0.0483489409089088,0.0160605832934379,0.030042016878724,0.0297697726637125,1.0,1.0,-0.6632140278816223,-0.3093770742416382
-0.1646678894758224,-0.0169566646218299,0.0486736521124839,0.0099369324743747,0.0308752786368131,0.0166695043444633,1.0,1.0,-0.4963845014572143,-0.5967118144035339
-0.1642153710126876,-0.0167748108506202,0.0442755371332168,0.008059456013143,0.0318384580314159,0.0192670170217752,1.0,1.0,-0.5341536402702332,-0.4987550973892212
-0.1637649536132812,-0.0165475755929946,0.0446673594415187,0.0100901518017053,0.0322176367044448,0.0075887888669967,1.0,1.0,-0.4558351039886474,-0.3592358231544494
-0.1633125245571136,-0.0162066835910081,0.0449298471212387,0.0151417860761284,0.032536968588829,0.0063913413323462,1.0,1.0,-0.3753581047058105,-0.2419375777244568
