x_pos,y_pos,x_vel,y_vel,angle,ang_vel,leg_1,leg_2,main_booster,lat_booster
-0.0014839172363281,1.4032410383224487,-0.1499688476324081,-0.3412914276123047,0.0013985832920297,0.027561891824007,0.0,0.0,0.8584123156652577,-0.7950478099047309
-0.0029289245139807,1.395976185798645,-0.1472611278295517,-0.3228865563869476,0.0041360114701092,0.0547545254230499,0.0,0.0,-0.953516217311034,0.604329073194474
-0.0042783739045262,1.3883233070373535,-0.13589408993721,-0.3401327729225158,0.0050733890384435,0.0187491066753864,0.0,0.0,-0.4599514223270442,-0.8635158420666017
-0.0056727407500147,1.3802834749221802,-0.1421191841363906,-0.3573335409164428,0.0077216094359755,0.0529695451259613,0.0,0.0,-0.9872623207337357,0.7304627994493584
-0.0069623948074877,1.3718633651733398,-0.129533976316452,-0.3742281496524811,0.008282964117825,0.0112280966714024,0.0,0.0,-0.5664263377920771,-0.6990866767656243
-0.0082607269287109,1.3630584478378296,-0.1311474442481994,-0.3913429379463196,0.009587625041604,0.026095625013113,0.0,0.0,-0.3573703223080799,0.6512124791358505
-0.0094770435243844,1.353870511054993,-0.1213755011558532,-0.4083441793918609,0.009327876381576,-0.0051951305940747,0.0,0.0,-0.0856970844114644,0.9940326398128244
-0.0105644222348928,1.3443037271499634,-0.1056758612394332,-0.4251801073551178,0.006295770406723,-0.0606477968394756,0.0,0.0,-0.487452833089786,-0.6683970783006565
-0.0116755487397313,1.3343602418899536,-0.1090867891907692,-0.4419271051883697,0.00430254265666,-0.0398682728409767,0.0,0.0,-0.2002266120598834,0.6906176970686861
-0.012703513726592,1.324038028717041,-0.0990862473845481,-0.4587573707103729,0.0006350228795781,-0.0733573213219642,0.0,0.0,-0.8487857757053365,0.6302641838966824
-0.013647174462676,1.31333327293396,-0.0889130681753158,-0.4757764041423797,-0.0047597498632967,-0.107905164361,0.0,0.0,0.1085804247136157,0.6340955320155789
-0.0144596099853515,1.302775263786316,-0.0743027254939079,-0.4692843556404114,-0.0116281677037477,-0.1373809427022934,0.0,0.0,0.0313993797091318,0.6397519951853089
-0.0150994304567575,1.2924902439117432,-0.0555704236030578,-0.4571978747844696,-0.0199420843273401,-0.1662935018539428,0.0,0.0,-0.3936401937440594,0.6080486480443542
-0.0156622882932424,1.2818156480789185,-0.0462307035923004,-0.474588930606842,-0.0298811793327331,-0.198800191283226,0.0,0.0,-0.3107907087013932,0.783400659134434
-0.016126250848174,1.2707641124725342,-0.0341448709368705,-0.4914661645889282,-0.0420105643570423,-0.2426096946001052,0.0,0.0,-0.9596813469623496,-0.8326343804328087
-0.0166232101619243,1.2593247890472412,-0.0385393872857093,-0.5087653398513794,-0.0530546903610229,-0.220902532339096,0.0,0.0,0.2499386988193745,0.6447097428620561
-0.0168993957340717,1.2484675645828247,-0.0151032116264104,-0.4830271601676941,-0.0654402747750282,-0.2477344274520874,0.0,0.0,-0.9095878173662924,-0.9858462904063712
-0.017216682434082,1.2372263669967651,-0.0204929895699024,-0.5001369714736938,-0.0765814557671547,-0.2228436917066574,0.0,0.0,0.7262947880123545,0.9281316456076556
-0.0172662734985351,1.2268458604812622,0.0082052964717149,-0.4620820879936218,-0.0896311402320861,-0.2610176503658294,0.0,0.0,-0.6496534639972795,0.777507453364918
-0.017246913164854,1.2160769701004028,0.0166630577296018,-0.4795652329921722,-0.1042535528540611,-0.2924745678901672,0.0,0.0,0.8261930716213002,-0.7718718018347019
-0.017033290117979,1.2061586380004885,0.0343970358371734,-0.4417816698551178,-0.1172275692224502,-0.2595039010047912,0.0,0.0,-0.4843873578236617,0.8340214451198369
-0.0167401321232318,1.195842981338501,0.0442726202309131,-0.4597168564796448,-0.132115289568901,-0.2977814674377441,0.0,0.0,0.2393313459559385,-0.7269081334224488
-0.0163289066404104,1.185742974281311,0.0546474233269691,-0.4501479268074035,-0.1456160545349121,-0.2700396478176117,0.0,0.0,0.1055906212310293,0.9683767886775736
-0.0157465934753417,1.1755329370498655,0.0738710686564445,-0.455377995967865,-0.1612622439861297,-0.3129518628120422,0.0,0.0,-0.4778621642716092,0.8081977764741436
-0.0151058193296194,1.1649339199066162,0.0811003744602203,-0.4730047285556793,-0.1783273667097091,-0.3413331210613251,0.0,0.0,-0.7756396057110722,-0.6660339539914226
-0.0145227434113621,1.153955101966858,0.0738338977098465,-0.4898895025253296,-0.1939076036214828,-0.3116047382354736,0.0,0.0,-0.4261153498513248,0.6577126203185648
-0.0138801578432321,1.1425857543945312,0.081199362874031,-0.5076168775558472,-0.210980474948883,-0.3414582908153534,0.0,0.0,-0.9273704916169124,0.8801428527613347
-0.0131765361875295,1.1308294534683228,0.0887622982263565,-0.5252411365509033,-0.2295884490013122,-0.3721595108509063,0.0,0.0,0.7647917711175412,-0.6550097509350719
-0.0124750137329101,1.119977355003357,0.0876571834087371,-0.4851474165916443,-0.2473748922348022,-0.3557286560535431,0.0,0.0,-0.2489989962103851,0.7848555318533914
-0.0117114065214991,1.1087219715118408,0.095421552658081,-0.5035709142684937,-0.2668274939060211,-0.3890522122383117,0.0,0.0,0.5295627800848246,-0.8211352022956846
-0.0107794757932424,1.0982489585876465,0.1106302365660667,-0.4687421023845672,-0.2847023606300354,-0.3574973940849304,0.0,0.0,0.7345574531391921,0.7800509278962737
-0.0097431186586618,1.0880675315856934,0.1227838173508644,-0.4563717246055603,-0.3044494986534118,-0.3949426412582397,0.0,0.0,-0.2434875802228842,-0.9551139845521864
-0.0087841991335153,1.07755446434021,0.1128771305084228,-0.4709078967571258,-0.3220759332180023,-0.3525291681289673,0.0,0.0,0.7480353060968599,-0.7054123706148989
-0.0078269001096487,1.0672601461410522,0.1114929169416427,-0.4611203074455261,-0.3385174572467804,-0.3288302719593048,0.0,0.0,-0.7345601905018049,0.8555646326003221
-0.0068033216521143,1.0565537214279177,0.1198033690452575,-0.4800414741039276,-0.3568324446678161,-0.3663006126880646,0.0,0.0,-0.1266021764642331,-0.885811759927621
-0.005841446109116,1.0455098152160645,0.11190927028656,-0.4948444962501526,-0.3734421133995056,-0.3321931660175323,0.0,0.0,0.8224752717397501,0.8117412640744804
-0.0046681403182446,1.034766435623169,0.1346267759799957,-0.4821096956729889,-0.3918438255786896,-0.3680347204208374,0.0,0.0,0.9756159813931072,-0.7965145559501747
-0.0031587600242346,1.024918794631958,0.1665071099996566,-0.4420585930347442,-0.4085298776626587,-0.3337202370166778,0.0,0.0,-0.8806871106111016,0.8732837981885935
-0.0015896797413006,1.014662265777588,0.173952430486679,-0.4608731567859649,-0.426926851272583,-0.367939680814743,0.0,0.0,0.2508286980777359,0.678797080353426
0.0002386093110544,1.004608154296875,0.2010037451982498,-0.452490359544754,-0.4467229843139648,-0.3959226012229919,0.0,0.0,-0.7157617556646645,0.6908268591554839
0.0021067620255053,0.9941521286964417,0.2058943510055542,-0.470953494310379,-0.4677082598209381,-0.4197050034999847,0.0,0.0,-0.7476017475128174,-0.9973102807998656
0.0039163590408861,0.9833576083183287,0.1983688473701477,-0.4857460856437683,-0.4870361387729645,-0.3865581154823303,0.0,0.0,-0.8635038733482361,-0.9945936799049376
0.0056620598770678,0.9722195267677308,0.1902404427528381,-0.5006574988365173,-0.5046165585517883,-0.3516088128089905,0.0,0.0,-0.653174638748169,-0.9981085658073424
0.0073466300964355,0.9607468247413636,0.1824323683977127,-0.5151267051696777,-0.5204211473464966,-0.3160934448242187,0.0,0.0,-0.8523830771446228,-0.995818018913269
0.0089516639709472,0.9489446878433228,0.1723608821630478,-0.5291343927383423,-0.5339637398719788,-0.2708517909049988,0.0,0.0,-0.6252245306968689,-0.9976290464401244
0.0104871746152639,0.9368067979812622,0.1636029779911041,-0.5434653162956238,-0.5455268025398254,-0.2312614470720291,0.0,0.0,-0.1178160905838012,-0.9987004399299622
0.0119565967470407,0.924336314201355,0.1552488207817077,-0.5576318502426147,-0.5551401972770691,-0.1922678798437118,0.0,0.0,-0.6622567176818848,-0.9797208309173584
0.0133484844118356,0.9115633964538574,0.145251378417015,-0.5702134966850281,-0.562199592590332,-0.1411879509687423,0.0,0.0,-0.5293381214141846,-0.992423415184021
0.0146592138335108,0.8984895348548889,0.1348343789577484,-0.5826420187950134,-0.5665917992591858,-0.087844617664814,0.0,0.0,-0.5120588541030884,-0.9918000102043152
0.0158968921750783,0.8850941061973572,0.1255915462970733,-0.5961321592330933,-0.5687199234962463,-0.0425622053444385,0.0,0.0,-0.6076299548149109,-0.9772133827209472
0.0170814506709575,0.8713611960411072,0.1188343167304992,-0.6105189919471741,-0.569175124168396,-0.0091044241562485,0.0,0.0,-0.7216406464576721,-0.9873454570770264
0.0181933399289846,0.8573176860809326,0.1095191836357116,-0.6234405636787415,-0.5672163367271423,0.0391753278672695,0.0,0.0,-0.70169997215271,-0.9944370985031128
0.0192461013793945,0.8429367542266846,0.1020355597138404,-0.6377834677696228,-0.5634307265281677,0.0757121741771698,0.0,0.0,-0.6993645429611206,-0.997019588947296
0.0202337261289358,0.8282415270805359,0.0935986265540123,-0.6509600877761841,-0.5574086308479309,0.1204416006803512,0.0,0.0,-0.8334111571311951,-0.9919803142547609
0.0211681369692087,0.8132057189941406,0.0867843255400657,-0.6655194759368896,-0.5496913194656372,0.1543456614017486,0.0,0.0,-0.8885488510131836,-0.991471230983734
0.0220225341618061,0.7978529334068298,0.0765543282032013,-0.6787456274032593,-0.5394189357757568,0.2054478675127029,0.0,0.0,-0.9297139048576356,-0.9824629426002502
0.0228237155824899,0.7821749448776245,0.0695074126124382,-0.6926183700561523,-0.5272499322891235,0.2433797419071197,0.0,0.0,-0.9630466103553772,-0.9491044878959656
0.0235768314450979,0.7661610841751099,0.0631294772028923,-0.707073986530304,-0.5133988857269287,0.2770203649997711,0.0,0.0,-0.9433093070983888,-0.9924216270446776
0.0242749210447073,0.7498242259025574,0.0557813420891761,-0.7208948135375977,-0.4975645244121551,0.3166874051094055,0.0,0.0,-0.9439826607704164,-0.968518316745758
0.0249027255922555,0.7331749200820923,0.0464384034276008,-0.7341643571853638,-0.4792839288711548,0.3656116425991058,0.0,0.0,-0.884709358215332,-0.8974730968475342
0.0254741664975881,0.7161833047866821,0.0389576330780983,-0.749020516872406,-0.4591528177261352,0.4026219248771667,0.0,0.0,-0.9479092359542848,-0.8063585162162781
0.0259849540889263,0.6988653540611267,0.0307874530553817,-0.7631546258926392,-0.436907023191452,0.4449158608913421,0.0,0.0,-0.9134843945503236,-0.3886198401451111
0.026501178741455,0.6811693906784058,0.0309710595756769,-0.7802260518074036,-0.4145168662071228,0.447803795337677,0.0,0.0,-0.9230563044548036,-0.2060328722000122
0.027023697271943,0.6630954146385193,0.0312594249844551,-0.7972985506057739,-0.3919790685176849,0.4507560133934021,0.0,0.0,-0.9115359783172609,0.1595135927200317
0.0275535583496093,0.6446434259414673,0.0316590145230293,-0.8143721222877502,-0.3692907989025116,0.4537659287452698,0.0,0.0,-0.8039665818214417,-0.1688182950019836
0.0280920024961233,0.625813901424408,0.032176174223423,-0.8314467668533325,-0.3464494347572326,0.4568270146846771,0.0,0.0,-0.8230711817741394,0.1181979179382324
0.028640080243349,0.6066070199012756,0.0328170880675315,-0.8485225439071655,-0.3234528005123138,0.4599328637123108,0.0,0.0,-0.4177116155624389,0.4375180006027221
0.0291991233825683,0.587022602558136,0.0335877910256385,-0.865599513053894,-0.3002989292144775,0.4630772173404693,0.0,0.0,0.1297571659088134,0.1089669466018676
0.0299607273191213,0.567889392375946,0.0534469000995159,-0.8458496332168579,-0.2769007086753845,0.4679643213748932,0.0,0.0,0.219284176826477,-0.55396968126297
0.0307156555354595,0.5489305257797241,0.051513135433197,-0.8382643461227417,-0.2523669302463531,0.4906757771968841,0.0,0.0,0.9005038738250732,-0.49414724111557
0.0315778739750385,0.5307662487030029,0.0624082684516906,-0.803390622138977,-0.2281606197357177,0.484126478433609,0.0,0.0,0.7053840160369873,-0.6179190874099731
0.0325878150761127,0.5131709575653076,0.0755786746740341,-0.7782852649688721,-0.2024628669023513,0.5139554142951965,0.0,0.0,0.5056402683258057,-0.726464569568634
0.0335885994136333,0.4963961541652679,0.0731253623962402,-0.7420862913131714,-0.1753677129745483,0.5419031381607056,0.0,0.0,0.7293133735656738,-0.5319372415542603
0.0347538962960243,0.4801300168037414,0.0879852920770645,-0.7198184728622437,-0.146818459033966,0.5709851980209351,0.0,0.0,0.9140843152999878,0.2426998615264892
0.0359678268432617,0.4641717970371246,0.092758372426033,-0.7066786885261536,-0.1182878911495208,0.5706113576889038,0.0,0.0,0.8679786920547485,0.5794868469238281
0.0373743064701557,0.4483591318130493,0.1126835793256759,-0.7008041143417358,-0.0905299037694931,0.5551599264144897,0.0,0.0,0.9916515350341796,-0.2258817553520202
0.0388039574027061,0.432789534330368,0.1149411424994468,-0.6905205249786377,-0.0627868175506591,0.5548619627952576,0.0,0.0,0.8409533500671387,0.8703536987304688
0.0403733253479003,0.4181715548038482,0.130492702126503,-0.6487867832183838,-0.0366330966353416,0.523074746131897,0.0,0.0,0.9145474433898926,0.8553818464279175
0.0421743392944335,0.4045950770378113,0.154962733387947,-0.6029738187789917,-0.0118173323571681,0.4963153302669525,0.0,0.0,0.8463780879974365,0.0986008644104003
0.0438895225524902,0.3920155167579651,0.1468081921339035,-0.5590794682502747,0.0125772878527641,0.4878925383090973,0.0,0.0,0.3981503248214721,-0.0660049319267273
0.0455223098397254,0.3794787228107452,0.1389215886592865,-0.5575706362724304,0.0366229861974716,0.4809143543243408,0.0,0.0,0.8349920511245728,0.8030605316162109
0.0472675338387489,0.3678953647613525,0.1515508443117141,-0.5155351161956787,0.059326272457838,0.4540658891201019,0.0,0.0,0.53609299659729,0.816913366317749
0.0489748008549213,0.3567326664924621,0.1494272053241729,-0.497099906206131,0.080395683646202,0.421388566493988,0.0,0.0,0.5927412509918213,0.7520557641983032
0.0506665222346782,0.346172422170639,0.1493740230798721,-0.4705207645893097,0.1000104993581771,0.3922963738441467,0.0,0.0,-0.0129992365837097,0.7233672142028809
0.0524514205753803,0.3352459669113159,0.1600075215101242,-0.4869615137577057,0.1183606758713722,0.3670039772987366,0.0,0.0,0.7702574729919434,0.6317875385284424
0.054351806640625,0.3248959183692932,0.1724637448787689,-0.4614894092082977,0.1358474642038345,0.3497354984283447,0.0,0.0,0.3331822156906128,0.6197104454040527
0.0563260093331337,0.3145852088928222,0.1809518188238144,-0.4598375558853149,0.1522843092679977,0.3287365436553955,0.0,0.0,0.6109534502029419,0.0976519584655761
0.0583734512329101,0.3044978380203247,0.1877359449863433,-0.450158029794693,0.1692825555801391,0.3399648368358612,0.0,0.0,-0.0983099937438964,0.8523339033126831
0.0605484955012798,0.2940515875816345,0.20252625644207,-0.4660501480102539,0.1842962205410003,0.3002732694149017,0.0,0.0,0.4122730493545532,0.5165941715240479
0.0628755539655685,0.2837649881839752,0.2183639705181121,-0.4590287506580353,0.1987245082855224,0.2885660827159881,0.0,0.0,0.3318383693695068,0.4410054683685303
0.0651274695992469,0.2739872932434082,0.2107560932636261,-0.436564564704895,0.2132659703493118,0.2908289432525635,0.0,0.0,0.2908326387405395,0.4714548587799072
0.0673278793692588,0.2647059261798858,0.2054216414690017,-0.4146822988986969,0.2280502021312713,0.2956848442554474,0.0,0.0,0.8780806064605713,-0.0724128484725952
0.0695468932390213,0.2562006115913391,0.206560730934143,-0.3804635405540466,0.2436166852712631,0.3113299906253814,0.0,0.0,0.584996223449707,-0.0401425957679748
0.0718379989266395,0.247806504368782,0.2132712602615356,-0.375780314207077,0.2597545385360718,0.3227577805519104,0.0,0.0,0.786288857460022,-0.3045473098754883
0.0739882439374923,0.2398090213537216,0.1993871033191681,-0.3582957983016968,0.2757499814033508,0.3199091553688049,0.0,0.0,0.7038137912750244,-0.1458171010017395
0.076037123799324,0.2327518761157989,0.1888295710086822,-0.3167707026004791,0.2922656536102295,0.3303127288818359,0.0,0.0,0.8899722099304199,-0.3874661922454834
0.0779314041137695,0.2262388318777084,0.173467218875885,-0.2927587926387787,0.3087705671787262,0.3300985693931579,0.0,0.0,0.0097020864486694,-0.2368561029434204
0.0796659439802169,0.220006451010704,0.1577817797660827,-0.2804120779037475,0.3250324428081512,0.3252376019954681,0.0,0.0,0.2714136838912964,0.0179643630981445
0.081353947520256,0.2141899168491363,0.1528371423482895,-0.2621879577636719,0.3417086601257324,0.333524078130722,0.0,0.0,0.2590000629425049,0.002729058265686
0.0828751549124717,0.208781436085701,0.1363265663385391,-0.2442081272602081,0.3582966029644012,0.3317590951919555,0.0,0.0,0.3636430501937866,0.466316819190979
0.0841802582144737,0.2038257271051406,0.1150221452116966,-0.2242067903280258,0.3746649324893951,0.3273671865463257,0.0,0.0,-0.0478124618530273,0.8797135353088379
0.0856138244271278,0.1985237449407577,0.1295038908720016,-0.2393461018800735,0.389392077922821,0.2945426702499389,0.0,0.0,0.3925834894180298,0.4290527105331421
0.0868313759565353,0.1934888511896133,0.108340784907341,-0.22751185297966,0.4037519693374634,0.2871981859207153,0.0,0.0,0.1683616638183593,-0.0649464130401611
0.0878745093941688,0.1885216832160949,0.091351568698883,-0.2245189547538757,0.4177027940750122,0.279016762971878,0.0,0.0,0.3830652236938476,0.8287427425384521
0.0888932198286056,0.1841032654047012,0.0904196947813034,-0.1998129785060882,0.4301131963729858,0.2482078522443771,0.0,0.0,-0.0589603185653686,0.4208030700683594
0.0899835601449012,0.1793038249015808,0.0975682660937309,-0.2168666273355484,0.4425974488258362,0.2496848106384277,0.0,0.0,0.4433302879333496,0.8140215873718262
0.0910453796386718,0.1751644164323806,0.0961076766252517,-0.1871972680091858,0.4536217153072357,0.2204855978488922,0.0,0.0,0.1971043348312378,0.6631155014038086
0.0919630974531173,0.1714282184839248,0.0829796865582466,-0.168940395116806,0.4632928371429443,0.193422257900238,0.0,0.0,-0.0966800451278686,0.6565670967102051
0.0930105224251747,0.1673592627048492,0.0974813550710678,-0.1832794845104217,0.4713120758533478,0.1603851020336151,0.0,0.0,-0.0210490226745605,0.8489923477172852
0.0942008048295974,0.1629589349031448,0.113564983010292,-0.1974433213472366,0.4773799180984497,0.1213570609688758,0.0,0.0,-0.4995297193527221,0.7082486152648926
0.0955148711800575,0.1582197248935699,0.1272438317537307,-0.2120753228664398,0.4820177257061004,0.0927559733390808,0.0,0.0,-0.0228070616722106,0.5909254550933838
0.096950814127922,0.1531375497579574,0.1406284868717193,-0.2269136756658554,0.4853254854679107,0.0661547258496284,0.0,0.0,-0.3719685077667236,0.8564366102218628
0.0985346809029579,0.1477216333150863,0.157209500670433,-0.2411202490329742,0.4866370856761932,0.0262322630733251,0.0,0.0,0.1186410188674926,0.6897941827774048
0.0999674797058105,0.1424507647752761,0.1434476673603058,-0.2342008799314499,0.4864422082901001,-0.0038977400399744,0.0,0.0,-0.4991945624351501,0.7053608894348145
0.1015202552080154,0.1368255019187927,0.1564671099185943,-0.2495940327644348,0.4851120114326477,-0.0266040321439504,0.0,0.0,-0.5079020261764526,0.2742239236831665
0.1031548529863357,0.1308169960975647,0.1646308898925781,-0.2666343748569488,0.4838061332702636,-0.0261177867650985,0.0,0.0,-0.4349230527877807,0.8603323698043823
0.1049345955252647,0.1244728192687034,0.1808204352855682,-0.2809694707393646,0.4806348979473114,-0.0634245127439498,0.0,0.0,0.1476763486862182,0.2994673252105713
0.1067625060677528,0.118140660226345,0.1852516680955886,-0.2805781066417694,0.4778972268104553,-0.0547536499798297,0.0,0.0,-0.2300770282745361,0.8047337532043457
0.1087379455566406,0.1114789098501205,0.2017783373594284,-0.2946257591247558,0.4731996953487396,-0.0939503461122512,0.0,0.0,-0.2154979109764099,0.6747603416442871
0.110844612121582,0.1044774875044822,0.2162474691867828,-0.3092865943908691,0.4670219123363495,-0.1235553845763206,0.0,0.0,-0.3821319341659546,-0.37291419506073
0.1130361557006836,0.0970930457115173,0.2247507125139236,-0.3263286650180816,0.4608429074287414,-0.1235800012946128,0.0,0.0,0.3492107391357422,0.4565321207046509
0.115160658955574,0.0900564268231391,0.2177308052778244,-0.311001569032669,0.455028235912323,-0.1162927970290184,0.0,0.0,0.5728163719177246,0.2074590921401977
