x_pos,y_pos,x_vel,y_vel,angle,ang_vel,leg_1,leg_2,main_booster,lat_booster
-0.0015305519336834,1.403503656387329,-0.1546589136123657,-0.3296243548393249,0.0014275969006121,0.0281360000371933,0.0,0.0,-0.0516173525710372,0.6260640463563645
-0.0030144690535962,1.395986557006836,-0.1480797231197357,-0.3340995013713836,0.0011181008303537,-0.0061897123232483,0.0,0.0,-0.6466012981374663,0.6146039484750501
-0.0044454573653638,1.3883434534072876,-0.1409107446670532,-0.3396896123886108,-0.0010386274661868,-0.0431388579308986,0.0,0.0,-0.1033979464464864,-0.7718128279428433
-0.0059545515105128,1.3805770874023438,-0.1501917392015457,-0.3451727628707886,-0.0017373588634654,-0.0139760272577404,0.0,0.0,-0.6429275751530856,0.5103237524889673
-0.0074196816422045,1.3726913928985596,-0.1441894322633743,-0.3504826426506042,-0.0040402389131486,-0.0460618361830711,0.0,0.0,-0.3935134745163189,-0.6659644780139891
-0.0089296344667673,1.3646838665008545,-0.149309366941452,-0.3558860719203949,-0.005708101671189,-0.0333602800965309,0.0,0.0,0.5830039718017141,0.6202366597729361
-0.0104148862883448,1.3573856353759766,-0.1451370567083358,-0.3243875503540039,-0.0090529369190335,-0.0669030100107193,0.0,0.0,0.8746591942168624,-0.7286605711504517
-0.0117701534181833,1.3510679006576538,-0.1336559802293777,-0.2808010876178741,-0.0109006268903613,-0.0369572527706623,0.0,0.0,-0.4631278971813477,-0.6017535409754158
-0.0131763461977243,1.3446364402770996,-0.1395664513111114,-0.2858464121818542,-0.0119374878704547,-0.0207395032048225,0.0,0.0,0.1031956584739037,0.6723871083179273
-0.0145263671875,1.3388150930404663,-0.1321881860494613,-0.2587486505508423,-0.0147167881950736,-0.0555913373827934,0.0,0.0,0.2134504638493157,-0.7693456554456526
-0.0158600807189941,1.3335280418395996,-0.1317559033632278,-0.2349953800439834,-0.0163034107536077,-0.0317355245351791,0.0,0.0,0.1227608664775643,0.8897470333145621
-0.0170622821897268,1.3286538124084473,-0.116432785987854,-0.2166812121868133,-0.02005485445261,-0.0750360265374183,0.0,0.0,-0.9283120992774064,0.9682310231904456
-0.0181719772517681,1.3236610889434814,-0.1043799966573715,-0.221994400024414,-0.0265649519860744,-0.1302137225866317,0.0,0.0,0.5383585580848065,0.5887272358429526
-0.0191564559936523,1.319034457206726,-0.0904298946261406,-0.2057994753122329,-0.0345029532909393,-0.1587747782468795,0.0,0.0,0.9734468817385508,-0.9590106330143306
-0.0199954025447368,1.3157678842544556,-0.0777047425508499,-0.1453356444835662,-0.0406230092048645,-0.1224122196435928,0.0,0.0,0.2134640425373113,-0.665544826139067
-0.0207868572324514,1.3126980066299438,-0.0739837437868118,-0.1365893632173538,-0.0457253865897655,-0.1020567640662193,0.0,0.0,0.5926625719649272,0.6455604026970404
-0.0213432312011718,1.3107377290725708,-0.0490732081234455,-0.0873356759548187,-0.0522213131189346,-0.1299305260181427,0.0,0.0,0.5646622675980466,-0.74339786625677
-0.0217889789491891,1.3091753721237185,-0.039341676980257,-0.0696316286921501,-0.0574050918221473,-0.1036849170923233,0.0,0.0,0.2070190750318943,0.8865411742478154
-0.0220459941774606,1.3083664178848269,-0.0182839594781398,-0.0362537279725074,-0.0647529289126396,-0.1469701826572418,0.0,0.0,0.6772258105777256,0.6474938211414918
-0.0223000533878803,1.3083012104034424,-0.0160259082913398,-0.003332499647513,-0.0740517228841781,-0.1859925091266632,0.0,0.0,-0.2694095746464278,-0.5548155919714852
-0.0225847251713275,1.3081241846084597,-0.0195048637688159,-0.0083272019401192,-0.0829360783100128,-0.1777032315731048,0.0,0.0,-0.171745037689099,-0.5490217436825464
-0.0229079239070415,1.3078300952911377,-0.0239788256585598,-0.0135515891015529,-0.0912107825279235,-0.1655089557170868,0.0,0.0,-0.283730540636482,-0.8083341053059911
-0.0232767108827829,1.3074222803115845,-0.0293511841446161,-0.0186036899685859,-0.098686084151268,-0.1495196521282196,0.0,0.0,0.2935504057348399,-0.5399508116959255
-0.0236002914607524,1.3072508573532104,-0.0255754925310611,-0.0080697499215602,-0.1054241880774498,-0.1347743421792984,0.0,0.0,0.5226775470821541,0.5352936529573675
-0.0239543914794921,1.3078620433807373,-0.0267297588288784,0.0265244673937559,-0.1140525192022323,-0.1725819855928421,0.0,0.0,-0.6556783320199728,-0.6298059055178102
-0.0243660919368267,1.3083462715148926,-0.0335864350199699,0.0209249444305896,-0.1215883195400238,-0.1507159322500229,0.0,0.0,0.9341143180750148,0.9366434192647108
-0.0245903022587299,1.3099689483642578,-0.0125063974410295,0.0712871327996254,-0.1314552426338195,-0.1973387002944946,0.0,0.0,-0.5063152341882087,-0.8623228916075596
-0.0248903278261423,1.3114981651306152,-0.0217344257980585,0.0672069042921066,-0.1396958529949188,-0.1648121178150177,0.0,0.0,0.0320427034160457,-0.8856535379169581
-0.0252816192805767,1.3136688470840454,-0.0321693085134029,0.0958036035299301,-0.14663165807724,-0.1387157887220382,0.0,0.0,-0.7963046888887158,-0.886195915395019
-0.0257389061152935,1.315732717514038,-0.0401403829455375,0.0911618992686271,-0.1522117704153061,-0.1116023436188697,0.0,0.0,0.864723785627523,-0.5004193849708816
-0.0260615348815917,1.3191032409667969,-0.0272708144038915,0.1492804437875747,-0.1571984887123108,-0.0997345894575119,0.0,0.0,-0.7003121376037598,-0.8878163695335388
-0.0264566428959369,1.322367548942566,-0.0360486432909965,0.1447115391492843,-0.1606596559286117,-0.0692232698202133,0.0,0.0,-0.6134194731712341,-0.90546715259552
-0.026924705132842,1.3255399465560913,-0.0449260957539081,0.1407956033945083,-0.1625330448150634,-0.0374679118394851,0.0,0.0,-0.5631427764892578,-0.80891352891922
-0.0274566654115915,1.3286024332046509,-0.0526305437088012,0.1360526084899902,-0.1630979925394058,-0.0112992972135543,0.0,0.0,-0.5547170042991638,-0.3737977743148803
-0.0279818531125783,1.3315452337265017,-0.0514757260680198,0.1306739449501037,-0.1641412675380706,-0.0208654440939426,0.0,0.0,-0.8002570867538452,-0.6272323131561279
-0.0285470969974994,1.334384560585022,-0.0562171153724193,0.1261593997478485,-0.1644416451454162,-0.0060075097717344,0.0,0.0,-0.5114459991455078,-0.3242264986038208
-0.0291051864624023,1.3371039628982544,-0.0550382137298584,0.1207807064056396,-0.1652193665504455,-0.0155545081943273,0.0,0.0,-0.385872483253479,-0.780782163143158
-0.0297125820070505,1.3397239446640017,-0.0609481856226921,0.1164619028568267,-0.1650052368640899,0.0042823553085327,0.0,0.0,-0.6832629442214966,-0.4559739828109741
-0.0303126331418752,1.342223882675171,-0.0597493238747119,0.1110832169651985,-0.1652665138244629,-0.0052255326882004,0.0,0.0,-0.7521007061004639,-0.2356834411621093
-0.0309054367244243,1.3446041345596311,-0.0585418120026588,0.1057045459747314,-0.1660018265247345,-0.0147061217576265,0.0,0.0,-0.311539888381958,-0.5629603266716003
-0.0315418243408203,1.3468822240829468,-0.063766062259674,0.1012588962912559,-0.1658793091773986,0.0024504663888365,0.0,0.0,-0.8300049901008606,-0.7581291198730469
-0.0322178825736045,1.3490504026412964,-0.0684660673141479,0.0964639484882354,-0.1650210916996002,0.0171642620116472,0.0,0.0,-0.8348838686943054,-0.390526533126831
-0.0328864082694053,1.3510987758636477,-0.0672372058033943,0.0910853073000907,-0.164631187915802,0.0077983983792364,0.0,0.0,-0.7896702289581299,-0.410095751285553
-0.0335472114384174,1.35302734375,-0.0660025104880333,0.0857067629694938,-0.164707064628601,-0.0015176685992628,0.0,0.0,-0.1583977341651916,-0.4476267099380493
-0.0342001914978027,1.3548362255096436,-0.0647625997662544,0.0803282707929611,-0.1652459502220153,-0.0107778515666723,0.0,0.0,-0.6403791904449463,-0.8039495348930359
-0.0349041000008583,1.3565313816070557,-0.0708818212151527,0.0753990709781646,-0.1647623181343078,0.0096730832010507,0.0,0.0,-0.7639004588127136,-0.3521363139152527
-0.0356001853942871,1.3581068515777588,-0.0696330219507217,0.0700206458568573,-0.1647351086139679,0.0005440774839371,0.0,0.0,-0.5186449289321899,-0.5851618051528931
-0.0363416671752929,1.3595819473266602,-0.0751146227121353,0.0656717419624328,-0.163766324520111,0.019375767558813,0.0,0.0,-0.6741483211517334,-0.5124342441558838
-0.0371233001351356,1.3609538078308103,-0.0799369066953659,0.0611667409539222,-0.1619912236928939,0.0355021134018898,0.0,0.0,-0.7446315288543701,-0.1474714279174804
-0.0378967300057411,1.362205982208252,-0.0786781460046768,0.0557883493602275,-0.1606600880622863,0.0266225971281528,0.0,0.0,-0.6173976063728333,0.1891530752182006
-0.0386620536446571,1.3633381128311155,-0.0774167776107788,0.0504101850092411,-0.1597680002450943,0.0178416315466165,0.0,0.0,-0.4294695854187011,-0.6106606125831604
-0.0394707694649696,1.3643667697906494,-0.0826698020100593,0.0459156520664691,-0.1579680293798446,0.0359995067119598,0.0,0.0,-0.717140793800354,-0.2821753025054931
-0.0402710922062397,1.365275740623474,-0.0814043432474136,0.0405376031994819,-0.1565959900617599,0.0274408962577581,0.0,0.0,-0.8771101832389832,-0.2496432065963745
-0.0410629287362098,1.3660645484924316,-0.0801372677087783,0.035159807652235,-0.1556456238031387,0.0190068949013948,0.0,0.0,-0.3990439772605896,-0.1818333864212036
-0.0418462753295898,1.3667333126068115,-0.0788688734173774,0.0297822076827287,-0.1551102697849273,0.0107071157544851,0.0,0.0,-0.5826789736747742,-0.5507869124412537
-0.0426711067557334,1.3672913312911987,-0.0838861390948295,0.0249497406184673,-0.1537070423364639,0.0280649699270725,0.0,0.0,-0.7062001824378967,-0.0866896510124206
-0.0434871688485145,1.3677293062210083,-0.0826159864664077,0.0195723120123147,-0.1527038365602493,0.0200640745460987,0.0,0.0,-0.6708629727363586,0.5515329837799072
-0.0442414283752441,1.3680373430252075,-0.0746683776378631,0.0136108202859759,-0.1534475535154342,-0.0148741919547319,0.0,0.0,-0.9682906866073608,-0.7383084297180176
-0.0450364127755165,1.3682444095611572,-0.0796670988202095,0.0092222262173891,-0.1532761454582214,0.0034282975830137,0.0,0.0,-0.9786598682403564,-0.6093162894248962
-0.045875359326601,1.3683491945266724,-0.0850786566734314,0.0047727078199386,-0.1521020233631134,0.0234823040664196,0.0,0.0,-0.8912219405174255,0.6829427480697632
-0.0466480255126953,1.368314504623413,-0.0765933990478515,-0.0016079776687547,-0.1527769714593887,-0.0134991081431508,0.0,0.0,-0.9907634854316713,-0.8438258767127991
-0.047488022595644,1.3681819438934326,-0.0849402695894241,-0.0058004083111882,-0.1518328934907913,0.0188816078007221,0.0,0.0,-0.911034107208252,-0.2732194662094116
-0.0483187660574913,1.367928981781006,-0.0836707204580307,-0.0111769437789917,-0.1512300670146942,0.012056266888976,0.0,0.0,-0.9729681611061096,-0.4373698234558105
-0.0491399765014648,1.3675559759140017,-0.0824020728468895,-0.0165532678365707,-0.1509564369916916,0.0054725175723433,0.0,0.0,-0.9872944355010986,0.4774307012557983
-0.0499518401920795,1.3670625686645508,-0.0811345502734184,-0.0219293963164091,-0.1509992033243179,-0.0008554334053769,0.0,0.0,-0.95548415184021,-0.3608080148696899
-0.0507539734244346,1.366448998451233,-0.0798683911561966,-0.0273053552955389,-0.1513448506593704,-0.0069129578769207,0.0,0.0,-0.8915339112281799,-0.7366117835044861
-0.0516009330749511,1.3657363653182983,-0.0854915529489517,-0.0315946452319622,-0.1505534946918487,0.015827227383852,0.0,0.0,-0.9800413250923156,-0.1193765997886657
-0.0524379722774028,1.3649033308029177,-0.0842287689447403,-0.0369702726602554,-0.1500357240438461,0.010355407372117,0.0,0.0,-0.9915245175361632,-0.6438242197036743
-0.0533123016357421,1.3639683723449707,-0.0889321193099021,-0.041409682482481,-0.1485418081283569,0.0298783630132675,0.0,0.0,-0.9845076203346252,-0.3023006319999695
-0.0541765205562114,1.3629127740859983,-0.0876735970377922,-0.0467850007116794,-0.1472891271114349,0.0250532664358615,0.0,0.0,-0.9922645092010498,-0.7254597544670105
-0.0550954826176166,1.3617545366287231,-0.094600960612297,-0.051214549690485,-0.1445868164300918,0.0540461465716362,0.0,0.0,-0.9838067889213562,0.4807362556457519
-0.0560038574039936,1.360475778579712,-0.0933476537466049,-0.0565897747874259,-0.1420903801918029,0.0499287731945514,0.0,0.0,-0.9774417877197266,0.4062680006027221
-0.0569016449153423,1.359076738357544,-0.0920972228050232,-0.0619646459817886,-0.1397809833288192,0.0461877062916755,0.0,0.0,-0.9264370203018188,-0.2907830476760864
-0.0577886588871479,1.357556939125061,-0.0908498987555503,-0.067339189350605,-0.137639120221138,0.0428373143076896,0.0,0.0,-0.6609085202217102,-0.8716601729393005
-0.0587374679744243,1.35592520236969,-0.0987220183014869,-0.0721771046519279,-0.1338084638118744,0.0766132697463035,0.0,0.0,-0.9947195649147034,-0.5469946265220642
-0.0597136504948139,1.3541748523712158,-0.1023083478212356,-0.0773782208561897,-0.1291375756263733,0.0934176743030548,0.0,0.0,-0.948350429534912,0.6324478387832642
-0.0606320388615131,1.3522887229919434,-0.0952242463827133,-0.0835423097014427,-0.1257714480161667,0.0673225298523902,0.0,0.0,-0.9966608285903932,-0.4896138310432434
-0.0615389831364154,1.3502819538116455,-0.0939918011426925,-0.0889162644743919,-0.1224882155656814,0.0656647235155105,0.0,0.0,-0.999068021774292,0.5295591354370117
-0.0623866096138954,1.3481510877609253,-0.0868075266480445,-0.0945419296622276,-0.1204607784748077,0.0405487343668937,0.0,0.0,-0.9837799072265624,0.1228065490722656
-0.0632225051522255,1.3458993434906006,-0.0855837911367416,-0.0999147891998291,-0.1184707209467887,0.0398009940981864,0.0,0.0,-0.9945860505104064,-0.171977698802948
-0.0640461891889572,1.3435269594192505,-0.0843648165464401,-0.1052874028682708,-0.1164947599172592,0.0395195595920085,0.0,0.0,-0.953384816646576,0.2490835189819336
-0.0648577660322189,1.3410335779190063,-0.0831508487462997,-0.1106597855687141,-0.1145092770457267,0.0397098660469055,0.0,0.0,-0.9941766262054444,0.6114920377731323
-0.0656168907880783,1.3384124040603638,-0.0769248157739639,-0.1164189055562019,-0.1135054379701614,0.0200770739465951,0.0,0.0,-0.990751326084137,-0.7488842606544495
-0.0664273276925087,1.3356844186782837,-0.0837591364979744,-0.1210389584302902,-0.1108129546046257,0.0538496375083923,0.0,0.0,-0.9928593039512634,0.0953067541122436
-0.0672250762581825,1.3328355550765991,-0.0825617983937263,-0.1264109462499618,-0.1080394685268402,0.0554699413478374,0.0,0.0,-0.9941499829292296,0.6966582536697388
-0.0679471045732498,1.3298556804656982,-0.0734958350658416,-0.1323465406894683,-0.1067519709467887,0.0257499925792217,0.0,0.0,-0.9977732300758362,0.179070234298706
-0.0686558708548545,1.3267549276351929,-0.0723108202219009,-0.1377176791429519,-0.1053360849618911,0.0283178947865962,0.0,0.0,-0.9960782527923584,-0.4969968795776367
-0.069351390004158,1.3235328197479248,-0.0711324587464332,-0.1430886387825012,-0.1037684604525566,0.0313523709774017,0.0,0.0,-0.9932241439819336,0.6815919876098633
-0.0699667930603027,1.3201792240142822,-0.0615854635834693,-0.1490491777658462,-0.1037175431847572,0.0010182530386373,0.0,0.0,-0.9885584712028505,0.618311882019043
-0.0705088600516319,1.316690444946289,-0.0529330894351005,-0.1551512032747268,-0.1049896478652954,-0.0254420451819896,0.0,0.0,-0.9599844217300416,-0.1254606246948242
-0.0710372924804687,1.3130801916122437,-0.0517766773700714,-0.1605215668678283,-0.1060425043106079,-0.0210569631308317,0.0,0.0,-0.9861218929290771,-0.2413302659988403
-0.0715517029166221,1.3093490600585938,-0.0506283342838287,-0.1658916622400283,-0.1068546622991561,-0.0162430591881275,0.0,0.0,-0.994491696357727,-0.3485157489776611
-0.0720521956682205,1.3054964542388916,-0.0494885072112083,-0.1712615191936493,-0.1074053272604942,-0.0110131027176976,0.0,0.0,-0.9656609296798706,0.0782899856567382
-0.0725384727120399,1.301522731781006,-0.0483576618134975,-0.1766311675310135,-0.1076743751764297,-0.0053810006938874,0.0,0.0,-0.9920390248298644,-0.1889974474906921
-0.073010541498661,1.2974276542663574,-0.047236330807209,-0.1820006221532821,-0.1076424345374107,0.0006386525928974,0.0,0.0,-0.993462085723877,0.8262057304382324
-0.0733934417366981,1.2932090759277344,-0.0367510393261909,-0.1876036375761032,-0.1091667413711547,-0.0304861851036548,0.0,0.0,-0.9926133751869202,0.5097734928131104
-0.0737233161926269,1.288862705230713,-0.0308144278824329,-0.1933342069387436,-0.1113312840461731,-0.0432905480265617,0.0,0.0,-0.981387972831726,-0.5177112221717834
-0.0740875229239463,1.2844078540802002,-0.0358553007245063,-0.1980351060628891,-0.1118932962417602,-0.0112402597442269,0.0,0.0,-0.9814237356185912,0.9189801216125488
-0.0743542686104774,1.2798222303390503,-0.0243642497807741,-0.2039766162633896,-0.1141813769936561,-0.0457619540393352,0.0,0.0,-0.9962838292121888,0.411231517791748
-0.0746064186096191,1.2751154899597168,-0.0233003832399845,-0.2093455195426941,-0.1160835400223732,-0.0380431860685348,0.0,0.0,-0.706139326095581,0.2112387418746948
-0.074843980371952,1.2702869176864624,-0.0222504250705242,-0.2147140800952911,-0.1175852194428443,-0.0300335846841335,0.0,0.0,-0.9381075501441956,-0.0136486887931823
-0.0750671401619911,1.265336990356445,-0.021215396001935,-0.2200823426246643,-0.1186726689338684,-0.0217491909861564,0.0,0.0,-0.9596036076545716,0.5781797170639038
-0.0752390846610069,1.2602596282958984,-0.015594957396388,-0.2257901728153228,-0.1202631816267967,-0.0318102985620498,0.0,0.0,-0.9378045201301576,0.1828796863555908
-0.0753965377807617,1.2550606727600098,-0.0145932491868734,-0.2311581075191497,-0.1214143484830856,-0.0230232067406177,0.0,0.0,-0.8521897792816162,0.8449792861938477
-0.0754612907767295,1.2497308254241943,-0.0037753153592348,-0.2371020317077636,-0.1240961030125618,-0.0536349304020404,0.0,0.0,-0.9852812886238098,0.78658127784729
-0.075444221496582,1.2442598342895508,0.0056722997687757,-0.2434833347797393,-0.1280498802661895,-0.0790755599737167,0.0,0.0,-0.9065327048301696,0.2738728523254394
-0.0754130333662033,1.238667607307434,0.0066137379035353,-0.2488517463207245,-0.131532073020935,-0.0696439668536186,0.0,0.0,-0.7375302314758301,-0.4881837368011474
-0.0753678306937217,1.2329537868499756,0.0075320750474929,-0.2542196214199066,-0.1345333158969879,-0.0600244812667369,0.0,0.0,-0.8968144655227661,-0.817929208278656
-0.0753568634390831,1.227137565612793,0.0023682683240622,-0.2586146593093872,-0.1357932984828949,-0.0251996107399463,0.0,0.0,-0.8433484435081482,0.2928321361541748
-0.0753321647644043,1.2211995124816897,0.0032350700348615,-0.2639813125133514,-0.1365553438663482,-0.0152408462017774,0.0,0.0,-0.8542590141296387,0.926715612411499
-0.0752214416861534,1.2151341438293457,0.013165327720344,-0.2697643041610718,-0.1386370062828064,-0.0416333116590976,0.0,0.0,-0.7928532958030701,0.4563899040222168
-0.0750974640250206,1.208946943283081,0.0139724658802151,-0.2751308381557464,-0.1402059644460678,-0.0313793942332267,0.0,0.0,-0.736781120300293,-0.2684862613677978
-0.0749605149030685,1.2026381492614746,0.0147466193884611,-0.2804971039295196,-0.1412556171417236,-0.0209929328411817,0.0,0.0,-0.8582236170768738,0.471123456954956
-0.0748109817504882,1.1962074041366575,0.0154855325818061,-0.2858631312847137,-0.1417797654867172,-0.01048303861171,0.0,0.0,-0.8345593214035034,-0.4648898243904114
-0.0746490508317947,1.1896547079086304,0.0161868780851364,-0.2912290394306183,-0.1417726725339889,0.0001418294414179,0.0,0.0,-0.8077775835990906,0.1270219087600708
-0.0744750946760177,1.182980179786682,0.0168482922017574,-0.2965947687625885,-0.1412290036678314,0.0108737684786319,0.0,0.0,-0.9230139851570128,0.2117950916290283
-0.0742895156145095,1.176183819770813,0.0174673907458782,-0.3019605576992035,-0.1401437371969223,0.0217053852975368,0.0,0.0,-0.9291912913322448,0.392317533493042
-0.0740926712751388,1.169265627861023,0.0180417969822883,-0.3073263764381408,-0.1385122537612915,0.0326298587024211,0.0,0.0,-0.6279602646827698,0.4195910692214966
-0.0738850608468055,1.1622254848480225,0.0185691677033901,-0.3126923739910126,-0.1363302171230316,0.0436407662928104,0.0,0.0,-0.9013131856918336,0.3453907966613769
-0.0736671462655067,1.1550636291503906,0.0190472342073917,-0.3180586099624634,-0.1335935890674591,0.0547322444617748,0.0,0.0,-0.8574495315551758,0.7670702934265137
