x_pos,y_pos,x_vel,y_vel,angle,ang_vel,leg_1,leg_2,main_booster,lat_booster
-0.0015283584361895,1.4029088020324707,-0.1548073589801788,-0.3560661375522613,0.0017670313827693,0.0348565727472305,0.0,0.0,0.9186910399660488,0.8759838747282913
-0.0029277801513671,1.395004153251648,-0.1400697827339172,-0.3513124287128448,0.0018939775181934,0.0025402011815458,0.0,0.0,0.9559719347627158,-0.6279786301501226
-0.0042137145064771,1.387096285820007,-0.1304749846458435,-0.3514614701271057,0.0037468296941369,0.0370603315532207,0.0,0.0,-0.344069484653102,-0.762887687255456
-0.0055773733183741,1.378469944000244,-0.1400640904903412,-0.3834167420864105,0.0074082240462303,0.0732344835996627,0.0,0.0,0.284385753055286,-0.8765365039254985
-0.0069048879668116,1.3698915243148804,-0.1383238732814788,-0.3812989592552185,0.012920469045639,0.110255017876625,0.0,0.0,0.5942940120172346,0.8550736495579111
-0.0080307004973292,1.3613864183425903,-0.1167062297463417,-0.3780432343482971,0.017000051215291,0.0815991982817649,0.0,0.0,0.3880560458270969,0.7907114077953185
-0.0091306688264012,1.352894306182861,-0.1125235110521316,-0.3774584829807281,0.0195002406835556,0.0500084571540355,0.0,0.0,-0.6850978602685904,-0.5442759839987488
-0.0102700237184762,1.3436870574951172,-0.1173044592142105,-0.4092597067356109,0.0228346455842256,0.0666943043470382,0.0,0.0,-0.2607165672609892,0.6827658964243387
-0.0113641740754246,1.3337733745574951,-0.1114826053380966,-0.4406432807445526,0.0248706545680761,0.0407238043844699,0.0,0.0,0.1061470597755172,0.8380956152115062
-0.0124129299074411,1.323880910873413,-0.1052891239523887,-0.4396785497665405,0.0252804644405841,0.0081969704478979,0.0,0.0,-0.2322559113069076,-0.7674970620549761
-0.0135213853791356,1.313270926475525,-0.1126299872994422,-0.4715858399868011,0.0270353630185127,0.0351014770567417,0.0,0.0,-0.2203122458457431,-0.9269750816800724
-0.0147027969360351,1.301940679550171,-0.1215946078300476,-0.5036299824714661,0.0304589718580245,0.068478412926197,0.0,0.0,-0.7316874868544196,-0.9950950123593564
-0.0159543994814157,1.2898972034454346,-0.1302364766597747,-0.5353770852088928,0.0354823023080825,0.100475825369358,0.0,0.0,0.399771195008854,-0.758768733957909
-0.0172199252992868,1.2775826454162598,-0.1333190500736236,-0.5474878549575806,0.0421755313873291,0.1338766068220138,0.0,0.0,0.6997359976617443,-0.6373002960870682
-0.0184242241084575,1.2658374309539795,-0.1289229691028595,-0.5222728252410889,0.0505871213972568,0.1682472378015518,0.0,0.0,-0.1469854830206967,-0.6031672146908009
-0.0196766853332519,1.2533670663833618,-0.1348104774951934,-0.5545830130577087,0.0600537024438381,0.1893484890460968,0.0,0.0,-0.5133824086398429,0.9527708855468447
-0.0208473205566406,1.240201473236084,-0.124349221587181,-0.5854458212852478,0.067274697124958,0.144432932138443,0.0,0.0,-0.2290712415984666,0.898048906973355
-0.0219401363283395,1.226321816444397,-0.1144305914640426,-0.617113471031189,0.072382353246212,0.1021625772118568,0.0,0.0,0.742293246762612,-0.6249179341018516
-0.0230436325073242,1.2130059003829956,-0.1171383410692215,-0.5921624302864075,0.079108789563179,0.13454070687294,0.0,0.0,-0.2451806667370799,0.9190087706631428
-0.0240949634462595,1.198981523513794,-0.1104143634438514,-0.6235978007316589,0.0843568220734596,0.1049700006842613,0.0,0.0,0.4755175469500627,-0.7906620730098972
-0.0251491554081439,1.185259461402893,-0.1126084178686142,-0.6102859973907471,0.0914906114339828,0.1426888108253479,0.0,0.0,-0.4157792513180309,-0.6518296717345091
-0.0262641906738281,1.170811653137207,-0.1200954765081405,-0.6426655650138855,0.1000197604298591,0.1705981194972992,0.0,0.0,0.8643942770319575,0.5347888155144958
-0.0272546764463186,1.1565951108932495,-0.107142224907875,-0.632402777671814,0.1080659925937652,0.160939410328865,0.0,0.0,-0.9868749715247156,0.5164126332258776
-0.0282105449587106,1.1416653394699097,-0.1026598066091537,-0.6640770435333252,0.1151051372289657,0.1407954096794128,0.0,0.0,-0.571759417511875,-0.9083429726578116
-0.0292658805847167,1.1260077953338623,-0.1150133460760116,-0.6966392397880554,0.1245318427681922,0.1885509639978408,0.0,0.0,-0.2732937256136303,0.5518728141994714
-0.0302982330322265,1.109623908996582,-0.1120277792215347,-0.7289398312568665,0.1332788169384002,0.1749398410320282,0.0,0.0,-0.5483127579177252,0.9934538471031912
-0.0312640182673931,1.0925469398498535,-0.1035239845514297,-0.7596094012260437,0.1401920765638351,0.1382653415203094,0.0,0.0,0.2682712335539938,-0.9044149019887918
-0.0325160026550293,1.0756665468215942,-0.134051576256752,-0.7511032819747925,0.1490118205547332,0.1763947904109954,0.0,0.0,0.4809521590101191,0.9243482052942036
-0.03394241258502,1.0590956211090088,-0.149661049246788,-0.7372058033943176,0.1560219675302505,0.1402035802602768,0.0,0.0,-0.2033545415946993,-0.5348522750652168
-0.0354233756661415,1.0417978763580322,-0.1563979685306549,-0.7696844339370728,0.1643334180116653,0.1662291437387466,0.0,0.0,0.3426451512961348,-0.632112429663719
-0.0370617881417274,1.024802803993225,-0.1736387461423874,-0.7564483284950256,0.1741385012865066,0.1961013376712799,0.0,0.0,-0.8903673887252808,0.9695982933044434
-0.0386454574763774,1.0071053504943848,-0.1666636615991592,-0.7875524759292603,0.1824641525745391,0.1665132343769073,0.0,0.0,-0.6348222494125366,0.9489171504974364
-0.04017810896039,0.9887197613716124,-0.1601310819387436,-0.8180021047592163,0.1893594563007354,0.1379061192274093,0.0,0.0,-0.0609655976295471,0.9910428524017334
-0.0416522994637489,0.9696301817893982,-0.1527402698993683,-0.849112331867218,0.1947083622217178,0.1069782599806785,0.0,0.0,0.2019864320755005,0.99931538105011
-0.0431352630257606,0.950526237487793,-0.1518578678369522,-0.8495341539382935,0.1982838809490203,0.0715107098221778,0.0,0.0,0.710299015045166,0.9993948936462402
-0.0446867942810058,0.931895673274994,-0.1569665223360061,-0.8282725811004639,0.200115367770195,0.0366297252476215,0.0,0.0,0.9251260757446288,0.9568755626678468
-0.0463134758174419,0.9133375287055968,-0.1627711355686187,-0.8248226046562195,0.2002204358577728,0.0021012208890169,0.0,0.0,0.9520912170410156,0.9999291896820068
-0.0480048172175884,0.8954324126243591,-0.1675842255353927,-0.795574426651001,0.1986501067876815,-0.0314066335558891,0.0,0.0,0.7510578632354736,0.9962890148162842
-0.0498538985848426,0.8781458139419556,-0.1815548092126846,-0.7678505778312683,0.1952741742134094,-0.0675183683633804,0.0,0.0,0.0979218482971191,0.9997646808624268
-0.0516930595040321,0.8607693910598755,-0.1788245141506195,-0.7716192007064819,0.1901555508375167,-0.1023725122213363,0.0,0.0,-0.5552889704704285,0.9963641166687012
-0.0534806251525878,0.8427050113677979,-0.1722995489835739,-0.8020473718643188,0.1836665570735931,-0.1297794431447982,0.0,0.0,-0.209160566329956,0.9936819076538086
-0.055185604840517,0.8239499926567078,-0.1619373112916946,-0.8325196504592896,0.1750649511814117,-0.1720320284366607,0.0,0.0,-0.6634144186973572,0.9930049180984496
-0.0568103790283203,0.8044942021369934,-0.151878997683525,-0.863494873046875,0.1644534021615982,-0.2122310698032379,0.0,0.0,0.8549423217773438,0.8244194984436035
-0.0583578124642372,0.785247266292572,-0.143018901348114,-0.8541616797447205,0.1527368128299713,-0.2343319952487945,0.0,0.0,0.3676116466522217,0.9919488430023192
-0.0599123947322368,0.7656461000442505,-0.1420189589262008,-0.8698386549949646,0.1393284350633621,-0.2681680023670196,0.0,0.0,-0.3512210845947265,0.8678274154663086
-0.0614030845463275,0.7453389763832092,-0.1340557038784027,-0.9012019634246826,0.1243720352649688,-0.299127995967865,0.0,0.0,0.8773560523986816,-0.5447090864181519
-0.0629361122846603,0.7250779271125793,-0.1398822963237762,-0.899432361125946,0.111035518348217,-0.2667298913002014,0.0,0.0,0.3496034145355224,0.8645598888397217
-0.0645907372236251,0.705122709274292,-0.1505190730094909,-0.885857343673706,0.0961939319968223,-0.2968315780162811,0.0,0.0,0.3170909881591797,0.836819052696228
-0.0663695335388183,0.6853929758071899,-0.1614282727241516,-0.8759022355079651,0.0798918157815933,-0.3260424435138702,0.0,0.0,-0.2192645668983459,0.6194542646408081
-0.0681101828813552,0.6649552583694458,-0.1567224711179733,-0.907504141330719,0.0627370402216911,-0.343095600605011,0.0,0.0,0.9973145723342896,0.0776448249816894
-0.0697296112775802,0.6448554396629333,-0.1457455605268478,-0.8927203416824341,0.0467269234359264,-0.3202023804187774,0.0,0.0,0.9742722511291504,-0.7617236971855164
-0.071533203125,0.6253575682640076,-0.1658641397953033,-0.8661686182022095,0.0324054136872291,-0.2864300608634949,0.0,0.0,0.9568500518798828,0.1648188829421997
-0.0732322707772255,0.6059426665306091,-0.1563677489757537,-0.8626481294631958,0.0190347768366336,-0.2674128711223602,0.0,0.0,0.6906894445419312,-0.5880346298217773
-0.0749973282217979,0.587042510509491,-0.1645215302705764,-0.839896023273468,0.0071982941590249,-0.2367296665906906,0.0,0.0,0.886995792388916,0.7076601982116699
-0.0765334144234657,0.5682637691497803,-0.1409982740879058,-0.8345960378646851,-0.0052459859289228,-0.2488855868577957,0.0,0.0,0.9683797359466552,0.5635640621185303
-0.0781493186950683,0.5496116876602173,-0.1478717923164367,-0.8290873765945435,-0.0187954697757959,-0.2709895074367523,0.0,0.0,0.8321754932403564,0.1329027414321899
-0.0796504989266395,0.5315684676170349,-0.1372571885585785,-0.8021284341812134,-0.0314945578575134,-0.2539817690849304,0.0,0.0,-0.3183507919311523,-0.045628011226654
-0.0811573043465614,0.5128113627433777,-0.1381990611553192,-0.8339550495147705,-0.0438220873475074,-0.2465505897998809,0.0,0.0,0.9961059093475342,-0.5505605936050415
-0.0825733169913292,0.4948329627513885,-0.1309045553207397,-0.7993872761726379,-0.0543969944119453,-0.2114978730678558,0.0,0.0,0.9514110088348388,-0.2031101584434509
-0.0840332061052322,0.4775373637676239,-0.1352635622024536,-0.7691144943237305,-0.0650102794170379,-0.2122658789157867,0.0,0.0,0.884160041809082,0.4244128465652466
-0.0854115486145019,0.4601534903049469,-0.1277610659599304,-0.7730818390846252,-0.0749729201197624,-0.1992530226707458,0.0,0.0,0.7703456878662109,0.3552520275115967
-0.0868441611528396,0.4431911408901214,-0.1330829411745071,-0.7544236779212952,-0.0850494354963302,-0.2015304118394851,0.0,0.0,0.7461197376251221,0.5794088840484619
-0.0880480781197547,0.426305741071701,-0.109825387597084,-0.7510977983474731,-0.0955282226204872,-0.2095757275819778,0.0,0.0,0.9744887351989746,-0.7469843626022339
-0.089212991297245,0.4098042249679565,-0.1078773364424705,-0.7339732050895691,-0.1040579453110694,-0.1705944389104843,0.0,0.0,0.9637455940246582,-0.8080264329910278
-0.0903838127851486,0.393300324678421,-0.1105275154113769,-0.7339754700660706,-0.1105667948722839,-0.1301773637533188,0.0,0.0,0.9940221309661864,-0.7162222862243652
-0.0916933044791221,0.3771803975105285,-0.1258268505334854,-0.7168287634849548,-0.1156526878476142,-0.1017178669571876,0.0,0.0,0.9305579662322998,-0.2596664428710937
-0.0928627997636795,0.3618299961090088,-0.112341895699501,-0.6826022267341614,-0.1202295944094657,-0.0915380269289016,0.0,0.0,0.9791097640991212,-0.4841731786727905
-0.09389229118824,0.3462674617767334,-0.0991987138986587,-0.6919773817062378,-0.1239573210477829,-0.0745547711849212,0.0,0.0,0.991217851638794,-0.685180127620697
-0.0948118194937706,0.3315314054489136,-0.0900698006153106,-0.6550930142402649,-0.1258288323879242,-0.037430502474308,0.0,0.0,0.8997056484222412,-0.6690475344657898
-0.0958295837044715,0.3169178962707519,-0.1013355478644371,-0.6495274305343628,-0.1262610256671905,-0.0086438450962305,0.0,0.0,0.9908239841461182,-0.6971569061279297
-0.0969144850969314,0.3028377294540405,-0.1095566153526306,-0.6256915926933289,-0.1252021044492721,0.0211782604455947,0.0,0.0,0.9811835289001464,0.0006043910980224
-0.097866341471672,0.2891449928283691,-0.0968138873577117,-0.6084304451942444,-0.1235746964812278,0.0325481928884983,0.0,0.0,0.7768501043319702,0.0202115774154663
-0.0988394767045974,0.2761133909225464,-0.0987089797854423,-0.579065203666687,-0.1221899017691612,0.0276958886533975,0.0,0.0,0.5434463024139404,0.4054067134857178
-0.0996737480163574,0.2631561160087585,-0.0855461508035659,-0.575709879398346,-0.1200891137123107,0.0420156419277191,0.0,0.0,0.8963431119918823,0.0154296159744262
-0.1004869490861892,0.2501578330993652,-0.0836555808782577,-0.5775147676467896,-0.1177688241004943,0.0464057326316833,0.0,0.0,0.9658697843551636,0.7215104103088379
-0.1011054068803787,0.2369863390922546,-0.0633344501256942,-0.5852833986282349,-0.1162817552685737,0.0297416485846042,0.0,0.0,0.9033586978912354,0.6557822227478027
-0.101658821105957,0.2236723452806472,-0.0558230653405189,-0.5916981101036072,-0.1158078089356422,0.0094787552952766,0.0,0.0,0.9983470439910888,0.0985143184661865
-0.1021031364798545,0.2110730558633804,-0.0452659763395786,-0.559902012348175,-0.1149832382798194,0.0164915136992931,0.0,0.0,0.972408413887024,0.6175674200057983
-0.1022761315107345,0.1991887837648391,-0.0175800509750843,-0.5281694531440735,-0.114713542163372,0.0053942054510116,0.0,0.0,0.994849681854248,-0.0524374842643737
-0.1024608612060546,0.1880819350481033,-0.0185120049864053,-0.493634968996048,-0.1146746799349784,0.000777268433012,0.0,0.0,0.8162946701049805,0.5548999309539795
-0.1027006134390831,0.1768141537904739,-0.0228729434311389,-0.5008775591850281,-0.1157706975936889,-0.0219201724976301,0.0,0.0,0.966589093208313,-0.2360540032386779
-0.1027722358703613,0.1662235110998153,-0.006682370789349,-0.4707302153110504,-0.1162510737776756,-0.0096074566245079,0.0,0.0,0.946767807006836,-0.3184195756912231
-0.1028713211417198,0.1559476405382156,-0.0092594251036643,-0.4567563235759735,-0.1168916523456573,-0.0128116924315691,0.0,0.0,0.8762339353561401,0.3693866729736328
-0.1029290184378624,0.1461130231618881,-0.005228191614151,-0.4371384382247925,-0.1174298152327537,-0.0107633285224437,0.0,0.0,0.9028823375701904,-0.4299294948577881
-0.1028917282819747,0.1367641240358352,0.0039365128614008,-0.4155229032039642,-0.1176431998610496,-0.0042674993164837,0.0,0.0,0.7006533145904541,-0.516291618347168
-0.1027147322893142,0.1275814622640609,0.0162252373993396,-0.4080056846141815,-0.1161737218499183,0.029389414936304,0.0,0.0,0.8458772897720337,-0.6982744932174683
-0.1025044471025466,0.1182499527931213,0.017695777118206,-0.4144759476184845,-0.1128618419170379,0.0662376508116722,0.0,0.0,0.8433918952941895,-0.1878689527511596
-0.1021240204572677,0.1088544204831123,0.0338400825858116,-0.4172682464122772,-0.1086895614862442,0.0834456160664558,0.0,0.0,0.9624381065368652,0.5199569463729858
-0.1014279350638389,0.0997173190116882,0.0655064135789871,-0.4058026373386383,-0.1046207174658775,0.0813769027590751,0.0,0.0,0.977794885635376,-0.4865416288375854
-0.1004983931779861,0.0905423015356063,0.0876980274915695,-0.4074188768863678,-0.0994040742516517,0.1043329834938049,0.0,0.0,0.9629346132278442,-0.4512361288070678
-0.0994679480791091,0.0819846242666244,0.0974381789565086,-0.3799773752689361,-0.0938459336757659,0.111162818968296,0.0,0.0,0.9858114719390868,0.4706627130508423
-0.0982954055070877,0.0740676000714302,0.1111077293753624,-0.3514966964721679,-0.0877466052770614,0.1219861283898353,0.0,0.0,0.6902060508728027,0.0209749937057495
-0.0969157218933105,0.0664378255605697,0.1308547258377075,-0.3386997878551483,-0.0806926265358924,0.1410795152187347,0.0,0.0,0.762163519859314,0.3598388433456421
-0.0953795462846756,0.0586001984775066,0.1456204056739807,-0.3479303419589996,-0.0727797746658325,0.158256709575653,0.0,0.0,0.9475609064102172,0.1811470985412597
-0.0938398391008377,0.0509520396590232,0.1459066569805145,-0.3395474553108215,-0.0647965520620346,0.1596644818782806,0.0,0.0,0.9234561920166016,0.2768218517303467
-0.0921143516898155,0.044082723557949,0.163660854101181,-0.304946094751358,-0.0560053326189518,0.1758241057395935,0.0,0.0,0.9148736000061036,0.1258509159088134
-0.0903559699654579,0.0374884940683841,0.1667228192090988,-0.2927615940570831,-0.0469919480383396,0.1802676767110824,0.0,0.0,0.9803466796875,-0.7365190982818604
-0.0887482613325119,0.0316303335130214,0.1502116918563842,-0.260061651468277,-0.036557350307703,0.208692118525505,0.0,0.0,0.8444722890853882,-0.0011069774627685
-0.0869908332824707,0.0262203551828861,0.1643789559602737,-0.2402049601078033,-0.0253372248262166,0.2244024574756622,0.0,0.0,0.8074816465377808,-0.8422964811325073
-0.0853191390633583,0.0213383063673973,0.1539055705070495,-0.2168063223361969,-0.0122334463521838,0.2620754837989807,0.0,0.0,0.93436861038208,-0.1227964162826538
-0.0837083831429481,0.0170594304800033,0.1479232311248779,-0.1901161819696426,0.0007455982849933,0.2595811486244201,0.0,0.0,0.8260180950164795,-0.6073357462882996
-0.0821500793099403,0.0128907775506377,0.1412111520767212,-0.1853465586900711,0.01517148129642,0.2885176539421081,0.0,0.0,0.8770513534545898,0.1940515041351318
-0.0807088837027549,0.0090307928621768,0.1298223584890365,-0.1717597693204879,0.0292932502925395,0.2824352979660034,0.0,0.0,0.9058210849761964,0.6364753246307373
-0.0793948173522949,0.0053559518419206,0.118584431707859,-0.1636243313550949,0.0419636853039264,0.253408819437027,0.0,0.0,0.9251148700714112,0.7466696500778198
-0.0778964981436729,0.0022389029618352,0.1378990560770034,-0.1389095485210418,0.0537502951920032,0.2357321977615356,0.0,1.0,0.6226716041564941,0.7699363231658936
-0.07642612606287,-0.0006599926855415,0.1487610936164856,-0.1290013939142227,0.0509897917509079,-0.0565529577434062,0.0,1.0,0.0754283666610717,0.5920698642730713
-0.0750326141715049,-0.0030687593389302,0.1593753397464752,-0.1064991056919097,0.0311661157757043,-0.3965135216712951,0.0,1.0,0.1454524993896484,-0.4025793075561523
-0.0738052353262901,-0.0050656106323003,0.154115229845047,-0.0884044244885444,0.0001450891577405,-0.6204872727394104,1.0,1.0,0.2349030971527099,-0.9905101656913756
-0.0725262612104415,-0.0060688280500471,0.1477630734443664,-0.0450590886175632,-0.018120065331459,-0.3635990619659424,1.0,1.0,0.5895702838897705,-0.9676397442817688
-0.0711654648184776,-0.0061274790205061,0.1395276933908462,-0.0026594253722578,-0.0215122997760772,-0.0678245946764946,1.0,1.0,-0.3120753169059753,-0.97512549161911
-0.0699060410261154,-0.0059691215865314,0.1211151480674743,0.0070937643758952,-0.0167375914752483,0.0955030843615531,1.0,1.0,-0.503841757774353,-0.9715312123298644
-0.0688158050179481,-0.005535855423659,0.103481113910675,0.0193023309111595,-0.0112680625170469,0.1093904376029968,1.0,1.0,-0.6897430419921875,-0.9890836477279664
-0.0679287910461425,-0.0048307920806109,0.0860063284635543,0.0313496477901935,-0.0086019756272435,0.0533257611095905,1.0,1.0,-0.6222195029258728,-0.9687579870224
-0.0672677978873252,-0.0038794660940766,0.0658247768878936,0.0422815643250942,-0.0083177303895354,0.0056924792006611,1.0,1.0,-0.7243617177009583,-0.986792802810669
-0.066779613494873,-0.0027691388968378,0.0491676554083824,0.0493507534265518,-0.0086680343374609,-0.0070050656795501,1.0,1.0,-0.8008831143379211,-0.98292738199234
-0.0663920417428016,-0.0015977644361555,0.0388379096984863,0.0520609617233276,-0.0087444717064499,-0.0015216004103422,1.0,1.0,-0.633415162563324,-0.8739238977432251
-0.066008374094963,-0.0007179641979746,0.0316707901656627,0.039125982671976,-0.0021257596090435,0.1323767155408859,1.0,1.0,-0.9052226543426514,0.567659854888916
-0.0656155571341514,-0.0005052828928455,0.0376069396734237,0.0094530386850237,-0.0004715183749794,0.0330823063850402,1.0,1.0,-0.7143160104751587,-0.6759293675422668
-0.0653390884399414,-0.00050821545301,0.0276470128446817,-0.000130228625494,-0.0004730978689622,-3.232020026189275e-05,1.0,1.0,-0.5528185367584229,-0.1248264908790588
-0.0651302337646484,-0.0005097174434922,0.0208851154893636,-6.712638423778117e-05,-0.0004738805582746,-1.667579635977745e-05,1.0,1.0,-0.4662621021270752,-0.1860365271568298
-0.0649889931082725,-0.0005097174434922,0.0141219841316342,-4.8421384235552984e-08,-0.0004738141433335,2.768356388571647e-08,1.0,1.0,-0.7342467308044434,-0.2343787550926208
