x_pos,y_pos,x_vel,y_vel,angle,ang_vel,leg_1,leg_2,main_booster,lat_booster
-0.001589298248291,1.4033451080322266,-0.1609736680984497,-0.336665004491806,0.0018222306389361,0.0359495989978313,0.0,0.0,0.0676944202618452,-0.627485089348913
-0.003258514450863,1.3959580659866333,-0.1700292527675628,-0.3283173739910126,0.0049071912653744,0.0617056004703044,0.0,0.0,-0.6660864904987347,-0.9669499302342836
-0.0050557134672999,1.3882839679718018,-0.1843608766794204,-0.3410961031913757,0.0095009375363588,0.0918833240866661,0.0,0.0,0.0887336009822428,0.6916468390982335
-0.0069609642960131,1.380821704864502,-0.1937123239040374,-0.3316776156425476,0.012647807598114,0.062943048775196,0.0,0.0,-0.1031286980486587,0.7651961838406715
-0.0088645936921238,1.3730838298797607,-0.1917226314544677,-0.3439130187034607,0.0139952674508094,0.0269516594707965,0.0,0.0,-0.6258536937080603,-0.8009504535532959
-0.0108892442658543,1.3650647401809692,-0.2051199972629547,-0.3564337790012359,0.0166143886744976,0.052387423813343,0.0,0.0,0.4657320919133518,-0.6160301319608188
-0.0130664827302098,1.3575330972671509,-0.2216008156538009,-0.3347896039485931,0.0204575974494218,0.076871320605278,0.0,0.0,0.5043994706369306,0.9995895910901094
-0.0150960925966501,1.3506157398223877,-0.2050799876451492,-0.3074714243412018,0.0225443877279758,0.0417398400604724,0.0,0.0,0.3748298880505447,-0.8272118935172696
-0.0172937400639057,1.344469666481018,-0.2235898077487945,-0.2732182443141937,0.0263304151594638,0.0757274851202964,0.0,0.0,-0.7319196939010941,0.9937612736282152
-0.0194899551570415,1.3380534648895264,-0.2215457260608673,-0.2851915061473846,0.0282345600426197,0.0380863957107067,0.0,0.0,0.5853410558179066,-0.7623713732886128
-0.0217485427856445,1.3322155475616455,-0.2295838147401809,-0.2595378458499908,0.0319246090948581,0.0738073661923408,0.0,0.0,-0.591701220678359,-0.6524586866980568
-0.0241308212280273,1.3260949850082395,-0.2432194650173187,-0.2721418738365173,0.0368640199303627,0.0987973064184188,0.0,0.0,-0.8669448335717895,-0.8206497061643002
-0.0266429893672466,1.319697022438049,-0.2576296925544739,-0.2845256626605987,0.0431989468634128,0.1267103552818298,0.0,0.0,0.7346964548586772,0.6298222994523603
-0.0291234962642192,1.313581466674805,-0.2535168528556824,-0.2719694375991821,0.0486161112785339,0.108353279531002,0.0,0.0,-0.7491824448604416,-0.918552716605476
-0.031740378588438,1.3071926832199097,-0.2687139809131622,-0.2841953933238983,0.0555734150111675,0.1391587108373642,0.0,0.0,-0.6980628834342089,-0.6805497907855975
-0.0344820991158485,1.3005136251449585,-0.2824826836585998,-0.297171950340271,0.06379434466362,0.1644335985183715,0.0,0.0,-0.4600917242816191,0.6688636543337704
-0.03724155575037,1.2935701608657837,-0.2827647030353546,-0.3089020550251007,0.070550799369812,0.1351411640644073,0.0,0.0,-0.7180335367776651,-0.7021535924352198
-0.0401253700256347,1.2863378524780271,-0.296469897031784,-0.3218364715576172,0.0785588920116424,0.160176619887352,0.0,0.0,0.1190763240090748,0.713629644496032
-0.0430046096444129,1.2796624898910522,-0.2948397397994995,-0.2970651686191559,0.0854210406541824,0.1372554451227188,0.0,0.0,0.5859162095582393,0.9356557553894664
-0.0460269935429096,1.2735180854797363,-0.307377427816391,-0.2733874320983886,0.0905201733112335,0.1019919067621231,0.0,0.0,0.2903360365745286,0.9003880342035804
-0.0490016937255859,1.2680038213729858,-0.3011058866977691,-0.2453062087297439,0.0941356122493743,0.0723153501749038,0.0,0.0,0.9517893116385234,-0.602087170129242
-0.0521421432495117,1.2629830837249756,-0.3191738724708557,-0.2234693169593811,0.0992313623428344,0.1019239276647567,0.0,0.0,0.9415455795641678,-0.7166141941077349
-0.0553229339420795,1.2586541175842283,-0.3253026902675628,-0.1928968727588653,0.1064090654253959,0.1435670554637909,0.0,0.0,0.4589507580612979,0.7601347323341456
-0.0584893226623535,1.254469871520996,-0.3227171003818512,-0.1864116787910461,0.1124510765075683,0.1208511218428611,0.0,0.0,0.3061759431733608,-0.8293737749913265
-0.0619903579354286,0.0,-0.3579914569854736,-0.1665859818458557,0.1202984973788261,0.1569623500108719,0.0,0.0,-0.3545843701211548,-0.7364422916969257
-0.0656472221016883,1.246692776679993,-0.3757127523422241,-0.1805132776498794,0.1302656680345535,0.1993432343006134,0.0,0.0,-0.8287152165875422,0.6695969025441496
-0.0693372711539268,1.242387056350708,-0.3779694437980652,-0.1921739429235458,0.1391949504613876,0.1785860359668731,0.0,0.0,0.5930900631381595,-0.8588900394172125
-0.0734310150146484,1.2389516830444336,-0.420149952173233,-0.153735414147377,0.149949699640274,0.2150948792695999,0.0,0.0,0.3630640777642937,-0.741785785069637
-0.0778837203979492,0.0,-0.4576751291751861,-0.1256808936595916,0.162345603108406,0.247917965054512,0.0,0.0,0.8327748418178083,0.9904172294490918
-0.0824578255414962,1.2338874340057373,-0.4681314826011657,-0.1019057855010032,0.1730725616216659,0.2145394384860992,0.0,0.0,0.5782092688540228,-0.6089538600700608
-0.0872864723205566,1.2325392961502075,-0.4951801300048828,-0.0613982565701007,0.1854245364665985,0.2470398396253585,0.0,0.0,-0.023401820658861,-0.7560849388683504
-0.092267133295536,1.2308920621871948,-0.5124254822731018,-0.0750644281506538,0.1998697072267532,0.2889034152030945,0.0,0.0,0.3213834614341189,-0.8741524868731743
-0.0976041778922081,1.229877471923828,-0.5500804781913757,-0.0473909527063369,0.2163909971714019,0.3304254710674286,0.0,0.0,-0.0599878565770941,0.832691762211948
-0.1029689759016037,1.2285996675491333,-0.5517306327819824,-0.0591032654047012,0.2318223267793655,0.3086267411708832,0.0,0.0,0.0091118356205996,-0.8104394467101771
-0.1085593253374099,1.2275903224945068,-0.5762432217597961,-0.0476678945124149,0.2493037581443786,0.3496288657188415,0.0,0.0,-0.7136694749880639,-0.8397085976709506
-0.1142994910478591,1.2262896299362185,-0.5931676626205444,-0.0611738078296184,0.2688530087471008,0.3909847736358642,0.0,0.0,0.5717800386900218,0.8039970504363034
-0.1202060729265213,1.2253525257110596,-0.6085048913955688,-0.0450322218239307,0.2871726155281067,0.366392433643341,0.0,0.0,0.3135222038531404,-0.927223548120945
-0.1264083832502365,1.2250040769577026,-0.6402568221092224,-0.0195691119879484,0.3078406453132629,0.4133602678775787,0.0,0.0,0.4370106946597685,-0.7416666999569159
-0.1330128610134124,1.225395679473877,-0.6821699738502502,0.0126392049714922,0.3304138779640198,0.4514643549919128,0.0,0.0,-0.748666164985438,-0.9368113861348192
-0.1397707015275955,1.2254841327667236,-0.6995207071304321,-0.0016957016196101,0.3552843928337097,0.4974099993705749,0.0,0.0,-0.1846491524008224,-0.8045361136920248
-0.1466868370771408,1.225271463394165,-0.7174091339111328,-0.0160714816302061,0.3825747966766357,0.5458081960678101,0.0,0.0,-0.7736794352531433,0.9997882843017578
-0.1536012589931488,1.2248413562774658,-0.7151211500167847,-0.0256713852286338,0.4078781604766845,0.506067156791687,0.0,0.0,-0.8908642530441284,0.9976840019226074
-0.1605155915021896,1.2241860628128052,-0.7131089568138123,-0.0355553962290287,0.431300401687622,0.4684451520442962,0.0,0.0,-0.9684756994247437,0.999931573867798
-0.1674320250749588,1.223315715789795,-0.7113529443740845,-0.0448836497962474,0.4528161883354187,0.4303162097930908,0.0,0.0,-0.9194170832633972,0.9929553270339966
-0.174364760518074,1.2222113609313965,-0.7115185856819153,-0.0551367923617363,0.4729378521442413,0.4024331569671631,0.0,0.0,-0.922014594078064,0.9990338087081908
-0.1813038885593414,1.220883846282959,-0.7104376554489136,-0.0647571235895156,0.4913515448570251,0.3682736158370971,0.0,0.0,-0.980287492275238,0.9958343505859376
-0.1882492005825042,1.2193399667739868,-0.7093511819839478,-0.0739997997879982,0.5080054998397827,0.3330778479576111,0.0,0.0,-0.995375156402588,0.999880313873291
-0.1952256262302398,1.2175788879394531,-0.7112806439399719,-0.0834146663546562,0.5234740376472473,0.3093703389167785,0.0,0.0,-0.977725625038147,0.9948389530181884
-0.2022348344326019,1.2155976295471191,-0.7134829759597778,-0.0929584130644798,0.5378419160842896,0.2873581349849701,0.0,0.0,-0.9876126050949096,0.9991987943649292
-0.2092598974704742,1.2133983373641968,-0.7136795520782471,-0.102245382964611,0.5507293939590454,0.2577495574951172,0.0,0.0,-0.9958000779151917,0.9918030500411988
-0.2162837535142898,1.2110002040863037,-0.7117222547531128,-0.1104432493448257,0.5615707635879517,0.2168279588222503,0.0,0.0,-0.9405553936958312,0.9975043535232544
-0.2233301699161529,1.2083897590637207,-0.7127488851547241,-0.1194531396031379,0.5710521340370178,0.1896279752254486,0.0,0.0,-0.9933862686157228,0.9996408224105836
-0.2303756773471832,1.205574870109558,-0.7109688520431519,-0.127872958779335,0.5785984396934509,0.1509263217449188,0.0,0.0,-0.9945452213287354,0.996656894683838
-0.2374367713928222,1.2025572061538696,-0.7111734747886658,-0.1363394856452942,0.5845716595649719,0.1194640398025512,0.0,0.0,-0.989970862865448,0.9710891246795654
-0.2444943487644195,1.1993398666381836,-0.7091084718704224,-0.1444839984178543,0.5885461568832397,0.0794903934001922,0.0,0.0,-0.9928869605064392,0.9990617036819458
-0.2515710294246673,1.195898413658142,-0.7100037336349487,-0.1539953649044037,0.5913241505622864,0.0555594488978385,0.0,0.0,-0.995141625404358,0.9973034858703612
-0.2586507201194763,1.1922647953033447,-0.7087196111679077,-0.1618340611457824,0.5922144055366516,0.0178045351058244,0.0,0.0,-0.8398911952972412,0.9750170707702636
-0.2657273411750793,1.188437581062317,-0.7067502737045288,-0.1696913540363311,0.5911322236061096,-0.0216435138136148,0.0,0.0,-0.9837417006492616,0.9944865703582764
-0.2728069722652435,1.1844167709350586,-0.7055389881134033,-0.1776213943958282,0.588245689868927,-0.0577292963862419,0.0,0.0,-0.9799168705940248,0.9711170196533204
-0.2799049019813537,1.180183172225952,-0.7063317894935608,-0.1866270005702972,0.5841435790061951,-0.0820422768592834,0.0,0.0,-0.9657156467437744,0.9937334060668944
-0.2869979739189148,1.175737380981445,-0.7044164538383484,-0.1954461634159088,0.5783661007881165,-0.1155493408441543,0.0,0.0,-0.9485982656478882,0.9852787256240844
-0.2941062450408935,1.1710739135742188,-0.7049450874328613,-0.2047214657068252,0.5714485049247742,-0.138352170586586,0.0,0.0,-0.9757986664772034,0.9920188188552856
-0.3012003898620605,1.1662099361419678,-0.7018600702285767,-0.2129716128110885,0.5626075863838196,-0.1768181174993515,0.0,0.0,-0.9355655312538148,0.969675064086914
-0.3082919716835022,1.161136031150818,-0.7002521753311157,-0.2217993438243866,0.552246630191803,-0.2072190344333648,0.0,0.0,-0.9947108030319214,0.9794247150421144
-0.3153764605522156,1.1558433771133425,-0.6982170343399048,-0.2310708165168762,0.5404203534126282,-0.2365250140428543,0.0,0.0,-0.9779424667358398,0.9763638973236084
-0.3224686086177826,1.150324821472168,-0.698025643825531,-0.2408535778522491,0.5275846719741821,-0.2567139863967895,0.0,0.0,-0.9220552444458008,0.9703192710876464
-0.3295541405677795,1.1446021795272827,-0.6959465742111206,-0.2495151907205581,0.5132426619529724,-0.2868401110172272,0.0,0.0,-0.94868004322052,0.9496078491210938
-0.3366171717643738,1.1386594772338867,-0.6921664476394653,-0.2588963806629181,0.4972812235355377,-0.3192286789417267,0.0,0.0,-0.8183583617210388,0.8443379402160645
-0.3436753749847412,1.132502555847168,-0.6904469728469849,-0.2681809961795807,0.4800918400287628,-0.3437878489494324,0.0,0.0,-0.9316408634185792,0.7053966522216797
-0.3507409989833832,1.1261035203933716,-0.6905168294906616,-0.2789399325847626,0.4623046219348907,-0.355744332075119,0.0,0.0,-0.9264279007911682,0.5169346332550049
-0.3578235208988189,1.1194576025009155,-0.6918120384216309,-0.2900193333625793,0.44424569606781,-0.3611784279346466,0.0,0.0,-0.6265419721603394,0.4485816955566406
-0.3649498522281647,1.112539768218994,-0.6966451406478882,-0.302480012178421,0.4268354475498199,-0.3482047915458679,0.0,0.0,-0.8108009696006775,0.0168008804321289
-0.3721166253089905,1.1053500175476074,-0.701167643070221,-0.314938336610794,0.4100736081600189,-0.3352374136447906,0.0,0.0,-0.94977468252182,0.7499635219573975
-0.3792600035667419,1.097927451133728,-0.6976931691169739,-0.3251710832118988,0.3922156989574432,-0.3571587800979614,0.0,0.0,-0.7273508906364441,0.2895861864089966
-0.3864371180534363,1.0902328491210938,-0.7015460729598999,-0.3376291990280151,0.3750044703483581,-0.3442246615886688,0.0,0.0,-0.5438634753227234,0.7668368816375732
-0.3935798704624176,1.082295060157776,-0.6969538927078247,-0.3483493030071258,0.3566911518573761,-0.366267055273056,0.0,0.0,-0.0921109318733215,0.0433802604675293
-0.4007489085197449,1.0740852355957031,-0.7000788450241089,-0.3608071506023407,0.3390212953090668,-0.3533969521522522,0.0,0.0,0.3105266094207763,-0.1358515620231628
-0.4081557393074035,1.0664894580841064,-0.7243397831916809,-0.3338439762592315,0.3219619989395141,-0.3411861956119537,0.0,0.0,-0.4308528900146484,0.1751675605773925
-0.4155807495117187,1.0586206912994385,-0.7266853451728821,-0.3462967872619629,0.3055413365364074,-0.3284129500389099,0.0,0.0,-0.5776432156562805,-0.4954972863197326
-0.4230197966098785,1.0504783391952517,-0.7286227941513062,-0.3587470948696136,0.2897563576698303,-0.3156994581222534,0.0,0.0,0.0250492095947265,-0.2117936611175537
-0.4306043088436126,1.042323350906372,-0.7433446645736694,-0.3595230877399444,0.274232417345047,-0.3104788064956665,0.0,0.0,0.3935856819152832,0.5032832622528076
-0.4383021295070648,1.0348926782608032,-0.7543119192123413,-0.3274364471435547,0.2584016025066376,-0.3166169822216034,0.0,0.0,0.1614851951599121,0.3237951993942261
-0.4461732506752014,1.0277472734451294,-0.7718654870986938,-0.3149619102478027,0.2428658455610275,-0.3107147812843323,0.0,0.0,-0.0396556854248046,-0.4465106129646301
-0.4540409445762634,1.0203275680541992,-0.7720738649368286,-0.3274068534374237,0.2279502749443054,-0.2983112931251526,0.0,0.0,0.4920219182968139,0.0650826692581176
-0.4620538353919983,1.0135523080825806,-0.7871058583259583,-0.2989932000637054,0.213600143790245,-0.2870030403137207,0.0,0.0,0.2024902105331421,0.3224097490310669
-0.4700818657875061,1.0071429014205933,-0.7894784212112427,-0.2829895913600921,0.2001537531614303,-0.2689273953437805,0.0,0.0,0.2197099924087524,0.5719962120056152
-0.4780791401863098,1.0008436441421509,-0.7858632206916809,-0.2781580686569214,0.1862024664878845,-0.2790257632732391,0.0,0.0,0.6364123821258545,0.716484546661377
-0.485973596572876,0.9948953986167908,-0.7749084234237671,-0.2626028656959533,0.1716193854808807,-0.2916612029075622,0.0,0.0,0.8300977945327759,0.817908525466919
-0.4937102198600769,0.9896693229675292,-0.7583963871002197,-0.2305806279182434,0.1563436090946197,-0.3055154681205749,0.0,0.0,0.6957849264144897,0.4815371036529541
-0.5013380646705627,0.9848012924194336,-0.7487363815307617,-0.2149462699890136,0.142316073179245,-0.280550479888916,0.0,0.0,0.8362665176391602,0.7362923622131348
-0.508999228477478,0.9809137582778932,-0.7511231899261475,-0.1714144200086593,0.1273781210184097,-0.2987589836120605,0.0,0.0,0.805610179901123,0.7859883308410645
-0.5166288614273071,0.9780095219612122,-0.7470053434371948,-0.1278006583452224,0.1115159764885902,-0.3172430396080017,0.0,0.0,0.3640378713607788,0.4972591400146484
-0.5241743326187134,0.9756678938865662,-0.7396125197410583,-0.1030241101980209,0.0966944396495819,-0.296430766582489,0.0,0.0,0.3921865224838257,0.9406118392944336
-0.5315272808074951,0.9734765291213988,-0.7190974354743958,-0.0964214652776718,0.0806374102830886,-0.321140855550766,0.0,0.0,0.5084152221679688,0.4711724519729614
-0.5389143228530884,0.9716991186141968,-0.722810685634613,-0.0782097652554512,0.064907468855381,-0.3145985603332519,0.0,0.0,0.2608625888824463,0.8637089729309082
-0.5461472272872925,0.9706562757492064,-0.7062458395957947,-0.0456945300102233,0.0480529703199863,-0.3370901048183441,0.0,0.0,0.682349443435669,0.9384511709213256
-0.5533016920089722,0.970210075378418,-0.6969965696334839,-0.0193416867405176,0.0298250075429677,-0.3645593523979187,0.0,0.0,0.2792171239852905,0.917548418045044
-0.5604512691497803,0.9704196453094482,-0.6951038241386414,0.0095947999507188,0.0102245500311255,-0.3920093476772308,0.0,0.0,-0.112524926662445,0.9829728603363036
-0.5674462914466858,0.9703620076179504,-0.677898645401001,-0.0025541135109961,-0.0111012365669012,-0.4265159964561462,0.0,0.0,-0.3365565538406372,0.6066060066223145
-0.5743287801742554,0.9700350165367126,-0.666047215461731,-0.0148499896749854,-0.0330239459872245,-0.4384543895721435,0.0,0.0,-0.6660670638084412,0.547295331954956
-0.5811020731925964,0.9694368839263916,-0.6546858549118042,-0.0272303875535726,-0.0553940758109092,-0.4474029541015625,0.0,0.0,-0.2982313632965088,0.332958459854126
-0.5878006815910339,0.9685655832290648,-0.647728443145752,-0.0396829023957252,-0.0772842764854431,-0.4378042221069336,0.0,0.0,-0.5608864426612854,0.419418454170227
-0.5944218635559082,0.967420756816864,-0.6404962539672852,-0.0521327778697013,-0.0987065136432647,-0.4284450113773346,0.0,0.0,0.2495093345642089,0.8558152914047241
-0.6009868383407593,0.966601312160492,-0.6335629224777222,-0.0380926206707954,-0.1214803084731102,-0.4554761052131653,0.0,0.0,-0.2452432513236999,0.7337454557418823
-0.6074012517929077,0.9655010104179382,-0.6172887086868286,-0.0510449297726154,-0.1455322951078415,-0.4810400009155273,0.0,0.0,-0.5119549036026001,0.8697025775909424
-0.6136566400527954,0.9641046524047852,-0.5999839901924133,-0.064754918217659,-0.1710757464170456,-0.5108694434165955,0.0,0.0,-0.4842580556869507,0.4932409524917602
-0.6198251247406006,0.9624365568161012,-0.5918111205101013,-0.0772158727049827,-0.196204662322998,-0.5025787353515625,0.0,0.0,-0.7228228449821472,0.7451798915863037
-0.6258482336997986,0.9604860544204712,-0.5763746500015259,-0.0903293341398239,-0.2223699539899826,-0.5233062505722046,0.0,0.0,-0.7977889180183411,0.7607852220535278
-0.6317065954208374,0.958248734474182,-0.5585711598396301,-0.1037826687097549,-0.2500403821468353,-0.5534088611602783,0.0,0.0,-0.8410145044326782,0.5670633316040039
-0.6374232769012451,0.955722451210022,-0.5436935424804688,-0.1172951683402061,-0.2786348462104797,-0.5718899965286255,0.0,0.0,-0.928014636039734,0.4804860353469848
-0.6430454254150391,0.9529260993003844,-0.5348078608512878,-0.1297661662101745,-0.3068796396255493,-0.5648960471153259,0.0,0.0,-0.9060623049736024,0.3216211795806885
-0.6485716104507446,0.9498589038848876,-0.5257726907730103,-0.1422347128391266,-0.3347931206226349,-0.5582705140113831,0.0,0.0,-0.95051372051239,0.1723569631576538
-0.6540005207061768,0.9465208053588868,-0.5165987610816956,-0.1547010093927383,-0.362394630908966,-0.5520309209823608,0.0,0.0,-0.8505989909172058,0.3119022846221924
-0.6593309640884399,0.9429115056991576,-0.5072959661483765,-0.1671652793884277,-0.3897044062614441,-0.546195387840271,0.0,0.0,-0.9527544379234314,0.1110446453094482
-0.6645617485046387,0.9390305280685424,-0.4978738725185394,-0.1796277016401291,-0.416743516921997,-0.5407822728157043,0.0,0.0,-0.9071972966194152,0.3785402774810791
-0.6696920394897461,0.9348775744438172,-0.4883412420749664,-0.1920885592699051,-0.4435340166091919,-0.5358101725578308,0.0,0.0,-0.8533549904823303,0.0860213041305542
-0.6747207641601562,0.9304527640342712,-0.4787062108516693,,-0.4700989127159118,-0.531298041343689,0.0,0.0,-0.8336917161941528,0.3776423931121826
-0.6796472072601318,0.9257557988166808,-0.4689764976501465,-0.2170064002275467,-0.4964620769023895,-0.5272641181945801,0.0,0.0,-0.8228467106819153,-0.3292357921600342
-0.684470534324646,0.9207864999771118,-0.4591592848300934,-0.2294638603925705,-0.5226483345031738,-0.5237267017364502,0.0,0.0,-0.7471135854721069,0.2097294330596923
-0.689190149307251,0.9155448079109192,-0.4492612481117248,-0.2419206649065017,-0.5486835241317749,-0.5207033753395081,0.0,0.0,-0.7867453694343567,0.2434501647949218
-0.6938053369522095,0.9100306034088136,-0.4392886161804199,-0.254377007484436,-0.5745940804481506,-0.5182110071182251,0.0,0.0,-0.7471396923065186,-0.0067006945610046
