x_pos,y_pos,x_vel,y_vel,angle,ang_vel,leg_1,leg_2,main_booster,lat_booster
-0.0016329765785485,1.4031178951263428,-0.1661050915718078,-0.3467600643634796,0.0025067515671253,0.0495039895176887,0.0,0.0,-0.8634257914224139,-0.8555265756333271
-0.0034368515480309,1.394828200340271,-0.1850980073213577,-0.3684408366680145,0.0071639027446508,0.0931525379419326,0.0,0.0,-0.4649480742813585,-0.6159539841501643
-0.0053867339156568,1.3860273361206057,-0.2013353854417801,-0.3911970555782318,0.0134396646171808,0.1255269050598144,0.0,0.0,0.4609799778846111,0.9914075791759526
-0.0074927331879734,1.3773789405822754,-0.215518906712532,-0.3844238817691803,0.0183126647025346,0.097468726336956,0.0,0.0,-0.76786689470727,-0.6533272145899871
-0.0097452159970998,1.3682255744934082,-0.2318980246782302,-0.4069126546382904,0.0248861145228147,0.1314811408519745,0.0,0.0,-0.8471691914489834,0.9618620332888926
-0.0120099065825343,1.3585684299468994,-0.2314474582672119,-0.4292919039726257,0.0298095494508743,0.0984776616096496,0.0,0.0,-0.7983007074141435,-0.7868537412095907
-0.0144424438476562,1.348402976989746,-0.2505713105201721,-0.4519650042057037,0.0370429791510105,0.1446819901466369,0.0,0.0,-0.64412278218947,-0.6545127102072328
-0.0170162208378314,1.337731957435608,-0.266375720500946,-0.4745158851146698,0.0459469556808471,0.1780957877635955,0.0,0.0,-0.9262943144439122,0.8073133588962085
-0.0196288116276264,1.326568841934204,-0.2693874537944793,-0.4964052438735962,0.0539817176759243,0.1607100367546081,0.0,0.0,-0.8123584032923918,0.9186854004975616
-0.0222687721252441,1.3149123191833496,-0.2709804177284241,-0.5183423757553101,0.0609011277556419,0.1384011805057525,0.0,0.0,0.7161182347570194,0.6039247656602272
-0.0248998645693063,1.3036882877349854,-0.2698622345924377,-0.4991277456283569,0.0675836354494094,0.1336627304553985,0.0,0.0,0.0191588353437703,-0.82045298195687
-0.0276617053896188,1.2924437522888184,-0.2853028476238251,-0.5001881718635559,0.0766202434897422,0.1807492077350616,0.0,0.0,-0.4283744959615765,-0.7155834532399749
-0.0305611602962017,1.280693531036377,-0.3008968830108642,-0.5228302478790283,0.0874810293316841,0.2172354906797409,0.0,0.0,-0.4823776484399766,-0.8541799425150719
-0.0336107239127159,1.2684237957000732,-0.3181222081184387,-0.5461412668228149,0.1005610525608062,0.2616240978240967,0.0,0.0,-0.1762104181456172,-0.8900120014685999
-0.0368030555546283,1.2556524276733398,-0.3344684243202209,-0.5687144994735718,0.1157083660364151,0.3029735088348388,0.0,0.0,0.7980428906099271,0.7751056116621127
-0.0399277694523334,1.2428847551345823,-0.3271408677101135,-0.5686562657356262,0.1303124576807022,0.292108803987503,0.0,0.0,0.4508837916802668,0.6544184620324901
-0.0430511459708213,1.2307753562927246,-0.3266497254371643,-0.539513885974884,0.1445960104465484,0.2856968939304352,0.0,0.0,0.2851114111539865,0.8530659929501507
-0.0461038574576377,1.2186304330825806,-0.3186850249767303,-0.5411317944526672,0.1580153554677963,0.2684111297130584,0.0,0.0,-0.6240421093563409,-0.7443822382306212
-0.0492825508117675,1.205978512763977,-0.3332180976867676,-0.5640077590942383,0.1733967214822769,0.3076546490192413,0.0,0.0,-0.0604760520902687,0.6581605615586238
-0.0524900443851947,1.192836046218872,-0.3356366753578186,-0.5859130024909973,0.1883535981178283,0.2991644740104675,0.0,0.0,0.2567033517212596,0.7292888595854388
-0.0557106025516986,1.180086374282837,-0.3363138139247894,-0.56852126121521,0.2027051299810409,0.287056416273117,0.0,0.0,-0.9235802248339432,0.9559112420063316
-0.0589202865958213,1.1668524742126465,-0.3339491784572601,-0.5900090932846069,0.2158192098140716,0.2623058259487152,0.0,0.0,-0.8149302418279585,0.803813504502346
-0.0621152892708778,0.0,-0.3311979174613952,-0.6112125515937805,0.2276839613914489,0.2373161613941192,0.0,0.0,-0.9679512407436096,0.9706532847727304
-0.0652811974287033,1.1389424800872805,-0.3268262147903442,-0.6326013803482056,0.2380882203578949,0.2081036269664764,0.0,0.0,-0.5920548555094602,0.7802282712021336
-0.0684525519609451,1.1242611408233645,-0.3268761038780212,-0.6541146636009216,0.2479991763830185,0.1982370465993881,0.0,0.0,0.5814409684185591,-0.6802035075923656
-0.0720320716500282,1.1099636554718018,-0.3694048225879669,-0.6374140977859497,0.2596775591373443,0.2335676401853561,0.0,0.0,0.6480301399151147,-0.642497469196041
-0.0758836716413497,1.0962008237838743,-0.3985431790351867,-0.6141090393066406,0.2733682692050934,0.2738142907619476,0.0,0.0,0.9557044720956414,-0.893001201999729
-0.0802670493721962,1.0832595825195312,-0.4537989199161529,-0.5781371593475342,0.2892405986785888,0.3174466490745544,0.0,0.0,0.701568205399945,0.7620264321410444
-0.0849924087524414,1.0709331035614014,-0.486809104681015,-0.5507460832595825,0.3039718866348266,0.2946256995201111,0.0,0.0,0.6349765111107923,-0.7682752779614088
-0.089964672923088,1.0587565898895264,-0.5135716795921326,-0.5446900129318237,0.3209241926670074,0.3390459418296814,0.0,0.0,-0.9945216301381256,-0.9092183918721646
-0.0950227752327919,1.0460577011108398,-0.5244329571723938,-0.5686473250389099,0.3403548300266266,0.3886128664016723,0.0,0.0,0.2746113660513862,-0.6190114018763128
-0.1003132835030555,1.0332776308059692,-0.549296498298645,-0.5729278326034546,0.3616299629211426,0.4255025386810303,0.0,0.0,-0.4613052705914138,0.7162807062338116
-0.1055659279227256,1.0200319290161133,-0.544797956943512,-0.593762993812561,0.3823097944259643,0.4135963320732116,0.0,0.0,-0.352519166341066,-0.8561979248420876
-0.1108857169747352,1.0062403678894043,-0.5537967085838318,-0.6189871430397034,0.4056296050548553,0.4663964807987213,0.0,0.0,0.3852336417406889,0.7952366180838317
-0.1163358688354492,0.0,-0.5657610297203064,-0.6067988276481628,0.427992433309555,0.4472574591636657,0.0,0.0,0.6130743470623061,-0.8909790324101143
-0.1221282929182052,0.9796954989433287,-0.6020672917366028,-0.5862157940864563,0.4528934061527252,0.4980193674564361,0.0,0.0,0.5590476373930133,0.7421324077484285
-0.1280622482299804,0.0,-0.6151065826416016,-0.5818209052085876,0.4768659472465515,0.4794504046440124,0.0,0.0,-0.897979420646607,-0.6595319121697458
-0.1340171843767166,0.9533154368400574,-0.6186851263046265,-0.6060765385627747,0.502787172794342,0.5184246301651001,0.0,0.0,0.4959051623346011,-0.671307692815071
-0.1403935402631759,0.9403131008148192,-0.6622552275657654,-0.5871776938438416,0.5306957364082336,0.5581722855567932,0.0,0.0,-0.7162158161814447,0.7369740892564297
-0.1466845571994781,0.9268636107444764,-0.6524426937103271,-0.6071445345878601,0.5576138496398926,0.5383621454238892,0.0,0.0,-0.3538437292281577,-0.7715916405572378
-0.1529987305402755,0.9128705859184264,-0.6565532684326172,-0.6326753497123718,0.5871064066886902,0.5898510813713074,0.0,0.0,-0.9199135899543762,0.9990150928497314
-0.1591899842023849,0.8984606266021729,-0.6421592235565186,-0.6509348154067993,0.6146544218063354,0.5509611368179321,0.0,0.0,-0.988792359828949,0.9770585298538208
-0.1652552634477615,0.8836244940757751,-0.627666711807251,-0.6695777773857117,0.6404016613960266,0.5149444937705994,0.0,0.0,-0.9609017968177797,0.9967701435089112
-0.1711927354335785,0.86837238073349,-0.6129733920097351,-0.6876315474510193,0.664256751537323,0.4771017432212829,0.0,0.0,-0.9886614680290222,0.9919776916503906
-0.1770092993974685,0.8526819944381714,-0.5994289517402649,-0.7068380117416382,0.6867351531982422,0.4495682716369629,0.0,0.0,-0.9259480834007264,0.9974923133850098
-0.1826926171779632,0.836566150188446,-0.5844777822494507,-0.7252445816993713,0.7074922323226929,0.4151419699192047,0.0,0.0,-0.9670981764793396,0.998117208480835
-0.1882402449846267,0.820032000541687,-0.5692477822303772,-0.7432562112808228,0.7264469265937805,0.3790936768054962,0.0,0.0,-0.9781622290611268,0.999464750289917
-0.1936728507280349,0.8030705451965332,-0.5565997362136841,-0.7618781328201294,0.7441902756690979,0.3548665046691894,0.0,0.0,-0.9233654141426086,0.9967732429504396
-0.1989886313676834,0.785677969455719,-0.5438602566719055,-0.7806558609008789,0.7607929706573486,0.3320524096488952,0.0,0.0,-0.9724089503288268,0.99799644947052
-0.204168751835823,0.767861545085907,-0.5289922952651978,-0.7988994121551514,0.7758482098579407,0.3011052310466766,0.0,0.0,-0.9613224267959596,0.9967101812362672
-0.2091970443725586,0.7496456503868103,-0.5120910406112671,-0.8157244324684143,0.7887290716171265,0.2576168775558471,0.0,0.0,-0.9122274518013,0.9993797540664672
-0.214092344045639,0.7310087084770203,-0.497646152973175,-0.8338087201118469,0.8001530766487122,0.2284805029630661,0.0,0.0,-0.9579469561576844,0.9977543354034424
-0.2188316285610199,0.7119654417037964,-0.4805049300193786,-0.8509138226509094,0.8095093965530396,0.1871270090341568,0.0,0.0,-0.92659991979599,0.9883625507354736
-0.2234298288822174,0.6925110220909119,-0.4651595950126648,-0.8684026598930359,0.8171786069869995,0.1533842384815216,0.0,0.0,-0.9292646646499634,0.9983112812042236
-0.2278652191162109,0.6726581454277039,-0.4472898542881012,-0.8850308060646057,0.8226019740104675,0.1084675788879394,0.0,0.0,-0.9172072410583496,0.9907546043395996
-0.2321570366621017,0.6523717641830444,-0.4320042729377746,-0.903650164604187,0.826704740524292,0.0820557475090026,0.0,0.0,-0.8893203139305115,0.9986588954925536
-0.2362935543060302,0.6316882967948914,-0.4150325357913971,-0.9202722907066344,0.8287225961685181,0.04035659506917,0.0,0.0,-0.8354446887969971,0.9913055896759032
-0.2402670830488205,0.6106095314025879,-0.3972035944461822,-0.9367258548736572,0.8285093307495117,-0.0042652757838368,0.0,0.0,-0.8842379450798035,0.9908828735351562
-0.244084358215332,0.5891307592391968,-0.3802024722099304,-0.9535056948661804,0.8262823820114136,-0.0445387586951255,0.0,0.0,-0.8871684670448303,0.9859771728515624
-0.2477560937404632,0.5672292709350586,-0.3646445572376251,-0.9715780019760132,0.8226096630096436,-0.0734537914395332,0.0,0.0,-0.8941180109977722,0.9852311611175536
-0.2512612342834472,0.5449110865592957,-0.3466662764549255,-0.9891728162765504,0.8170410394668579,-0.1113726049661636,0.0,0.0,-0.9181949496269226,0.9524282217025756
-0.2546193599700928,0.5221614241600037,-0.3310365080833435,-1.0077170133590698,0.8101672530174255,-0.1374761462211609,0.0,0.0,-0.8414888978004456,0.923964023590088
-0.2578086256980896,0.4990019798278808,-0.3126900792121887,-1.0249708890914917,0.8012675046920776,-0.1779949218034744,0.0,0.0,-0.8223926424980164,0.9177305698394777
-0.2608380317687988,0.4754214286804199,-0.2954375147819519,-1.0429199934005735,0.7906875610351562,-0.2115990370512008,0.0,0.0,-0.8556907773017883,0.8832933902740479
-0.263705313205719,0.451408714056015,-0.2780411541461944,-1.061442494392395,0.7785647511482239,-0.2424560040235519,0.0,0.0,-0.9024675488471984,0.9400062561035156
-0.2664206922054291,0.4269561767578125,-0.2618493437767029,-1.080485224723816,0.7652085423469543,-0.2671244144439697,0.0,0.0,-0.7743244767189026,0.8361257314682007
-0.2689807415008545,0.402079164981842,-0.2450621128082275,-1.0987317562103271,0.7503230571746826,-0.2977091372013092,0.0,0.0,-0.7287877202033997,0.8713010549545288
-0.2713678479194641,0.3767722845077514,-0.226275235414505,-1.1171330213546753,0.7336559891700745,-0.3333425223827362,0.0,0.0,-0.4215968251228332,0.7676156759262085
-0.2736003994941711,0.3510340750217438,-0.2095531672239303,-1.1358197927474976,0.7155793905258179,-0.3615323901176452,0.0,0.0,-0.2949831485748291,0.5967772006988525
-0.2756892740726471,0.324832409620285,-0.1943968683481216,-1.1562631130218506,0.6967618465423584,-0.376351922750473,0.0,0.0,-0.0334440469741821,0.4268225431442261
-0.2776644229888916,0.2981308400630951,-0.1830714493989944,-1.1788123846054075,0.6782914996147156,-0.3694072365760803,0.0,0.0,0.2921801805496216,0.024721622467041
-0.2798120081424713,0.2715200185775757,-0.200443148612976,-1.1751320362091064,0.6602557301521301,-0.3607149720191955,0.0,0.0,0.2266051769256591,-0.2564290165901184
-0.2823049426078796,0.2450636476278305,-0.2346605062484741,-1.1683872938156128,0.6420758366584778,-0.363597959280014,0.0,0.0,0.0491777658462524,-0.6925181150436401
-0.2849026620388031,0.2185464054346084,-0.2464184015989303,-1.1719918251037598,0.6257072687149048,-0.3273713588714599,0.0,0.0,-0.1552538871765136,-0.7767719626426697
-0.2874336838722229,0.1914663910865783,-0.2412712126970291,-1.1979365348815918,0.6113722920417786,-0.2866996824741363,0.0,0.0,-0.1512790918350219,-0.9144993424415588
-0.2898959517478943,0.1638214737176895,-0.2359476536512375,-1.2239110469818115,0.5990225076675415,-0.2469953298568725,0.0,0.0,0.2893245220184326,-0.9572994112968444
-0.2924721837043762,0.1359063237905502,-0.2491460144519806,-1.2368568181991575,0.5889316201210022,-0.2018178403377533,0.0,0.0,-0.1373474597930908,-0.9728954434394836
-0.2949982583522796,0.107430063188076,-0.2459993809461593,-1.2626878023147583,0.58110111951828,-0.1566095054149627,0.0,1.0,0.9963375329971312,0.9996271133422852
-0.2929767966270447,0.1026632413268089,0.0745847970247268,-0.3050317168235779,0.6482868194580078,1.190643310546875,0.0,1.0,0.9085394144058228,0.5042533874511719
-0.2921584546566009,0.0978695228695869,0.0482285358011722,-0.2307337373495102,0.690423309803009,0.8425679206848145,0.0,1.0,0.9550349712371826,0.5733001232147217
-0.2912384867668152,0.0956020951271057,0.104647196829319,-0.0954938679933548,0.6716532111167908,-0.3514240086078644,0.0,1.0,-0.8722121715545654,0.1866226196289062
-0.290214866399765,0.0933945253491401,0.1270678639411926,-0.0854085907340049,0.6408187747001648,-0.6167324781417847,0.0,1.0,-0.9775325655937196,-0.0126537084579467
-0.2891320586204529,0.091043621301651,0.1401253640651703,-0.0892586782574653,0.6021103858947754,-0.7742001414299011,0.0,1.0,-0.9502030611038208,0.3185826539993286
-0.2880342900753021,0.0883117020130157,0.1445149779319763,-0.1061621978878974,0.5610293745994568,-0.8216484189033508,0.0,1.0,-0.9414023756980896,-0.3339601755142212
-0.2869264483451843,0.0851180180907249,0.1464188396930694,-0.1276571452617645,0.5199596285820007,-0.821423351764679,0.0,1.0,-0.8896527290344238,0.4527792930603027
-0.2858214974403381,0.0814349502325058,0.146765649318695,-0.1504653990268707,0.4791265428066253,-0.816694438457489,0.0,1.0,-0.9057694673538208,0.10840904712677
-0.2847161293029785,0.0772852525115013,0.1478092819452285,-0.1721349656581878,0.4380442202091217,-0.8216798901557922,0.0,1.0,-0.8847880363464355,0.2561681270599365
-0.2836055755615234,0.0727097615599632,0.1501730531454086,-0.1917768269777298,0.3957695960998535,-0.8455243110656738,0.0,1.0,-0.9160058498382568,-0.1870768666267395
-0.2825036942958832,0.0676554068922996,0.1501553207635879,-0.2141337692737579,0.353329986333847,-0.84882652759552,0.0,0.0,-0.9716557860374452,-0.6499524116516113
-0.2813052237033844,0.0621856302022933,0.1613022983074188,-0.2335502654314041,0.3100146353244781,-0.8663297891616821,0.0,1.0,-0.5604170560836792,-0.5964175462722778
-0.2801409661769867,0.0563713870942592,0.1611687242984771,-0.249577060341835,0.2639291286468506,-0.9217355847358704,0.0,1.0,-0.0631401538848877,-0.8150874972343445
-0.2790253758430481,0.0502442941069603,0.1602613925933838,-0.2643600106239319,0.2144061475992202,-0.9904932975769044,0.0,1.0,0.0940419435501098,-0.9328895807266236
-0.2779781222343445,0.0444399937987327,0.1559934616088867,-0.25140181183815,0.1628249436616897,-1.0316803455352783,0.0,1.0,-0.2630621194839477,-0.9426965117454528
-0.2769869863986969,0.0382277816534042,0.1517933458089828,-0.2712205052375793,0.1102813854813575,-1.050925850868225,0.0,1.0,0.2313143014907837,-0.8664116263389587
-0.2761495113372803,0.0320861674845218,0.1348298043012619,-0.2700149714946747,0.0596341229975223,-1.012985348701477,0.0,0.0,0.8301594257354736,-0.9922629594802856
-0.2752242684364319,0.0269181579351425,0.1414141356945037,-0.2284901738166809,0.0113095641136169,-0.9665284156799316,0.0,0.0,0.5106042623519897,-0.973632276058197
-0.2742870450019836,0.0220539905130863,0.1406163275241851,-0.2165187150239944,-0.035011176019907,-0.9264506101608276,0.0,0.0,0.3059240579605102,-0.9610528349876404
-0.273397833108902,0.017673835158348,0.1338357180356979,-0.1963518261909485,-0.0794436112046241,-0.888683021068573,0.0,0.0,0.1980340480804443,-0.9778890609741212
-0.2723503708839416,0.0135757066309452,0.1474808454513549,-0.1849854439496994,-0.1218712553381919,-0.8485856056213379,1.0,0.0,0.8706631660461426,-0.9638850688934326
-0.2712620794773102,0.0110944844782352,0.1313066184520721,-0.112552672624588,-0.1434336453676223,-0.4301415383815765,1.0,0.0,0.3854115009307861,-0.9198883771896362
-0.2700919210910797,0.0097898580133914,0.1176628023386001,-0.058053120970726,-0.1440495699644088,-0.0122811216861009,1.0,0.0,0.688673734664917,-0.8144351840019226
-0.2688308358192444,0.0093465782701969,0.1091869622468948,-0.0181633327156305,-0.1271494179964065,0.3380582332611084,1.0,0.0,0.8966970443725586,-0.7496302127838135
-0.2676362097263336,0.0097186537459492,0.0946035236120224,0.0184617042541503,-0.1024097129702568,0.4948358535766601,1.0,0.0,0.2307244539260864,-0.7314473986625671
-0.2666622996330261,0.0104220723733305,0.0814262777566909,0.0322771109640598,-0.086609274148941,0.3159716725349426,1.0,1.0,-0.6587476134300232,-0.5647447109222412
-0.2657999396324157,0.0109401317313313,0.0808483660221099,0.0233330372720956,-0.0812933221459388,0.106292501091957,0.0,1.0,-0.7798585891723633,0.9303188323974608
-0.2649223804473877,0.0111798858270049,0.093869425356388,0.0103126736357808,-0.087363101541996,-0.1214186996221542,0.0,1.0,-0.3151602745056152,0.7290613651275635
-0.2640025019645691,0.0110392663627862,0.1044473275542259,-0.0070249857380986,-0.0997370854020118,-0.2475074827671051,0.0,1.0,-0.007219910621643,0.6380667686462402
-0.2629984319210052,0.0108529422432184,0.1061537638306617,-0.0086950687691569,-0.1053940802812576,-0.1130773574113845,1.0,1.0,-0.5534530878067017,-0.0897179841995239
-0.2619491517543793,0.010745296254754,0.1030499786138534,-0.0046639461070299,-0.1035067662596702,0.0377779528498649,1.0,1.0,-0.5441765785217285,0.2223026752471923
-0.2608857154846191,0.0108085963875055,0.1013536304235458,0.0031448234803974,-0.0985378324985504,0.0993943661451339,1.0,1.0,-0.4077819585800171,-0.301900565624237
-0.2598640024662018,0.0108357761055231,0.1024846285581588,0.0011838700156658,-0.0988354012370109,-0.0059319799765944,1.0,1.0,-0.4881791472434997,0.1798207759857177
-0.2588554322719574,0.0109839057549834,0.1021345630288124,0.0064910892397165,-0.1000921875238418,-0.0251213610172271,1.0,1.0,-0.5216451287269592,0.1182461977005004
-0.2578586637973785,0.0112305972725152,0.1017383560538292,0.0108225531876087,-0.1021335124969482,-0.0408160015940666,1.0,1.0,-0.511556088924408,0.3419942855834961
-0.2568713724613189,0.0115340091288089,0.1012555584311485,0.013311362825334,-0.1046294718980789,-0.0499115511775016,1.0,1.0,-0.6069525480270386,0.1773548126220703
-0.2558906972408294,0.0118485065177083,0.1006777063012123,0.0137915192171931,-0.1072184443473815,-0.0517734698951244,1.0,1.0,-0.5071935653686523,0.2881999015808105
-0.2549145817756653,0.0121373990550637,0.1000226140022277,0.0126630319282412,-0.109608493745327,-0.0477956309914588,1.0,1.0,-0.4841663241386413,0.3311467170715332
-0.2539418339729309,0.0123803708702325,0.0993235781788826,0.0106436032801866,-0.1116358861327171,-0.0405425354838371,1.0,1.0,-0.4977845549583435,0.367171049118042
-0.2529722154140472,0.0125744910910725,0.0986164882779121,0.0084989964962005,-0.1132756397128105,-0.0327893979847431,1.0,1.0,-0.5927147269248962,0.2840772867202759
-0.2520064413547516,0.0127304885536432,0.0979298502206802,0.0068291435018181,-0.114612728357315,-0.026735758408904,1.0,1.0,-0.2580490112304687,0.2958228588104248
-0.2510455548763275,0.0128666022792458,0.0972792282700538,0.0059531168080866,-0.1157913506031036,-0.023566473275423,1.0,1.0,-0.5905662178993225,0.22145676612854
-0.2500907480716705,0.0130014279857277,0.0966662093997001,0.0058979513123631,-0.1169614866375923,-0.0233972035348415,1.0,1.0,-0.5534728765487671,0.3488287925720215
