x_pos,y_pos,x_vel,y_vel,angle,ang_vel,leg_1,leg_2,main_booster,lat_booster
-0.0015548706287518,1.4033257961273191,-0.1575607359409332,-0.3375320732593536,0.0018480867147445,0.0364620462059974,0.0,0.0,0.6326129924699269,-0.9874241814103693
-0.0031621933449059,1.396134614944458,-0.1646701991558075,-0.3196161687374115,0.0057400739751756,0.0778477117419242,0.0,0.0,-0.0818954022357214,-0.8765644715567563
-0.004855346865952,1.3886374235153198,-0.1746748983860016,-0.333236813545227,0.0110435057431459,0.1060782074928283,0.0,0.0,-0.2984827094241122,0.8225271336351788
-0.0065288543701171,1.3808399438858032,-0.1714656352996826,-0.3465922474861145,0.0151072014123201,0.0812816098332405,0.0,0.0,-0.1120200647462794,-0.8588706976377214
-0.0082880975678563,1.372745394706726,-0.1814588904380798,-0.3598228096961975,0.020578421652317,0.1094348058104515,0.0,0.0,-0.6467966983149573,-0.4185828317415735
-0.0100801466032862,1.364352464675903,-0.1848134994506836,-0.3731066286563873,0.0261224340647459,0.1108903884887695,0.0,0.0,0.4851887327765223,0.1351645478822044
-0.0119391437619924,1.3564387559890747,-0.1914750784635543,-0.3518274128437042,0.0316467694938182,0.110496662557125,0.0,0.0,-0.7217966826758766,0.8026179985939328
-0.0137524604797363,1.3482325077056885,-0.1849891245365142,-0.3648056387901306,0.0352678708732128,0.0724284276366233,0.0,0.0,-0.171298360390826,0.6981032630408153
-0.0155452731996774,1.339737892150879,-0.1816564798355102,-0.3775896728038788,0.0376166738569736,0.0469802990555763,0.0,0.0,-0.6616217944344973,-0.459514832730177
-0.0173712726682424,1.3309447765350342,-0.1850720942020416,-0.3908720314502716,0.040051843971014,0.0487082637846469,0.0,0.0,-0.1912761305619152,-0.882442634324606
-0.0192904472351074,1.3218499422073364,-0.1959732472896576,-0.4043264389038086,0.0440747514367103,0.0804655104875564,0.0,0.0,0.9725111463437102,-0.7950102299785474
-0.0212416648864746,1.3134020566940308,-0.2010911256074905,-0.3756455779075622,0.049979493021965,0.1181056350469589,0.0,0.0,0.3787347346777203,0.8928670289804705
-0.0230618473142385,1.3055492639541626,-0.1864121407270431,-0.3491661250591278,0.0543355531990528,0.0871288552880287,0.0,0.0,-0.901372000158311,-0.6525111209923041
-0.0249608997255563,1.297388195991516,-0.1955601423978805,-0.3629302680492401,0.059935413300991,0.1120074838399887,0.0,0.0,-0.1938633503445681,0.7746034945104303
-0.0268187522888183,1.2889435291290283,-0.1896211802959442,-0.3754786849021911,0.063731849193573,0.075935423374176,0.0,0.0,-0.91434024261297,-0.0711393999172562
-0.0287103652954101,1.2802003622055054,-0.193091481924057,-0.3887627422809601,0.0676280260086059,0.0779304876923561,0.0,0.0,0.465543173267545,0.2955724654715886
-0.030565071851015,1.2723064422607422,-0.1900739222764969,-0.3510487377643585,0.0721980705857276,0.0914089903235435,0.0,0.0,0.1657290800063364,0.540173938423593
-0.0323195457458496,1.2645214796066284,-0.1792863458395004,-0.3461882472038269,0.0760142803192138,0.0763309523463249,0.0,0.0,-0.6166964718986956,-0.8915783262676247
-0.0341670028865337,1.2564399242401123,-0.1901921927928924,-0.3594734072685241,0.081418789923191,0.1080997362732887,0.0,0.0,-0.868313397151347,-0.2441103767388693
-0.0360482223331928,1.248059868812561,-0.1936696767807006,-0.3727574944496155,0.0869267508387565,0.1101692467927932,0.0,0.0,0.9070624197148158,0.2392792547743893
-0.0378916747868061,1.240697741508484,-0.1906961500644683,-0.3275893032550812,0.093227282166481,0.1260219514369964,0.0,0.0,0.8460702240163152,0.4817317066092711
-0.03980178758502,1.233777403831482,-0.1975252330303192,-0.3079913854598999,0.0996943861246109,0.1293536573648452,0.0,0.0,-0.3848583081865195,0.4306212651034837
-0.0417454726994037,1.2265586853027344,-0.2009900063276291,-0.3212798237800598,0.1062689200043678,0.1315026581287384,0.0,0.0,0.8904672699325138,0.3377323328384287
-0.0436812415719032,1.2195875644683838,-0.2006594836711883,-0.3103470206260681,0.11332269012928,0.1410880982875824,0.0,0.0,-0.9607461193828728,-0.9582956930011152
-0.0457435622811317,1.2123053073883057,-0.215809017419815,-0.3244092166423797,0.1228465065360069,0.1904932856559753,0.0,0.0,-0.4327920020985982,0.8873566295895834
-0.047785185277462,1.2047187089920044,-0.2124872952699661,-0.3378933072090149,0.1311351507902145,0.1657728254795074,0.0,0.0,-0.2744379877341376,0.3919378768687708
-0.0498598106205463,1.1968343257904053,-0.2158930301666259,-0.3511801660060882,0.1395347714424133,0.1679923832416534,0.0,0.0,-0.7411986049511348,0.0313112724496266
-0.0519672408699989,1.188652276992798,-0.2192845791578292,-0.3644672930240631,0.1480457633733749,0.1702195554971695,0.0,0.0,-0.5382278314986138,0.2904927459249823
-0.054107379168272,1.1801726818084717,-0.2226604670286178,-0.377754658460617,0.1566684246063232,0.1724530756473541,0.0,0.0,-0.1891000675794478,0.1198747991630372
-0.0562802329659462,1.1713955402374268,-0.2260191142559051,-0.3910422623157501,0.1654030084609985,0.174691617488861,0.0,0.0,-0.0816905838102957,-0.9641310235041732
-0.0585595145821571,1.162313461303711,-0.2386280000209808,-0.4048716425895691,0.1761141866445541,0.2142239511013031,0.0,0.0,-0.9728097319602966,0.9869141578674316
-0.060803510248661,1.1529464721679688,-0.233476310968399,-0.4174177348613739,0.185218334197998,0.182082861661911,0.0,0.0,-0.9386271238327026,0.99037504196167
-0.0630144104361534,1.1433095932006836,-0.2285442352294922,-0.429257720708847,0.1927140653133392,0.1499146968126297,0.0,0.0,-0.9362245202064514,0.9723000526428224
-0.0651884078979492,1.1333857774734497,-0.2232315093278885,-0.4418269991874695,0.1985827386379242,0.1173735484480857,0.0,0.0,-0.9890583753585817,0.98677659034729
-0.0673156753182411,1.1231895685195925,-0.2166398763656616,-0.4536980986595154,0.2025265097618103,0.0788757130503654,0.0,0.0,-0.9734635949134828,0.9921088218688964
-0.0693960189819336,1.1127264499664309,-0.2100176513195037,-0.465296059846878,0.2045233845710754,0.0399373844265937,0.0,0.0,-0.977897047996521,0.9990053176879884
-0.0714325904846191,1.1019829511642456,-0.2038511335849762,-0.47751584649086,0.2047158330678939,0.0038488754071295,0.0,0.0,-0.9689901471138,0.9985663890838624
-0.0734187141060829,1.090973973274231,-0.1967938840389251,-0.4890338778495788,0.2028809934854507,-0.0366966798901557,0.0,0.0,-0.9665950536727904,0.9964661598205566
-0.0753645896911621,1.0796998739242554,-0.1910126507282257,-0.5005912780761719,0.1992788314819336,-0.0720432698726654,0.0,0.0,-0.9802215099334716,0.9966020584106444
-0.077259823679924,1.0681530237197876,-0.1839691251516342,-0.5124511122703552,0.1936919540166854,-0.1117374151945114,0.0,0.0,-0.99146831035614,0.995094895362854
-0.0791222602128982,1.0563353300094604,-0.1791585385799408,-0.5243260860443115,0.1865678280591964,-0.1424824297428131,0.0,0.0,-0.9950806498527528,0.9996269941329956
-0.0809202194213867,1.0442441701889038,-0.1703989058732986,-0.536231279373169,0.1771405339241027,-0.1885462254285812,0.0,0.0,-0.9973602890968324,0.9976996183395386
-0.0826555266976356,1.0318692922592163,-0.1619260609149933,-0.5486510396003723,0.165509432554245,-0.2326219826936721,0.0,0.0,-0.9891558289527892,0.9806160926818848
-0.0843302756547927,1.0192184448242188,-0.1536556035280227,-0.5607855916023254,0.1517038345336914,-0.2761118412017822,0.0,0.0,-0.98694509267807,0.9514985084533693
-0.085962489247322,1.0062763690948486,-0.147729143500328,-0.5736907124519348,0.1362413614988327,-0.3092495203018188,0.0,0.0,-0.9678402543067932,0.7198092937469482
-0.0875611305236816,0.9930444955825806,-0.1428920775651931,-0.5866183638572693,0.1193463131785392,-0.3379009366035461,0.0,0.0,-0.996111273765564,-0.3248649835586548
-0.0891870483756065,0.979517698287964,-0.1456961035728454,-0.5999230742454529,0.102563090622425,-0.3356648087501526,0.0,0.0,-0.9966840744018556,-0.4417060613632202
-0.0908396691083908,0.9656959772109984,-0.1484518945217132,-0.6132275462150574,0.0858913883566856,-0.3334338665008545,0.0,0.0,-0.993452489376068,-0.6036654114723206
-0.0925767868757247,0.9515766501426696,-0.1584755778312683,-0.6267138123512268,0.0707969591021537,-0.3018884062767029,0.0,0.0,-0.995855748653412,-0.4622840285301208
-0.0943394675850868,0.9371616840362548,-0.1611295640468597,-0.6400135159492493,0.0558133907616138,-0.2996713817119598,0.0,0.0,-0.9783897399902344,-0.2540324926376343
-0.0961272269487381,0.9224510192871094,-0.1637295186519622,-0.6533128023147583,0.0409402959048748,-0.297461450099945,0.0,0.0,-0.9489586353302002,-0.5184774994850159
-0.0979845076799392,0.907444953918457,-0.1719185411930084,-0.666611909866333,0.0273068808019161,-0.2726683914661407,0.0,0.0,-0.996948540210724,-0.9426583647727966
-0.099926471710205,0.8921347856521606,-0.1820534914731979,-0.6802803874015808,0.0153181301429867,-0.2397752702236175,0.0,0.0,-0.96371191740036,0.3482615947723388
-0.1018916144967079,0.8765276074409485,-0.1844806373119354,-0.6935725808143616,0.0034385460894554,-0.2375916987657547,0.0,0.0,-0.9223960041999816,-0.875389575958252
-0.1039314270019531,0.8606197237968445,-0.1933870017528534,-0.707025945186615,-0.0070222816430032,-0.2092167139053344,0.0,0.0,-0.9410570859909058,-0.9305222630500792
-0.106078527867794,0.8444110751152039,-0.2063971757888794,-0.7204492688179016,-0.0152310850098729,-0.1641755402088165,0.0,0.0,-0.8176679015159607,0.323709487915039
-0.1082469001412391,0.8279045224189758,-0.2086356878280639,-0.7337347269058228,-0.0233321823179721,-0.162022203207016,0.0,0.0,-0.9572460055351256,-0.229783833026886
-0.1104359626770019,0.8110998868942261,-0.2108083069324493,-0.7470199465751648,-0.0313261523842811,-0.159879446029663,0.0,0.0,-0.7680963277816772,0.5060217380523682
-0.1125999465584755,0.7940003871917725,-0.2072573155164718,-0.7601913213729858,-0.0403443649411201,-0.18036450445652,0.0,0.0,-0.7714737057685852,0.3310019969940185
-0.1147830039262771,0.7766032218933105,-0.2092941552400589,-0.7734777331352234,-0.0492565557360649,-0.1782437860965728,0.0,0.0,-0.8973877429962158,0.4639419317245483
-0.1169847473502159,0.758908212184906,-0.2112613916397094,-0.7867639660835266,-0.0580633170902729,-0.1761349141597747,0.0,0.0,-0.0967194437980651,-0.0994988679885864
-0.1192043274641037,0.7409152388572693,-0.2131579369306564,-0.8000499606132507,-0.0667652264237403,-0.1740383058786392,0.0,0.0,0.4468761682510376,-0.6553629636764526
-0.1213440895080566,0.7232937812805176,-0.2068415135145187,-0.7835102677345276,-0.0738259106874466,-0.1412138193845749,0.0,0.0,-0.1090519428253173,-0.2523887157440185
-0.1235003471374511,0.7053740620613098,-0.2085939645767212,-0.7967938780784607,-0.0807830691337585,-0.1391434967517852,0.0,0.0,0.2588504552841186,0.0473990440368652
-0.1256417334079742,0.687611997127533,-0.2072416096925735,-0.7898121476173401,-0.0876098498702049,-0.136535495519638,0.0,0.0,0.5212798118591309,-0.2470857501029968
-0.1278639733791351,0.6703797578811646,-0.214907169342041,-0.7663201093673706,-0.0948617681860923,-0.1450383514165878,0.0,0.0,-0.2198001146316528,0.5482079982757568
-0.1300553381443023,0.6528493762016296,-0.2107867002487182,-0.7796767950057983,-0.1031417995691299,-0.1656005978584289,0.0,0.0,0.90908944606781,-0.6326842904090881
-0.1321745812892913,0.6355096101760864,-0.2052212059497833,-0.7711350917816162,-0.1097955480217933,-0.1330751180648803,0.0,0.0,0.9464983940124512,-0.728879451751709
-0.1342187821865081,0.6193831562995911,-0.1993742287158966,-0.7171136736869812,-0.1148101314902305,-0.1002915948629379,0.0,0.0,-0.6166315078735352,0.1821238994598388
-0.1362750977277755,0.6029580235481262,-0.2006845474243164,-0.7303948998451233,-0.1197255924344062,-0.0983090549707412,0.0,0.0,0.17897629737854,0.013671875
-0.13835009932518,0.5869656205177307,-0.2023494988679886,-0.7111960649490356,-0.1248458698391914,-0.1024055629968643,0.0,0.0,-0.179957628250122,0.3210049867630005
-0.1404356956481933,0.5706745982170105,-0.2035131454467773,-0.7244771718978882,-0.1298686563968658,-0.1004558354616165,0.0,0.0,-0.2762622237205505,0.38573157787323
-0.1425312012434005,0.5540848970413208,-0.2046042680740356,-0.7377582788467407,-0.1347948312759399,-0.0985232442617416,0.0,0.0,0.5069739818572998,0.172499418258667
-0.1444986313581466,0.5379659533500671,-0.1922130286693573,-0.7168144583702087,-0.1393152773380279,-0.0904088765382766,0.0,0.0,0.7032173871994019,0.5476061105728149
-0.146413043141365,0.5221417546272278,-0.1857974976301193,-0.7038336396217346,-0.1449370682239532,-0.1124355047941207,0.0,0.0,0.2476820945739746,0.6219954490661621
-0.1481953561305999,0.5063540935516357,-0.1715467572212219,-0.7023435831069946,-0.1516149938106537,-0.1335584074258804,0.0,0.0,0.3995903730392456,-0.551313579082489
-0.1500138342380523,0.4907052218914032,-0.1762867867946624,-0.6960809826850891,-0.1571660339832306,-0.1110207214951515,0.0,0.0,0.4189499616622925,0.0689437389373779
-0.1517392098903656,0.4757687449455261,-0.1670412123203277,-0.6644347906112671,-0.1626584231853485,-0.1098483577370643,0.0,0.0,-0.4287262558937073,-0.5171931982040405
-0.1535047590732574,0.4605472385883331,-0.1720575243234634,-0.6770086884498596,-0.1671590805053711,-0.0900135189294815,0.0,0.0,0.6009219884872437,-0.1752878427505493
-0.1552509367465973,0.4462256133556366,-0.1697100400924682,-0.6370758414268494,-0.1720730513334274,-0.0982790738344192,0.0,0.0,0.0214090347290039,-0.3257838487625122
-0.1570453643798828,0.4319285154342651,-0.1742648780345916,-0.6360362768173218,-0.1772684305906295,-0.1039072051644325,0.0,0.0,0.0012871026992797,0.8733534812927246
-0.1586618423461914,0.4180220067501068,-0.1548092514276504,-0.6188996434211731,-0.1841267496347427,-0.1371662467718124,0.0,0.0,-0.837934672832489,-0.1887609958648681
-0.1602816581726074,0.4038170874118805,-0.1552401632070541,-0.632182240486145,-0.1908988356590271,-0.1354421526193618,0.0,0.0,-0.1532038450241089,-0.7122383117675781
-0.1619641333818435,0.3893340229988098,-0.1631540209054947,-0.6443577408790588,-0.196024090051651,-0.1025052443146705,0.0,0.0,0.1113346815109252,-0.7782445549964905
-0.1636261940002441,0.375268816947937,-0.1627426594495773,-0.6255847215652466,-0.1995062083005905,-0.0696423128247261,0.0,0.0,0.4172192811965942,0.383793830871582
-0.1651178300380706,0.3616161346435547,-0.1461279690265655,-0.6071947813034058,-0.2025602459907531,-0.0610810033977031,0.0,0.0,0.6582516431808472,-0.1103607416152954
-0.1665183007717132,0.3481622636318207,-0.1372093558311462,-0.5983420610427856,-0.2054236531257629,-0.0572681836783885,0.0,0.0,0.2912700176239013,-0.1811511516571045
-0.1677844077348709,0.3348494172096252,-0.1241912096738815,-0.5920225381851196,-0.2078726589679718,-0.0489803217351436,0.0,0.0,0.9758390188217164,-0.5305541753768921
-0.1687688827514648,0.3221951127052307,-0.097704954445362,,-0.208624318242073,-0.0150330634787678,0.0,0.0,0.9433584213256836,0.3323535919189453
-0.1694969236850738,0.3098716735839844,-0.0728834494948387,-0.5476992130279541,-0.2085418552160263,0.0016493445727974,0.0,0.0,0.9812806844711304,-0.0988509654998779
-0.1700447052717209,0.29857337474823,-0.0548998303711414,-0.5021279454231262,-0.208417072892189,0.0024956848938018,0.0,0.0,0.9641618728637696,0.4396896362304687
-0.1703691482543945,0.2882881164550781,-0.0328066572546958,-0.4570708870887756,-0.2080502957105636,0.007335633970797,0.0,0.0,0.7702462673187256,0.3494508266448974
-0.1704142540693283,0.2787115573883056,-0.0055600255727767,-0.425478458404541,-0.2069964557886123,0.0210767611861228,0.0,0.0,0.624575138092041,-0.3226177096366882
-0.1702950447797775,0.2692766189575195,0.0103578399866819,-0.4191100001335144,-0.205416202545166,0.0316050723195076,0.0,0.0,0.9113333225250244,-0.2430133819580078
-0.1701134741306305,0.2604264914989471,0.0168036390095949,-0.3931517004966736,-0.2040517330169677,0.0272897575050592,0.0,0.0,0.2436087131500244,-0.6368473172187805
-0.1697771996259689,0.2522325813770294,0.0308185126632452,-0.3637876808643341,-0.2012238800525665,0.0565569475293159,0.0,0.0,-0.2223628759384155,-0.1649972200393676
-0.169438749551773,0.2437398582696914,0.0309708211570978,-0.3770672380924225,-0.1983354687690735,0.0577680990099906,0.0,0.0,0.449942946434021,-0.1917237639427185
-0.1690675765275955,0.2360072880983352,0.0346989892423152,-0.3433489203453064,-0.1958943009376526,0.0488230735063552,0.0,0.0,-0.3230913877487182,-0.2601618766784668
-0.1686938256025314,0.2279757559299469,0.03489376232028,-0.3566284477710724,-0.1933979839086532,0.049926534295082,0.0,0.0,-0.2822626829147339,-0.5674644112586975
-0.1683647185564041,0.2196636348962783,0.0291355699300766,-0.3689425587654114,-0.1896058470010757,0.0758425891399383,0.0,0.0,0.0553890466690063,-0.4903099536895752
-0.1679945886135101,0.2117722779512405,0.0334317907691001,-0.3502728641033172,-0.1860089153051376,0.0719385147094726,0.0,0.0,-0.1000031232833862,-0.5760821104049683
-0.1676684319972992,0.2035935521125793,0.0277916397899389,-0.3629025518894195,-0.1811634600162506,0.0969090312719345,0.0,0.0,0.4774727821350097,-0.1605965495109558
-0.1673449575901031,0.1959379464387893,0.0279495324939489,-0.3397214710712433,-0.176757737994194,0.0881143808364868,0.0,0.0,0.1722593307495117,0.302342414855957
-0.167058378458023,0.1885605156421661,0.0247212331742048,-0.3274206817150116,-0.1728063821792602,0.0790271535515785,0.0,0.0,-0.2430001497268676,-0.0008358359336853
-0.1667687445878982,0.1808844655752182,0.0249794814735651,-0.3407014012336731,-0.1688189506530761,0.0797483474016189,0.0,0.0,0.1620280742645263,0.100461721420288
-0.1663900315761566,0.173282578587532,0.0336546413600444,-0.3373876512050628,-0.1645994633436203,0.0843896567821502,0.0,0.0,0.0231609344482421,0.2375029325485229
-0.1658423393964767,0.1660591512918472,0.050102986395359,-0.3205315470695495,-0.1599356681108474,0.0932762622833252,0.0,0.0,0.0048786401748657,-0.299031138420105
-0.1652304679155349,0.1592394709587097,0.0565667226910591,-0.3026071488857269,-0.1553111225366592,0.092490941286087,0.0,0.0,0.1878440380096435,-0.1954243183135986
-0.1644194573163986,0.1530078798532486,0.0759813040494918,-0.2764324247837066,-0.1501907408237457,0.1024074330925941,0.0,0.0,-0.1681125164031982,-0.6924424767494202
-999.0,0.1464887410402298,0.0702840238809585,-0.2891125977039337,-0.14384326338768,0.1269495785236358,0.0,0.0,0.1053622961044311,-0.3225383758544922
-0.1628105193376541,0.1404832452535629,0.0778896659612655,-0.2663105130195617,-0.1375045031309127,0.1267748475074768,0.0,0.0,0.1154056787490844,-0.3409560918807983
-0.1618522703647613,0.1349611133337021,0.0892613902688026,-0.2448377013206482,-0.1309666186571121,0.1307580918073654,0.0,0.0,-0.4335590004920959,-0.3766436576843261
-0.1608918160200119,0.1291407197713852,0.0894601121544838,-0.2581211626529693,-0.1244228556752204,0.1308755427598953,0.0,0.0,-0.1024978160858154,-0.617401659488678
-0.1599877327680587,0.1230342239141464,0.0823299065232276,-0.2707478404045105,-0.116393506526947,0.1605868637561798,0.0,0.0,0.503555178642273,-0.0129642486572265
-0.159143641591072,0.1173480153083801,0.076871857047081,-0.2521513700485229,-0.1089063733816146,0.1497429609298706,0.0,0.0,0.1524200439453125,-0.4528121948242187
-0.1582703590393066,0.1119525507092475,0.0798603519797325,-0.2392732053995132,-0.1014942824840545,0.1482415646314621,0.0,0.0,-0.0001577734947204,-0.4342492818832397
-0.1573959290981292,0.1062589734792709,0.0799718871712684,-0.2525578439235687,-0.0940914675593376,0.1480564326047897,0.0,0.0,-0.023414134979248,0.7227783203125
-0.1564519852399826,0.1002508252859115,0.0887104272842407,-0.2666815221309662,-0.0884568318724632,0.1126926094293594,0.0,0.0,0.2901276350021362,0.3103913068771362
-0.1553846299648285,0.0947320535778999,0.1007104143500328,-0.2449341118335724,-0.082486554980278,0.1194057017564773,0.0,0.0,0.3549517393112182,-0.2294074296951294
-0.1542422324419021,0.0899013578891754,0.1081391349434852,-0.2143722027540207,-0.0764410123229026,0.1209108605980873,0.0,0.0,-0.1063538789749145,-0.0542124509811401
-0.1531001031398773,0.0847724080085754,0.1081293374300003,-0.2276553511619568,-0.070418544113636,0.1204494088888168,0.0,0.0,0.0392429828643798,0.3371363878250122
