x_pos,y_pos,x_vel,y_vel,angle,ang_vel,leg_1,leg_2,main_booster,lat_booster
-0.0015406608581542,1.4033434391021729,-0.1560696065425872,-0.3367384970188141,0.0017953907372429,0.0354179702699184,0.0,0.0,-0.5622431960497125,0.9712062136586198
-0.0030158043373376,1.395504593849182,-0.1471826434135437,-0.3483966886997223,0.0014728213427588,-0.0064513189718127,0.0,0.0,-0.9957659240105295,0.9869098908998712
-0.0044131278991699,1.3873772621154783,-0.1370271742343902,-0.361215204000473,-0.0012188892578706,-0.0538392439484596,0.0,0.0,-0.3117964399596438,-0.7731561481542124
-0.0059005739167332,1.3789665699005127,-0.1478863060474395,-0.3738116323947906,-0.0020639889407902,-0.0169031359255313,0.0,0.0,0.929237364991948,0.8483828644923423
-0.0071721076965332,1.371419072151184,-0.1249753460288047,-0.3354500234127044,-0.0042108898051083,-0.04294228926301,0.0,0.0,0.7250517895125985,-0.6397444927457687
-0.0083540920168161,1.3644392490386963,-0.1177168861031532,-0.3102094531059265,-0.0046773022040724,-0.0093292640522122,0.0,0.0,0.1413456982488135,-0.9216216794516936
-0.0096423150971531,1.3577775955200195,-0.1302039921283722,-0.2960699498653412,-0.0033098051790148,0.0273521989583969,0.0,0.0,0.4247125619963563,0.8668875285178362
-0.0107320789247751,1.351673245429993,-0.1088292375206947,-0.2713037133216858,-0.0034527610987424,-0.0028595263138413,0.0,0.0,-0.4008605212154226,0.8505664050382742
-0.0117734912782907,1.3452967405319214,-0.1023484617471695,-0.2834042608737945,-0.005227651912719,-0.0355009064078331,0.0,0.0,-0.8921554564847949,0.8949386227960421
-0.0127618787810206,1.3386446237564087,-0.0952678099274635,-0.2956719696521759,-0.0087537299841642,-0.0705282315611839,0.0,0.0,-0.4233618192223454,-0.8398579562942878
-0.0138242719694972,1.3317127227783203,-0.1041328534483909,-0.3080927729606628,-0.01083345990628,-0.0415981858968734,0.0,0.0,-0.5543454278977047,-0.8750113358275629
-0.014964866451919,1.324499249458313,-0.1135264411568641,-0.3206064403057098,-0.0113635901361703,-0.0106035349890589,0.0,0.0,0.1007104302987444,0.5843811683870781
-0.0159747116267681,1.3177043199539185,-0.0994580686092376,-0.3020116686820984,-0.0128727927803993,-0.0301870014518499,0.0,0.0,0.3536097509654998,0.998098878092059
-0.0168539993464946,1.3110525608062744,-0.0844527333974838,-0.2956627905368805,-0.016300706192851,-0.0685648918151855,0.0,0.0,-0.0771320105187152,-0.5319206811148534
-0.0177824981510639,1.3041263818740845,-0.0902265384793281,-0.3078640401363373,-0.0188989415764808,-0.0519693866372108,0.0,0.0,0.555154077452592,0.7479299443955756
-0.0185502059757709,1.2973251342773438,-0.0728795453906059,-0.3023246824741363,-0.0227464772760868,-0.0769577696919441,0.0,0.0,-0.1068164432689797,-0.6209694076532903
-0.0193727500736713,1.2902517318725586,-0.0793516188859939,-0.3144239783287048,-0.0256215650588274,-0.0575070455670356,0.0,0.0,-0.2583795399123649,0.5107993349382349
-0.0201627723872661,1.2828911542892456,-0.0748449116945266,-0.3272112011909485,-0.0297309141606092,-0.0821942463517189,0.0,0.0,-0.2339208532629688,0.7238871132625503
-0.0209033004939556,1.2752537727355957,-0.0682365447282791,-0.3395624756813049,-0.0354876220226287,-0.1151444315910339,0.0,0.0,-0.9111590847416888,0.8334497496187211
-0.0216038711369037,1.2673324346542358,-0.0628062486648559,-0.352241039276123,-0.0426575951278209,-0.1434125751256942,0.0,0.0,0.1837919327840576,-0.7068206709872691
-0.0222508423030376,1.259940266609192,-0.0590181425213813,-0.3287115097045898,-0.0482725016772747,-0.112308420240879,0.0,0.0,0.6738467533426724,0.6254086513519588
-0.022830868139863,1.2529312372207642,-0.0511262491345405,-0.3117550909519195,-0.0550817362964153,-0.1361967623233795,0.0,0.0,0.4716674243261169,0.8488950697522181
-0.0232040397822856,1.2463505268096924,-0.0289288312196731,-0.2927974760532379,-0.0633854493498802,-0.1660890728235244,0.0,0.0,0.6662132610942866,-0.7864365415364959
-0.0235587116330862,1.2399508953094482,-0.028834193944931,-0.284729927778244,-0.0699614658951759,-0.1315319240093231,0.0,0.0,0.297150281635788,0.9483937350523036
-0.0239485744386911,1.2340351343154907,-0.0303897652775049,-0.2633422613143921,-0.0784795135259628,-0.1703763008117675,0.0,0.0,-0.4215373512674645,-0.8182719681392929
-0.0244359970092773,1.2278316020965576,-0.0421958230435848,-0.2760701477527618,-0.0849541425704956,-0.1294927895069122,0.0,0.0,-0.9283252709618496,0.6959675297069657
-0.0248843189328908,1.221345067024231,-0.036908634006977,-0.2887608706951141,-0.0928073301911354,-0.1570638716220855,0.0,0.0,0.7967426819280314,0.9768844360621088
-0.0253463741391897,1.2159405946731567,-0.0361031219363212,-0.2408582121133804,-0.1028246134519577,-0.2003459632396698,0.0,0.0,-0.6574503120376449,0.7267855806244328
-0.0257792472839355,1.210255742073059,-0.0320762172341346,-0.2534741759300232,-0.1139614805579185,-0.2227374613285064,0.0,0.0,-0.290555579953148,0.960934171553384
-0.0261554718017578,1.2042754888534546,-0.024574102833867,-0.2668287456035614,-0.1269380748271942,-0.2595318257808685,0.0,0.0,0.1144664919139888,0.8044459029731493
-0.0263967514038085,1.1988608837127686,-0.0095048816874623,-0.241958349943161,-0.1414974927902221,-0.2911882400512695,0.0,0.0,-0.9977275133132936,-0.9938176274299622
-0.0267417915165424,1.193180799484253,-0.0221755243837833,-0.2536696493625641,-0.1538067758083343,-0.246185690164566,0.0,0.0,-0.9938005805015564,-0.9935309290885924
-0.0271895416080951,1.1872509717941284,-0.034728717058897,-0.2646127045154571,-0.1638422310352325,-0.2007087022066116,0.0,0.0,-0.9984923601150512,-0.9594365954399108
-0.0277360919862985,1.1810534000396729,-0.0467554032802581,-0.2763437926769256,-0.1717513501644134,-0.1581822335720062,0.0,0.0,-0.982008457183838,-0.9794455766677856
-0.0283715240657329,1.174596667289734,-0.0575680658221244,-0.2876674830913543,-0.1777444183826446,-0.1198614612221717,0.0,0.0,-0.9397609829902648,-0.9153268337249756
-0.0290899276733398,1.1678847074508667,-0.067647710442543,-0.2988174557685852,-0.1819499433040619,-0.0841105654835701,0.0,0.0,-0.9598078727722168,-0.9553574323654176
-0.0299008376896381,1.160908579826355,-0.0788979828357696,-0.3103246390819549,-0.1841571778059005,-0.0441446676850318,0.0,0.0,-0.8809093236923218,-0.618336021900177
-0.0307703968137502,1.1536686420440674,-0.0859177559614181,-0.3219010531902313,-0.1851992905139923,-0.0208422075957059,0.0,0.0,-0.6601182818412781,-0.8156419992446899
-0.0317201614379882,1.1461756229400637,-0.0956779941916465,-0.33293217420578,-0.1844939887523651,0.0141061823815107,0.0,0.0,-0.255402147769928,-0.2408088445663452
-0.0326834693551063,1.138401746749878,-0.0970309376716613,-0.3454185724258423,-0.1837924569845199,0.0140307415276765,0.0,0.0,-0.3872138857841491,-0.0932778716087341
-0.0336600318551063,1.1303467750549316,-0.0983458682894706,-0.3579050004482269,-0.1830966770648956,0.0139156971126794,0.0,0.0,-0.7007741332054138,-0.7877394556999207
-0.0346982963383197,1.1220229864120483,-0.1057577356696128,-0.3697144091129303,-0.1811535656452179,0.0388621315360069,0.0,0.0,-0.2824699878692627,-0.5813676118850708
-0.0357875823974609,1.1134222745895386,-0.1118289604783058,-0.3819007277488708,-0.1782466322183609,0.0581386163830757,0.0,0.0,-0.0863363742828369,0.3480585813522339
-0.0368887893855571,1.1045408248901367,-0.1130148395895958,-0.3943879008293152,-0.1753517687320709,0.0578971803188324,0.0,0.0,-0.5603851675987244,0.6082793474197388
-0.0379583351314067,1.0953596830368042,-0.1086885184049606,-0.4078460037708282,-0.1736127436161041,0.0347806029021739,0.0,0.0,-0.8652968406677246,-0.1587946414947509
-0.0390389449894428,1.0858975648880005,-0.1097746267914772,-0.4203328490257263,-0.1718902736902237,0.0344492755830287,0.0,0.0,-0.7648223638534546,-0.1021105647087097
-0.0401299484074115,1.0761545896530151,-0.1108066290616989,-0.432819664478302,-0.170186698436737,0.0340714827179908,0.0,0.0,-0.8292751312255859,0.3413840532302856
-0.0412309654057025,1.0661308765411377,-0.1117816343903541,-0.4453064501285553,-0.1685044020414352,0.0336462594568729,0.0,0.0,-0.8898410797119141,0.486383318901062
-0.0423414222896099,1.0558263063430786,-0.1126966923475265,-0.4577932953834533,-0.1668457686901092,0.0331727936863899,0.0,0.0,-0.4968190193176269,0.709276556968689
-0.0434074401855468,1.0452253818511963,-0.1068690195679664,-0.4711223542690277,-0.1665852963924408,0.0052095856517553,0.0,0.0,-0.2758362293243408,-0.0032179951667785
-0.0444816574454307,1.0343436002731323,-0.1076553016901016,-0.4836090803146362,-0.1663534343242645,0.0046375705860555,0.0,0.0,-0.949450433254242,0.1233954429626464
-0.0455634109675884,1.0231810808181765,-0.1083728671073913,-0.4960957765579223,-0.1661526709794998,0.0040152189321815,0.0,0.0,-0.9165385365486144,-0.3082663416862488
-0.0466519370675087,1.011737585067749,-0.1090188845992088,-0.5085825324058533,-0.165985569357872,0.0033420126419514,0.0,0.0,-0.6623484492301941,-0.1040690541267395
-0.04774646833539,1.0000131130218506,-0.1095906347036361,-0.521069347858429,-0.1658546924591064,0.0026178280822932,0.0,0.0,-0.9566178917884828,-0.4067214727401733
-0.0488463416695594,0.9880079627037048,-0.1100855320692062,-0.5335561037063599,-0.1657625585794448,0.0018430342897772,0.0,0.0,-0.264262318611145,-0.5824312567710876
-0.0500037185847759,0.975732445716858,-0.1171395629644393,-0.5454193949699402,-0.16436168551445,0.0280171521008014,0.0,0.0,-0.9876304864883424,-0.4978865385055542
-0.0511649139225482,0.9631762504577636,-0.1174736991524696,-0.5579063296318054,-0.1630047708749771,0.0271385516971349,0.0,0.0,-0.9952214956283568,-0.6363645195960999
-0.0523670203983783,0.9503512978553772,-0.1225032433867454,-0.5697529911994934,-0.1607106775045395,0.0458820722997188,0.0,0.0,-0.9994510412216188,0.2468507289886474
-0.0535712242126464,0.9372453689575196,-0.1226685866713523,-0.5822404026985168,-0.158465638756752,0.0449005961418151,0.0,0.0,-0.997774064540863,-0.2031853795051574
-0.0547767654061317,0.923858642578125,-0.1227471455931663,-0.5947277545928955,-0.1562722325325012,0.0438680760562419,0.0,0.0,-0.985602855682373,0.6462748050689697
-0.0559286102652549,0.9101728200912476,-0.1159165129065513,-0.6081840395927429,-0.1555394530296325,0.0146554810926318,0.0,0.0,-0.9964739680290222,-0.7199380993843079
-0.0571452155709266,0.8962253332138062,-0.1240193247795105,-0.6196455359458923,-0.153180718421936,0.0471746399998664,0.0,0.0,-0.992354929447174,0.384097695350647
-0.0583604797720909,0.8819970488548279,-0.123832032084465,-0.6321331262588501,-0.1508811116218567,0.0459917746484279,0.0,0.0,-0.9869850873947144,-0.5535925626754761
-0.0596150383353233,0.8674982190132141,-0.128769651055336,-0.6440550684928894,-0.147578626871109,0.0660498291254043,0.0,0.0,-0.9873167276382446,0.1421793699264526
-0.060866642743349,0.8527188897132874,-0.1284041106700897,-0.656542956829071,-0.1443401426076889,0.0647701323032379,0.0,0.0,-0.892360270023346,-0.1505913734436035
-0.0621143355965614,0.8376588821411133,-0.1279501467943191,-0.6690309643745422,-0.1411679685115814,0.0634433478116989,0.0,0.0,-0.9724504947662354,-0.0146894454956054
-0.0633573532104492,0.8223182559013367,-0.127408742904663,-0.6815189123153687,-0.138064444065094,0.0620704479515552,0.0,0.0,-0.8975090980529785,0.0214138031005859
-0.0645947456359863,0.8066967725753784,-0.1267811954021453,-0.6940068006515503,-0.1350318193435669,0.0606525912880897,0.0,0.0,-0.8615803122520447,0.3197323083877563
-0.0658256560564041,0.7907946109771729,-0.1260692179203033,-0.7064945697784424,-0.1320722848176956,0.059190921485424,0.0,0.0,-0.8760207891464233,0.4157328605651855
-0.0670494064688682,0.7746118307113647,-0.1252747029066085,-0.7189823985099792,-0.1291879564523697,0.0576866753399372,0.0,0.0,-0.7549245953559875,-0.1915903687477111
-0.0682652443647384,0.7581483721733093,-0.1243999376893043,-0.7314701676368713,-0.126380905508995,0.0561410188674926,0.0,0.0,-0.6897734999656677,-0.1281328201293945
-0.0694722160696983,0.7414042353630066,-0.1234473586082458,-0.7439578771591187,-0.1236531361937522,0.0545555762946605,0.0,0.0,-0.7085283398628235,0.0409682989120483
-0.0706698447465896,0.7243791222572327,-0.1224196329712867,-0.7564456462860107,-0.1210065484046936,0.0529315993189811,0.0,0.0,-0.4093766212463379,0.3410911560058594
-0.0718572586774826,0.7070735096931458,-0.1213196292519569,-0.7689332962036133,-0.1184430420398712,0.0512704774737358,0.0,0.0,0.1204743385314941,0.4682252407073974
-0.0730251297354698,0.689886212348938,-0.1191794872283935,-0.7636908292770386,-0.1160701438784599,0.0474579073488712,0.0,0.0,0.0864685773849487,-0.0640633106231689
-0.0741124153137207,0.672728955745697,-0.1112338900566101,-0.7623521089553833,-0.1135769337415695,0.0498640462756156,0.0,0.0,0.4308211803436279,0.205126404762268
-0.0751814842224121,0.6557337641716003,-0.1091943979263305,-0.7551716566085815,-0.1112985163927078,0.0455682203173637,0.0,0.0,0.3258812427520752,0.4043179750442505
-0.0761737823486328,0.6394078731536865,-0.1013996973633766,-0.7254372835159302,-0.1091409400105476,0.0431514456868171,0.0,0.0,0.091185450553894,-0.0875574350357055
-0.0770415291190147,0.6235958933830261,-0.0891051515936851,-0.702584981918335,-0.1068301126360893,0.0462167002260685,0.0,0.0,-0.0233958959579467,-0.4767255783081054
-0.0778954476118087,0.6075032353401184,-0.0876363292336463,-0.7150725722312927,-0.1046119332313537,0.0443635955452919,0.0,0.0,-0.0961881875991821,-0.1479097604751587
-0.0787352547049522,0.5911297798156738,-0.0861170440912246,-0.7275600433349609,-0.1024877503514289,0.0424835979938507,0.0,0.0,0.8087186813354492,-0.1926791071891784
-0.0794278159737587,0.5757601261138916,-0.0715060606598854,-0.6829430460929871,-0.1002545952796936,0.0446630679070949,0.0,0.0,-0.0929886698722839,0.308042049407959
-0.0801052078604698,0.5601096749305725,-0.0698948949575424,-0.6954305171966553,-0.0981179177761077,0.0427334830164909,0.0,0.0,0.3704335689544678,0.1697207689285278
-0.080757237970829,0.545024573802948,-0.0670457556843757,-0.6703323125839233,-0.0962892174720764,0.0365739166736602,0.0,0.0,0.2385660409927368,0.0618056058883667
-0.0813517570495605,0.5304425954818726,-0.0611631870269775,-0.6479785442352295,-0.0946007147431373,0.0337702259421348,0.0,0.0,-0.5276228189468384,0.1434494256973266
-0.0819300636649131,0.515579879283905,-0.0594352968037128,-0.6604658365249634,-0.0930119007825851,0.0317763313651084,0.0,0.0,0.0695794820785522,0.2792613506317138
-0.0824559181928634,0.5007651448249817,-0.0541584677994251,-0.658333957195282,-0.0914527401328086,0.0311830602586269,0.0,0.0,0.0344475507736206,0.6415765285491943
-0.0828260406851768,0.4860255718231201,-0.0372559055685997,-0.6550770401954651,-0.0912035778164863,0.0049831494688987,0.0,0.0,0.4460809230804443,-0.6228501200675964
-0.0830421447753906,0.4717391431331634,-0.0233117751777172,-0.6348499059677124,-0.0895231887698173,0.0336079970002174,0.0,0.0,-0.6826152801513672,-0.4615273475646972
-0.0832408890128135,0.4571719467639923,-0.0214627254754304,-0.6473371982574463,-0.0879458859562873,0.0315458737313747,0.0,0.0,0.8303887844085693,-0.2167953848838806
-0.0833550468087196,0.4435684382915497,-0.0128717068582773,-0.6045160293579102,-0.0865014642477035,0.0288883112370967,0.0,0.0,0.1948837041854858,-0.1054083108901977
-0.0833816528320312,0.4305009841918945,-0.0041080685332417,-0.5806887745857239,-0.0850580111145973,0.0288687739521265,0.0,0.0,-0.700832724571228,-0.0036839246749877
-0.0833900421857833,0.4171528816223144,-0.0021895100362598,-0.593176007270813,-0.0837196409702301,0.0267674382776021,0.0,0.0,0.2993712425231933,-0.2695249319076538
-0.0832796096801757,0.4038977026939392,0.0094303824007511,-0.5890288949012756,-0.0821199864149093,0.031993169337511,0.0,0.0,0.6312520503997803,0.562325119972229
-0.0831206291913986,0.3911131620407104,0.0156553909182548,-0.5681886076927185,-0.0818894430994987,0.0046111680567264,0.0,0.0,0.6355389356613159,-0.766736626625061
-0.0828412026166915,0.3793299496173858,0.0261057969182729,-0.5235982537269592,-0.0800625532865524,0.0365375541150569,0.0,0.0,-0.6379132270812988,0.3375735282897949
-0.0825428962707519,0.3672659397125244,0.0280946381390094,-0.5360854268074036,-0.0783426538109779,0.0343982279300689,0.0,0.0,0.0937179327011108,0.1090227365493774
-0.0822664275765419,0.3557183742523193,0.0263932440429925,-0.5131622552871704,-0.0771111845970153,0.0246296618133783,0.0,0.0,-0.5397269129753113,0.3174165487289428
-0.0819709748029708,0.3438899517059326,0.028409531340003,-0.5256494283676147,-0.0759873241186142,0.0224770493805408,0.0,0.0,0.0107852220535278,-0.3136485815048218
-0.081654168665409,0.3324709832668304,0.0308111701160669,-0.5074655413627625,-0.0751228854060173,0.0172886364161968,0.0,0.0,-0.0436590313911438,0.0420491695404052
-0.0813179984688758,0.320771187543869,0.0328506790101528,-0.5199525952339172,-0.0743665769696235,0.0151263792067766,0.0,0.0,0.3493039608001709,-0.8143706321716309
-0.0810194984078407,0.3094059824943542,0.0275820605456829,-0.5050088763237,-0.0721245482563972,0.0448404774069786,0.0,0.0,0.3054424524307251,-0.4838606119155884
-0.0807592421770095,0.2984808683395386,0.0243036467581987,-0.4854764640331268,-0.0704173669219017,0.0341435968875885,0.0,0.0,0.0019030570983886,0.3813350200653076
-0.0805480033159256,0.2877598404884338,0.0199308227747678,-0.476433664560318,-0.0692408382892608,0.0235306955873966,0.0,0.0,-0.1681917309761047,0.4949092864990234
-0.0803171172738075,0.276758074760437,0.022006444633007,-0.4889206886291504,-0.0681728720664978,0.0213597156107425,0.0,0.0,0.5011625289916992,0.2027711868286132
-0.0799880996346473,0.2659713625907898,0.0316748358309268,-0.4793504178524017,-0.0669555887579917,0.024345401674509,0.0,0.0,0.5634613037109375,-0.1532296538352966
-0.0794539451599121,0.2559707164764404,0.0516513772308826,-0.4443974196910858,-0.0652118548750877,0.0348746217787265,0.0,0.0,-0.5512050986289978,-0.6182641386985779
-0.0789505019783973,0.2456993609666824,0.0474104061722755,-0.4563796818256378,-0.0622978024184703,0.0582810342311859,0.0,0.0,-0.559533417224884,-0.2728103399276733
-0.0784269347786903,0.2351471930742263,0.0495113581418991,-0.4688672125339508,-0.0594920292496681,0.0561154186725616,0.0,0.0,0.1277722120285034,-0.0204629898071289
-0.0778079032897949,0.2249021679162979,0.0589261464774608,-0.4552213549613952,-0.0565534755587577,0.0587711930274963,0.0,0.0,-0.1888065338134765,-0.19419527053833
-0.0771689414978027,0.2143763154745102,0.0610366389155387,-0.4677089154720306,-0.05372279509902,0.056613765656948,0.0,0.0,0.4342055320739746,-0.1845005750656128
-0.0764205008745193,0.2045895457267761,0.0718370079994201,-0.4348629713058471,-0.0507561229169368,0.0593334138393402,0.0,0.0,0.0232933759689331,-0.2070749998092651
-0.0755878463387489,0.194943681359291,0.0801476091146469,-0.428604245185852,-0.0476658791303634,0.0618048906326293,0.0,0.0,-0.0919799208641052,-0.7812830805778503
-0.0748091712594032,0.1850237250328064,0.0729507133364677,-0.4407360255718231,-0.0428120642900466,0.097076304256916,0.0,0.0,-0.0698406100273132,-0.0844379663467407
-0.074010469019413,0.1748232394456863,0.0750751867890358,-0.4532246887683868,-0.0380647182464599,0.0949470251798629,0.0,0.0,0.4999459981918335,-0.2205231785774231
-0.0731914490461349,0.1651104986667633,0.0772893503308296,-0.4315709173679352,-0.0335138067603111,0.091017909348011,0.0,0.0,0.2548903226852417,0.3184330463409424
-0.0723190307617187,0.1557234823703766,0.0826565846800804,-0.4171042144298553,-0.0289771184325218,0.0907338112592697,0.0,0.0,0.1488183736801147,-0.9155283570289612
-0.0713851004838943,0.1464210152626037,0.0870329588651657,-0.4133308231830597,-0.0227000415325164,0.1255414485931396,0.0,0.0,0.3691850900650024,-0.7190306782722473
-0.0703849792480468,0.1376902461051941,0.0921735912561416,-0.3879361152648926,-0.014954742975533,0.1549058556556701,0.0,0.0,-0.0694068074226379,-0.885120153427124
-0.0694314986467361,0.1286896020174026,0.0858945623040199,-0.3999659419059753,-0.0056255622766911,0.1865835040807724,0.0,0.0,0.490957498550415,0.6261763572692871
