x_pos,y_pos,x_vel,y_vel,angle,ang_vel,leg_1,leg_2,main_booster,lat_booster
-0.0014834403991699,1.4030117988586426,-0.1508096158504486,-0.35148885846138,0.002214596606791,0.0437184497714042,0.0,0.0,-0.5871680974960327,0.8673768043518066
-0.002852439880371,1.3945096731185913,-0.1376693546772003,-0.3778738975524902,0.0029724761843681,0.0151595445349812,0.0,0.0,-0.2556362152099609,0.018908143043518
-0.0041810036636888,1.3853943347930908,-0.134078562259674,-0.4051357209682464,0.0041832523420453,0.0242178756743669,0.0,0.0,0.3949308395385742,0.8766350746154785
-0.0055161477066576,1.376295566558838,-0.1332962363958358,-0.4043891727924347,0.0039641009643673,-0.0043834010139107,0.0,0.0,-0.0091818571090698,0.3193750381469726
-0.0068109510466456,1.3665838241577148,-0.1297030448913574,-0.4316326379776001,0.0041827405802905,0.0043732142075896,0.0,0.0,0.7083919048309326,0.9152402877807616
-0.0078375814482569,1.3571017980575562,-0.1017528176307678,-0.4214187562465668,0.0032839353661984,-0.0179779343307018,0.0,0.0,-0.3852276802062988,0.7271606922149658
-0.0087689403444528,1.3470072746276855,-0.0912488996982574,-0.4486490488052368,0.0014182128943502,-0.0373181477189064,0.0,0.0,-0.1076878309249877,0.4630831480026245
-0.0096602439880371,1.3362998962402344,-0.0876549333333969,-0.4758841395378113,-3.90419336326886e-05,-0.0291477683931589,0.0,0.0,0.3466018438339233,-0.6847231984138489
-0.0105764390900731,1.3260102272033691,-0.0918970331549644,-0.4573205113410949,0.0002366988337598,0.0055153812281787,0.0,0.0,-0.6652994155883789,-0.1389959454536438
-0.0114528657868504,1.315107345581055,-0.0883141830563545,-0.4845671951770782,0.0008968442562036,0.0132043538615107,0.0,0.0,-0.4654411077499389,0.348980188369751
-0.0122897149994969,1.3035917282104492,-0.0847349539399147,-0.5118023157119751,0.001929574063979,0.0206566229462623,0.0,0.0,0.2338542938232422,-0.4000918269157409
-0.0130352023988962,1.2920552492141724,-0.0762061923742294,-0.5127338171005249,0.0035712004173547,0.0328354462981224,0.0,0.0,-0.6783216595649719,0.3903303146362304
-0.0137414932250976,1.279905915260315,-0.0726370364427566,-0.5399771928787231,0.0055572255514562,0.0397242344915866,0.0,0.0,-0.8844541311264038,-0.5616785883903503
-0.014448070898652,1.2671384811401367,-0.0739918798208236,-0.5674645900726318,0.0088592590764164,0.0660465732216835,0.0,0.0,-0.7859026789665222,0.2372863292694091
-0.0151159288361668,1.253758192062378,-0.0704366415739059,-0.5947043299674988,0.0124743357300758,0.0723078176379203,0.0,0.0,-0.4522825479507446,-0.0614914894104003
-0.0157452579587698,1.2397654056549072,-0.0668873712420463,-0.6219443678855896,0.016386292874813,0.0782462507486343,0.0,0.0,-0.6501794457435608,-0.152299702167511
-0.0163363460451364,1.2251598834991455,-0.0633449479937553,-0.6491847634315491,0.0205773580819368,0.0838287025690078,0.0,0.0,-0.5671641230583191,-0.0065268874168396
-0.016889477148652,1.2099417448043823,-0.059809885919094,-0.6764253377914429,0.0250290930271148,0.0890425890684127,0.0,0.0,-0.5640192031860352,0.2777063846588135
-0.0174049381166696,1.1941113471984863,-0.0562828667461872,-0.7036663889884949,0.0297222808003425,0.0938720479607582,0.0,0.0,-0.7687219381332397,0.6373095512390137
-0.0178393367677927,1.1776697635650637,-0.0472947694361209,-0.7308129072189331,0.0335404574871063,0.0763702169060707,0.0,0.0,-0.4407626390457153,0.4909720420837402
-0.0182365421205759,1.1606156826019287,-0.0437826812267303,-0.7580536007881165,0.0375600159168243,0.0803982764482498,0.0,0.0,-0.6828832626342773,0.7327466011047363
-0.0185377113521099,1.1429481506347656,-0.0328678637742996,-0.7852934002876282,0.0402747429907321,0.0542993657290935,0.0,0.0,-0.2969820499420166,0.4426780939102173
-0.0188023559749126,1.1246681213378906,-0.0293736569583416,-0.8125335574150085,0.0431479327380657,0.0574690625071525,0.0,0.0,0.2903468608856201,0.8071556091308594
-0.0189153663814067,1.1061395406723022,-0.0127918422222137,-0.823526918888092,0.0446194522082805,0.0294330306351184,0.0,0.0,0.0749602317810058,0.3216935396194458
-0.0191035270690917,1.0876197814941406,-0.0199865847826004,-0.8231418132781982,0.0457757487893104,0.0231278464198112,0.0,0.0,0.3886464834213257,0.2163785696029663
-0.0194049831479787,1.0693438053131104,-0.0308343470096588,-0.8122795224189758,0.0464548915624618,0.0135828526690602,0.0,0.0,0.363323450088501,0.3851704597473144
-0.0196959488093853,1.0513536930084229,-0.0298727061599493,-0.799586296081543,0.0472150258719921,0.0152028109878301,0.0,0.0,0.158415675163269,0.3534133434295654
-0.0200711246579885,1.033611297607422,-0.0379008427262306,-0.7885634303092957,0.047594379633665,0.007586951367557,0.0,0.0,0.6577962636947632,0.5941540002822876
-0.0205431934446096,1.0164189338684082,-0.0460577942430973,-0.7640734910964966,0.0464607030153274,-0.0226737577468156,0.0,0.0,-0.1375995874404907,-0.3638589382171631
-0.0209815017879009,0.9986137747764589,-0.0426764450967311,-0.7913103699684143,0.0453233309090137,-0.0227475818246603,0.0,0.0,0.2875318527221679,-0.7294263243675232
-0.0214578621089458,0.9811896681785583,-0.0479544661939144,-0.7744107842445374,0.045631144195795,0.0061562629416584,0.0,0.0,0.5168955326080322,0.1070781946182251
-0.0219912528991699,0.9637508988380432,-0.053261898458004,-0.7750580310821533,0.0455585494637489,-0.0014520724071189,0.0,0.0,0.5220935344696045,0.1545404195785522
-0.0226019863039255,0.9468006491661072,-0.0605693235993385,-0.7533305883407593,0.0450613424181938,-0.0099441949278116,0.0,0.0,0.1622978448867797,0.4186629056930542
-0.0232373233884573,0.9296146035194396,-0.0627194494009018,-0.7637966871261597,0.0442617498338222,-0.0159920267760753,0.0,0.0,0.6122939586639404,-0.4067901968955993
-0.0238527301698923,0.9127339720726012,-0.0606901124119758,-0.7502216696739197,0.0434188358485698,-0.0168580561876297,0.0,0.0,0.1546230316162109,-0.0980784893035888
-0.024448012933135,0.8960334658622742,-0.0585901737213134,-0.7422172427177429,0.042496807873249,-0.0184406284242868,0.0,0.0,0.1495288610458374,-0.4171363115310669
-0.0250452049076557,0.8791936635971069,-0.0585374012589454,-0.7484022378921509,0.0413318760693073,-0.0232987403869628,0.0,0.0,0.8017004728317261,-0.4471096992492676
-0.0256060604006052,0.8629876971244812,-0.054925613105297,-0.7202359437942505,0.0401805974543094,-0.0230252426117658,0.0,0.0,0.3764787912368774,-0.8559067845344543
-0.0262720100581645,0.8472241759300232,-0.0669070705771446,-0.7006129026412964,0.0404927395284175,0.0062427218072116,0.0,0.0,-0.7031591534614563,-0.1156786680221557
-0.0269103050231933,0.8308475017547607,-0.0639374628663063,-0.7278488874435425,0.0405891723930835,0.0019288917537778,0.0,0.0,-0.3445406556129455,-0.3381084203720093
-0.0275220870971679,0.8138580322265625,-0.0610342621803283,-0.7550848126411438,0.0404523983597755,-0.0027355055790394,0.0,0.0,0.17153000831604,0.3032510280609131
-0.0280355457216501,0.7968172430992126,-0.0513685755431652,-0.7573683857917786,0.040470503270626,0.0003622089861892,0.0,0.0,0.0618976354598999,-0.2434658408164978
-0.0284700393676757,0.7794694304466248,-0.0434843488037586,-0.7710164189338684,0.0405116900801658,0.0008234916022047,0.0,0.0,0.0136905908584594,0.0382310152053833
-0.0288328174501657,0.7619984149932861,-0.0363289713859558,-0.7764901518821716,0.0405537821352481,0.0008422773098573,0.0,0.0,0.3756306171417236,0.8307077884674072
-0.029155159369111,0.744273841381073,-0.0302597638219594,-0.7877089977264404,0.0386046916246414,-0.0389820300042629,0.0,0.0,0.0395017862319946,0.0862222909927368
-0.0294351577758789,0.7262529730796814,-0.0258442126214504,-0.8008682131767273,0.0364809148013591,-0.0424752831459045,0.0,0.0,0.4619905948638916,0.1505601406097412
-0.0296551696956157,0.708215057849884,-0.0197780933231115,-0.8016330003738403,0.0342859365046024,-0.0438998788595199,0.0,0.0,0.1504629850387573,0.1375718116760254
-0.0299540515989065,0.6904306411743164,-0.0269726514816284,-0.7903556227684021,0.0313961990177631,-0.057794589549303,0.0,0.0,-0.3833369016647339,-0.1240608096122741
-0.0302352905273437,0.672033429145813,-0.0248474478721618,-0.817592203617096,0.0281628854572772,-0.0646659880876541,0.0,0.0,0.6161823272705078,-0.1735038757324218
-0.0305348392575979,0.6537684798240662,-0.0262264218181371,-0.8117080926895142,0.0244800169020891,-0.0736576095223426,0.0,0.0,-0.1606890559196472,-0.1194576025009155
-0.0308195110410451,0.6348907351493835,-0.0243739876896142,-0.838945209980011,0.0204339325428009,-0.080921784043312,0.0,0.0,0.9532939195632936,-0.3611780405044555
-0.0311768539249897,0.616704523563385,-0.0309339947998523,-0.8082174062728882,0.0157009121030569,-0.0946607664227485,0.0,0.0,0.9116969108581544,-0.6080573797225952
-0.0314434990286827,0.5986758470535278,-0.0230743549764156,-0.8012414574623108,0.0121628148481249,-0.0707620829343795,0.0,0.0,0.7633627653121948,-0.5438711047172546
-0.0317499153316021,0.5813157558441162,-0.027773305773735,-0.7715414762496948,0.0093284379690885,-0.0566872656345367,0.0,0.0,0.4864466190338135,0.1295737028121948
-0.0319182388484478,0.5640026330947876,-0.0141907725483179,-0.7694554924964905,0.0067198951728641,-0.0521709099411964,0.0,0.0,0.7223762273788452,0.070674180984497
-0.0321831703186035,0.5468126535415649,-0.022977877408266,-0.763987123966217,0.0032499937806278,-0.069397933781147,0.0,0.0,0.4826347827911377,-0.5275720357894897
-0.0323967933654785,0.5300878286361694,-0.0187343042343854,-0.7433199286460876,0.0006492989487014,-0.0520136058330535,0.0,0.0,0.5047779083251953,-0.0220593810081481
-0.032482624053955,0.5136719346046448,-0.0061253430321812,-0.7295995354652405,-0.0017813155427575,-0.0486122407019138,0.0,0.0,0.6697555780410767,-0.4332864880561828
-0.0324910171329975,0.4978911876678467,0.0016986737027764,-0.7013711333274841,-0.0042786956764757,-0.0499476194381713,0.0,0.0,-0.3076851367950439,0.4015011787414551
-0.032500647008419,0.4814977943897247,0.0019804644398391,-0.7286084294319153,-0.0071963085792958,-0.058352243155241,0.0,0.0,0.8727262020111084,-0.3521329760551452
-0.0324527733027935,0.4651207327842712,0.0079016890376806,-0.7278896570205688,-0.0102695627138018,-0.0614650547504425,0.0,0.0,0.6593706607818604,-0.4534468650817871
-0.0325037017464637,0.4491892755031585,-0.0010796528076753,-0.7080975770950317,-0.0142362182959914,-0.079333022236824,0.0,0.0,0.823441743850708,-0.8174933195114136
-0.0324690826237201,0.4334974288940429,0.0059707704931497,-0.6974407434463501,-0.0167107041925191,-0.0494898036122322,0.0,0.0,0.4925606250762939,-0.0683581233024597
-0.0324131958186626,0.4180229306221008,0.0084325587376952,-0.6877900958061218,-0.0195199772715568,-0.0561854764819145,0.0,0.0,0.7876482009887695,-0.4939083456993103
-0.0323516838252544,0.4025860726833343,0.009403945878148,-0.6861288547515869,-0.0227257423102855,-0.0641155019402504,0.0,0.0,0.8524715900421143,-0.7668885588645935
-0.0325000770390033,0.3875380754470825,-0.0123592233285307,-0.668840765953064,-0.0251726955175399,-0.0489391572773456,0.0,0.0,0.977942705154419,-0.2660629749298095
-0.0326118469238281,0.3734128475189209,-0.0083752525970339,-0.6278368830680847,-0.0279404670000076,-0.0553553700447082,0.0,0.0,0.8896980285644531,0.1463510990142822
-0.0326370224356651,0.3591727614402771,0.0002850173623301,-0.6329507827758789,-0.030715188011527,-0.0554941818118095,0.0,0.0,0.8937627077102661,-0.4864727258682251
-0.0326196663081646,0.3457857370376587,0.0048575852997601,-0.5950450301170349,-0.0337892845273017,-0.0614821389317512,0.0,0.0,0.6119000911712646,-0.8866766691207886
-0.0327795036137104,0.3324834108352661,-0.0140572367236018,-0.5912584662437439,-0.0356931462883949,-0.0380773581564426,0.0,0.0,0.9761651754379272,0.1959636211395263
-0.0330416671931743,0.3197885751724243,-0.0233260579407215,-0.5642874240875244,-0.0385499820113182,-0.0571367964148521,0.0,0.0,0.852141261100769,-0.4774771928787231
-0.0332654938101768,0.3075250089168548,-0.019193721935153,-0.5451323390007019,-0.0416929721832275,-0.0628598630428314,0.0,0.0,-0.382932186126709,-0.5744958519935608
-0.0335684791207313,0.2946588397026062,-0.0280742552131414,-0.571893572807312,-0.0438938774168491,-0.0440181344747543,0.0,0.0,0.7826317548751831,-0.5238953828811646
-0.0338269248604774,0.2821110486984253,-0.0244592372328043,-0.5577208995819092,-0.0452597290277481,-0.0273170322179794,0.0,0.0,0.8971512317657471,-0.0394701361656188
-0.034130573272705,0.2696263194084167,-0.0283402260392904,-0.5549395084381104,-0.0472517609596252,-0.0398408845067024,0.0,0.0,0.9601176977157592,-0.2399144768714904
-0.0343631729483604,0.2571011781692505,-0.0211760140955448,-0.5567384362220764,-0.0493178963661193,-0.0413224473595619,0.0,0.0,0.91405987739563,-0.4655554294586181
-0.034641932696104,0.2445555329322815,-0.0251656770706176,-0.5576784610748291,-0.052000667899847,-0.0536555238068103,0.0,0.0,0.937985062599182,-0.865825891494751
-0.0349812507629394,0.2328050881624221,-0.0324798859655857,-0.5222912430763245,-0.0534278266131877,-0.0285432003438472,0.0,0.0,0.93957781791687,-0.5473964214324951
-0.0352436080574989,0.2218775600194931,-0.0257368125021457,-0.4856830239295959,-0.053921777755022,-0.0098790321499109,0.0,0.0,0.215996503829956,-0.444284439086914
-0.035587690770626,0.2112453579902649,-0.0330679044127464,-0.4725926518440246,-0.0552443899214267,-0.0264520831406116,0.0,0.0,0.5520215034484863,-0.0930446982383728
-0.0360683426260948,0.2004766762256622,-0.0457072742283344,-0.4786930978298187,-0.0575752928853035,-0.0466180406510829,0.0,0.0,0.5933516025543213,-0.4206348657608032
-0.0364993102848529,0.1902340054512024,-0.0404772907495498,-0.4553341865539551,-0.0601716600358486,-0.0519271865487098,0.0,0.0,0.1630277633666992,-0.8452176451683044
-0.037088967859745,0.179998904466629,-0.0575400218367576,-0.4549513459205627,-0.061577208340168,-0.0281111933290958,0.0,0.0,0.2886171340942383,-0.4168539047241211
-0.0377230644226074,0.1699468493461609,-0.06133883446455,-0.44684499502182,-0.0636242106556892,-0.0409402810037136,0.0,0.0,0.2995989322662353,-0.3278549909591675
-0.0383665077388286,0.1601067185401916,-0.0617757923901081,-0.437450110912323,-0.0661573335528373,-0.0506625100970268,0.0,0.0,-0.1385799050331115,-0.2165750861167907
-0.0390452370047569,0.1496542543172836,-0.0648671835660934,-0.4646897614002228,-0.0691317543387413,-0.0594886317849159,0.0,0.0,0.6764402389526367,-0.4267464876174927
-0.0397117622196674,0.139106810092926,-0.063317209482193,-0.4689346849918365,-0.0724349170923233,-0.0660629346966743,0.0,0.0,0.9450550079345704,0.458031415939331
-0.0402712821960449,0.1286443322896957,-0.0526822283864021,-0.4651579856872558,-0.075671337544918,-0.0647282302379608,0.0,0.0,0.9830423593521118,-0.5593419075012207
-0.0406727790832519,0.1185784637928009,-0.0381182506680488,-0.4474779367446899,-0.0776859372854232,-0.0402919463813304,0.0,0.0,0.9060133695602416,-0.3963414430618286
-0.0409155860543251,0.1085619553923606,-0.0225564520806074,-0.445269376039505,-0.079391524195671,-0.0341117456555366,0.0,0.0,0.993943691253662,-0.7322845458984375
-0.0411885268986225,0.0993018224835395,-0.0265869051218032,-0.4115947782993316,-0.0800879746675491,-0.0139289451763033,0.0,0.0,0.947758674621582,-0.3051424026489258
-0.0413909927010536,0.0907622426748275,-0.019278947263956,-0.3795923292636871,-0.0810465142130851,-0.0191708859056234,0.0,0.0,0.843827486038208,-0.6798499822616577
-0.0414747223258018,0.0827141106128692,-0.0087106311693787,-0.3576769232749939,-0.0807157009840011,0.0066164485178887,0.0,0.0,0.6544582843780518,-0.4492232799530029
-0.0414694771170616,0.074530154466629,0.0001542551908642,-0.3637118935585022,-0.0803435295820236,0.0074432305991649,0.0,0.0,0.9501543045043944,-0.191152811050415
-0.041515827178955,0.0666400268673896,-0.0043018413707613,-0.3506913781166076,-0.0806814730167388,-0.0067589036189019,0.0,0.0,0.9067296981811525,0.2996135950088501
-0.0414230339229106,0.0596144311130046,0.0095963217318058,-0.3122647404670715,-0.080987848341465,-0.0061275851912796,0.0,0.0,0.5569944381713867,-0.7003536224365234
-0.0414045341312885,0.0527877435088157,0.0012194488663226,-0.3033725917339325,-0.0803640559315681,0.012475898489356,0.0,0.0,0.708835244178772,-0.1045389771461486
-0.0414869301021099,0.0465944856405258,-0.0078471358865499,-0.2752788364887237,-0.0807495266199112,-0.0077093988656997,0.0,0.0,0.6284531354904175,-0.2013534903526306
-0.0414669997990131,0.0408068522810936,0.0023919322993606,-0.2572512924671173,-0.0811484977602958,-0.0079794107005,0.0,0.0,0.3839155435562134,0.5802741050720215
-0.0414377227425575,0.0353509522974491,0.0050067855045199,-0.2425975650548935,-0.0832135304808616,-0.041300430893898,0.0,0.0,0.3141970634460449,-0.2958998680114746
-0.0414635650813579,0.0301812980324029,0.0002188341168221,-0.2299186289310455,-0.0859856233000755,-0.0554420240223407,0.0,0.0,0.3788003921508789,0.4581979513168335
-0.041513442993164,0.0250232312828302,-0.001684078364633,-0.2294422090053558,-0.0892522558569908,-0.0653326660394668,0.0,0.0,0.6918988227844238,-0.0168875455856323
-0.041666317731142,0.0201891046017408,-0.0110476780682802,-0.2151111811399459,-0.0934657007455825,-0.0842686742544174,0.0,0.0,0.5415037870407104,0.1025128364562988
-0.0419527068734169,0.015492376871407,-0.0233325157314538,-0.2090833634138107,-0.0987180843949318,-0.1050480157136917,0.0,0.0,0.5230386257171631,0.2400969266891479
-0.0421156883239746,0.0111580705270171,-0.0110718999058008,-0.1929880231618881,-0.1039034500718116,-0.1037074476480484,0.0,0.0,0.6056473255157471,0.208282470703125
-0.0421440117061138,0.0074973199516534,-0.0163022968918085,-0.1618152558803558,-0.090562418103218,0.2668042778968811,1.0,0.0,0.651832103729248,0.3713351488113403
-0.041846752166748,0.0049890256486833,-0.001845738152042,-0.1098763272166252,-0.0592564344406127,0.6261769533157349,1.0,0.0,0.5995209217071533,-0.0313663482666015
-0.0414703376591205,0.0033258413895964,-0.0026144147850573,-0.0728188827633857,-0.0194325279444456,0.7965472340583801,1.0,0.0,0.7911875247955322,0.9594581127166748
-0.0408568382263183,0.0024171448312699,0.0244536977261304,-0.040307518094778,0.0169930271804332,0.7285114526748657,1.0,0.0,0.1299483776092529,0.992027759552002
-0.040109634399414,0.0015105223283171,0.0398539379239082,-0.0410484597086906,0.0514342002570629,0.6888245940208435,0.0,1.0,0.4995512962341308,0.9771780967712402
-0.039466954767704,0.0015162802301347,0.0436899550259113,-0.0007971209124661,0.0706285163760185,0.3824090361595154,0.0,1.0,-0.6349026560783386,0.7648725509643555
-0.0389695167541503,0.0013886070810258,0.0489186942577362,-0.0057218107394874,0.0714207366108894,0.0157963503152132,0.0,1.0,-0.4415472149848938,0.1438328027725219
-0.0386408790946006,0.001047751866281,0.0463376566767692,-0.0145674441009759,0.0580600872635841,-0.2672509551048279,0.0,1.0,-0.2531360387802124,-0.1133403778076171
-0.0383578315377235,0.0003806686436291,0.0497154965996742,-0.0289593059569597,0.0368693508207798,-0.4238449037075043,0.0,1.0,-0.2399891018867492,-0.1727669239044189
-0.0380932800471782,-0.0007633114000782,0.0514541380107402,-0.050420768558979,0.0121656395494937,-0.4941072463989258,0.0,1.0,-0.0791733264923095,-0.239804983139038
-0.0377522483468055,-0.0016761207953095,0.0442559644579887,-0.0405268520116806,0.0021508510690182,-0.2002929151058197,1.0,1.0,0.2882531881332397,-0.6851238012313843
-0.03743152692914,-0.0017367744585499,0.0317760743200778,-0.0027064005844295,0.0024444251321256,0.0058839498087763,1.0,1.0,-0.4302921295166015,-0.7422985434532166
-0.0372347831726074,-0.0017409229185432,0.019806008785963,-0.0001931384467752,0.0023225541226565,-0.002426522783935,1.0,1.0,-0.428606629371643,-0.0936598181724548
-0.0371241569519043,-0.0015725159319117,0.0124840941280126,0.0074806800112128,0.0009327422012574,-0.0277882274240255,1.0,1.0,-0.6678623557090759,-0.1531783938407898
-0.0370409004390239,-0.0012678885832428,0.0106605226173996,0.0135430991649627,-0.0013907877728343,-0.0464913696050643,1.0,1.0,-0.5586413145065308,-0.1638438701629638
