x_pos,y_pos,x_vel,y_vel,angle,ang_vel,leg_1,leg_2,main_booster,lat_booster
-0.001473045325838,1.4032195806503296,-0.1495411396026611,-0.3422414064407348,0.0020097149536013,0.0396615490317344,0.0,0.0,-0.1188907784647084,-0.6069621363997854
-0.0029396056197583,1.395134449005127,-0.1500130146741867,-0.3593437373638153,0.0053293681703507,0.0663999617099762,0.0,0.0,-0.1306733324575035,0.2962230932003945
-0.0043569565750658,1.3866443634033203,-0.1453467309474945,-0.3773589432239532,0.0089032864198088,0.0714847296476364,0.0,0.0,0.8786285738792163,0.2940027745205118
-0.0058666230179369,1.378599762916565,-0.1541688293218612,-0.3575566709041595,0.01207528822124,0.0634457692503929,0.0,0.0,0.3712279419900888,-0.7301156347716803
-0.0072737694717943,1.370965838432312,-0.1458238065242767,-0.3393379151821136,0.017135651782155,0.1012167558073997,0.0,0.0,-0.5878987492705621,0.0914432872954043
-0.0086348531767725,1.3629274368286133,-0.1414586305618286,-0.3573339879512787,0.0224249456077814,0.1057954654097557,0.0,0.0,-0.0922327868882282,0.9049780076834484
-0.0098827360197901,1.3544869422912598,-0.1286097019910812,-0.3751952350139618,0.0262103769928216,0.0757154300808906,0.0,0.0,-0.475545442408966,-0.2136756783216671
-0.0110871316865086,1.3456419706344604,-0.1244780197739601,-0.393187403678894,0.030206898227334,0.0799377411603927,0.0,0.0,-0.8958573084105255,0.8478769266647325
-0.0121842380613088,1.33640456199646,-0.1122922897338867,-0.4106055498123169,0.0327552482485771,0.0509716160595417,0.0,0.0,-0.6785620971904962,0.6926154523642847
-0.0131864547729492,1.326769471168518,-0.1016059517860412,-0.4282562434673309,0.0341208912432193,0.0273155532777309,0.0,0.0,-0.7839365740120223,0.984538698400762
-0.0140611650422215,1.3167349100112915,-0.0867732539772987,-0.4459637999534607,0.0334319323301315,-0.0137806218117475,0.0,0.0,0.1002638089017124,0.4155585529214284
-0.0148632051423192,1.3068253993988037,-0.0798999220132827,-0.4404153227806091,0.0331292636692523,-0.0060536889359354,0.0,0.0,0.239447945736233,-0.6442392264404594
-0.0155893322080373,1.2973041534423828,-0.0739354491233825,-0.4232047498226166,0.0344378948211669,0.0261747930198907,0.0,0.0,-0.2296133534457467,0.7582437516796501
-0.0162151344120502,1.2873742580413818,-0.0623456239700317,-0.4413222968578338,0.034204363822937,-0.0046707922592759,0.0,0.0,-0.3522937557275782,0.2310899242526041
-0.0168093685060739,1.277039647102356,-0.0593079924583435,-0.4593105912208557,0.0340909399092197,-0.0022689444012939,0.0,0.0,-0.1623045308027639,-0.2806790986136074
-0.0173741336911916,1.2663003206253052,-0.0564650408923625,-0.477301150560379,0.0340802930295467,-0.0002131477958755,0.0,0.0,0.4766988080215963,0.5379746475735417
-0.017762565985322,1.2563178539276123,-0.0381749980151653,-0.4436545968055725,0.0334218740463256,-0.0131693901494145,0.0,0.0,-0.4393008819078672,0.4923326276950979
-0.0181260108947753,0.0,-0.0357447788119316,-0.4616548418998718,0.0328335277736187,-0.0117677254602313,0.0,0.0,0.0983842406302335,-0.618786578393047
-0.0184608455747365,0.0,-0.0342913009226322,-0.4438005089759826,0.0336302071809768,0.0159348957240581,0.0,0.0,0.5846534989514958,0.28476001658048
-0.0188711173832416,1.226365089416504,-0.041507638990879,-0.4257929921150207,0.0340996347367763,0.009389653801918,0.0,0.0,-0.2700333594537847,0.5199876468724597
-0.0192142482846975,1.2163865566253662,-0.0335350781679153,-0.4434767365455627,0.0333346351981163,-0.0153012098744511,0.0,0.0,-0.3485078751060999,-0.7618414464017949
-0.0196012500673532,1.205995798110962,-0.0394366085529327,-0.4618211686611175,0.0340548641979694,0.0144061315804719,0.0,0.0,0.2069372110035987,0.777129572916222
-0.019820213317871,1.195804476737976,-0.021156508475542,-0.4529406130313873,0.0333192721009254,-0.0147128803655505,0.0,0.0,0.3786095308609272,0.6215211994264594
-0.019925307482481,1.1855971813201904,-0.0086008319631218,-0.4536111950874328,0.0314410626888275,-0.0375675074756145,0.0,0.0,-0.2715055032773337,-0.7995727894977397
-0.0201019290834665,1.1749836206436155,-0.017702143639326,-0.4717105627059936,0.0314751490950584,0.0006818865658715,0.0,0.0,0.3559061917056072,-0.9161543684501248
-0.0205024722963571,1.164805293083191,-0.0417495593428611,-0.4524101912975311,0.0331480205059051,0.0334572233259677,0.0,0.0,-0.4237341161676982,-0.2983243929296191
-0.0209025386720895,1.1542222499847412,-0.041611261665821,-0.4703993499279022,0.0347344167530536,0.0317280329763889,0.0,0.0,-0.4177684419373648,-0.0354402898509053
-0.0213050842285156,1.143234133720398,-0.0417641215026378,-0.4883884489536285,0.0362184196710586,0.0296798944473266,0.0,0.0,0.625001772996429,0.0252345784526365
-0.0218691825866699,1.132976531982422,-0.0571959987282753,-0.4559144377708435,0.036990862339735,0.0154488552361726,0.0,0.0,0.9197817351298394,0.2595382544126231
-0.0224874503910541,1.1231619119644165,-0.0623655244708061,-0.4362152814865112,0.0375179685652256,0.0105419950559735,0.0,0.0,0.8446747790862887,-0.3712996578195282
-0.0231324192136526,1.1143606901168823,-0.0649758726358413,-0.3911784887313843,0.037995271384716,0.0095461867749691,0.0,0.0,-0.9941818118095398,0.9842251539230348
-0.0237246509641408,1.1051528453826904,-0.0578238740563392,-0.4092066586017608,0.0366088077425956,-0.0277292728424072,0.0,0.0,-0.9765936136245728,0.5519230365753174
-0.0242979042232036,1.0955471992492676,-0.054789625108242,-0.4268498122692108,0.0341022834181785,-0.0501306056976318,0.0,0.0,-0.9657108187675476,-0.6086617708206177
-0.0249460227787494,1.0855287313461304,-0.0634500458836555,-0.4452365636825561,0.0327517464756965,-0.0270105302333831,0.0,0.0,-0.9327210187911988,-0.2697085738182068
-0.0256192199885845,1.0751053094863892,-0.0657588243484497,-0.4632253348827362,0.0312069151550531,-0.0308964941650629,0.0,0.0,-0.9922457933425904,0.2710912227630615
-0.026320744305849,1.064277410507202,-0.0683831870555877,-0.4812142252922058,0.029457813128829,-0.0349819101393222,0.0,0.0,-0.9226756691932678,0.1899260282516479
-0.0270539280027151,1.0530444383621216,-0.0713225305080413,-0.4992031753063202,0.0274952687323093,-0.0392511002719402,0.0,0.0,-0.9963192343711852,-0.536409318447113
-0.0278615951538085,1.0414090156555176,-0.079570397734642,-0.5171001553535461,0.026309810578823,-0.0237092338502407,0.0,0.0,-0.9919183850288392,0.7400634288787842
-0.0286527629941701,1.0293794870376587,-0.0762825608253479,-0.5346031188964844,0.0235181767493486,-0.0558324083685874,0.0,0.0,-0.8395830988883972,-0.4248697757720947
-0.029485035687685,1.0169451236724854,-0.0801547095179557,-0.5525925159454346,0.0204899758100509,-0.0605640783905983,0.0,0.0,-0.9463697075843812,-0.8159978985786438
-0.0304375644773244,1.00411057472229,-0.0938770473003387,-0.5704068541526794,0.0191288106143474,-0.0272233486175537,0.0,0.0,-0.9092662930488586,-0.3893059492111206
-0.0314373970031738,0.990871250629425,-0.0983528643846511,-0.5883958339691162,0.0175189916044473,-0.0321964211761951,0.0,0.0,-0.984687328338623,0.0655574798583984
-0.0324874892830848,0.9772271513938904,-0.1031227484345436,-0.6063848733901978,0.0156553611159324,-0.0372726023197174,0.0,0.0,-0.9920307397842408,-0.6041680574417114
-0.0336307510733604,0.963176131248474,-0.1131885796785354,-0.6244813799858093,0.0145367365330457,-0.0223726853728294,0.0,0.0,-0.9929529428482056,0.0321793556213378
-0.034830093383789,0.9487202167510986,-0.1185279041528701,-0.6424704194068909,0.0131555451080203,-0.027623776346445,0.0,0.0,-0.932849645614624,-0.1250264048576355
-0.0360881797969341,0.933859646320343,-0.1241413727402687,-0.660459578037262,0.0115081276744604,-0.0329484567046165,0.0,0.0,-0.9513930678367616,-0.3268715143203735
-0.0374077782034873,0.918594241142273,-0.1300213485956192,-0.6784487366676331,0.009591213427484,-0.0383384712040424,0.0,0.0,-0.7843330502510071,-0.4616031646728515
-0.0387915596365928,0.902924120426178,-0.136159747838974,-0.6964380145072937,0.0074018891900777,-0.0437863320112228,0.0,0.0,-0.8676741719245911,-0.3788102269172668
-0.0402419082820415,0.8868491649627686,-0.1425481438636779,-0.7144275307655334,0.0049376161769032,-0.0492853075265884,0.0,0.0,-0.3926416635513305,-0.6518110036849976
-0.0418149009346962,0.8703672289848328,-0.1558765023946762,-0.7325228452682495,0.0035378641914576,-0.0279953330755233,0.0,0.0,-0.689285159111023,-0.2473713159561157
-0.0434593185782432,0.8534807562828064,-0.162738561630249,-0.7505120635032654,0.0018589050741866,-0.033578835427761,0.0,0.0,-0.6480638980865479,-0.1357485651969909
-0.0451773628592491,0.8361894488334656,-0.1698239296674728,-0.7685015201568604,-0.0001009533079923,-0.0391969345510005,0.0,0.0,-0.090528666973114,-0.26008141040802
-0.046971321105957,0.8184934854507446,-0.1771234422922134,-0.7864910960197449,-0.0023432134184986,-0.04484523832798,0.0,0.0,0.4798421859741211,0.4543379545211792
-0.0488386154174804,0.8014644980430603,-0.1841852813959121,-0.7568479180335999,-0.0048560271970927,-0.0502561330795288,0.0,0.0,-0.9171434044837952,0.3901339769363403
-0.0507858283817768,0.7840310335159302,-0.191885620355606,-0.7748377919197083,-0.0076536848209798,-0.055953461676836,0.0,0.0,-0.4270479083061218,0.7482531070709229
-0.0527649894356727,0.7661889791488647,-0.1935234814882278,-0.7930078506469727,-0.011989202350378,-0.0867101401090622,0.0,0.0,0.4538630247116089,0.2885401248931885
-0.0547365173697471,0.7489930987358093,-0.1928599625825882,-0.7643090486526489,-0.0162287633866071,-0.0847914665937423,0.0,0.0,-0.4632997512817383,0.7098431587219238
-0.0567242614924907,0.7313939332962036,-0.1924279481172561,-0.7822657227516174,-0.0224907826632261,-0.1252405345439911,0.0,0.0,-0.2531940937042236,0.6235182285308838
-0.0587431900203228,0.713395357131958,-0.1938546448945999,-0.8000776171684265,-0.0304342862218618,-0.1588702499866485,0.0,0.0,0.5313377380371094,0.1418490409851074
-0.0608990676701068,0.6960881948471069,-0.2069076299667358,-0.7694032192230225,-0.0389929339289665,-0.1711729764938354,0.0,0.0,-0.9405551552772522,0.1544930934906005
-0.0631445869803428,0.6783775687217712,-0.2155976742506027,-0.7873995304107666,-0.0478405766189098,-0.1769531071186065,0.0,0.0,-0.8241928219795227,-0.1117752790451049
-0.0654812827706337,0.6602634787559509,-0.2244236767292022,-0.8053964376449585,-0.0569776035845279,-0.1827408969402313,0.0,0.0,-0.9413159489631652,0.427438735961914
-0.0679103881120681,0.641745924949646,-0.2333779036998748,-0.8233939409255981,-0.0664043799042701,-0.1885351836681366,0.0,0.0,0.0309029817581176,0.4636975526809692
-0.0703929886221885,0.6233960390090942,-0.2385154217481613,-0.8160125613212585,-0.0760531276464462,-0.1929753124713897,0.0,0.0,0.9114388227462769,0.33250892162323
-0.072926141321659,0.605335533618927,-0.2433191537857055,-0.8032268285751343,-0.0859503000974655,-0.1979430913925171,0.0,0.0,0.2560461759567261,0.7849551439285278
-0.0755610466003418,0.5875498652458191,-0.2515215277671814,-0.7912031412124634,-0.0978156253695488,-0.2373067140579223,0.0,0.0,0.2964729070663452,0.4639221429824829
-0.0782103538513183,0.5703617334365845,-0.2527597546577453,-0.7647536396980286,-0.1098936051130294,-0.2415598630905151,0.0,0.0,-0.6580256223678589,0.0862163305282592
-0.0809573158621788,0.5527713298797607,-0.2622511684894562,-0.7827577590942383,-0.1222622990608215,-0.2473737448453903,0.0,0.0,-0.2877499461174011,0.8404371738433838
-0.0837330818176269,0.5347760319709778,-0.2630967199802398,-0.8010426163673401,-0.1366707384586334,-0.2881688475608825,0.0,0.0,0.6767634153366089,0.490261435508728
-0.0866373032331466,0.517112672328949,-0.2752321660518646,-0.7864968776702881,-0.1518119126558303,-0.302823543548584,0.0,0.0,0.2445933818817138,0.6856162548065186
-0.0895868316292762,0.4998129904270172,-0.2780426144599914,-0.7706853151321411,-0.1687250584363937,-0.3382632434368133,0.0,0.0,-0.3008260726928711,0.8331396579742432
-0.0925685912370681,0.4820976257324219,-0.2792670130729675,-0.7896072864532471,-0.1876827031373977,-0.3791529238224029,0.0,0.0,0.1941311359405517,0.7545559406280518
-0.0955817252397537,0.4649042189121246,-0.2805874049663543,-0.766911506652832,-0.2085469216108322,-0.4172846376895904,0.0,0.0,0.4081506729125976,0.2968169450759887
-0.0985331535339355,0.4480153322219848,-0.2745061218738556,-0.7536638379096985,-0.2294125854969024,-0.4173128604888916,0.0,0.0,-0.1652045249938964,-0.2077828645706176
-0.1015865355730056,0.4307282269001007,-0.2845161855220794,-0.7716942429542542,-0.2505694925785064,-0.4231384694576263,0.0,0.0,0.9175243377685548,-0.4339895248413086
-0.1045722961425781,0.4135620296001434,-0.2779379785060882,-0.7666031122207642,-0.2716528475284576,-0.4216671586036682,0.0,0.0,0.9982552528381348,-0.7728493809700012
-0.1076507568359375,0.3966244757175445,-0.2884685397148132,-0.7565026879310608,-0.2915637195110321,-0.3982172012329101,0.0,0.0,0.9723966121673584,-0.8477755188941956
-0.1106332764029502,0.3806892931461334,-0.2803535163402557,-0.7119205594062805,-0.3100587129592895,-0.3698994517326355,0.0,0.0,0.9810624122619628,-0.8853569030761719
-0.1133854836225509,0.36574387550354,-0.2590826153755188,-0.6677775979042053,-0.3268288075923919,-0.3354012668132782,0.0,0.0,0.9604339599609376,-0.99481463432312
-0.1161425560712814,0.3518942594528198,-0.2610993981361389,-0.6189162731170654,-0.3420857489109039,-0.3051387369632721,0.0,0.0,0.688268780708313,-0.9551789164543152
-0.1191036254167556,0.3382252156734466,-0.2829759418964386,-0.6106913089752197,-0.3558822274208069,-0.2759295701980591,0.0,0.0,0.8340338468551636,-0.9615182280540466
-0.1218862533569336,0.3254101872444153,-0.2668653130531311,-0.5724315643310547,-0.3679133355617523,-0.2406219542026519,0.0,0.0,0.7826501131057739,-0.9991185665130616
-0.1247388869524002,0.3131707906723022,-0.2754165828227997,-0.5465370416641235,-0.3783428966999054,-0.208591490983963,0.0,0.0,0.4875664710998535,-0.9976257085800172
-0.1275962889194488,0.3014584183692932,-0.2775574326515198,-0.5227393507957458,-0.3870462477207184,-0.1740671694278717,0.0,0.0,0.1124899387359619,-0.9861319661140442
-0.130461499094963,0.2900515794754028,-0.2800122499465942,-0.508759617805481,-0.3939983248710632,-0.1390414237976074,0.0,0.0,0.5942850112915039,-0.9023483395576476
-0.1331960707902908,0.2790060341358185,-0.2685395777225494,-0.4922845661640167,-0.3992596268653869,-0.1052253991365432,0.0,0.0,0.7879436016082764,-0.7133832573890686
-0.1359213888645172,0.2680795192718506,-0.2687703669071197,-0.4866886138916015,-0.403286874294281,-0.0805447250604629,0.0,0.0,0.873401403427124,-0.8716316819190979
-0.1385327279567718,0.2573459446430206,-0.2589812576770782,-0.4776599109172821,-0.405602365732193,-0.0463095568120479,0.0,0.0,0.8800022602081299,-0.5837950706481934
-0.1408730447292328,0.2470261007547378,-0.2331694811582565,-0.4589046835899353,-0.4065223336219787,-0.018399391323328,0.0,0.0,0.8443293571472168,-0.5975117087364197
-0.1430379897356033,0.2368344813585281,-0.2169193029403686,-0.4528389275074005,-0.4060692489147186,0.0090619558468461,0.0,0.0,0.9037361145019532,-0.9532972574234008
-0.1450419425964355,0.2274875193834304,-0.2023814618587494,-0.4148536920547485,-0.4039358794689178,0.042667344212532,0.0,0.0,0.8805651664733887,-0.5756778717041016
-0.1468198746442794,0.2189367115497589,-0.1807235330343246,-0.3792027831077575,-0.4007940590381622,0.0628362745046615,0.0,0.0,0.9248292446136476,-0.5561519265174866
-0.1482998877763748,0.2109935134649276,-0.1521459966897964,-0.3518685698509216,-0.3963556587696075,0.088768258690834,0.0,0.0,0.8361825942993164,-0.8644626140594482
-0.1496986448764801,0.2031088918447494,-0.1456155925989151,-0.3488392233848572,-0.3902118802070617,0.1228753328323364,0.0,0.0,0.6734778881072998,-0.8298248052597046
-0.1511240005493164,0.1956055760383606,-0.1495416015386581,-0.3315753936767578,-0.3827426135540008,0.1493847966194152,0.0,0.0,0.1967380046844482,-0.1477506756782531
-0.1523665487766266,0.1885349154472351,-0.131282776594162,-0.312383770942688,-0.3752769231796264,0.1493140608072281,0.0,0.0,0.0552139282226562,-0.5867547988891602
-0.153641790151596,0.1816032975912094,-0.1354206353425979,-0.3060208261013031,-0.366911381483078,0.1673108637332916,0.0,0.0,0.1187894344329834,-0.0227099657058715
-0.1549098044633865,0.1750685721635818,-0.1340882778167724,-0.2885807156562805,-0.3592205345630646,0.1538168340921402,0.0,0.0,0.3450514078140259,-0.5385444760322571
-0.1560523957014084,0.1689134389162063,-0.1225029379129409,-0.2715219259262085,-0.3505363464355469,0.1736835986375808,0.0,0.0,0.0699994564056396,-0.7857900857925415
-0.1572296172380447,0.1630982756614685,-0.127255693078041,-0.256160706281662,-0.3405338227748871,0.2000505030155182,0.0,0.0,0.523530125617981,-0.5174620747566223
-0.1583978682756424,0.1579221040010452,-0.1269452273845672,-0.2276988923549652,-0.3299561738967895,0.2115530967712402,0.0,0.0,0.4848500490188598,-0.665965735912323
-0.1596012115478515,0.1530143171548843,-0.1314812898635864,-0.2156224250793457,-0.3183466792106628,0.2321898937225341,0.0,0.0,0.2516934871673584,-0.4138323068618774
-0.1608525216579437,0.1483951956033706,-0.1356596201658249,-0.2030225843191146,-0.3074239790439605,0.2184540778398513,0.0,0.0,0.676845908164978,-0.4014899730682373
-0.162195011973381,0.1442030817270279,-0.143866166472435,-0.1843143999576568,-0.2974839806556701,0.1988005936145782,0.0,0.0,0.5398731231689453,-0.073039174079895
-0.1633531600236892,0.1405256539583206,-0.1256309747695922,-0.161466434597969,-0.2873616814613342,0.2024459093809127,0.0,0.0,0.4427553415298462,-0.1088637709617614
-0.1644745767116546,0.1368865817785263,-0.1219718307256698,-0.1598352491855621,-0.2772640287876129,0.2019534409046173,0.0,0.0,0.1158643960952758,-0.5561549067497253
-0.1654976904392242,0.1335660815238952,-0.1131823658943176,-0.1455528289079666,-0.2661233246326446,0.2228147685527801,0.0,0.0,0.310072660446167,-0.3766424059867859
-0.1664818823337555,0.1307411044836044,-0.1089767813682556,-0.1236756965517997,-0.2553346157073974,0.2157742232084274,0.0,0.0,0.3817371129989624,-0.7693546414375305
-0.1673183441162109,0.1285321116447448,-0.0956878811120987,-0.0961308181285858,-0.2430647313594818,0.2453978359699249,0.0,0.0,0.3371542692184448,0.860344648361206
-0.168012335896492,0.1265539228916168,-0.0795739442110061,-0.0862692147493362,-0.2327295094728469,0.2067048847675323,0.0,0.0,0.212567925453186,0.0087108612060546
-0.1686775237321853,0.1250496059656143,-0.0764355883002281,-0.0653223395347595,-0.2226790934801101,0.2010083943605423,0.0,0.0,0.2376412153244018,0.512972354888916
-0.1692277938127517,0.1239801496267318,-0.0637891814112663,-0.0462315119802951,-0.2138096690177917,0.17738838493824,0.0,0.0,-0.0261474847793579,0.3246467113494873
-0.1698813438415527,0.1225075796246528,-0.073882557451725,-0.064231663942337,-0.205194354057312,0.172306090593338,0.0,0.0,0.0685176849365234,0.7598607540130615
-0.170586496591568,0.1212299913167953,-0.0772455707192421,-0.0558674708008766,-0.1984121352434158,0.1356441527605056,0.0,0.0,-0.1281405687332153,0.1338343620300293
-0.1713937819004058,0.1195487082004547,-0.0872191786766052,-0.0738645121455192,-0.1918769776821136,0.130703330039978,0.0,0.0,0.0915851593017578,0.2436615228652954
-0.1722453087568283,0.1180164217948913,-0.0913521870970726,-0.0673138797283172,-0.1856507807970047,0.1245237737894058,0.0,0.0,-0.0216835141181945,0.2498558759689331
-0.1731975525617599,0.1160804331302642,-0.1011838465929031,-0.0853099524974823,-0.1796635091304779,0.1197454929351806,0.0,0.0,0.0934870243072509,0.6208494901657104
-0.1740638762712478,0.114047110080719,-0.0912593081593513,-0.0898174718022346,-0.1750295162200927,0.0926799550652504,0.0,0.0,0.19320809841156,0.8420393466949463
-0.1747972518205642,0.1123043149709701,-0.076102539896965,-0.0771351978182792,-0.1722583025693893,0.0554244145750999,0.0,0.0,0.4452327489852905,0.7306164503097534
-0.1754259169101715,0.1111858710646629,-0.0639876499772071,-0.0495786629617214,-0.1711309552192688,0.022546524181962,0.0,0.0,0.1682095527648925,0.8613624572753906
