x_pos,y_pos,x_vel,y_vel,angle,ang_vel,leg_1,leg_2,main_booster,lat_booster
-0.0015256882179528,1.4029606580734253,-0.1546584516763687,-0.3537556529045105,0.0018684071255847,0.0368641465902328,0.0,0.0,-0.5570292472839355,0.6789665222167969
-0.0029970169998705,1.3943573236465454,-0.1476049125194549,-0.3823711276054382,0.0023214279208332,0.0090621132403612,0.0,0.0,0.4404816627502441,0.7500739097595215
-0.0042858123779296,1.385613203048706,-0.1281559765338897,-0.3886279165744781,0.0016068993136286,-0.0142918927595019,0.0,0.0,0.2744073867797851,0.0538362264633178
-0.0056736944243311,1.3767828941345217,-0.1376882046461105,-0.3924559354782104,0.0005312307621352,-0.0215156655758619,0.0,0.0,0.3290997743606567,0.3075394630432129
-0.0069659231230616,1.368075609207153,-0.1287151873111724,-0.3869867324829101,2.7097639758721925e-05,-0.0100838774815201,0.0,0.0,-0.2268334031105041,0.333387017250061
-0.0082677844911813,1.3587045669555664,-0.1297450214624405,-0.4164959490299225,-0.0004081333172507,-0.0087054232135415,0.0,0.0,-0.1389490962028503,0.9203070402145386
-0.0095111848786473,1.3486695289611816,-0.1221842020750045,-0.4460002481937408,-0.0025324474554508,-0.0424902886152267,0.0,0.0,0.2835595607757568,0.8149420022964478
-0.0105697633698582,1.3387264013290403,-0.1023029685020446,-0.441927045583725,-0.0060562770813703,-0.0704832300543785,0.0,0.0,-0.0590218305587768,0.3913443088531494
-0.011642837896943,1.3281195163726809,-0.1037982478737831,-0.4714390933513641,-0.0095251919701695,-0.0693845376372337,0.0,0.0,0.5426545143127441,0.8004500865936279
-0.0126632694154977,1.3178702592849731,-0.0969756990671157,-0.4555549621582031,-0.0145315797999501,-0.1001368910074234,0.0,0.0,-0.0350303649902343,-0.2127891778945922
-0.0137012479826807,1.306957483291626,-0.0987908393144607,-0.4850704073905945,-0.019492058083415,-0.0992185845971107,0.0,0.0,0.5393456220626831,0.4459261894226074
-0.0146832466125488,1.2961175441741943,-0.0935362577438354,-0.4818485081195831,-0.0241006556898355,-0.0921802371740341,0.0,0.0,-0.298444390296936,-0.0012335181236267
-0.0156863220036029,1.2846136093139648,-0.0956806093454361,-0.5113613605499268,-0.0286739859730005,-0.0914750546216964,0.0,0.0,-0.1036482453346252,0.3189773559570312
-0.0167120937258005,1.2724462747573853,-0.0979886725544929,-0.5408669710159302,-0.0332164093852043,-0.0908567979931831,0.0,0.0,0.5162304639816284,-0.6799287796020508
-0.017648696899414,1.2607520818710327,-0.0907584503293037,-0.5198098421096802,-0.0360885262489318,-0.0574473850429058,0.0,0.0,-0.5976738929748535,-0.2354375123977661
-0.0186115261167287,1.2483938932418823,-0.0933990627527237,-0.5493253469467163,-0.0389400832355022,-0.0570362992584705,0.0,0.0,-0.4517534971237182,-0.3576672077178955
-0.019602108746767,1.2353719472885132,-0.0962003618478775,-0.5788284540176392,-0.0417740531265735,-0.0566847398877143,0.0,0.0,0.2623574733734131,-0.913796067237854
-0.0205569267272949,1.22210431098938,-0.0945353358983993,-0.5897064208984375,-0.0427002608776092,-0.0185255855321884,0.0,0.0,0.3353315591812134,-0.6433383226394653
-0.0214790347963571,1.2091485261917114,-0.0927440449595451,-0.5757919549942017,-0.0421786718070507,0.0104325357824563,0.0,0.0,-0.861250102519989,-0.3320306539535522
-0.0224340446293354,1.1955289840698242,-0.0960321277379989,-0.6053037047386169,-0.0416529290378093,0.0105157783254981,0.0,0.0,-0.2873356938362121,-0.7257574200630188
-0.0234684944152832,1.1812536716461182,-0.1051259487867355,-0.634412407875061,-0.0399885550141334,0.033290646970272,0.0,0.0,0.1575088500976562,0.1922237873077392
-0.0245182029902935,1.1667786836624146,-0.1067012771964073,-0.6432889699935913,-0.0382896028459072,0.0339821502566337,0.0,0.0,-0.1167359352111816,0.126341700553894
-0.025605583563447,1.151639699935913,-0.1104471683502197,-0.6727980971336365,-0.0365970581769943,0.0338540822267532,0.0,0.0,0.7068871259689331,-0.5005049109458923
-0.0266831405460834,1.13631272315979,-0.1106839030981063,-0.6811240315437317,-0.03370026871562,0.0579410679638385,0.0,0.0,-0.714439332485199,0.67519211769104
-0.0277603156864643,1.1203219890594482,-0.1095979362726211,-0.7106659412384033,-0.0318432934582233,0.0371424779295921,0.0,0.0,-0.1807652711868286,0.4583100080490112
-0.0288798324763774,1.1036458015441897,-0.1138141006231308,-0.7411231994628906,-0.0300016310065984,0.0368333682417869,0.0,0.0,0.950268030166626,0.4604312181472778
-0.0300122257322073,1.087591290473938,-0.1151099056005477,-0.7134917378425598,-0.0281580761075019,0.0368713028728961,0.0,0.0,0.5906438827514648,0.2345516681671142
-0.0312925353646278,1.072069764137268,-0.1292877346277237,-0.6898197531700134,-0.0269184596836566,0.0247923638671636,0.0,0.0,-0.8328519463539124,0.4674072265625
-0.0326186195015907,1.055884599685669,-0.1338429301977157,-0.7193233370780945,-0.025703577324748,0.0242976136505603,0.0,0.0,0.3844889402389526,0.1942771673202514
-0.0339988693594932,1.0396487712860107,-0.1391442865133285,-0.7215677499771118,-0.024597592651844,0.0221198946237564,0.0,0.0,-0.1120985150337219,-0.353252649307251
-0.0354272834956646,1.0227493047714231,-0.1439355611801147,-0.7510713338851929,-0.023521602153778,0.0215196684002876,0.0,0.0,-0.551546037197113,0.0723532438278198
-0.0369051918387413,1.0051860809326172,-0.1488372832536697,-0.7805749177932739,-0.0224780533462762,0.0208707619458436,0.0,0.0,-0.0772387385368347,-0.6757656931877136
-0.0384941101074218,0.986967384815216,-0.1614624857902526,-0.8096821904182434,-0.019940560683608,0.0507497005164623,0.0,0.0,0.7809545993804932,0.3565466403961181
-0.0401953682303428,0.9686700105667114,-0.1723409295082092,-0.8131846189498901,-0.0177578795701265,0.0436538271605968,0.0,0.0,-0.5162286758422852,0.6478283405303955
-0.0418964400887489,0.9497089982032776,-0.1709343940019607,-0.8427066802978516,-0.0169372055679559,0.0164132975041866,0.0,0.0,0.7689563035964966,-0.2873485684394836
-0.0436176285147666,0.931298017501831,-0.1729935556650161,-0.8182507157325745,-0.0160673502832651,0.0173969455063343,0.0,0.0,0.5178203582763672,0.5340409278869629
-0.0453699119389057,0.9128476977348328,-0.1749206930398941,-0.8200230002403259,-0.0163676403462886,-0.0060056252405047,0.0,0.0,0.3871382474899292,0.2079181671142578
-0.0471346862614154,0.8946911096572876,-0.1762741953134536,-0.8069584369659424,-0.0165644194930791,-0.0039356388151645,0.0,0.0,0.1916453838348388,0.1647624969482422
-0.0489732734858989,0.8767829537391663,-0.1834879964590072,-0.7959211468696594,-0.0169384125620126,-0.0074799344874918,0.0,0.0,0.2196829319000244,-0.0018668174743652
-0.0508398041129112,0.8588835597038269,-0.1863194704055786,-0.7955341935157776,-0.0172632187604904,-0.0064960992895066,0.0,0.0,0.5957988500595093,-0.4651007056236267
-0.0528532043099403,0.8414507508277893,-0.2004860639572143,-0.7747938632965088,-0.0181138403713703,-0.0170121043920516,0.0,0.0,-0.0146119594573974,0.6671704053878784
-0.0548604950308799,0.8233510851860046,-0.1981959640979766,-0.804460883140564,-0.0206131935119628,-0.0499869026243686,0.0,0.0,0.5877382755279541,0.2035391330718994
-0.0568260177969932,0.8050367832183838,-0.1944095641374588,-0.8139986395835876,-0.0227316729724407,-0.0423692017793655,0.0,0.0,0.2985759973526001,-0.1034694910049438
-0.0587622635066509,0.786679208278656,-0.191798135638237,-0.8159225583076477,-0.0245412215590477,-0.036190815269947,0.0,0.0,0.1748793125152588,0.6336590051651001
-0.0607342720031738,0.7679638266563416,-0.1939853727817535,-0.8318538665771484,-0.0277133472263813,-0.0634424611926078,0.0,0.0,0.8023853302001953,-0.1932674050331115
-0.0627047568559646,0.7491291165351868,-0.1940232813358307,-0.8371531367301941,-0.0307074896991252,-0.0598830953240394,0.0,0.0,0.6015763282775879,0.6581660509109497
-0.064604565501213,0.7302713990211487,-0.1857117563486099,-0.8382129073143005,-0.0349248833954334,-0.0843478813767433,0.0,0.0,0.61814284324646,0.5632963180541992
-0.0666086226701736,0.7119843363761902,-0.1946325004100799,-0.8129025101661682,-0.0406175069510936,-0.1138523817062377,0.0,0.0,0.7941207885742188,-0.4153355360031128
-0.068780705332756,0.6943255066871643,-0.2107267677783966,-0.7850255966186523,-0.0470326021313667,-0.1283018141984939,0.0,0.0,0.7427921295166016,0.8178321123123169
-0.0709465965628624,0.6768023371696472,-0.2083537280559539,-0.7790862321853638,-0.0551779419183731,-0.1629066914319992,0.0,0.0,-0.383445143699646,0.6761659383773804
-0.0731053352355957,0.6586109399795532,-0.205885574221611,-0.8089091181755066,-0.0650464445352554,-0.1973702609539032,0.0,0.0,0.4046545028686523,0.338947057723999
-0.0753307342529296,0.6406993269920349,-0.2122794836759567,-0.7965509295463562,-0.0751987546682357,-0.2030463218688964,0.0,0.0,0.3204641342163086,0.3491982221603393
-0.0775006264448165,0.6226468682289124,-0.2070863544940948,-0.8028592467308044,-0.0850045457482338,-0.1961159110069275,0.0,0.0,0.9802043437957764,0.1182382106781005
-0.0796434432268142,0.6053604483604431,-0.2043467313051223,-0.7688828706741333,-0.0948505997657775,-0.1969211548566818,0.0,0.0,-0.1365143060684204,-0.0106391906738281
-0.0818437561392784,0.5874115228652954,-0.2100460976362228,-0.7983947992324829,-0.1047548279166221,-0.1980846524238586,0.0,0.0,0.5168849229812622,0.244350790977478
-0.0841428786516189,0.5694593191146851,-0.2194827795028686,-0.7986405491828918,-0.1151232793927192,-0.2073688805103302,0.0,0.0,0.9495468139648438,-0.6159913539886475
-0.0863205939531326,0.5522395372390747,-0.2088403403759002,-0.7660356163978577,-0.1239974424242973,-0.1774831712245941,0.0,0.0,0.4351005554199219,-0.1387200951576233
-0.0883625000715255,0.5352067351341248,-0.1957666277885437,-0.757732093334198,-0.1323756575584411,-0.1675645411014557,0.0,0.0,0.9358103275299072,0.2035398483276367
-0.0902449637651443,0.5189282298088074,-0.1801909506320953,-0.7242256999015808,-0.140407532453537,-0.1606376022100448,0.0,0.0,0.8488360643386841,-0.1144952774047851
-0.0921427756547927,0.5033107995986938,-0.181268885731697,-0.6949313282966614,-0.1488923132419586,-0.1696955859661102,0.0,0.0,-0.04139244556427,-0.3558826446533203
-0.0940935164690017,0.4870305955410003,-0.1865142881870269,-0.7244413495063782,-0.1574356108903885,-0.1708660721778869,0.0,0.0,0.7480512857437134,-0.6744312047958374
-0.0961454361677169,0.4712300896644592,-0.1976813524961471,-0.7030595541000366,-0.1649516373872757,-0.1503204405307769,0.0,0.0,0.4365918636322021,-0.2970674037933349
-0.0980683341622352,0.4554054737091064,-0.1852187514305114,-0.7041160464286804,-0.1720291674137115,-0.1415506154298782,0.0,0.0,0.6993305683135986,-0.7055644989013672
-0.0999615639448165,0.4398580491542816,-0.1836636513471603,-0.6916639804840088,-0.1776935309171676,-0.1132876127958297,0.0,0.0,0.7691224813461304,-0.6552091836929321
-0.1018695831298828,0.4242874979972839,-0.1864245682954788,-0.6925552487373352,-0.1820835918188095,-0.0878009349107742,0.0,0.0,0.7200707197189331,-0.5059494972229004
-0.1038868874311447,0.409009575843811,-0.1979258507490158,-0.6794910430908203,-0.1859039664268493,-0.0764073580503463,0.0,0.0,0.0388668775558471,0.2637094259262085
-0.1058364883065223,0.3938576579093933,-0.1911661922931671,-0.673897922039032,-0.1897193193435669,-0.0763067230582237,0.0,0.0,0.3644347190856933,-0.2609184980392456
-0.1077174171805381,0.3783788681030273,-0.1845512092113495,-0.6884034872055054,-0.1932781189680099,-0.0711763724684715,0.0,0.0,0.5126190185546875,-0.2082452774047851
-0.1094655022025108,0.3633800446987152,-0.1713294684886932,-0.6670753359794617,-0.1967792212963104,-0.0700220465660095,0.0,0.0,0.692891001701355,-0.5518589615821838
-0.1113028526306152,0.3484717607498169,-0.1810251325368881,-0.6629503965377808,-0.1995027661323547,-0.0544710457324981,0.0,0.0,0.9367740154266356,0.0768402814865112
-0.1131260842084884,0.3340990543365478,-0.1790692955255508,-0.6392310261726379,-0.2027803063392639,-0.0655512064695358,0.0,0.0,0.7954825162887573,0.7350505590438843
-0.1147560104727745,0.3200293183326721,-0.1583011448383331,-0.6259682178497314,-0.2075107842683792,-0.0946096256375312,0.0,0.0,0.8646910190582275,0.2505245208740234
-0.1163652390241622,0.3067403733730316,-0.1555124968290329,-0.5913888812065125,-0.2129691243171692,-0.1091672331094741,0.0,0.0,0.888283371925354,-0.6939654350280762
-0.1178308501839637,0.2937443256378174,-0.1427118480205536,-0.5781643986701965,-0.2168680280447006,-0.0779781267046928,0.0,0.0,0.9264764785766602,-0.8165580034255981
-0.1193329840898513,0.2807811498641968,-0.147830531001091,-0.5764910578727722,-0.219272494316101,-0.0480894297361373,0.0,0.0,0.8937604427337646,0.162047266960144
-0.1207040771842002,0.2676745355129242,-0.1350384652614593,-0.5828278064727783,-0.2213704735040664,-0.0419596619904041,0.0,0.0,0.9852769374847412,-0.4462779760360718
-0.1220461875200271,0.2545136213302612,-0.1319151073694229,-0.5852749943733215,-0.2236977517604828,-0.0465456768870353,0.0,0.0,0.98455810546875,0.3096330165863037
-0.1232075691223144,0.2420860379934311,-0.1137389913201332,-0.552702009677887,-0.2261248230934143,-0.048541497439146,0.0,0.0,0.98148512840271,-0.4569322466850281
-0.1240738853812217,0.2303927540779113,-0.0846286714076995,-0.5200091004371643,-0.2281607836484909,-0.0407191589474678,0.0,0.0,0.9818750619888306,-0.8708056211471558
-0.1249426826834678,0.2195502668619156,-0.0862631350755691,-0.4819833040237427,-0.2287829518318176,-0.0124431904405355,0.0,0.0,0.9580954313278198,-0.8120616674423218
-0.1259609162807464,0.2086881697177887,-0.1024127751588821,-0.4826702177524566,-0.2281848639249801,0.0119616389274597,0.0,0.0,0.9918147325515748,0.8513551950454712
-0.1266540586948394,0.1985213160514831,-0.0682693794369697,-0.4520177841186523,-0.2292383909225464,-0.0210707783699035,0.0,0.0,0.4514281749725342,-0.8076857924461365
-0.1273970603942871,0.1884851306676864,-0.0746857076883316,-0.4459957778453827,-0.2288532555103302,0.0077031264081597,0.0,0.0,0.9632353782653807,-0.768105149269104
-0.1280871331691742,0.1790097057819366,-0.0707026720046997,-0.4208660423755646,-0.2271288633346557,0.0344877764582634,0.0,0.0,0.3877154588699341,-0.5557041168212891
-0.1286967247724533,0.1697503626346588,-0.0637003481388092,-0.411108136177063,-0.2243574112653732,0.0554289929568767,0.0,0.0,0.7836208343505859,-0.0974392294883728
-0.129070371389389,0.1607146114110946,-0.0404832735657691,-0.401120126247406,-0.2212010025978088,0.0631281659007072,0.0,0.0,0.0459924936294555,-0.5434997081756592
-0.1294148415327072,0.1513358950614929,-0.0386267378926277,-0.4162125587463379,-0.2169781178236007,0.0844575762748718,0.0,0.0,0.9517755508422852,0.1369862556457519
-0.1295383423566818,0.141955092549324,-0.0169863235205411,-0.4162498712539673,-0.2122982889413833,0.093596301972866,0.0,0.0,0.965611219406128,-0.657223105430603
-0.129370778799057,0.1328641921281814,0.0103741595521569,-0.4031384885311126,-0.2058595418930053,0.1287750154733657,0.0,0.0,0.9158644676208496,0.0921821594238281
-0.1289326697587967,0.1237322390079498,0.0367280654609203,-0.4048998951911926,-0.1987226456403732,0.1427381336688995,0.0,0.0,0.8304145336151123,-0.0276753902435302
-0.1283139288425445,0.1151629090309143,0.0548632331192493,-0.3799330592155456,-0.1916642934083938,0.1411672979593277,0.0,0.0,0.8266931772232056,0.3340710401535034
-0.1274755448102951,0.1071557626128196,0.0766999870538711,-0.3549665808677673,-0.1844970881938934,0.1433442533016204,0.0,0.0,0.7357621192932129,-0.423478364944458
-0.1263501197099685,0.0994830727577209,0.1048449873924255,,-0.1767739206552505,0.1544634103775024,0.0,0.0,0.6705551147460938,-0.3488573431968689
-0.1250326186418533,0.0916080325841903,0.1236149445176124,-0.3490577638149261,-0.1686282604932785,0.1629135012626648,0.0,0.0,0.7678173780441284,0.5710709095001221
-0.123601533472538,0.0838779062032699,0.1363283842802047,-0.3428076207637787,-0.1618371158838272,0.1358229219913482,0.0,0.0,0.8242348432540894,-0.6766278743743896
-0.1219281181693077,0.076891504228115,0.1589917540550232,-0.3096168935298919,-0.1534939557313919,0.1668630540370941,0.0,0.0,0.3041821718215942,-0.8299401998519897
-0.1202270537614822,0.0699281319975853,0.1601609885692596,-0.3084889650344848,-0.1435604989528656,0.1986691504716873,0.0,0.0,0.4693191051483154,-0.6647254228591919
-0.118548110127449,0.0633961260318756,0.1568754911422729,-0.289288192987442,-0.1325815916061401,0.2195780575275421,0.0,0.0,0.1023681163787841,-0.4586449861526489
-0.1166982650756836,0.0568827949464321,0.173730731010437,-0.288520485162735,-0.1213834211230278,0.2239634990692138,0.0,0.0,0.206059455871582,-0.4544769525527954
-0.1147655472159385,0.0505298934876918,0.1822285950183868,-0.281489759683609,-0.1104154884815216,0.2193586528301239,0.0,0.0,0.6546287536621094,-0.7056609392166138
-0.1128366440534591,0.0446622930467128,0.1806671917438507,-0.2599239647388458,-0.0982772931456565,0.2427637130022049,0.0,0.0,0.6001722812652588,-0.5269259214401245
-0.1108654960989952,0.0388611406087875,0.1839254200458526,-0.2570123970508575,-0.0852070376276969,0.2614050507545471,0.0,0.0,0.7468051910400391,-0.8424944877624512
-0.1089770346879959,0.0333759151399135,0.1742515563964843,-0.2430224120616912,-0.0707533210515976,0.2890742719173431,0.0,0.0,0.9145908355712892,-0.4791220426559448
-0.1071509346365928,0.0281561240553855,0.168857917189598,-0.2313978970050811,-0.0571563802659511,0.2719388604164123,0.0,0.0,0.9061233997344972,0.1595093011856079
-0.1050838455557823,0.0235062465071678,0.1924321502447128,-0.2061782926321029,-0.043044377118349,0.2822400629520416,0.0,0.0,0.8199660778045654,0.3908584117889404
-0.1028570160269737,0.0188000779598951,0.2081269025802612,-0.2088112980127334,-0.0286702364683151,0.2874831855297088,0.0,0.0,0.7928857803344727,-0.6276111602783203
-0.1004091277718544,0.0146741960197687,0.2285834848880767,-0.1831400841474533,-0.0126705588772892,0.3199936747550964,0.0,0.0,0.8507497310638428,-0.4186664819717407
-0.0978954285383224,0.0111922593787312,0.2353311479091644,-0.1546947211027145,0.003159578423947,0.3166025280952453,0.0,0.0,0.8801100254058838,-0.9650471806526184
-0.0951976776123046,0.0085206367075443,0.2515495121479034,-0.1188767924904823,0.0211537294089794,0.3598831295967102,0.0,0.0,0.5544252395629883,-0.7350001931190491
-0.0924047455191612,0.0060084080323576,0.2594884634017944,-0.1120503768324852,0.0407048836350441,0.3910230994224548,0.0,0.0,0.4919360876083374,-0.8455201387405396
-0.0896282196044921,0.003946790471673,0.2562342286109924,-0.0923439115285873,0.0618749186396598,0.4234008193016052,0.0,1.0,0.2901414632797241,0.5199041366577148
-0.0869308486580848,0.002537271939218,0.2612765729427337,-0.0632283091545105,0.0693699494004249,0.1487603932619094,0.0,1.0,-0.9040766358375548,0.0349475145339965
-0.0844464302062988,0.0009419298148714,0.2581006288528442,-0.0704937502741813,0.0597711391746997,-0.1920154839754104,0.0,1.0,-0.8299844861030579,-0.364266037940979
-0.0821415930986404,-0.0008886599680408,0.2553553879261017,-0.0805611237883567,0.0351571254432201,-0.4923299252986908,0.0,1.0,-0.2190820574760437,-0.6154108047485352
-0.0800127014517784,-0.0030941867735236,0.2463335692882537,-0.0975850000977516,0.0020880529191344,-0.6614480018615723,0.0,1.0,0.8095757961273193,-0.8325731158256531
-0.0779697448015213,-0.0041392827406525,0.2239716798067093,-0.0465973280370235,-0.0171621963381767,-0.384789228439331,1.0,1.0,0.5077283382415771,-0.9662640690803528
-0.0759331732988357,-0.0042538666166365,0.2098475396633148,-0.0052945842035114,-0.0227925963699817,-0.1119927316904068,1.0,1.0,0.0317615270614624,-0.9983919262886048
-0.0738783851265907,-0.0038020752836018,0.2019192278385162,0.0201216861605644,-0.0192773379385471,0.0703021958470344,1.0,1.0,-0.5335893034934998,-0.9969220161437988
-0.0719704627990722,-0.0031024836935102,0.1853038370609283,0.0311538446694612,-0.0138797480612993,0.1079451069235801,1.0,1.0,-0.6825438737869263,-0.9969566464424132
-0.0702201873064041,-0.0022797607816755,0.1687609851360321,0.0366158820688724,-0.0077003594487905,0.1235809698700904,1.0,1.0,-0.6954694390296936,-0.9928269982337952
