x_pos,y_pos,x_vel,y_vel,angle,ang_vel,leg_1,leg_2,main_booster,lat_booster
-0.0015490532387048,1.4029850959777832,-0.1572217345237732,-0.3526714742183685,0.0020753114949911,0.0409608706831932,0.0,0.0,0.0580931901931762,0.651725172996521
-0.0030359267257153,1.3948739767074585,-0.1497764736413955,-0.3604974150657654,0.0031442486215382,0.0213816259056329,0.0,0.0,-0.6246675252914429,0.7995522022247314
-0.0044725416228175,1.386117458343506,-0.1430777609348297,-0.3891839683055877,0.0025661552790552,-0.0115626920014619,0.0,0.0,-0.2795374393463135,0.5560774803161621
-0.0059008598327636,1.3767197132110596,-0.141640156507492,-0.4176797568798065,0.0013893010327592,-0.0235391296446323,0.0,0.0,0.6821212768554688,0.8479722738265991
-0.0071450234390795,1.3676813840866089,-0.1220831498503685,-0.4016993343830108,-0.0009119642782025,-0.0460295565426349,0.0,0.0,0.061125636100769,0.5124788284301758
-0.0082785608246922,1.3585258722305298,-0.1104879155755043,-0.4069156646728515,-0.0037539035547524,-0.0568440929055213,0.0,0.0,0.3585344552993774,0.5657836198806763
-0.0094139100983738,1.3494431972503662,-0.1097643598914146,-0.4036896526813507,-0.0074808564968407,-0.0745460167527198,0.0,0.0,-0.3994894623756408,0.0764933824539184
-0.0105772968381643,1.3397210836410522,-0.1128565520048141,-0.4321151673793793,-0.0109263584017753,-0.0689161792397499,0.0,0.0,-0.3374511003494262,0.5624035596847534
-0.0117256166413426,1.3293651342391968,-0.1105281859636306,-0.4603022038936615,-0.0151836071163415,-0.0851528123021125,0.0,0.0,0.9015908241271972,0.845268964767456
-0.0128241535276174,1.3196277618408203,-0.1041404232382774,-0.4328422248363495,-0.0208381116390228,-0.1131003871560096,0.0,0.0,-0.7753140330314636,-0.0138754248619079
-0.0139514924958348,1.309251070022583,-0.1073025688529014,-0.4612757563591003,-0.026214312762022,-0.1075335964560508,0.0,0.0,0.1669111251831054,-0.5800508856773376
-0.0150885581970214,1.2987929582595823,-0.1098166555166244,-0.4648764729499817,-0.0300632417201995,-0.076985664665699,0.0,0.0,0.0397237539291381,-0.2391079664230346
-0.0161597244441509,1.2883515357971191,-0.103895366191864,-0.4641255736351013,-0.0332508869469165,-0.0637584030628204,0.0,0.0,-0.528002917766571,-0.5817803740501404
-0.0173011776059865,1.2772672176361084,-0.1122290343046188,-0.4926783442497253,-0.035144854336977,-0.0378825739026069,0.0,0.0,-0.1419254541397094,-0.7910035252571106
-0.0185198783874511,1.2655541896820068,-0.121450163424015,-0.5205928087234497,-0.0355655178427696,-0.008414153009653,0.0,0.0,0.1169629096984863,-0.147617220878601
-0.0196874625980854,1.253498673439026,-0.1169461160898208,-0.5357908010482788,-0.0353700369596481,0.0039098663255572,0.0,0.0,0.7348285913467407,-0.6243156790733337
-0.0207464210689067,1.2421518564224243,-0.1080225259065628,-0.5042566061019897,-0.0332729220390319,0.0419461913406848,0.0,0.0,-0.8464182019233704,0.2380019426345825
-0.021835708990693,1.2301652431488037,-0.1113219633698463,-0.5326868295669556,-0.0309141743928194,0.0471792928874492,0.0,0.0,-0.1462104320526123,0.772513747215271
-0.0228845588862895,1.2175432443618774,-0.1057323813438415,-0.5609623789787292,-0.0300760492682456,0.0167643241584301,0.0,0.0,0.2631492614746094,0.2809758186340332
-0.0240126606076955,1.2049331665039062,-0.1136178970336914,-0.5604304671287537,-0.0292687844485044,0.0161465369164943,0.0,0.0,0.312220811843872,0.5281829833984375
-0.0250019077211618,1.1925759315490725,-0.0991907566785812,-0.5492008328437805,-0.0290070101618766,0.0052361288107931,0.0,0.0,-0.2515909671783447,-0.090901494026184
-0.0260219573974609,1.1795791387557983,-0.1025208979845047,-0.57762610912323,-0.0284957345575094,0.0102263297885656,0.0,0.0,-0.3957695364952087,0.299879789352417
-0.027072811499238,1.1659427881240845,-0.1058581471443176,-0.6060450077056885,-0.0277391169220209,0.0151337236166,0.0,0.0,0.5782086849212646,0.2421321868896484
-0.0280796997249126,1.1521111726760864,-0.1020161658525466,-0.6147118210792542,-0.0264316964894533,0.0261509530246257,0.0,0.0,-0.5874434113502502,0.1659815311431884
-0.0291178710758686,1.1376399993896484,-0.1053668037056922,-0.6431363821029663,-0.0248883385211229,0.0308696385473012,0.0,0.0,-0.4320672750473022,0.0708692073822021
-0.0301874168217182,1.1225078105926514,-0.1087567955255508,-0.6725094318389893,-0.0231136158108711,0.0354946032166481,0.0,0.0,-0.0743162035942077,0.5267460346221924
-0.0312462802976369,1.1067380905151367,-0.1068431884050369,-0.7008636593818665,-0.022167295217514,0.0189263597130775,0.0,0.0,-0.1655765771865844,0.3246300220489502
-0.0323364250361919,1.090328812599182,-0.1101990714669227,-0.7292827367782593,-0.0210015065968036,0.023315992206335,0.0,0.0,0.0328315496444702,-0.2278890013694763
-0.0335293784737587,1.074008822441101,-0.1203120201826095,-0.7253177165985107,-0.0200001653283834,0.0200268849730491,0.0,0.0,-0.0556700229644775,0.497093915939331
-0.0347538962960243,1.05704927444458,-0.1236701384186744,-0.7537368535995483,-0.0187927838414907,0.024147480726242,0.0,0.0,0.4335145950317383,-0.3764315843582153
-0.035979937762022,1.040551781654358,-0.1240984350442886,-0.7332106232643127,-0.01731170527637,0.0296215564012527,0.0,0.0,0.722569465637207,0.2339106798171997
-0.0373106971383094,1.0241018533706665,-0.1343936026096344,-0.7310840487480164,-0.0160150397568941,0.0259333550930023,0.0,0.0,-0.3299894332885742,-0.118432343006134
-0.038673210889101,1.0070127248764038,-0.1377497464418411,-0.7595033645629883,-0.0145357633009552,0.0295858047902584,0.0,0.0,-0.6994636058807373,0.7678062915802002
-0.040013313293457,0.9892758131027222,-0.1342942118644714,-0.7882987856864929,-0.0142481820657849,0.0057516223751008,0.0,0.0,0.5542783737182617,-0.703545868396759
-0.0414155013859272,0.9717869162559508,-0.1421393603086471,-0.77726811170578,-0.0123636769130826,0.0376899577677249,0.0,0.0,0.0651478767395019,0.2926883697509765
-0.0428319945931434,0.954389750957489,-0.1437654793262481,-0.7731912136077881,-0.0102696232497692,0.0418810583651065,0.0,0.0,0.3516852855682373,0.5393016338348389
-0.0442572608590126,0.9369089007377625,-0.1436521708965301,-0.7769222259521484,-0.0091553032398223,0.022286582738161,0.0,0.0,-0.3505696058273315,0.2477576732635498
-0.0457144752144813,0.9187886118888856,-0.1469910591840744,-0.8053416013717651,-0.0079057803377509,0.0249905996024608,0.0,0.0,0.6478116512298584,0.6243622303009033
-0.0471900925040245,0.9012961983680724,-0.147599846124649,-0.7774388790130615,-0.0078736245632171,0.0006429993081837,0.0,0.0,0.2451649904251098,-0.1604419946670532
-0.0486729629337787,0.8838514089584351,-0.1485346406698227,-0.7753275036811829,-0.0076292948797345,0.0048863124102354,0.0,0.0,-0.4670082926750183,-0.4576812982559204
-0.0501880645751953,0.8657671809196472,-0.1518546193838119,-0.8037468194961548,-0.0072825248353183,0.006935573183,0.0,0.0,0.8685780763626099,0.217582106590271
-0.0515913963317871,0.8479299545288086,-0.1414289772510528,-0.7927595973014832,-0.0061990460380911,0.0216696206480264,0.0,0.0,0.5150214433670044,0.6713254451751709
-0.0528743751347065,0.8298758864402771,-0.1283232867717743,-0.8024038672447205,-0.0061745764687657,0.0004892748547717,0.0,0.0,0.3692328929901123,0.587116003036499
-0.0540504455566406,0.8118370175361633,-0.1167121678590774,-0.8017304539680481,-0.0070619345642626,-0.0177472177892923,0.0,0.0,0.7481939792633057,-0.4599158763885498
-0.055299662053585,0.793626606464386,-0.1238741278648376,-0.8093567490577698,-0.0080925021320581,-0.0206113178282976,0.0,0.0,0.7000188827514648,0.4757701158523559
-0.056531049311161,0.7752920389175415,-0.1223618015646934,-0.8148788213729858,-0.0088605564087629,-0.0153611553832888,0.0,0.0,0.9657977819442748,0.6854900121688843
-0.0576577186584472,0.7571099400520325,-0.1107376217842102,-0.8081026673316956,-0.0107622854411602,-0.0380346663296222,0.0,0.0,0.8051071166992188,0.2916343212127685
-0.0589295402169227,0.7396568655967712,-0.124705895781517,-0.7757100462913513,-0.0132120549678802,-0.0489952340722084,0.0,0.0,0.0589107275009155,0.8261489868164062
-0.0602610595524311,0.7223302125930786,-0.1289726644754409,-0.7701171636581421,-0.0173274967819452,-0.0823088884353637,0.0,0.0,-0.010219931602478,0.6302604675292969
-0.0615764632821083,0.7043612599372864,-0.1261557638645172,-0.7986885905265808,-0.0226556528359651,-0.1065628901124,0.0,0.0,0.8240029811859131,0.1763393878936767
-0.0627515763044357,0.6866933107376099,-0.1128371581435203,-0.785318911075592,-0.027265828102827,-0.0922037959098815,0.0,0.0,0.661178469657898,-0.3808633089065552
-0.0639964118599891,0.669499397277832,-0.119516409933567,-0.7642763257026672,-0.0321696810424327,-0.0980771631002426,0.0,0.0,0.8903164863586426,-0.0002316236495971
-0.0651318579912185,0.6524228453636169,-0.1091292649507522,-0.7590602040290833,-0.0365316718816757,-0.0872397273778915,0.0,0.0,0.6109020709991455,-0.3613258600234985
-0.0662676841020584,0.6358727812767029,-0.1091357618570327,-0.7356712222099304,-0.0409265719354152,-0.0878982543945312,0.0,0.0,0.7075307369232178,-0.0869466066360473
-0.0672608390450477,0.619429349899292,-0.0955316200852394,-0.730926513671875,-0.0446667112410068,-0.0748026892542839,0.0,0.0,0.6568984985351562,-0.6218176484107971
-0.0684173554182052,0.6030622124671936,-0.1128024086356163,-0.7275132536888123,-0.0474847108125686,-0.0563597977161407,0.0,0.0,0.5411614179611206,-0.3062981367111206
-0.0694825202226638,0.587163507938385,-0.1039997115731239,-0.70669025182724,-0.0499741360545158,-0.0497885346412658,0.0,0.0,0.6307029724121094,0.0643800497055053
-0.0704098716378212,0.5716125965118408,-0.0907577648758888,-0.6912187933921814,-0.0519197657704353,-0.0389128662645816,0.0,0.0,-0.1012347936630249,0.4005382061004638
-0.0713683143258094,0.5554223656654358,-0.0937829986214637,-0.719639003276825,-0.0539605170488357,-0.0408149510622024,0.0,0.0,0.8878822326660156,0.4018020629882812
-0.0723961815237999,0.5399447679519653,-0.1002162098884582,-0.6879872679710388,-0.0565074272453784,-0.0509382300078868,0.0,0.0,-0.1476439237594604,0.8519054651260376
-0.0733821839094162,0.5238144993782043,-0.0940448492765426,-0.7170814275741577,-0.0610070824623107,-0.0899928212165832,0.0,0.0,0.9369356632232666,-0.1049389243125915
-0.0744657516479492,0.5082870721817017,-0.1031444892287254,-0.6903269290924072,-0.066169872879982,-0.103255808353424,0.0,0.0,-0.214042067527771,-0.2139593958854675
-0.0755796432495117,0.4921207726001739,-0.1060409694910049,-0.7187492847442627,-0.0714591965079307,-0.1057865023612976,0.0,0.0,0.9856237173080444,-0.0989267826080322
-0.0766425132751464,0.4764146208763122,-0.1009451597929,-0.6983144283294678,-0.0767510458827018,-0.105836808681488,0.0,0.0,0.8723325729370117,-0.5689533352851868
-0.0777359008789062,0.4607487320899963,-0.1050184592604637,-0.6964859366416931,-0.0810247212648391,-0.0854733884334564,0.0,0.0,0.9954063892364502,0.8849301338195801
-0.0788942351937294,0.4455232322216034,-0.1092588454484939,-0.6770616769790649,-0.0875366479158401,-0.1302385181188583,0.0,0.0,0.8734683990478516,0.3025819063186645
-0.0799722671508789,0.4311058819293976,-0.1011926531791687,-0.6411718130111694,-0.0940881296992302,-0.1310296058654785,0.0,0.0,0.2686662673950195,0.4061928987503052
-0.080994889140129,0.4163764119148254,-0.0957861691713333,-0.6550675630569458,-0.1005056947469711,-0.1283514946699142,0.0,0.0,0.819633960723877,-0.1642550230026245
-0.0819213837385177,0.4024069011211395,-0.0861612781882286,-0.6213160753250122,-0.1069485619664192,-0.1288575232028961,0.0,0.0,0.7891030311584473,0.3092725276947021
-0.0829219818115234,0.3885796368122101,-0.0929286405444145,-0.6150713562965393,-0.1140307784080505,-0.1416439712047577,0.0,0.0,-0.1748203039169311,-0.5536227822303772
-0.0839994400739669,0.3741247653961181,-0.1017331629991531,-0.6429138779640198,-0.1200115010142326,-0.1196144074201583,0.0,0.0,0.6873016357421875,-0.6626912355422974
-0.0850453376770019,0.3599820733070373,-0.0998066291213035,-0.6289553046226501,-0.1247682273387909,-0.0951342433691024,0.0,0.0,0.8386499881744385,-0.5382577776908875
-0.0861930847167968,0.3466416895389557,-0.1104609221220016,-0.5932698845863342,-0.1290620863437652,-0.0858770981431007,0.0,0.0,0.761770486831665,0.2361495494842529
-0.0872091278433799,0.3335633873939514,-0.0974695011973381,-0.581622302532196,-0.133178561925888,-0.0823296159505844,0.0,0.0,0.3715828657150268,-0.2834545373916626
-0.0882343277335167,0.3203344345092773,-0.0980762168765068,-0.5883556604385376,-0.137613296508789,-0.0886947959661483,0.0,0.0,-0.1408765316009521,-0.7932299375534058
-0.0893395394086837,0.3064697980880737,-0.1072781234979629,-0.6165093779563904,-0.1408381909132003,-0.0644983202219009,0.0,0.0,0.923983097076416,-0.7125154733657837
-0.0905082672834396,0.2925664186477661,-0.1147704124450683,-0.6181287169456482,-0.142933502793312,-0.0419065281748771,0.0,0.0,0.728468656539917,-0.0404201745986938
-0.0915899276733398,0.2792579531669616,-0.1058259606361389,-0.5917131900787354,-0.1452680081129074,-0.0466903448104858,0.0,0.0,0.953416109085083,-0.8704314231872559
-0.0925182327628135,0.2667430639266968,-0.0922412574291229,-0.5562757253646851,-0.1458528190851211,-0.0116960164159536,0.0,0.0,-0.0870805978775024,0.764824390411377
-0.0934180244803428,0.2535859942436218,-0.0879431366920471,-0.5849583148956299,-0.1478823572397232,-0.0405908860266208,0.0,0.0,0.9551224708557128,-0.8321824073791504
-0.0945116057991981,0.24041448533535,-0.1084203943610191,-0.5854924917221069,-0.1488097757101059,-0.0185483135282993,0.0,0.0,0.9909279346466064,0.6178591251373291
-0.095382884144783,0.2280001491308212,-0.084899216890335,-0.5519727468490601,-0.1510374546051025,-0.0445535778999328,0.0,0.0,0.9856829643249512,0.0381577014923095
-0.0962888747453689,0.2160000950098037,-0.0875910297036171,-0.5336429476737976,-0.1540402323007583,-0.0600555725395679,0.0,0.0,0.9289586544036864,0.3238527774810791
-0.0971540436148643,0.2045489847660064,-0.0830070003867149,-0.5093075633049011,-0.1575529724359512,-0.0702551379799842,0.0,0.0,0.9240925312042236,-0.2362174987792968
-0.0979217514395713,0.1936687380075454,-0.0729751884937286,-0.4839730262756347,-0.1613460928201675,-0.0758624896407127,0.0,0.0,0.7603845596313477,-0.6796530485153198
-0.098559096455574,0.1830562651157379,-0.0613091066479682,-0.4719303250312805,-0.1637635678052902,-0.0483495779335498,0.0,0.0,0.7873218059539795,-0.7374791502952576
-0.0991812720894813,0.1723531037569046,-0.0611194781959056,-0.475815862417221,-0.1648676991462707,-0.0220826677978038,0.0,0.0,0.8262674808502197,-0.3337305784225464
-0.0996429473161697,0.1616443693637848,-0.0453110560774803,-0.4760381877422333,-0.1657188683748245,-0.0170231666415929,0.0,0.0,0.9504878520965576,-0.1410236954689026
-0.0998345389962196,0.1512511372566223,-0.0188956577330827,-0.4619528353214264,-0.1659895330667495,-0.0054134372621774,0.0,0.0,0.9775855541229248,-0.7246884107589722
-0.0998392105102539,0.1408813595771789,-0.0018575945869088,-0.4607225358486175,-0.1646006405353546,0.0277779903262853,0.0,0.0,0.9478447437286376,-0.1952456831932068
-0.0997159928083419,0.1311849951744079,0.0112005556002259,-0.4308253824710846,-0.163468524813652,0.0226421058177948,0.0,0.0,0.8968168497085571,-0.183674931526184
-0.0994254127144813,0.1221299245953559,0.0279919151216745,-0.4023302495479584,-0.1623992770910263,0.0213850177824497,0.0,0.0,0.7407243251800537,-0.672948956489563
-0.0989415198564529,0.1134572327136993,0.0458757542073726,-0.3851797878742218,-0.1598811894655227,0.0503617748618125,0.0,0.0,0.7928304672241211,-0.9454935193061828
-0.0983631163835525,0.1046492159366607,0.0534761138260364,-0.3910024762153625,-0.1555161327123642,0.0873011872172355,0.0,0.0,0.9306142330169678,-0.6000875234603882
-0.09781064838171,0.0961090624332428,0.050081729888916,-0.3790358603000641,-0.1503608226776123,0.1031061261892318,0.0,0.0,0.7568626403808594,-0.7311158180236816
-0.0970853790640831,0.0882905349135398,0.0659174546599388,-0.3468353450298309,-0.1437588781118393,0.1320388913154602,0.0,0.0,0.6533148288726807,-0.1201899051666259
-0.0963058471679687,0.0806841477751731,0.0716702714562416,-0.3374712765216827,-0.1374969184398651,0.1252395808696746,0.0,0.0,0.5960121154785156,-0.3457201719284057
-0.0955433845520019,0.0736056193709373,0.0707498639822006,-0.3141011893749237,-0.132023736834526,0.1094639897346496,0.0,0.0,0.5874433517456055,0.0950161218643188
-0.0946121215820312,0.0668690502643585,0.0874742865562439,-0.2989129722118377,-0.1263969391584396,0.1125355139374733,0.0,0.0,-0.0288060903549194,0.1492606401443481
-0.0936822891235351,0.0594939105212688,0.0875654593110084,-0.3273375928401947,-0.1210038736462593,0.1078611463308334,0.0,0.0,0.8840057849884033,0.2607934474945068
-0.0927433967590332,0.0527685023844242,0.0891361981630325,-0.2985290586948395,-0.1162814199924469,0.0944493487477302,0.0,0.0,0.5186765193939209,-0.2063003778457641
-0.0917736068367958,0.046090230345726,0.0925647541880607,-0.2964738309383392,-0.111899122595787,0.0876457393169403,0.0,0.0,0.8785375356674194,-0.3268280029296875
-0.0908578857779502,0.0398146472871303,0.0880107656121254,-0.2786533236503601,-0.1083650738000869,0.0706809982657432,0.0,0.0,0.0528541803359985,0.2838572263717651
-0.0899991020560264,0.0334133245050907,0.0829964056611061,-0.2842961251735687,-0.1055092737078666,0.0571163520216941,0.0,0.0,0.8323101997375488,0.4336823225021362
-0.0889365226030349,0.0275432914495468,0.1030750125646591,-0.2606678307056427,-0.1023446470499038,0.06329245865345,0.0,0.0,0.4292486906051636,0.2865554094314575
-0.0877844840288162,0.0215024575591087,0.112000286579132,-0.2682662010192871,-0.0991689935326576,0.0635130703449249,0.0,0.0,0.9647799730300904,0.2696485519409179
-0.0863661766052246,0.0161512717604637,0.1380591243505478,-0.2375847697257995,-0.0954296514391899,0.0747871845960617,0.0,0.0,0.7152981758117676,-0.9087839722633362
-0.0849629417061805,0.0113858794793486,0.1349982321262359,-0.2114657312631607,-0.090151198208332,0.1055688485503196,0.0,0.0,0.8169822692871094,-0.9589255452156068
-0.0833693519234657,0.0073834871873259,0.1520530581474304,-0.1774619221687317,-0.0829185917973518,0.1446520239114761,1.0,0.0,0.8553186655044556,-0.9385092854499816
-0.0816334709525108,0.0043504810892045,0.1488390862941742,-0.1338310539722442,-0.0577742718160152,0.5037404298782349,0.0,0.0,0.8995434045791626,-0.4194633960723877
-0.0797683745622634,0.0024609898682683,0.1509641110897064,-0.0829953402280807,-0.0226174555718898,0.7031987905502319,0.0,0.0,0.4321275949478149,-0.4429019689559936
-0.0778498649597168,0.0009356355876661,0.157576099038124,-0.067626379430294,0.0112238535657525,0.6768261194229126,0.0,0.0,-0.0731102228164672,-0.5778350830078125
-0.076176643371582,-0.0006651425501331,0.1517393141984939,-0.0713342130184173,0.0265955980867147,0.3074299097061157,0.0,1.0,-0.9549464583396912,0.6833345890045166
-0.0746916756033897,-0.0023522162809967,0.153675228357315,-0.0748951658606529,0.0214954242110252,-0.1019920334219932,0.0,1.0,-0.5861411690711975,-0.1180407404899597
-0.073333166539669,-0.0035130404867231,0.141671597957611,-0.0515193790197372,0.0157527364790439,-0.1148539036512374,1.0,1.0,0.5905990600585938,-0.9557054042816162
-0.0721904784440994,-0.0033331180457025,0.1185371652245521,0.0080356812104582,0.0115282582119107,-0.0844892039895057,1.0,1.0,-0.6355641484260559,-0.8547905087471008
-0.0712126716971397,-0.0026644254103302,0.1000317186117172,0.0297340545803308,0.0093149365857243,-0.0442647412419319,1.0,1.0,-0.4053645133972168,-0.996447205543518
-0.0703890770673751,-0.0015741609968245,0.0824288874864578,0.0484580397605896,0.0092471595853567,-0.0013586992863565,1.0,1.0,-0.7569248676300049,-0.9939817190170288
-0.0697677582502365,-0.0005923652788624,0.0695520117878913,0.0436726249754428,0.0019063865765929,-0.1468216925859451,1.0,1.0,-0.6349068880081177,-0.986950695514679
-0.0691973716020584,-0.0002118134434567,0.0600365698337554,0.0169155020266771,-0.0010451786220073,-0.0590310879051685,1.0,1.0,-0.355538547039032,-0.9013246297836304
