x_pos,y_pos,x_vel,y_vel,angle,ang_vel,leg_1,leg_2,main_booster,lat_booster
-0.001501464867033,1.40299654006958,-0.1519515216350555,-0.3521568179130554,0.0016136058839038,0.0318189784884452,0.0,0.0,-0.5573661923408508,0.8254119157791138
-0.00291109085083,1.3944644927978516,-0.1406216323375702,-0.3792051076889038,0.0012749320594593,-0.0067733814939856,0.0,0.0,0.4491772651672363,-0.4148205518722534
-0.0041831014677882,1.3858357667922974,-0.1272949576377868,-0.383500874042511,0.0013651521876454,0.001804283587262,0.0,0.0,-0.102310836315155,0.7364410161972046
-0.0053884508088231,1.3765766620635986,-0.1193182840943336,-0.4115170240402221,0.0001559640222694,-0.0241856910288333,0.0,0.0,0.3028285503387451,0.7372140884399414
-0.0064023970626294,1.3674633502960205,-0.0987497940659523,-0.4050348401069641,-0.0024598652962595,-0.052321545779705,0.0,0.0,-0.1407463550567627,-0.0440407991409301
-0.0073976516723632,1.3577221632003784,-0.0967588797211647,-0.4329480826854706,-0.0051945685409009,-0.0546990558505058,0.0,0.0,-0.1065341234207153,0.3283689022064209
-0.0083748819306492,1.347353219985962,-0.0948505252599716,-0.4608529508113861,-0.0080434968695044,-0.0569839254021644,0.0,0.0,-0.4532557725906372,-0.2658314704895019
-0.0093350410461425,1.3363566398620603,-0.093025341629982,-0.4887595772743225,-0.0110014248639345,-0.0591635406017303,0.0,0.0,0.1810377836227417,-0.0202682018280029
-0.0102808000519871,1.325629711151123,-0.091446466743946,-0.4767830073833465,-0.0141043281182646,-0.0620635747909545,0.0,0.0,-0.3586701154708862,-0.3789148330688476
-0.0112110134214162,1.314274787902832,-0.0897895470261573,-0.5046982169151306,-0.0173059105873107,-0.0640373453497886,0.0,0.0,0.8760658502578735,0.4837226867675781
-0.0120169641450047,1.3033019304275513,-0.0777281522750854,-0.4877139329910278,-0.0201369449496269,-0.0566258020699024,0.0,0.0,-0.745665431022644,-0.6612076163291931
-0.0128549579530954,1.2917011976242063,-0.0820145606994628,-0.5156130790710449,-0.0218999665230512,-0.0352637805044651,0.0,0.0,-0.6037533283233643,0.3967574834823608
-0.0136797903105616,1.279472827911377,-0.080616608262062,-0.5435162782669067,-0.0237468816339969,-0.0369417294859886,0.0,0.0,0.2483503818511963,-0.9371154308319092
-0.0144993783906102,1.2670105695724487,-0.0819189548492431,-0.5538756251335144,-0.0237807985395193,-0.0006785249570384,0.0,0.0,-0.333031415939331,-0.7025361061096191
-0.0153497699648141,1.2539291381835938,-0.0860090479254722,-0.5813786387443542,-0.0228210389614105,0.0191970150917768,0.0,0.0,0.1327513456344604,-0.499392032623291
-0.0161096565425395,1.2405229806900024,-0.0772488340735435,-0.5958088040351868,-0.0215765219181776,0.0248927623033523,0.0,0.0,-0.2512515783309936,-0.9004450440406799
-0.0169142726808786,1.226501226425171,-0.0830575972795486,-0.6231539845466614,-0.0190165061503648,0.0512050986289978,0.0,0.0,-0.6040334701538086,-0.7200940251350403
-0.0177534110844135,1.2118468284606934,-0.0875445455312728,-0.6512635946273804,-0.0154247283935546,0.0718419402837753,0.0,0.0,0.1601455211639404,-0.1482904553413391
-0.0185073856264352,1.197408676147461,-0.079292707145214,-0.6416630148887634,-0.0115682389587163,0.0771367028355598,0.0,0.0,-0.3804814219474792,0.1430250406265258
-0.0192537307739257,1.182342529296875,-0.0784894824028015,-0.669577956199646,-0.0077614118345081,0.0761434659361839,0.0,0.0,-0.230221152305603,0.2083957195281982
-0.0199934002012014,1.1666487455368042,-0.0777639225125312,-0.6974844336509705,-0.0039993757382035,0.0752472728490829,0.0,0.0,-0.2400039434432983,-0.1561605930328369
-0.0207269676029682,1.1503273248672483,-0.077114850282669,-0.7253914475440979,-0.0002777109621092,0.0744400322437286,0.0,0.0,-0.0330598354339599,0.6430116891860962
-0.0213932041078805,1.133377194404602,-0.0687866806983947,-0.7533408403396606,0.0018547937506809,0.0426539853215217,0.0,0.0,0.3132717609405517,0.0806033611297607
-0.0219995491206645,1.1161715984344482,-0.063032753765583,-0.7646993398666382,0.0042144116014242,0.0471968799829483,0.0,0.0,-0.2537175416946411,-0.0310269594192504
-0.0226019863039255,1.098338007926941,-0.0625983476638794,-0.7926102876663208,0.0065463483333587,0.0466427244246006,0.0,0.0,-0.0428457856178283,-0.0062888264656066
-0.0232007019221782,1.07985520362854,-0.0622223988175392,-0.821470320224762,0.0088554918766021,0.0461832806468009,0.0,0.0,0.6479003429412842,0.3669664859771728
-0.0237992294132709,1.0618314743041992,-0.0621926710009574,-0.8010694980621338,0.0111634097993373,0.0461584702134132,0.0,0.0,0.3998640775680542,0.6238586902618408
-0.0244753845036029,1.044234037399292,-0.0684367269277572,-0.7821141481399536,0.0119723053649067,0.0161779895424842,0.0,0.0,0.572455644607544,-0.3206923007965088
-0.0252829547971487,1.027112364768982,-0.080974169075489,-0.760968029499054,0.0121951196342706,0.0044561801478266,0.0,0.0,0.9043152332305908,-0.4251030683517456
-0.026120375841856,1.0102052688598633,-0.0838439315557479,-0.7514278292655945,0.012297760695219,0.0020526112057268,0.0,0.0,0.9201914072036744,-0.6874619126319885
-0.0270002372562885,0.9941534399986268,-0.0895333141088485,-0.7134305834770203,0.0138201722875237,0.0304484013468027,0.0,0.0,0.559833288192749,0.657503604888916
-0.0279138572514057,0.9780897498130798,-0.0914049297571182,-0.7139375805854797,0.0138623742386698,0.0008438373915851,0.0,0.0,-0.1620328426361084,-0.4154852032661438
-0.0288279540836811,0.9613983035087584,-0.0914453938603401,-0.7418425679206848,0.0139053594321012,0.0008595871040597,0.0,0.0,0.0182634592056274,-0.3041524291038513
-0.02978515625,0.9444115161895752,-0.0955870300531387,-0.7549642324447632,0.0137699423357844,-0.0027083510067313,0.0,0.0,0.2494940757751464,-0.0654759407043457
-0.0307379718869924,0.9275087714195251,-0.0952006578445434,-0.7512373328208923,0.013697151094675,-0.0014559712726622,0.0,0.0,0.5017657279968262,-0.6059209704399109
-0.0317318923771381,0.9110129475593568,-0.1005799919366836,-0.7331501841545105,0.0148769542574882,0.0235959589481353,0.0,0.0,-0.5042876601219177,-0.3549954891204834
-0.0327277183532714,0.8938894271850586,-0.1007968634366989,-0.7610554099082947,0.0160665120929479,0.0237913578748703,0.0,0.0,0.5897715091705322,-0.0608642101287841
-0.033701229840517,0.8772377371788025,-0.0987342149019241,-0.7400984168052673,0.0174369700253009,0.0274090077728033,0.0,0.0,-0.7653766870498657,0.4921244382858276
-0.0346774086356163,0.8599579930305481,-0.0990219414234161,-0.7680037021636963,0.0188203286379575,0.0276672597974538,0.0,0.0,0.4393482208251953,0.4669587612152099
-0.0356419570744037,0.8428453803062439,-0.097989335656166,-0.7605804800987244,0.020331697538495,0.0302274730056524,0.0,0.0,0.4266232252120971,0.1918081045150756
-0.0367157943546772,0.8261103630065918,-0.1084870845079422,-0.743791401386261,0.0214316640049219,0.0219993442296981,0.0,0.0,-0.1817177534103393,0.7295421361923218
-0.0377234444022178,0.8087482452392578,-0.1001298427581787,-0.7716453075408936,0.02079932205379,-0.0126466806977987,0.0,0.0,-0.2353420257568359,-0.534714937210083
-0.0387702956795692,0.7907511591911316,-0.1049676313996315,-0.7998749613761902,0.021075626835227,0.0055260746739804,0.0,0.0,0.0341353416442871,-0.2409622073173523
-0.0397660247981548,0.7726244330406189,-0.1001549959182739,-0.8056426644325256,0.0216560252010822,0.0116080902516841,0.0,0.0,0.8349018096923828,0.214166522026062
-0.0408179275691509,0.7543587684631348,-0.1055934578180313,-0.811810314655304,0.02204423956573,0.007764283567667,0.0,0.0,0.8133540153503418,0.759878396987915
-0.0417670235037803,0.7360113263130188,-0.0939084738492965,-0.8154249787330627,0.0210561659187078,-0.0197614226490259,0.0,0.0,0.9002852439880371,0.7883703708648682
-0.0425924286246299,0.7178070545196533,-0.0801307708024978,-0.8090471625328064,0.0186821836978197,-0.047479648143053,0.0,0.0,0.4463793039321899,0.7594109773635864
-0.0434854514896869,0.7000765800476074,-0.0852077603340148,-0.7879765033721924,0.0146391708403825,-0.0808600485324859,0.0,0.0,0.1582028865814209,0.3326722383499145
-0.0444841384887695,0.6825451254844666,-0.0953447297215461,-0.7791391611099243,0.0101801333948969,-0.0891810059547424,0.0,0.0,0.5412837266921997,0.3624032735824585
-0.045511819422245,0.6650974154472351,-0.0981756597757339,-0.7754265069961548,0.0056426832452416,-0.0907487347722053,0.0,0.0,0.2029117345809936,-0.2183369398117065
-0.0464419350028038,0.6476467847824097,-0.0889212191104888,-0.7755777835845947,0.001599867013283,-0.0808563753962516,0.0,0.0,0.3639986515045166,-0.1218506693840026
-0.0474251732230186,0.6304806470870972,-0.0940107181668281,-0.7629414796829224,-0.0026531023904681,-0.0850594863295555,0.0,0.0,0.2337020635604858,0.3899450302124023
-0.0483303070068359,0.6131844520568848,-0.0865975618362426,-0.7687302231788635,-0.0065206661820411,-0.0773513913154602,0.0,0.0,0.5665374994277954,0.5910298824310303
-0.0491847991943359,0.596400260925293,-0.080358475446701,-0.7459981441497803,-0.0115501675754785,-0.1005896925926208,0.0,0.0,0.560314416885376,0.5454612970352173
-0.0498436912894248,0.579673707485199,-0.0600946620106697,-0.7434558272361755,-0.0172788128256797,-0.1145727485418319,0.0,0.0,-0.1764897108078003,-0.3510518074035644
-0.0505069717764854,0.562319815158844,-0.0605162307620048,-0.7713636159896851,-0.0230070445686578,-0.1145649328827858,0.0,0.0,0.8815231323242188,-0.2258880734443664
-0.0510462746024131,0.5456957817077637,-0.048627071082592,-0.7389342784881592,-0.0282425787299871,-0.1047108173370361,0.0,0.0,0.773669958114624,-0.0127946138381958
-0.0514208786189556,0.5295236706733704,-0.0328491255640983,-0.7188564538955688,-0.0327985510230064,-0.0911194011569023,0.0,0.0,0.6919533014297485,-0.9202844500541688
-0.0517585761845111,0.5139967203140259,-0.031133672222495,-0.6901451349258423,-0.0354053080081939,-0.0521352663636207,0.0,0.0,0.7241835594177246,-0.6205708384513855
-0.0522053726017475,0.4990838766098022,-0.0430618524551391,-0.6628314256668091,-0.0370013676583766,-0.0319211408495903,0.0,0.0,-0.6816465854644775,-0.6947326064109802
-0.0527058616280555,0.4835399985313415,-0.0496958866715431,-0.6908490657806396,-0.0373504385352134,-0.0069815916940569,0.0,0.0,0.5914928913116455,0.0264300107955932
-0.0532806403934955,0.4683864414691925,-0.0566536262631416,-0.6735110878944397,-0.038167156279087,-0.0163344722241163,0.0,0.0,0.7594146728515625,0.5268099308013916
-0.0536556243896484,0.4534189403057098,-0.0359777994453907,-0.665264368057251,-0.0396636463701725,-0.0299300290644168,0.0,0.0,0.8456723690032959,0.2581385374069214
-0.0539795868098735,0.4388483166694641,-0.0309707466512918,-0.6476221084594727,-0.0410679541528224,-0.0280863493680953,0.0,0.0,0.651456356048584,0.5143942832946777
-0.0542403236031532,0.4242435097694397,-0.0236024893820285,-0.6491686701774597,-0.0435076244175434,-0.0487936809659004,0.0,0.0,0.8249936103820801,0.2176774740219116
-0.0546110160648822,0.4099983274936676,-0.0339267924427986,-0.6332138180732727,-0.0466190949082374,-0.0622291378676891,0.0,0.0,0.9237909317016602,0.116607666015625
-0.0549119003117084,0.3966168165206909,-0.0270044468343257,-0.5948314070701599,-0.0496592000126838,-0.0608021803200244,0.0,0.0,0.4651610851287842,-0.7169591188430786
-0.0551774986088275,0.3829858303070068,-0.0250190887600183,-0.6058752536773682,-0.0511815436184406,-0.0304467380046844,0.0,0.0,0.7904077768325806,-0.618919312953949
-0.0554137229919433,0.3701213896274566,-0.0233526658266782,-0.5717635750770569,-0.0514458492398262,-0.0052862591110169,0.0,0.0,0.4447952508926391,0.0837539434432983
-0.0557110793888568,0.3572555184364319,-0.0290319267660379,-0.5718397498130798,-0.0521514527499675,-0.0141119183972477,0.0,0.0,0.8575198650360107,0.5920474529266357
-0.0560321807861328,0.3449097871780395,-0.029832761734724,-0.5487826466560364,-0.0543990172445774,-0.0449512973427772,0.0,0.0,0.2207748889923095,0.551079511642456
-0.0562592521309852,0.3326204717159271,-0.0193017031997442,-0.5463175177574158,-0.0577661618590354,-0.0673429742455482,0.0,0.0,0.1197167634963989,-0.1767431497573852
-0.0565395355224609,0.3205682635307312,-0.0241350047290325,-0.5358092188835144,-0.0616152770817279,-0.0769822672009468,0.0,0.0,0.1384327411651611,-0.4785828590393066
-0.0567434318363666,0.3084794282913208,-0.0166482031345367,-0.5374365448951721,-0.0653143674135208,-0.0739819630980491,0.0,0.0,0.3826930522918701,-0.5732059478759766
-0.0570003502070903,0.2962560057640075,-0.0229414273053407,-0.5433893203735352,-0.0680304989218711,-0.0543229281902313,0.0,0.0,0.3483742475509643,-0.5640144944190979
-0.0572214126586914,0.2837942540645599,-0.0205199550837278,-0.5539290308952332,-0.0695919767022132,-0.0312298331409692,0.0,0.0,0.9351356029510498,-0.7522711753845215
-0.0575117096304893,0.2713025212287903,-0.0287741385400295,-0.5551990866661072,-0.069853276014328,-0.005225655157119,0.0,0.0,0.9329899549484252,-0.6762314438819885
-0.0577977187931537,0.2595844864845276,-0.0295566953718662,-0.5207558870315552,-0.0689027085900306,0.019011054188013,0.0,0.0,0.0455513000488281,0.6629297733306885
-0.057934284210205,0.2480064928531646,-0.013227698393166,-0.5145965218544006,-0.0693275332450866,-0.0084966924041509,0.0,0.0,0.9051229953765868,-0.9090967774391174
-0.0582150444388389,0.2372425347566604,-0.0290997121483087,-0.4783515632152557,-0.0683238580822944,0.0200738627463579,0.0,0.0,0.2360501289367675,0.3460595607757568
-0.0585708618164062,0.2262316048145294,-0.0360146127641201,-0.4893556237220764,-0.0678968802094459,0.0085395397618412,0.0,0.0,0.5710432529449463,0.745872974395752
-0.0587690360844135,0.2157142013311386,-0.0186959393322467,-0.4674915373325348,-0.069010816514492,-0.0222787540405988,0.0,0.0,0.5605905055999756,-0.5390810966491699
-0.0590692535042762,0.2053975611925125,-0.0295752231031656,-0.4585377275943756,-0.0694555938243866,-0.0088953245431184,0.0,0.0,0.1769777536392212,0.7325820922851562
-0.0593160614371299,0.1951774209737777,-0.0225583519786596,-0.4543268382549286,-0.0715545639395713,-0.0419792309403419,0.0,0.0,0.2200167179107666,-0.4946123361587524
-0.0595280639827251,0.1851031929254531,-0.0188815165311098,-0.4478563666343689,-0.0738492608070373,-0.045893732458353,0.0,0.0,0.495929479598999,-0.7315461039543152
-0.0596646293997764,0.1751862317323684,-0.0128031549975276,-0.4407978653907776,-0.0746941193938255,-0.0168971810489892,0.0,0.0,-0.2427555322647094,-0.6065623164176941
-0.0598399154841899,0.164640724658966,-0.0176672376692295,-0.4686812460422516,-0.0745477676391601,0.0029266769997775,0.0,0.0,0.5967475175857544,-0.3253142833709717
-0.0598885528743267,0.1540396362543106,-0.0052551664412021,-0.4711407721042633,-0.0741605386137962,0.0077446699142456,0.0,0.0,0.7280608415603638,-0.2782018184661865
-0.0597307197749614,0.1436872333288192,0.0148452669382095,-0.4600617587566376,-0.0732414722442627,0.0183815173804759,0.0,0.0,0.8443160057067871,-0.5922896862030029
-0.0594126693904399,0.133348137140274,0.0294312871992588,-0.4594001770019531,-0.0708834156394004,0.0471610240638256,0.0,0.0,0.9299328327178956,-0.7766263484954834
-0.0590909011662006,0.1237074956297874,0.028435057029128,-0.4283002316951751,-0.0671857818961143,0.0739530175924301,0.0,0.0,0.7837543487548828,-0.478216290473938
-0.0586707107722759,0.114661656320095,0.0383183248341083,-0.4018746018409729,-0.063531570136547,0.0730843096971511,0.0,0.0,0.6440863609313965,-0.7838360071182251
-0.0581232085824012,0.1059779524803161,0.0494321063160896,-0.3857248425483703,-0.0582694485783577,0.1052423492074012,0.0,0.0,0.5139409303665161,-0.7943078279495239
-0.057507611811161,0.0971032008528709,0.0546887814998626,-0.3941828608512878,-0.0514747463166713,0.1358942985534668,0.0,0.0,0.7900702953338623,-0.5389317274093628
-0.056955337524414,0.0884343683719635,0.0476504676043987,-0.3850407004356384,-0.0439924821257591,0.1496451497077942,0.0,0.0,0.938228964805603,-0.1836861968040466
-0.0562475211918354,0.0806488096714019,0.0629641190171241,-0.345814973115921,-0.0362710654735565,0.154428482055664,0.0,0.0,0.6704773902893066,0.4812299013137817
-0.0555301681160926,0.0731001496315002,0.0642576366662979,-0.3353330790996551,-0.0288840103894472,0.1477411389350891,0.0,0.0,0.7812256813049316,0.3303154706954956
-0.0549095161259174,0.0662160962820053,0.0554507188498973,-0.3058433532714844,-0.0223478730767965,0.1307225972414016,0.0,0.0,-0.0540524721145629,0.8215885162353516
-0.054201316088438,0.0587064139544963,0.0663309916853904,-0.3337074518203735,-0.0179167669266462,0.0886218100786209,0.0,0.0,0.956800937652588,0.1812829971313476
-0.0535271652042865,0.0519034005701541,0.0634642168879509,-0.3023101389408111,-0.0140188625082373,0.077958159148693,0.0,0.0,0.5652697086334229,0.4999105930328369
-0.0529077537357807,0.045538555830717,0.058612160384655,-0.2828567326068878,-0.010727921500802,0.0658186301589012,0.0,0.0,0.4009846448898315,0.4708284139633178
-0.0522907264530658,0.0391796454787254,0.0587158128619194,-0.2825987040996551,-0.0077833575196564,0.0588913075625896,0.0,0.0,0.9015109539031982,0.914071798324585
-0.0517298690974712,0.0332330092787742,0.0554737038910388,-0.2642916738986969,-0.0071785068139433,0.0120970364660024,0.0,0.0,0.6253829002380371,0.8611083030700684
-0.0512474998831748,0.0274305678904056,0.0498789064586162,-0.2578957676887512,-0.0088000828400254,-0.03243163600564,0.0,0.0,0.8631452322006226,0.1965056657791137
-0.0506235137581825,0.0222142077982425,0.0637436285614967,-0.2318437099456787,-0.0101299816742539,-0.0265979766845703,0.0,0.0,0.5101152658462524,0.3385149240493774
-0.0499248504638671,0.016875110566616,0.0712251216173172,-0.2373025864362716,-0.0114650493487715,-0.026701470836997,0.0,0.0,0.7408576011657715,0.0987647771835327
-0.0490485206246376,0.0121113630011677,0.0885396972298622,-0.2117301821708679,-0.0123612033203244,-0.0179230961948633,0.0,0.0,0.3758105039596557,-0.2886189222335815
-0.0481674186885356,0.0076893661171197,0.0893745943903923,-0.1965418756008148,-0.013616899959743,-0.0251139253377914,0.0,0.0,0.3570011854171753,-0.5835217237472534
-0.0471788421273231,0.0036974167451262,0.098962165415287,-0.1774216145277023,-0.0137193109840154,-0.0020483518019318,0.0,0.0,0.2333462238311767,-0.7292178273200989
-0.0461616516113281,-0.0002735042653512,0.1005593314766883,-0.1764727383852005,-0.0125694777816534,0.02299633808434,0.0,0.0,0.4248995780944824,-0.8517639636993408
-0.0450899116694927,-0.0030951523222029,0.0850781351327896,-0.1253776252269745,0.0092856185510754,0.4371505379676819,1.0,1.0,0.927579402923584,0.5175979137420654
-0.0440402999520301,-0.0045591378584504,0.0933312103152275,-0.0653921291232109,0.0199270863085985,0.211761325597763,1.0,1.0,0.3040858507156372,-0.8225401639938354
-0.0431816093623638,-0.0052899862639606,0.0844906419515609,-0.0325164683163166,0.0213162247091531,0.0278080701828002,1.0,1.0,-0.0808098316192627,-0.8971973061561584
-0.0425514206290245,-0.0056696441024541,0.0649806857109069,-0.0168609824031591,0.0193923469632864,-0.0384500995278358,1.0,1.0,-0.7386611104011536,-0.9083609580993652
-0.042126752436161,-0.0055921101011335,0.0441443398594856,0.0034549869596958,0.0177594386041164,-0.0326401069760322,1.0,1.0,-0.5908241271972656,-0.7119693756103516
-0.0418660156428813,-0.0050177238881587,0.0269127674400806,0.025530831888318,0.0169351194053888,-0.016481164842844,1.0,1.0,-0.4933683276176452,-0.2079545259475708
-0.0415953621268272,-0.0040644314140081,0.0270606577396392,0.0423664487898349,0.0169369876384735,3.836982796201482e-05,1.0,1.0,-0.4082571268081665,0.1978567838668823
-0.04132080078125,-0.0028165245894342,0.0271141119301319,0.055460263043642,0.0172765180468559,0.006790502462536,1.0,1.0,-0.5081366896629333,0.4514070749282837
-0.0411482825875282,-0.0017406726256012,0.0253978669643402,0.0478877462446689,0.0092455651611089,-0.1606153398752212,1.0,1.0,-0.6680259108543396,-0.7158957719802856
-0.0410313606262207,-0.000832762743812,0.0186231099069118,0.0403782986104488,0.0024078553542494,-0.1367509365081787,1.0,1.0,-0.5083282589912415,-0.6228205561637878
