x_pos,y_pos,x_vel,y_vel,angle,ang_vel,leg_1,leg_2,main_booster,lat_booster
-0.0015934944385662,1.4030779600143433,-0.1614815294742584,-0.3485384285449981,0.0019148787250742,0.0377841927111148,0.0,0.0,0.141562819480896,0.7928826808929443
-0.0031533241271972,1.3951871395111084,-0.1564352959394455,-0.3507067263126373,0.002352527109906,0.0087543949484825,0.0,0.0,0.3436745405197143,0.6495792865753174
-0.0046113966964185,1.3872379064559937,-0.1452888548374176,-0.3532985150814056,0.001848209882155,-0.0100872945040464,0.0,0.0,-0.127665638923645,-0.010644257068634
-0.0061366083100438,1.3787420988082886,-0.152122288942337,-0.3775922358036041,0.0014531938359141,-0.0079010538756847,0.0,0.0,-0.2301200032234192,0.7746081352233887
-0.0076539991423487,1.3697024583816528,-0.1495783179998397,-0.4017612040042877,-0.0006888253847137,-0.0428442470729351,0.0,0.0,0.6731328964233398,0.8827461004257202
-0.0090117454528808,1.3609399795532229,-0.1322354674339294,-0.3894496858119964,-0.0041927807033061,-0.0700859352946281,0.0,0.0,-0.516029417514801,0.1881618499755859
-0.0104332920163869,1.3516310453414917,-0.138734295964241,-0.4137448370456695,-0.0075762835331261,-0.0676759332418441,0.0,0.0,-0.058400273323059,0.9271200895309448
-0.0118262292817235,1.3417776823043823,-0.1336886882781982,-0.4379676878452301,-0.0131267122924327,-0.1110186725854873,0.0,0.0,0.433762788772583,0.5781745910644531
-0.0132367135956883,1.3324730396270752,-0.1343731880187988,-0.4136084318161011,-0.0197215564548969,-0.1319092214107513,0.0,0.0,-0.2043186426162719,0.2204551696777343
-0.0147069934755563,1.3226224184036257,-0.1404812633991241,-0.4379082918167114,-0.0261873193085193,-0.1293272376060485,0.0,0.0,-0.016974925994873,0.562325119972229
-0.0161848068237304,1.3122243881225586,-0.14009790122509,-0.4622880518436432,-0.0337959267199039,-0.1521860361099243,0.0,0.0,0.4924755096435547,0.5472760200500488
-0.017591381445527,1.3019893169403076,-0.132181629538536,-0.4551085531711578,-0.0421807654201984,-0.1677122414112091,0.0,0.0,-0.0005184412002563,-0.3311325907707214
-0.0190532691776752,1.2912083864212036,-0.1378432959318161,-0.479407399892807,-0.050430666655302,-0.1650131642818451,0.0,0.0,0.2830250263214111,0.7169427871704102
-0.0204383842647075,1.2802796363830566,-0.128979206085205,-0.4860682487487793,-0.0598781667649745,-0.1889673620462417,0.0,0.0,0.2204164266586303,-0.0855734348297119
-0.0217350013554096,1.2697076797485352,-0.1207564249634742,-0.4702369570732116,-0.0686966925859451,-0.1763862371444702,0.0,0.0,-0.4216173887252807,-0.682536780834198
-0.0231260303407907,1.2585866451263428,-0.1314674168825149,-0.4946394264698028,-0.0762700513005256,-0.1514812260866165,0.0,0.0,-0.4029573202133178,-0.4822998046875
-0.0245655067265033,1.2469196319580078,-0.1364482641220092,-0.5189284682273865,-0.0837047174572944,-0.1487069576978683,0.0,0.0,-0.6464739441871643,-0.1665073633193969
-0.0260514263063669,1.2347066402435305,-0.1412423700094223,-0.543219804763794,-0.0909996554255485,-0.1459121257066726,0.0,0.0,-0.2527927756309509,0.492311954498291
-0.0275819785892963,1.2219477891921997,-0.1458434164524078,-0.5675122737884521,-0.0981547608971595,-0.1431152522563934,0.0,0.0,0.6757338047027588,-0.2789927124977112
-0.0291802398860454,1.2095118761062622,-0.1523759067058563,-0.5532085299491882,-0.1055522635579109,-0.1479632556438446,0.0,0.0,0.6998157501220703,-0.5204781889915466
-0.0306387897580862,1.1976720094680786,-0.1400019079446792,-0.5266473293304443,-0.1113782748579979,-0.1165308952331543,0.0,0.0,0.5656659603118896,-0.6588626503944397
-0.0321291908621788,1.1859134435653689,-0.1446763128042221,-0.5229315161705017,-0.1157277449965477,-0.0869969725608825,0.0,0.0,0.0205699205398559,-0.3155333399772644
-0.0335374847054481,1.1740957498550415,-0.1369805634021759,-0.525537371635437,-0.1195653453469276,-0.0767587572336196,0.0,0.0,0.6539902687072754,-0.2983388900756836
-0.0348732955753803,1.162184238433838,-0.1301948726177215,-0.5296729803085327,-0.122939683496952,-0.0674924626946449,0.0,0.0,0.0049196481704711,-0.5699726939201355
-0.0363340377807617,1.150336742401123,-0.1438315957784652,-0.5267478823661804,-0.1251698434352874,-0.0446072071790695,0.0,0.0,-0.4586169719696045,0.3187034130096435
-0.0378262512385845,1.1379212141036987,-0.147123783826828,-0.551982581615448,-0.1272629201412201,-0.0418615005910396,0.0,0.0,0.1874575614929199,-0.4966535568237304
-0.0392770767211914,1.1257352828979492,-0.1431251913309097,-0.5417628884315491,-0.12920743227005,-0.0388901196420192,0.0,0.0,-0.2742745280265808,-0.5176283121109009
-0.040802001953125,1.1130177974700928,-0.1519390493631363,-0.565273642539978,-0.1297564506530761,-0.0109804328531026,0.0,0.0,0.2987967729568481,-0.7611886858940125
-0.0424448028206825,1.1006996631622314,-0.1652407348155975,-0.547390341758728,-0.1287936419248581,0.0192562229931354,0.0,0.0,-0.3858488202095032,0.8521966934204102
-0.0440438278019428,1.08781898021698,-0.159353107213974,-0.5725160241127014,-0.1293424218893051,-0.0109750535339117,0.0,0.0,-0.8801093697547913,0.448948860168457
-0.0456610694527626,1.0743918418884275,-0.1613017618656158,-0.5968008041381836,-0.1297597587108612,-0.0083468370139598,0.0,0.0,0.1253494024276733,0.5926370620727539
-0.0472677238285541,1.0608607530593872,-0.1591062694787979,-0.601511538028717,-0.1313244998455047,-0.0312945619225502,0.0,0.0,-0.6704310178756714,0.7394182682037354
-0.0488372817635536,1.0467802286148071,-0.1542402803897857,-0.6260435581207275,-0.1340316236019134,-0.0541424341499805,0.0,0.0,-0.1261287927627563,-0.6722884178161621
-0.0504768379032611,1.0321588516235352,-0.16285240650177,-0.6499403715133667,-0.1351287066936493,-0.02194170281291,0.0,0.0,-0.196586012840271,-0.517354428768158
-0.0521644577383995,1.0169999599456787,-0.1688044965267181,-0.673728883266449,-0.1350931823253631,0.0007104063406586,0.0,0.0,-0.2745541334152221,-0.4456485509872436
-0.0538586601614952,1.0012942552566528,-0.1695826053619384,-0.6980136632919312,-0.1349326521158218,0.0032106661237776,0.0,0.0,-0.0040962100028991,-0.4084147810935974
-0.0555571541190147,0.9850419163703918,-0.1701332926750183,-0.7222985029220581,-0.1346484273672104,0.0056845191866159,0.0,0.0,-0.4628201723098755,-0.5605356097221375
-0.057298470288515,0.9682556986808776,-0.1755889356136322,-0.7459266781806946,-0.1331906169652938,0.0291559062898159,0.0,0.0,0.4950265884399414,0.0518606901168823
-0.0589735992252826,0.9520635008811952,-0.1689319461584091,-0.7195300459861755,-0.1317765414714813,0.0282819271087646,0.0,0.0,-0.5615457892417908,-0.593209445476532
-0.0606905929744243,0.9353342056274414,-0.1743824034929275,-0.7432900667190552,-0.1291129738092422,0.0532712861895561,0.0,0.0,-0.1065713763236999,-0.1462333798408508
-0.0624032989144325,0.9180583357810974,-0.1740632951259613,-0.7675755620002747,-0.126330941915512,0.0556405894458293,0.0,0.0,-0.5321498513221741,-0.2298941612243652
-0.0641096085309982,0.9002360701560974,-0.173538789153099,-0.7918611764907837,-0.1234317272901535,0.0579844005405902,0.0,0.0,0.6685012578964233,0.0434358119964599
-0.0656710639595985,0.8823204636573792,-0.159632995724678,-0.7959604859352112,-0.1199627146124839,0.0693802013993263,0.0,0.0,0.7971013784408569,0.0129145383834838
-0.0670460686087608,0.8646954298019409,-0.1416116207838058,-0.7830097079277039,-0.1158794611692428,0.0816652029752731,0.0,0.0,0.1115216016769409,0.061389684677124
-0.0684131607413292,0.8468238711357117,-0.1408030539751052,-0.7939754724502563,-0.1118092164397239,0.0814046785235405,0.0,0.0,-0.0420069694519043,0.5129591226577759
-0.0697231292724609,0.8283934593200684,-0.134105771780014,-0.8189008235931396,-0.1087302938103675,0.0615787915885448,0.0,0.0,0.7053093910217285,0.2390055656433105
-0.070904828608036,0.8100942373275757,-0.1216697469353675,-0.813051164150238,-0.1052489429712295,0.0696268901228904,0.0,0.0,0.2313308715820312,0.6235795021057129
-0.072046659886837,0.792188823223114,-0.1163928136229515,-0.7956368923187256,-0.1030541732907295,0.0438955202698707,0.0,0.0,0.7316327095031738,0.3963592052459717
-0.0732227340340614,0.7749909162521362,-0.1192831173539161,-0.764234721660614,-0.101393811404705,0.033207319676876,0.0,0.0,-0.6092018485069275,-0.3085255622863769
-0.0743783935904502,0.7572464346885681,-0.1173353642225265,-0.7885202169418335,-0.0996255949139595,0.0353642143309116,0.0,0.0,0.0269610881805419,0.2789081335067749
-0.0753878578543663,0.7394721508026123,-0.1032514572143554,-0.7898226380348206,-0.0973381474614143,0.0457488857209682,0.0,0.0,0.557719349861145,0.1495237350463867
-0.076360322535038,0.7221960425376892,-0.0994119197130203,-0.7676860094070435,-0.0951960831880569,0.0428412184119224,0.0,0.0,0.3165547847747803,0.041210651397705
-0.0771877318620681,0.7048899531364441,-0.0854065045714378,-0.7689868807792664,-0.0925462245941162,0.0529969558119773,0.0,0.0,0.7471282482147217,0.3066798448562622
-0.0779076591134071,0.6882970333099365,-0.0747889801859855,-0.7372966408729553,-0.0897768810391426,0.0553866624832153,0.0,0.0,0.4001004695892334,0.108424425125122
-0.0784375220537185,0.6717577576637268,-0.0564770810306072,-0.7348670363426208,-0.0863204896450042,0.0691278278827667,0.0,0.0,0.0927649736404419,0.60280442237854
-0.0789353400468826,0.655138373374939,-0.0520559474825859,-0.7385155558586121,-0.0840657502412796,0.045095007866621,0.0,0.0,0.2104341983795166,-0.2354595065116882
-0.0792860016226768,0.6388363838195801,-0.0377692058682441,-0.7243788838386536,-0.0813911780714988,0.0534914843738079,0.0,0.0,-0.0660303235054016,0.5186614990234375
-0.079555794596672,0.6219839453697205,-0.0285080075263977,-0.7489148378372192,-0.0798855796456337,0.0301119945943355,0.0,0.0,0.2359561920166015,-0.070829689502716
-0.0796895027160644,0.6054993271827698,-0.0152459172531962,-0.7325529456138611,-0.0780218318104744,0.0372747369110584,0.0,0.0,0.5676764249801636,-0.3891593217849731
-0.0798048004508018,0.5895916223526001,-0.0131776602938771,-0.706924319267273,-0.0763936415314674,0.0325637534260749,0.0,0.0,-0.1183281540870666,-0.2291697263717651
-0.079887107014656,0.5731373429298401,-0.0099750012159347,-0.7312101125717163,-0.0746674016118049,0.0345246717333793,0.0,0.0,0.5845024585723877,-0.5970286130905151
-0.0800361633300781,0.5571630001068115,-0.0176984928548336,-0.7098361849784851,-0.0719010159373283,0.0553275719285011,0.0,0.0,0.3930573463439941,0.0376476049423217
-0.0800155624747276,0.541283369064331,-0.0013172745238989,-0.7056015133857727,-0.0685563310980796,0.0668937116861343,0.0,0.0,0.3059961795806885,0.5971368551254272
-0.0798590630292892,0.5255764126777649,0.0133353415876626,-0.6979852914810181,-0.0662648603320121,0.0458291694521904,0.0,0.0,0.5586662292480469,-0.5365915894508362
-0.0796765312552452,0.5098884701728821,0.0147439511492848,-0.6970903277397156,-0.0627906918525695,0.0694834217429161,0.0,0.0,0.5470099449157715,-0.0842554569244384
-0.0795387253165245,0.4944935739040375,0.0107091199606657,-0.6840932965278625,-0.0597582906484603,0.060648251324892,0.0,0.0,0.3453354835510254,0.3590147495269775
-0.0793052688241005,0.4795941412448883,0.0200995597988367,-0.6620702743530273,-0.0565512329339981,0.0641411691904068,0.0,0.0,0.0675209760665893,-0.0760190486907959
-0.078971192240715,0.4644268751144409,0.0298184119164943,-0.673970103263855,-0.0530056990683078,0.0709106400609016,0.0,0.0,0.6720689535140991,0.2297420501708984
-0.0785267800092697,0.4500052332878113,0.0406399369239807,-0.6408312320709229,-0.0492411702871322,0.0752903223037719,0.0,0.0,-0.1806482076644897,-0.0185285210609436
-0.0780446976423263,0.4350372850894928,0.044306494295597,-0.6651183366775513,-0.0453848801553249,0.0771260112524032,0.0,0.0,0.4950951337814331,0.0050001144409179
-0.077579878270626,0.4204468727111816,0.042866688221693,-0.6483575105667114,-0.0418219268321991,0.0712589249014854,0.0,0.0,0.7705979347229004,0.2760366201400757
-0.0770162567496299,0.4063076972961426,0.0525064095854759,-0.6283058524131775,-0.0380160771310329,0.0761169418692588,0.0,0.0,0.6628828048706055,0.0578687191009521
-0.0765118598937988,0.3929036557674408,0.0471134297549724,-0.5956524610519409,-0.0347203500568866,0.0659145191311836,0.0,0.0,0.3762853145599365,0.0468653440475463
-0.0758912116289138,0.3796713352203369,0.058347325772047,-0.5880234837532043,-0.0310525521636009,0.0733558908104896,0.0,0.0,0.3822447061538696,0.2744926214218139
-0.0752503424882888,0.3663845360279083,0.0604124292731285,-0.5904520153999329,-0.0274270493537187,0.0725101828575134,0.0,0.0,0.4059853553771972,0.4277163743972778
-0.0745058059692382,0.352963924407959,0.070420391857624,-0.5964046120643616,-0.0234463941305875,0.079612910747528,0.0,0.0,0.650977611541748,0.7549014091491699
-0.0736903175711631,0.3394971489906311,0.0790256410837173,-0.5984839797019958,-0.0209484435617923,0.0499589219689369,0.0,0.0,0.5798704624176025,0.5852460861206055
-0.0727830901741981,0.3266256153583526,0.089309886097908,-0.5720493197441101,-0.0195491667836904,0.027985394001007,0.0,0.0,0.5745012760162354,-0.3783341646194458
-0.0717463493347168,0.3143713474273681,0.101805031299591,-0.5446109771728516,-0.0177122056484222,0.0367390699684619,0.0,0.0,0.211857795715332,-0.4742351174354553
-0.0707437545061111,0.3024719357490539,0.098708800971508,-0.5288428068161011,-0.0161720663309097,0.0308025125414133,0.0,0.0,-0.0895383358001709,-0.2614725232124328
-0.0697035789489746,0.2900261878967285,0.1023693308234214,-0.5531291365623474,-0.0145490001887083,0.032461367547512,0.0,0.0,0.6820181608200073,-0.4456714391708374
-0.0685734748840332,0.2782401442527771,0.1110895127058029,-0.5238060355186462,-0.0126540772616863,0.0378983840346336,0.0,0.0,0.1728056669235229,-0.7239367365837097
-0.0675402656197547,0.2665231823921203,0.0999554246664047,-0.5207327604293823,-0.009329367429018,0.0664941594004631,0.0,0.0,-0.1137369275093078,-0.0026562213897705
-0.0664705261588096,0.2542598247528076,0.1035187840461731,-0.5450198650360107,-0.0059252050705254,0.0680833905935287,0.0,0.0,0.661156177520752,0.0751729011535644
-0.0653726607561111,0.2425048947334289,0.1063140630722045,-0.5224307179450989,-0.0024984937626868,0.068534255027771,0.0,0.0,0.7511873245239258,0.2612897157669067
-0.0641452819108963,0.2311284691095352,0.1187576279044151,-0.5056204795837402,0.0014325520023703,0.0786207914352417,0.0,0.0,0.2896169424057007,-0.2062057852745056
-0.0628646835684776,0.2196065485477447,0.1239128708839416,-0.5120933651924133,0.0055244672112166,0.0818381160497665,0.0,0.0,0.4936206340789795,-0.1652801036834716
-0.0614677444100379,0.2080851346254348,0.1350830793380737,-0.5120843052864075,0.0100780157372355,0.0910706892609596,0.0,0.0,0.7084181308746338,-0.8115092515945435
-0.0599392876029014,0.1969049125909805,0.1462219804525375,-0.4969608187675476,0.0166267156600952,0.1309739500284195,0.0,0.0,0.8122878074645996,-0.7975285053253174
-0.0582800880074501,0.185824304819107,0.1572592258453369,-0.492590993642807,0.0251720733940601,0.1709070205688476,0.0,0.0,0.8738301992416382,-0.8044377565383911
-0.0566804893314838,0.1754792034626007,0.1496317088603973,-0.459981769323349,0.0353701151907444,0.2039607018232345,0.0,0.0,0.7303252220153809,-0.4331772327423095
-0.0550446510314941,0.1657818406820297,0.1530414670705795,-0.4312737286090851,0.0457839854061603,0.208277553319931,0.0,0.0,0.2237187623977661,-0.3536837100982666
-0.0533081069588661,0.1562863141298294,0.1626241207122802,-0.4223960638046264,0.0566882714629173,0.2180855572223663,0.0,0.0,-0.0082030296325683,-0.7126158475875854
-0.0515876784920692,0.1462346911430359,0.1597565114498138,-0.4472476541996002,0.0688360929489135,0.2429564893245697,0.0,0.0,0.8001902103424072,-0.5788748264312744
-0.0499826446175575,0.1364564299583435,0.1471794545650482,-0.4352527260780334,0.08203125,0.2639034390449524,0.0,0.0,0.9106147289276124,0.5313031673431396
-0.0482855811715126,0.1276498436927795,0.1570975035429,-0.3921398520469665,0.0945260450243949,0.2498957216739654,0.0,0.0,0.2232580184936523,0.1818070411682129
-0.046617604792118,0.1189257949590683,0.1542302668094635,-0.3885754346847534,0.10699412971735,0.2493614852428436,0.0,0.0,0.7620800733566284,0.2290961742401123
-0.0451451316475868,0.1109014824032783,0.1352562606334686,-0.3575358390808105,0.1188984289765358,0.2380857914686203,0.0,0.0,-0.0055227279663085,0.5536420345306396
-0.0435972213745117,0.1023443043231964,0.1440560519695282,-0.3812134563922882,0.1295837461948394,0.2137066423892974,0.0,0.0,0.7458477020263672,-0.4062459468841553
-0.0421826355159282,0.0944104790687561,0.1309491991996765,-0.3535618484020233,0.1400511115789413,0.2093474119901657,0.0,0.0,0.4989111423492431,0.1426033973693847
-0.0409130081534385,0.0869249701499939,0.1167738884687423,-0.333676666021347,0.1502115726470947,0.2032092064619064,0.0,0.0,0.4753475189208984,0.1649736166000366
-0.0397088043391704,0.0795489624142646,0.1103222966194152,-0.3288708925247192,0.1603059917688369,0.2018883526325225,0.0,0.0,0.7358466386795044,0.6690306663513184
-0.0386621467769146,0.0725450366735458,0.0961846858263015,-0.3122245669364929,0.1687860488891601,0.1696015000343322,0.0,0.0,0.8727948665618896,0.9124841690063475
-0.0378087051212787,0.0658418759703636,0.0790092572569847,-0.2986485064029693,0.1751361787319183,0.1270025819540023,0.0,0.0,0.8338527679443359,0.9414627552032472
-0.036872673779726,0.0598301514983177,0.0889098495244979,-0.2677517831325531,0.1798327267169952,0.0939311683177948,0.0,0.0,0.5819375514984131,0.1315003633499145
-0.0359230041503906,0.0538094155490398,0.0899970084428787,-0.2681989669799804,0.1848222017288208,0.0997896939516067,0.0,0.0,0.8651055097579956,0.5266256332397461
-0.0349023826420307,0.0485758893191814,0.0976385846734047,-0.233161062002182,0.1892724186182022,0.0890043377876281,0.0,0.0,0.6562623977661133,-0.1301964521408081
-0.0340334884822368,0.0439358092844486,0.0825480669736862,-0.2067850530147552,0.1936293840408325,0.0871392339468002,0.0,0.0,0.3004779815673828,-0.0206527113914489
-0.0331679359078407,0.0397720895707607,0.0816998332738876,-0.1856958866119384,0.1985145360231399,0.0977032035589218,0.0,0.0,0.4168660640716553,0.7732464075088501
-0.0322540290653705,0.0358328931033611,0.0879773274064064,-0.1755358576774597,0.2019563913345337,0.0688370615243911,0.0,0.0,0.0719435214996337,-0.0746345520019531
-0.0314371101558208,0.0321245044469833,0.0782939195632934,-0.1652836501598358,0.2053767144680023,0.0684064775705337,0.0,0.0,0.1236357688903808,0.0949783325195312
-0.0306763648986816,0.0286690331995487,0.0724952146410942,-0.1540772318840026,0.2089837491512298,0.0721407458186149,0.0,0.0,-0.3443851470947265,-0.2670422792434692
-0.0299040786921978,0.0246672481298446,0.0736640468239784,-0.1783643513917923,0.2125824689865112,0.0719739720225334,0.0,0.0,0.5845422744750977,-0.0504135489463806
-0.0294255260378122,0.0218158811330795,0.0631749480962753,-0.1245884895324707,0.197160929441452,-0.3083952069282532,0.0,1.0,0.5191769599914551,0.0931990146636962
-0.0292495731264352,0.0197545140981674,0.0494188331067562,-0.0877010002732276,0.165199264883995,-0.6392582058906555,0.0,1.0,0.2751152515411377,0.0074217319488525
-0.0291462894529104,0.0177802667021751,0.0415448322892189,-0.0845706537365913,0.1340308636426925,-0.6233682632446289,0.0,0.0,-0.913396418094635,-0.3162829875946045
-0.0290346145629882,0.0152723649516701,0.0425247699022293,-0.1089372485876083,0.1028478294610977,-0.6236612796783447,0.0,0.0,-0.6576743125915527,-0.4937655925750732
-0.0289154052734375,0.0122309541329741,0.0433987714350223,-0.1333042681217193,0.0716460794210434,-0.6240352392196655,0.0,0.0,0.0979797840118408,-0.7104001641273499
-0.0288045890629291,0.0093403914943337,0.041162371635437,-0.1273017078638076,0.0419057644903659,-0.5948063135147095,0.0,0.0,0.4077359437942505,-0.8168063759803772
-0.0287572853267192,0.0069498275406658,0.0331959575414657,-0.1056934148073196,0.0137932570651173,-0.5622502565383911,0.0,0.0,0.3866192102432251,-0.8805997967720032
-0.0287172310054302,0.0044053411111235,0.0306820720434188,-0.1130526289343833,-0.0125364512205123,-0.5265946984291077,0.0,0.0,0.5667867660522461,-0.9299843311309814
