x_pos,y_pos,x_vel,y_vel,angle,ang_vel,leg_1,leg_2,main_booster,lat_booster
-0.0014690399402752,1.4031436443328855,-0.1491399705410003,-0.3456234037876129,0.0020041605457663,0.0395517796277999,0.0,0.0,-0.345988392829895,0.9285194873809814
-0.0028017996810376,1.3949052095413208,-0.1335183680057525,-0.3661563098430633,0.0022392563987523,0.0047033308073878,0.0,0.0,0.1421384811401367,0.2130682468414306
-0.0039835930801928,1.3866045475006104,-0.1191559880971908,-0.3689201474189758,0.003199781756848,0.0192125402390956,0.0,0.0,-0.0392497181892395,0.8644661903381348
-0.005049705505371,1.3778202533721924,-0.1064872294664383,-0.3904109001159668,0.00307576241903,-0.0024805951397866,0.0,0.0,-0.2922344207763672,0.8908734321594238
-0.0059678079560399,1.368558406829834,-0.0898197814822197,-0.4116362035274505,0.0011092541972175,-0.0393337458372116,0.0,0.0,0.000420331954956,0.4131379127502441
-0.0067384717985987,1.359309196472168,-0.0757783576846122,-0.4110788404941559,-0.0001564766280353,-0.0253170393407344,0.0,0.0,-0.7249371409416199,0.039724588394165
-0.0074427602812647,1.3495789766311646,-0.0694619044661521,-0.4324556887149811,-0.0011137404944747,-0.0191472768783569,0.0,0.0,-0.4684964418411255,-0.3881192207336426
-0.0080793378874659,1.3393678665161133,-0.0630056709051132,-0.4538272619247436,-0.0017554709920659,-0.012835812754929,0.0,0.0,-0.5495355129241943,-0.4987517595291137
-0.0086468700319528,1.3286759853363037,-0.0564206428825855,-0.4751997292041778,-0.002075885888189,-0.0064090327359735,0.0,0.0,-0.6650871634483337,-0.7388113141059875
-0.0092021944001317,1.3175079822540283,-0.0570268929004669,-0.4963578283786773,-0.0006038290448486,0.029443746432662,0.0,0.0,-0.8477350473403931,-0.6673343777656555
-0.0097312927246093,1.3058595657348633,-0.0558735951781272,-0.5177075266838074,0.0023330894764512,0.0587434880435466,0.0,0.0,-0.5828605890274048,-0.7764931321144104
-0.0102419853210449,1.2937287092208862,-0.0557481572031974,-0.5391629934310913,0.0069654486142098,0.0926553383469581,0.0,0.0,-0.5739246606826782,-0.6184864640235901
-0.0107175828889012,1.2811203002929688,-0.0535576045513153,-0.5604196190834045,0.0129002621397376,0.1187071427702903,0.0,0.0,-0.7966648936271667,0.0046416521072387
-0.011118983849883,1.2680312395095823,-0.0464927591383457,-0.5817954540252686,0.0191809479147195,0.1256250888109207,0.0,0.0,-0.6633437275886536,0.3083639144897461
-0.0114454273134469,1.2544621229171753,-0.039357203990221,-0.6031719446182251,0.0258120596408844,0.1326343119144439,0.0,0.0,-0.3177425861358642,0.2809263467788696
-0.011696433648467,1.240412950515747,-0.0321602150797843,-0.6245490312576294,0.0327972806990146,0.1397173106670379,0.0,0.0,-0.7907946109771729,0.3072397708892822
-0.0118712428957223,1.2258834838867188,-0.0249104462563991,-0.645926833152771,0.0401402823626995,0.1468733996152877,0.0,0.0,-0.8191062211990356,0.7928967475891113
-0.0118920328095555,1.2108721733093262,-0.0078958813101053,-0.667345404624939,0.0458987765014171,0.1151802390813827,0.0,0.0,-0.8966796398162842,0.4998875856399536
-0.0118357660248875,1.1953803300857544,-0.0005601121811196,-0.6887226700782776,0.0520224831998348,0.1224853619933128,0.0,0.0,-0.8713769912719727,0.3882045745849609
-0.0117022516205906,1.1794086694717407,0.0068026557564735,-0.7101008296012878,0.0585129000246524,0.1298200190067291,0.0,0.0,-0.8935388326644897,0.4575034379959106
-0.0114912036806344,1.162956714630127,0.0141851725056767,-0.7314795851707458,0.0653727874159812,0.1372099220752716,0.0,0.0,-0.2955021858215332,0.7305145263671875
-0.0111434934660792,1.146026372909546,0.0289676636457443,-0.7527211904525757,0.0711238458752632,0.1150315999984741,0.0,0.0,-0.8046130537986755,0.8061821460723877
-0.0106407161802053,1.1286230087280271,0.0460725240409374,-0.7736890316009521,0.07529928535223,0.0835161060094833,0.0,0.0,-0.4326794147491455,0.6468746662139893
-0.0100027080625295,1.1107385158538818,0.0606564171612262,-0.7950261831283569,0.0784151852130889,0.0623234286904335,0.0,0.0,-0.2477784156799316,0.0028854608535766
-0.0092869754880666,1.0923737287521362,0.0680531114339828,-0.8164035081863403,0.0819077044725418,0.0698565393686294,0.0,0.0,-0.1136976480484008,0.7458055019378662
-0.0084480289369821,1.073516607284546,0.0811218991875648,-0.8382500410079956,0.0846501514315605,0.0548487529158592,0.0,0.0,0.1673322916030883,0.1748027801513672
-0.007572459988296,1.0549466609954834,0.0844030529260635,-0.8255136609077454,0.0877837538719177,0.0626719444990158,0.0,0.0,-0.0202451944351196,0.4651615619659424
-0.0066196443513035,1.0358964204788208,0.0917345955967903,-0.8468884229660034,0.0912967547774314,0.0702600479125976,0.0,0.0,0.5309206247329712,0.3305609226226806
-0.0057760239578783,1.0174217224121094,0.0810083299875259,-0.8213121891021729,0.0946300476789474,0.0666657835245132,0.0,0.0,0.4053900241851806,0.673548698425293
-0.0048616407439112,0.9990882277488708,0.0890849232673645,-0.8149732351303101,0.0969654321670532,0.0467076115310192,0.0,0.0,0.2412856817245483,0.6159319877624512
-0.0038695335388183,0.981240212917328,0.0976894944906234,-0.7933398485183716,0.0984765589237213,0.030222350731492,0.0,0.0,0.3437292575836181,0.6639693975448608
-0.0028544426895678,0.9634376168251038,0.1010592803359031,-0.7912577390670776,0.0989220067858696,0.0089090010151267,0.0,0.0,-0.1379696726799011,0.3238177299499511
-0.0017648696666583,0.9451546669006348,0.1081290394067764,-0.8126319050788879,0.0997446253895759,0.0164525117725133,0.0,0.0,0.139406681060791,-0.2502301931381225
-0.0006700515514239,0.9267560243606568,0.1084807887673378,-0.8177841901779175,0.1007394045591354,0.0198954027146101,0.0,0.0,0.3777749538421631,0.6251866817474365
0.0005090713384561,0.9086687564849854,0.1177620515227317,-0.8038923740386963,0.1008896231651306,0.0030042657162994,0.0,0.0,0.2404457330703735,0.4864805936813354
0.0017167091136798,0.890950620174408,0.1201724037528038,-0.7875134944915771,0.1014739423990249,0.0116863129660487,0.0,0.0,0.1465179920196533,0.4083307981491089
0.0029453276656568,0.8732209801673889,0.1219878196716308,-0.788049042224884,0.1023420616984367,0.017362268641591,0.0,0.0,-0.485603392124176,0.554167628288269
0.0042901039123535,0.855022132396698,0.1344238519668579,-0.8088362812995911,0.1023983806371688,0.0011262708576396,0.0,0.0,-0.5242614150047302,-0.1705735921859741
0.0057039260864257,0.8363431096076965,0.1409647762775421,-0.8302105069160461,0.10281553119421,0.0083430493250489,0.0,0.0,-0.1202714443206787,0.5262491703033447
0.0072289467789232,0.8171910047531128,0.1528340280055999,-0.8511806726455688,0.1024902984499931,-0.0065048760734498,0.0,0.0,0.1732199192047119,-0.4910476207733154
0.0086887357756495,0.7983720302581787,0.1463061869144439,-0.8363798260688782,0.1021659299731254,-0.0064873150549829,0.0,0.0,-0.6699069738388062,0.2096399068832397
0.0102139469236135,0.7790725827217102,0.1525019705295562,-0.8577539920806885,0.1021879315376281,0.0004400637408252,0.0,0.0,0.0220551490783691,-0.5448208451271057
0.0118079185485839,0.7595800161361694,0.1578192561864853,-0.8664467334747314,0.103741742670536,0.0310766845941543,0.0,0.0,-0.3963118195533752,-0.6889174580574036
0.0134192463010549,0.7395986318588257,0.1580851227045059,-0.8882778286933899,0.1067775264382362,0.0607155375182628,0.0,0.0,0.180250883102417,-0.20132976770401
0.0150406835600733,0.7194461226463318,0.1588940918445587,-0.8959037661552429,0.1100061908364296,0.0645733177661895,0.0,0.0,0.5963218212127686,-0.4901438951492309
0.0167305953800678,0.6993019580841064,0.1652169674634933,-0.8955748081207275,0.1137599050998687,0.0750739723443985,0.0,0.0,0.0272948741912841,-0.2025234103202819
0.0184850692749023,0.6790983080863953,0.1711709350347519,-0.8982712030410767,0.1180007010698318,0.0848159566521644,0.0,0.0,0.8870131969451904,-0.6606295704841614
0.0199943538755178,0.6598065495491028,0.1453914940357208,-0.8578586578369141,0.1235120818018913,0.1102273687720298,0.0,0.0,0.5984286069869995,0.2774908542633056
0.0213374141603708,0.6411462426185608,0.1290693283081054,-0.829792320728302,0.1287233084440231,0.1042248830199241,0.0,0.0,0.8506232500076294,0.7781895399093628
0.0226963050663471,0.6228578686714172,0.1319832950830459,-0.8131542205810547,0.1326100528240203,0.0777346789836883,0.0,0.0,0.583573579788208,0.8220206499099731
0.0242505073547363,0.6049461960792542,0.1526494324207306,-0.7963232398033142,0.1353727132081985,0.0552532896399498,0.0,0.0,0.2682118415832519,0.633220911026001
0.0257789604365825,0.5873991250991821,0.1511677652597427,-0.7800238728523254,0.137046530842781,0.0334761850535869,0.0,0.0,0.5635074377059937,-0.4071964025497436
0.0274004936218261,0.5700181126594543,0.1597465723752975,-0.7727146148681641,0.1394489854574203,0.0480492524802684,0.0,0.0,0.2937948703765869,-0.1850990056991577
0.0289839748293161,0.5530851483345032,0.1556879580020904,-0.7528259754180908,0.1421004980802536,0.0530302822589874,0.0,0.0,0.1680543422698974,0.2731270790100097
0.0306673049926757,0.5362061262130737,0.1649594753980636,-0.7505032420158386,0.1454635709524154,0.0672614574432373,0.0,0.0,0.5238684415817261,0.360956072807312
0.0322429649531841,0.5194727182388306,0.1543865948915481,-0.7440211772918701,0.14862921833992,0.0633131936192512,0.0,0.0,0.5830323696136475,0.332744836807251
0.0338350310921669,0.5034118890762329,0.1554324924945831,-0.7141985297203064,0.1524072587490081,0.0755604282021522,0.0,0.0,0.174946904182434,0.7399556636810303
0.035560704767704,0.4876234531402588,0.1699781566858291,-0.7019744515419006,0.1549982130527496,0.0518189743161201,0.0,0.0,0.142627477645874,0.4140212535858154
0.0372862815856933,0.472210556268692,0.1695581078529358,-0.6853345632553101,0.157992422580719,0.0598840415477752,0.0,0.0,-0.2770727872848511,0.0818057060241699
0.0390464775264263,0.4563172161579132,0.1728804558515548,-0.7067083716392517,0.1611341387033462,0.0628347247838974,0.0,0.0,0.5286800861358643,0.4132611751556396
0.0408311858773231,0.4404621422290802,0.1749829202890396,-0.7050523161888123,0.1646250933408737,0.0698188245296478,0.0,0.0,0.2202950716018676,0.3708412647247314
0.0424887649714946,0.4248750209808349,0.162492424249649,-0.6931248307228088,0.1678853929042816,0.0652063116431236,0.0,0.0,0.7873079776763916,0.5769455432891846
0.0442675575613975,0.4096806943416595,0.1753091067075729,-0.6755991578102112,0.1704650819301605,0.0515939071774482,0.0,0.0,0.7507227659225464,-0.0916918516159057
0.0459875091910362,0.3949721753597259,0.169243037700653,-0.654028594493866,0.1732341945171356,0.0553817860782146,0.0,0.0,0.4930930137634277,0.5407135486602783
0.0477201454341411,0.3803274631500244,0.1714954823255539,-0.6510841250419617,0.1749945729970932,0.0352078303694725,0.0,0.0,0.7572546005249023,-0.627136766910553
0.0491775497794151,0.3660809099674225,0.1430492103099823,-0.6334999799728394,0.177694484591484,0.0539981797337532,0.0,0.0,0.1055734157562255,0.856726884841919
0.0506365783512592,0.3522312641143799,0.1449121683835983,-0.6156567335128784,0.1786878556013107,0.0198670849204063,0.0,0.0,0.7492592334747314,-0.3110730051994324
0.0521451011300087,0.3383810520172119,0.1494707316160202,-0.6157323122024536,0.1800740510225296,0.0277237184345722,0.0,0.0,0.93658709526062,-0.5104400515556335
0.053484059870243,0.3255307078361511,0.1314312219619751,-0.5714298486709595,0.1825494170188903,0.0495073646306991,0.0,0.0,0.8174657821655273,0.6558549404144287
0.0546854026615619,0.3129483461380005,0.1192928776144981,-0.5593163371086121,0.1833841353654861,0.0166948139667511,0.0,0.0,0.5802369117736816,0.5643023252487183
0.0557324402034282,0.3008287847042084,0.1053122654557228,-0.5385704040527344,0.1827753484249115,-0.0121757686138153,0.0,0.0,0.8711023330688477,0.8764548301696777
0.0567687042057514,0.2892987728118896,0.1060068383812904,-0.512150228023529,0.1803794205188751,-0.0479181446135044,0.0,0.0,0.878892183303833,0.6768498420715332
0.0575386993587017,0.2786845266819,0.0812594667077064,-0.4712356030941009,0.1761114746332168,-0.0853592380881309,0.0,0.0,0.9470651149749756,0.1088449954986572
0.0582830421626567,0.268617033958435,0.0784256681799888,-0.446972906589508,0.1720983386039734,-0.0802628248929977,0.0,0.0,0.9078044891357422,-0.5350701808929443
0.0588745102286338,0.2587103843688965,0.0623749867081642,-0.4399273991584778,0.1688708215951919,-0.0645505711436271,0.0,0.0,0.9531593322753906,0.4180126190185547
0.0594855323433876,0.2489110082387924,0.0641528367996215,-0.4351828694343567,0.1658226400613784,-0.0609633512794971,0.0,0.0,0.8226673603057861,0.3846668004989624
0.0600037574768066,0.239175871014595,0.0552461668848991,-0.43229541182518,0.1623973548412323,-0.0685060620307922,0.0,0.0,0.929786205291748,0.2273499965667724
0.0603644363582134,0.2303285896778106,0.039774764329195,-0.3928107619285583,0.1586877107620239,-0.07419253885746,0.0,0.0,0.8530848026275635,0.2441399097442627
0.0606696121394634,0.2223766595125198,0.0340736843645572,-0.3530445396900177,0.1551312059164047,-0.0711297467350959,0.0,0.0,0.7690057754516602,-0.0988212823867797
0.0607199668884277,0.2152125984430313,0.0094320494681596,-0.3179496526718139,0.1507339775562286,-0.0879444926977157,0.0,0.0,0.3023960590362549,0.6076017618179321
0.0606658942997455,0.2079340815544128,0.0007330469088628,-0.3228829801082611,0.1446067243814468,-0.1225451976060867,0.0,0.0,0.5869265794754028,-0.2619487047195434
0.0605373382568359,0.2013099491596222,-0.0065642432309687,-0.2938066720962524,0.1383293569087982,-0.1255473345518112,0.0,0.0,0.5988508462905884,-0.4192259311676025
0.0602301582694053,0.1950121223926544,-0.0236045978963375,-0.2792608439922333,0.1312474012374878,-0.1416389048099517,0.0,0.0,0.0525256395339965,-0.490023136138916
0.0598261840641498,0.1888687908649444,-0.0327447690069675,-0.2723821401596069,0.1236318051815033,-0.1523119658231735,0.0,0.0,0.1656121015548706,-0.0071327686309814
0.0593462958931922,0.1829775869846344,-0.0398930683732032,-0.2611812651157379,0.1155844628810882,-0.1609471142292022,0.0,0.0,-0.2508512735366821,-0.141960322856903
0.0588587746024131,0.1766058057546615,-0.0402309969067573,-0.2825537919998169,0.1071243658661842,-0.1692021042108535,0.0,0.0,0.0867916345596313,-0.2540875673294067
0.058354377746582,0.1700918227434158,-0.0415603630244731,-0.2888957262039184,0.0983041375875473,-0.1764042377471923,0.0,0.0,-0.1686468124389648,-0.8406744599342346
0.0577852241694927,0.1630830317735672,-0.0490026324987411,-0.3110041916370392,0.0904527753591537,-0.1570269912481308,0.0,0.0,0.2860093116760254,-0.7956234812736511
0.0572327598929405,0.1562663614749908,-0.0485907644033432,-0.3025764524936676,0.0838600248098373,-0.1318549066781997,0.0,0.0,0.2455332279205322,0.2225285768508911
0.0567498207092285,0.1494264453649521,-0.0416379794478416,-0.3036360740661621,0.0772665366530418,-0.1318699866533279,0.0,0.0,0.470942735671997,-0.8344926238059998
0.0561326034367084,0.1431037336587906,-0.0562179200351238,-0.2807349562644958,0.0718217641115188,-0.1088954582810401,0.0,0.0,-0.0825811028480529,0.0189737081527709
0.0555042251944541,0.1363001465797424,-0.0568089298903942,-0.3021054565906524,0.0658569782972335,-0.119295559823513,0.0,0.0,0.3854542970657348,-0.3414044380187988
0.0549318306148052,0.1298632770776748,-0.0511595085263252,-0.2858276963233948,0.0598397105932235,-0.1203451603651046,0.0,0.0,0.1625573635101318,-0.8075200319290161
0.0543520934879779,0.1232825592160224,-0.0530183687806129,-0.2922862768173218,0.0549402087926864,-0.0979900360107421,0.0,0.0,0.0520436763763427,0.1460506916046142
0.0537094101309776,0.1167039275169372,-0.0585864596068859,-0.2921880483627319,0.0493212379515171,-0.1123794764280319,0.0,0.0,-0.0386921167373657,-0.4440796375274658
0.0530549995601177,0.1096444949507713,-0.0591774582862854,-0.3135594427585602,0.0431240275502204,-0.1239440664649009,0.0,0.0,0.0891050100326538,-0.7651915550231934
0.0522943511605262,0.1026612371206283,-0.0707103461027145,-0.3102237284183502,0.0378458499908447,-0.1055638939142227,0.0,0.0,0.0653676986694336,-0.5134495496749878
0.051373578608036,0.0959633663296699,-0.0869900062680244,-0.2975610792636871,0.0328247100114822,-0.1004229933023452,0.0,0.0,0.012171983718872,-0.630316436290741
0.0504382140934467,0.0894293636083602,-0.0891688242554664,-0.2903104722499847,0.0285070948302745,-0.0863521844148635,0.0,0.0,0.1285688877105713,0.3800129890441894
0.0494407638907432,0.0831814631819725,-0.0945629701018333,-0.2775945663452148,0.0233939513564109,-0.1022631898522377,0.0,0.0,-0.0525526404380798,-0.5626286864280701
0.0483821853995323,0.0764550566673278,-0.1013148799538612,-0.2988862991333008,0.0189161822199821,-0.0895553976297378,0.0,0.0,0.4393970966339111,-0.1362874507904052
0.0472840294241905,0.0698980167508125,-0.1045266240835189,-0.2913658916950226,0.0136911533772945,-0.1045002788305282,0.0,0.0,0.7757052183151245,-0.1858379244804382
0.0460424423217773,0.0638274252414703,-0.1176120638847351,-0.2697593569755554,0.0072295814752578,-0.1292316913604736,0.0,0.0,0.2588322162628174,-0.0404640436172485
0.0446749702095985,0.0578739270567894,-0.1289957910776138,-0.2645823359489441,-0.0004279151326045,-0.1531500816345214,0.0,0.0,0.3607637882232666,0.0705214738845825
0.0433873161673545,0.0523281916975975,-0.1207286342978477,-0.2465021312236786,-0.0083559527993202,-0.1585605442523956,0.0,0.0,0.5579485893249512,-0.1932266354560852
0.0421538352966308,0.0468236543238163,-0.1148974075913429,-0.2447144985198974,-0.0166986305266618,-0.1668535023927688,0.0,0.0,0.2769075632095337,-0.5149392485618591
0.0410058982670307,0.0417256690561771,-0.1069674864411354,-0.226685956120491,-0.0244351141154766,-0.15472973883152,0.0,0.0,0.1022315025329589,-0.8817294239997864
0.0397784225642681,0.0369345992803573,-0.1159738451242446,-0.2130610644817352,-0.0311186853796243,-0.1336714476346969,0.0,0.0,0.3318867683410644,-0.7130664587020874
0.0386412627995014,0.0327012166380882,-0.1078709736466407,-0.188283309340477,-0.0368913374841213,-0.1154528707265853,0.0,0.0,-0.1915214657783508,-0.840725302696228
0.0374440178275108,0.0279909707605838,-0.1146391406655311,-0.2094769030809402,-0.0419143289327621,-0.1004597768187522,0.0,0.0,0.5222702026367188,-0.7004590034484863
0.0362152084708213,0.0239389762282371,-0.1184690743684768,-0.1802179515361786,-0.0462740063667297,-0.0871936455368995,0.0,0.0,0.2513432502746582,-0.3812225461006164
0.0350606925785541,0.0202974658459424,-0.1105205863714218,-0.1620035767555236,-0.0511442869901657,-0.0974056795239448,0.0,0.0,0.2031563520431518,-0.3080927729606628
0.0339842811226844,0.0166716910898685,-0.1022552400827407,-0.1613405048847198,-0.0564719289541244,-0.106552742421627,0.0,0.0,0.0386980772018432,-0.2385717630386352
0.0328570380806922,0.0131547069177031,-0.1062388867139816,-0.1565676480531692,-0.0628894567489624,-0.1283509284257888,0.0,0.0,0.3463900089263916,-0.1640015244483947
0.0316574089229106,0.0097961165010929,-0.1122387796640396,-0.1496170163154602,-0.0705302283167839,-0.152815356850624,0.0,0.0,0.2942360639572143,-0.3905961513519287
0.0304794311523437,0.0066207740455865,-0.1092344373464584,-0.1415547281503677,-0.0789932459592819,-0.1692603230476379,1.0,0.0,0.6691818237304688,0.5988540649414062
0.0294655803591012,0.0041811084374785,-0.1018776521086692,-0.1086183786392211,-0.0777805298566818,0.0251985155045986,1.0,0.0,0.5479271411895752,0.7136020660400391
0.0287642478942871,0.002249417360872,-0.0845897942781448,-0.0851764380931854,-0.0634356290102005,0.2869463562965393,1.0,0.0,0.3432285785675049,0.8150720596313477
0.0283221248537302,0.0010551190935075,-0.0682343542575836,-0.0522390007972717,-0.0396606288850307,0.4755367636680603,1.0,0.0,-0.1781852841377258,0.4180964231491089
0.0279113762080669,-0.0004114770854357,-0.0706549733877182,-0.0646701231598854,-0.010412904433906,0.5849952697753906,1.0,0.0,0.1874227523803711,0.7946583032608032
0.0276216510683298,-0.0019861841574311,-0.057973600924015,-0.0700394585728645,0.0182416252791881,0.5731270909309387,1.0,1.0,0.7300812005996704,0.9816819429397584
