x_pos,y_pos,x_vel,y_vel,angle,ang_vel,leg_1,leg_2,main_booster,lat_booster
-0.0015395164955407,1.4035115242004397,-0.155947059392929,-0.329262763261795,0.0017865513218566,0.0352429561316967,0.0,0.0,-0.5256085395812988,0.8540583848953247
-0.0030226707458496,1.3960095643997192,-0.1482196301221847,-0.3334210813045501,0.0016974179306998,-0.0017820820212364,0.0,0.0,-0.2976115942001343,0.3470020294189453
-0.0045223236083984,1.3883942365646362,-0.1498768925666809,-0.3384566307067871,0.0016113973688334,-0.0017206815537065,0.0,0.0,-0.5134400725364685,-0.1191598176956176
-0.0060387612320482,1.3806660175323486,-0.1515621542930603,-0.343472957611084,0.0015276960330083,-0.0016743466258049,0.0,0.0,-0.2478717565536499,0.4965827465057373
-0.0075722695328295,1.3728251457214355,-0.1532722562551498,-0.3484856784343719,0.0014464319683611,-0.0016255173832178,0.0,0.0,0.132843017578125,0.8000359535217285
-0.0089523317292332,1.365429162979126,-0.1364098489284515,-0.3287045061588287,-0.000125897466205,-0.0314496643841266,0.0,0.0,0.0903033018112182,0.1315739154815673
-0.0103647233918309,1.358492136001587,-0.139569878578186,-0.3083146810531616,-0.0017664582701399,-0.0328142121434211,0.0,0.0,-0.1422247886657714,0.5741515159606934
-0.0117381094023585,1.3514437675476074,-0.1342595666646957,-0.3132639825344085,-0.0048230527900159,-0.0611376762390136,0.0,0.0,-0.4724279642105102,0.0148711204528808
-0.0131293293088674,1.3442829847335815,-0.1360329985618591,-0.3182745575904846,-0.0078764632344245,-0.0610736981034278,0.0,0.0,-0.463689923286438,-0.3129627108573913
-0.014538288116455,1.3370094299316406,-0.1378185451030731,-0.3232866823673248,-0.0109275011345744,-0.0610260255634784,0.0,0.0,-0.5451850891113281,-0.0385531783103942
-0.015965174883604,1.3296232223510742,-0.1396130919456482,-0.3282996118068695,-0.0139757385477423,-0.0609700456261634,0.0,0.0,-0.4692682027816772,0.3984279632568359
-0.0174099914729595,1.3221243619918823,-0.1414140164852142,-0.3333126306533813,-0.0170209854841232,-0.0609104223549366,0.0,0.0,-0.6494059562683105,0.5328891277313232
-0.0188218113034963,1.314514398574829,-0.1368075609207153,-0.3382774591445923,-0.0213476587086915,-0.0865409895777702,0.0,0.0,-0.5550852417945862,0.2963894605636596
-0.0202515609562397,1.3067920207977295,-0.1386102437973022,-0.3432913720607757,-0.0256701298058033,-0.0864570364356041,0.0,0.0,-0.6002345681190491,0.4067285060882568
-0.0216992385685443,1.2989567518234253,-0.1404124945402145,-0.3483054041862488,-0.0299888905137777,-0.0863830670714378,0.0,0.0,-0.505617618560791,0.335896372795105
-0.023164939135313,1.2910093069076538,-0.1422119438648224,-0.353319376707077,-0.0343033373355865,-0.0862966626882553,0.0,0.0,-0.5023888945579529,0.4797179698944092
-0.0246485713869333,1.2829492092132568,-0.1440059840679168,-0.3583334684371948,-0.0386130474507808,-0.0862018093466758,0.0,0.0,-0.7221969962120056,0.7769074440002441
-0.0260743144899606,1.2747657299041748,-0.1363019347190857,-0.3638858497142792,-0.0448257625102996,-0.1242653578519821,0.0,0.0,-0.6000910401344299,0.4166445732116699
-0.0275177955627441,1.266469955444336,-0.1380730122327804,-0.3689017593860626,-0.0510317087173461,-0.1241300553083419,0.0,0.0,-0.9248414039611816,0.2914773225784302
-0.0289787296205759,1.2580620050430298,-0.1398325860500335,-0.3739179372787475,-0.0572315193712711,-0.1240074411034584,0.0,0.0,-0.8566615581512451,0.2978503704071045
-0.0304571148008108,1.2495416402816772,-0.1415782421827316,-0.3789340853691101,-0.063424251973629,-0.1238659769296646,0.0,0.0,-0.8118322491645813,0.1635589599609375
-0.0319526679813861,1.2409090995788574,-0.1433075964450836,-0.3839503824710846,-0.0696092694997787,-0.1237116232514381,0.0,0.0,-0.8302800059318542,0.5001490116119385
-0.0334172248840332,1.2321583032608032,-0.1390056610107422,-0.3892773389816284,-0.0769958347082138,-0.1477447301149368,0.0,0.0,-0.6345890164375305,0.2726296186447143
-0.034898567944765,1.2232956886291504,-0.1406931728124618,-0.3942955732345581,-0.0843726992607116,-0.1475503891706466,0.0,0.0,-0.8859289288520813,0.5994400978088379
-0.0363601669669151,1.214318037033081,-0.1378189772367477,-0.3994958996772766,-0.0926518738269805,-0.1655982285737991,0.0,0.0,-0.8269349932670593,-0.2653205990791321
-0.0378394126892089,1.2052072286605835,-0.1395899951457977,-0.4054652750492096,-0.1009207442402839,-0.1653773486614227,0.0,0.0,-0.9427993297576904,0.9656885862350464
-0.0392580032348632,1.1959792375564575,-0.1315846592187881,-0.4108630120754242,-0.1111148670315742,-0.2038825452327728,0.0,0.0,-0.6383104920387268,0.0857878923416137
-0.040692426264286,1.1866397857666016,-0.1331935375928878,-0.4158821105957031,-0.1212979927659034,-0.2036625444889068,0.0,0.0,-0.3925939798355102,-0.0552208423614501
-0.0421423912048339,1.1771888732910156,-0.1347726881504058,-0.4209011495113373,-0.1314693838357925,-0.2034280598163604,0.0,0.0,-0.8114399909973145,0.2736656665802002
-0.0436075218021869,1.1676268577575684,-0.1363203227519989,-0.4259201288223266,-0.1416282951831817,-0.2031785547733307,0.0,0.0,-0.741578221321106,-0.661254346370697
-0.0451370254158973,1.1579711437225342,-0.1440637707710266,-0.4300122559070587,-0.1504894644021988,-0.1772234737873077,0.0,0.0,-0.7440375685691833,0.0075685977935791
-0.0466811172664165,1.148203730583191,-0.1455428302288055,-0.4350290894508362,-0.1593365967273712,-0.1769426763057708,0.0,0.0,-0.6391334533691406,0.1622390747070312
-0.0482393279671669,1.1383246183395386,-0.1469853669404983,-0.4400459229946136,-0.1681688576936721,-0.1766452938318252,0.0,0.0,-0.6693856120109558,0.3464972972869873
-0.0498113632202148,1.1283338069915771,-0.1483897864818573,-0.4450626969337463,-0.1769853830337524,-0.1763310134410858,0.0,0.0,-0.7823829650878906,-0.4219287037849426
-0.051396656781435,1.1182312965393066,-0.1497546583414077,-0.4500794112682342,-0.1857853382825851,-0.1759994328022003,0.0,0.0,-0.8036845326423645,0.3010368347167969
-0.0529949180781841,1.108016848564148,-0.1510785222053527,-0.4550960659980774,-0.1945678293704986,-0.1756500303745269,0.0,0.0,-0.7185315489768982,0.1058888435363769
-0.0546056739985942,1.0976907014846802,-0.1523600667715072,-0.4601126611232757,-0.2033319473266601,-0.1752825379371643,0.0,0.0,-0.862451434135437,-0.1838001012802124
-0.0562284477055072,1.0872526168823242,-0.1535980403423309,-0.4651292264461517,-0.2120767682790756,-0.17489655315876,0.0,0.0,-0.7409014105796814,-0.1294930577278137
-0.0578627586364746,1.0767028331756592,-0.1547912210226059,-0.4701456725597381,-0.2208013534545898,-0.1744919121265411,0.0,0.0,-0.8136748671531677,-0.5801362991333008
-0.0595505721867084,1.0660560131072998,-0.1612862050533294,-0.4743281900882721,-0.2283907830715179,-0.151788979768753,0.0,0.0,0.2411947250366211,-0.6909842491149902
-0.0612563118338584,1.0562065839767456,-0.1643705070018768,-0.4387332201004028,-0.234685018658638,-0.1258844137191772,0.0,0.0,-0.1572115421295166,0.750542163848877
-0.0629031211137771,1.0462182760238647,-0.1567111015319824,-0.445212572813034,-0.242781713604927,-0.1619336903095245,0.0,0.0,-0.8717916011810303,0.2000633478164672
-0.064559556543827,1.0361181497573853,-0.1577147394418716,-0.4502279460430145,-0.2508543133735657,-0.1614527255296707,0.0,0.0,-0.4267112612724304,0.3859683275222778
-0.0662251487374305,1.0259058475494385,-0.1586689949035644,-0.4552432596683502,-0.2589018940925598,-0.1609524339437484,0.0,0.0,-0.6589120030403137,-0.408528208732605
-0.0678993239998817,1.0155818462371826,-0.1595732420682907,-0.4602585136890411,-0.266923576593399,-0.1604329049587249,0.0,0.0,-0.924540400505066,0.4994480609893799
-0.0695817023515701,1.005145788192749,-0.1604269593954086,-0.4652736783027649,-0.2749182879924774,-0.1598940789699554,0.0,0.0,-0.5645855665206909,-0.5138394236564636
-0.0713070854544639,0.9946095943450928,-0.1656954884529113,-0.4695788621902466,-0.2819516062736511,-0.1406662613153457,0.0,0.0,-0.2462512254714965,-0.7156302332878113
-0.0731024742126464,0.9839965105056764,-0.174407884478569,-0.4726997017860412,-0.2872254550457001,-0.1054772585630416,0.0,0.0,-0.4812643527984619,-0.1846953630447387
-0.0749044418334961,0.9732706546783448,-0.1751067340373993,-0.4777117371559143,-0.2924695312976837,-0.1048818007111549,0.0,0.0,-0.3874398469924927,-0.4567715525627136
-0.0767124146223068,0.9624323844909668,-0.1757540255784988,-0.4827237427234649,-0.2976829409599304,-0.1042676791548729,0.0,0.0,-0.869613528251648,-0.9227972030639648
-0.0785790458321571,0.9515056014060974,-0.1830315142869949,-0.4863806962966919,-0.301435261964798,-0.0750467032194137,0.0,0.0,0.3420464992523193,-0.6368133425712585
-0.0803693756461143,0.9413726925849916,-0.176599383354187,-0.4508609473705292,-0.303947389125824,-0.0502424724400043,0.0,0.0,0.4637640714645386,-0.4639617204666137
-0.0819540023803711,0.93164724111557,-0.1564935445785522,-0.4326581954956054,-0.3059780597686767,-0.0406137257814407,0.0,0.0,-0.2088240385055542,-0.3299645185470581
-0.0835426300764083,0.921808898448944,-0.1569352746009826,-0.4376682341098785,-0.3079744875431061,-0.0399277359247207,0.0,0.0,0.0796374082565307,-0.2022268772125244
-0.0849454849958419,0.9122688174247742,-0.1388233602046966,-0.4243121445178985,-0.3094853162765503,-0.0302166435867548,0.0,0.0,-0.3519521951675415,-0.7150112390518188
-0.0864141434431076,0.9026426076889038,-0.1470694988965988,-0.427785575389862,-0.3092756867408752,0.004192610271275,0.0,0.0,0.1515042781829834,-0.8979904651641846
-0.0877089500427246,0.8937023282051086,-0.1315088719129562,-0.3969100415706634,-0.3071737587451935,0.0420389845967292,0.0,0.0,0.26626718044281,-0.2649120688438415
-0.0887487381696701,0.8853403925895691,-0.1065123677253723,-0.3711041808128357,-0.304544985294342,0.0525756180286407,0.0,0.0,0.8097860813140869,-0.9529478549957277
-0.0895020514726638,0.8781585097312927,-0.0799368843436241,-0.3182404935359955,-0.2997898757457733,0.0951020866632461,0.0,0.0,-0.6152663230895996,-0.3132499456405639
-0.0902564972639083,0.8708639144897461,-0.0800893232226371,-0.3232518434524536,-0.2949956953525543,0.0958838164806366,0.0,0.0,0.0720496177673339,-0.4582440257072449
-0.0909099578857421,0.8637873530387878,-0.0701805055141449,-0.313549667596817,-0.2900080382823944,0.0997527986764907,0.0,0.0,-0.5581744909286499,-0.3173222541809082
-0.0915636047720909,0.8565980195999146,-0.0702443867921829,-0.3185612261295318,-0.2849799394607544,0.1005621924996376,0.0,0.0,-0.934063196182251,0.4510456323623657
-0.0922169685363769,0.8492960929870605,-0.0702659338712692,-0.3235728442668915,-0.2799107134342193,0.1013844758272171,0.0,0.0,-0.8805897235870361,0.2177364826202392
-0.0928695648908615,0.8418816328048706,-0.0702465921640396,-0.3285845220088959,-0.2747997939586639,0.1022190824151039,0.0,0.0,-0.9912711381912231,0.5672394037246704
-0.0934784859418869,0.8343321084976196,-0.0647690221667289,-0.3348084986209869,-0.2708154022693634,0.0796876698732376,0.0,0.0,-0.8136968016624451,-0.0850802659988403
-0.0940857902169227,0.8266699910163879,-0.0646721869707107,-0.3398193418979645,-0.2667881548404693,0.0805450230836868,0.0,0.0,-0.9822086095809937,-0.1622440814971923
-0.0946913734078407,0.818895161151886,-0.064539298415184,-0.3448302149772644,-0.2627175152301788,0.0814127177000045,0.0,0.0,-0.9776127338409424,-0.5236799120903015
-0.0953303351998329,0.8110154867172241,-0.068818598985672,-0.3493318855762481,-0.2576932311058044,0.1004853248596191,0.0,0.0,-0.9986622333526612,-0.3681749105453491
-0.0959668159484863,0.8030233383178711,-0.0686192587018013,-0.3543435037136078,-0.2526246607303619,0.1013716012239456,0.0,0.0,-0.996452271938324,-0.7504836320877075
-0.0966673865914344,0.7949413657188416,-0.0767898932099342,-0.3580598831176758,-0.2457601428031921,0.1372899562120437,0.0,0.0,-0.997689127922058,0.4898624420166015
-0.0973647087812423,0.7867469787597656,-0.076532132923603,-0.363073319196701,-0.2388505488634109,0.1381918489933014,0.0,0.0,-0.947506308555603,-0.0642703771591186
-0.0980587005615234,0.7784404158592224,-0.076247863471508,-0.3680868446826935,-0.2318955212831497,0.139100581407547,0.0,0.0,-0.9958879351615906,0.8778283596038818
-0.0986945182085037,0.7700123190879822,-0.0691184848546981,-0.373725563287735,-0.2262782454490661,0.112345740199089,0.0,0.0,-0.9995791912078856,0.4675016403198242
-0.09932641685009,0.7614715695381165,-0.0687870979309082,-0.3787378370761871,-0.2206149250268936,0.1132662668824195,0.0,0.0,-0.999179482460022,-0.0341505408287048
-0.0999543219804763,0.7528184056282043,-0.0684357285499572,-0.3837501108646393,-0.2149053364992141,0.1141914576292038,0.0,0.0,-0.9993407130241394,-0.6514598727226257
-0.100623607635498,0.7440608143806458,-0.0737717673182487,-0.3882458508014679,-0.2079915404319763,0.1382758468389511,0.0,0.0,-0.9949999451637268,0.3594605922698974
-0.1012884154915809,0.7351910471916199,-0.0733876526355743,-0.3932594358921051,-0.2010311484336853,0.1392079144716262,0.0,0.0,-0.9998186230659484,0.8078873157501221
-0.1018859893083572,0.7261971831321716,-0.0651403218507766,-0.3990084230899811,-0.1956198364496231,0.1082263961434364,0.0,0.0,-0.9989526867866516,0.5144007205963135
-0.1024332046508789,0.7170822024345398,-0.0589879378676414,-0.4045466780662536,-0.1913286447525024,0.0858238190412521,0.0,0.0,-0.9998131394386292,-0.5883080363273621
-0.1030289679765701,0.707876443862915,-0.065301775932312,-0.4084211885929107,-0.1855855137109756,0.1148630008101463,0.0,0.0,-0.9997738599777222,0.3404605388641357
-0.1036201491951942,0.6985580921173096,-0.0648795962333679,-0.413433700799942,-0.179795503616333,0.1158002465963363,0.0,0.0,-0.9995313286781312,0.3959982395172119
-0.1042064651846885,0.6891274452209473,-0.0644541904330253,-0.4184463322162628,-0.1739586740732193,0.1167367324233055,0.0,0.0,-0.9999611377716064,0.2390698194503784
-0.1047880202531814,0.6795845031738281,-0.0640281215310096,-0.4234590232372284,-0.1680750697851181,0.1176716536283493,0.0,0.0,-0.999044954776764,0.6474356651306152
-0.1053186431527137,0.6699198484420776,-0.0578112825751304,-0.4290043115615845,-0.1633222103118896,0.0950573235750198,0.0,0.0,-0.9998592734336852,0.5525832176208496
-0.1058020591735839,0.6601351499557495,-0.0520534738898277,-0.4344754517078399,-0.1596058309078216,0.0743277221918106,0.0,0.0,-0.9998690485954284,-0.2597211599349975
-0.1062808036804199,0.6502377390861511,-0.0516404621303081,-0.439486563205719,-0.1558431982994079,0.0752529874444007,0.0,0.0,-0.999858558177948,0.0973974466323852
-0.1067550629377365,0.640227735042572,-0.0512372143566608,-0.4444977045059204,-0.1520345211029052,0.0761732310056686,0.0,0.0,-0.9994288682937622,0.1447783708572387
-0.1072249412536621,0.6301049590110779,-0.0508463867008686,-0.4495088458061218,-0.148180142045021,0.0770874992012977,0.0,0.0,-0.9997416138648988,0.2867747545242309
-0.107690617442131,0.6198695302009583,-0.0504706501960754,-0.4545201063156128,-0.1442804038524627,0.0779948756098747,0.0,0.0,-0.9997612833976746,0.2770192623138428
-0.1081521958112716,0.6095216274261475,-0.0501126870512962,-0.4595313668251037,-0.1403356790542602,0.0788944140076637,0.0,0.0,-0.99969220161438,0.9570910930633544
-0.1085350066423416,0.5990521311759949,-0.0403875485062599,-0.4651139080524444,-0.1382380574941635,0.0419523119926452,0.0,0.0,-0.9976800084114076,0.778721809387207
-0.1088496223092079,0.5884623527526855,-0.0319656692445278,-0.4706111252307892,-0.1377298086881637,0.0101650832220911,0.0,0.0,-0.9998844265937804,-0.3065829277038574
-0.1091609001159668,0.5777598023414612,-0.0316769480705261,-0.4756211936473846,-0.1371780484914779,0.0110350828617811,0.0,0.0,-0.9998317360877992,-0.9147297143936156
-0.1095295920968055,0.5669471621513367,-0.0389953628182411,-0.4803656041622162,-0.1350663304328918,0.0422345846891403,0.0,0.0,-0.9998566508293152,0.3247348070144653
-0.1098957061767578,0.5560218691825867,-0.0387665480375289,-0.4853760004043579,-0.1329123526811599,0.0430794283747673,0.0,0.0,-0.9996517300605774,0.1245533227920532
-0.1102593392133712,0.5449838042259216,-0.0385716818273067,-0.4903864562511444,-0.1307168304920196,0.0439100936055183,0.0,0.0,-0.9999923706054688,0.7340433597564697
-0.1105657592415809,0.5338217616081238,-0.0314678996801376,-0.4960171580314636,-0.1298901885747909,0.0165326781570911,0.0,0.0,-0.999617874622345,0.0747218132019043
-0.1108705550432205,0.5225468873977661,-0.0313488468527793,-0.5010273456573486,-0.1290236264467239,0.0173312593251466,0.0,0.0,-0.9997217655181884,0.1067863702774047
-0.1111742034554481,0.5111593008041382,-0.0312716737389564,-0.5060374736785889,-0.128118023276329,0.018112001940608,0.0,0.0,-0.9990330338478088,-0.7677597403526306
-0.1115421280264854,0.4996770918369293,-0.0394257083535194,-0.5100955367088318,-0.1255022287368774,0.0523157604038715,0.0,0.0,-0.99985671043396,0.7287313938140869
-0.1118600815534591,0.4880779981613159,-0.0332029983401298,-0.5153964757919312,-0.1241023167967796,0.0279983785003423,0.0,0.0,-0.9995681047439576,0.9183329343795776
-0.1121094673871994,0.4763502478599548,-0.0246160384267568,-0.5212633013725281,-0.1244256496429443,-0.0064667435362935,0.0,0.0,-0.9990670680999756,0.5341618061065674
-0.1123258620500564,0.4645038247108459,-0.0204834267497062,-0.5266036987304688,-0.1255738735198974,-0.0229647755622863,0.0,0.0,-0.9739913940429688,-0.8877644538879395
-0.1126309409737587,0.4525591135025024,-0.0316021107137203,-0.5307822227478027,-0.1244738474488258,0.0220004394650459,0.0,0.0,-0.9922866821289062,0.9455505609512328
-0.1128500923514366,0.4404908418655395,-0.0208265408873558,-0.5364598631858826,-0.1255591809749603,-0.0217067040503025,0.0,0.0,-0.6875185370445251,-0.836421549320221
-0.1131313294172287,0.428313672542572,-0.0285740084946155,-0.5411697030067444,-0.1251168996095657,0.0088452072814106,0.0,0.0,-0.8106304407119751,-0.0415411591529846
-0.1134159117937088,0.4160237908363342,-0.028920853510499,-0.5461799502372742,-0.1246451660990715,0.0094344625249505,0.0,0.0,-0.3608176708221435,0.2370970249176025
-0.1137042045593261,0.403621107339859,-0.0293308496475219,-0.5511901378631592,-0.1241454854607582,0.0099935131147503,0.0,0.0,-0.310779333114624,-0.1795898079872131
-0.1139968857169151,0.3911056518554687,-0.029805963858962,-0.5562003254890442,-0.1236194595694542,0.0105207143351435,0.0,0.0,0.0660492181777954,-0.4407200813293457
-0.1141998320817947,0.3790248930454254,-0.0210788641124963,-0.536853551864624,-0.1228409931063652,0.0155696468427777,0.0,0.0,0.3637905120849609,-0.2985806465148926
-0.1143320053815841,0.3678359389305115,-0.0139921028167009,-0.4972245097160339,-0.1220670938491821,0.0154778435826301,0.0,0.0,0.0848627090454101,0.2573305368423462
-0.1143682450056076,0.3572968542575836,-0.0046058306470513,-0.4683229327201843,-0.1210878193378448,0.0195855032652616,0.0,0.0,-0.6981680989265442,-0.1695171594619751
-0.1144117340445518,0.3466450572013855,-0.0053588026203215,-0.4733333587646484,-0.1200892701745033,0.0199709180742502,0.0,0.0,-0.5511086583137512,0.0348314046859741
-0.1144634261727333,0.3358804583549499,-0.0061849365010857,-0.4783438146114349,-0.1190734058618545,0.0203172694891691,0.0,0.0,0.0359109640121459,-0.8076107501983643
-0.1146425232291221,0.3255099654197693,-0.0205444749444723,-0.460704892873764,-0.1164599582552909,0.0522689707577228,0.0,0.0,-0.6635506749153137,0.8819642066955566
-0.1147644966840744,0.315014511346817,-0.0131362304091453,-0.4663925468921661,-0.115530714392662,0.0185851547867059,0.0,0.0,-0.6877005100250244,-0.2388820648193359
-0.1148969680070877,0.3044062852859497,-0.0141884256154298,-0.4714030623435974,-0.1145903766155242,0.0188065879046916,0.0,0.0,-0.648625373840332,-0.5950744152069092
-0.1150776892900466,0.2936863005161285,-0.0199561230838298,-0.4763007760047912,-0.1127135083079338,0.0375370383262634,0.0,0.0,-0.2762823700904846,0.7625372409820557
-0.1152005195617675,0.2828451097011566,-0.0123953418806195,-0.4818212389945984,-0.1125963702797889,0.0023425626568496,0.0,0.0,0.1369140148162841,-0.5267619490623474
-0.1152957901358604,0.272727370262146,-0.01075179874897,-0.4495847821235657,-0.1113859713077545,0.0242081396281719,0.0,0.0,-0.5657719969749451,-0.3662092685699463
