x_pos,y_pos,x_vel,y_vel,angle,ang_vel,leg_1,leg_2,main_booster,lat_booster
-0.0015844345325604,1.4035377502441406,-0.1605319827795028,-0.3281079530715942,0.0018666763789951,0.0368301197886467,0.0,0.0,-0.8572745861457713,-0.912663205645809
-0.0032958984375,1.3960870504379272,-0.1747063845396042,-0.3311461210250854,0.005387254524976,0.0704190358519554,0.0,0.0,-0.0845796563853575,-0.1976083679993135
-0.0050686835311353,1.3885494470596311,-0.1808862388134002,-0.3350275158882141,0.008955480530858,0.0713710710406303,0.0,0.0,-0.1279918597238538,-0.4373196550676503
-0.0069026947021484,1.380924940109253,-0.1870548278093338,-0.338890016078949,0.0125711718574166,0.0723205208778381,0.0,0.0,-0.5909637032346882,0.6756582971843925
-0.0087331775575876,1.373217225074768,-0.1851170063018798,-0.3425865471363067,0.0146094318479299,0.0407688096165657,0.0,0.0,-0.5703258811578877,-0.0402235974038885
-0.0106245037168264,1.3654227256774902,-0.1912363469600677,-0.3464444279670715,0.0166918225586414,0.0416515469551086,0.0,0.0,-0.0888634846198754,0.1224538887165017
-0.0125761982053518,1.357541561126709,-0.1973223984241485,-0.3503023684024811,0.0188153758645057,0.0424751564860343,0.0,0.0,0.7906932164088156,-0.6492048991227387
-0.0144778247922658,1.350630521774292,-0.1940977126359939,-0.3072033524513244,0.0227175038307905,0.0780494287610054,0.0,0.0,-0.8587029236996273,-0.1944245401403701
-0.0164390560239553,1.3436329364776611,-0.200099915266037,-0.3110708594322204,0.0266562085598707,0.0787813514471054,0.0,0.0,0.8415125315037453,-0.4272537984071116
-0.0184817314147949,1.3377629518508911,-0.2082871496677398,-0.2609693109989166,0.0306269973516464,0.079423114657402,0.0,0.0,-0.0279619598290585,0.3939868590452969
-0.0205829627811908,1.3318060636520386,-0.2141710966825485,-0.2648382782936096,0.0346319787204265,0.0801067426800727,0.0,0.0,-0.2176533936417848,0.9189027839475646
-0.02266101911664,1.3257650136947632,-0.2098368704319,-0.2685424089431762,0.0366342067718505,0.0400482900440692,0.0,0.0,-0.4399087078351007,0.7610957060766412
-0.0247233398258686,1.3196449279785156,-0.2064301520586013,-0.2720042765140533,0.0368324890732765,0.0039661508053541,0.0,0.0,0.4936469209388705,-0.032194966268114
-0.0267912857234478,1.313922882080078,-0.2073145657777786,-0.2543254792690277,0.0373556241393089,0.010463329963386,0.0,0.0,-0.5860707471946682,0.7236489752329346
-0.02884416654706,1.3081254959106443,-0.2040580958127975,-0.2576347291469574,0.0361336693167686,-0.0244411956518888,0.0,0.0,0.6552979618111252,0.3099350303301075
-0.0308524128049612,1.3026937246322632,-0.2001334875822067,-0.2413962930440902,0.0354564003646373,-0.0135468197986483,0.0,0.0,0.8423685367616098,-0.1679739957622854
-0.0327940955758094,1.2986133098602295,-0.1942393630743026,-0.1813550889492035,0.0355256423354148,0.0013848815578967,0.0,0.0,-0.4085267314731604,-0.4885673795461376
-0.0347880348563194,1.2944457530975342,-0.1994887441396713,-0.1852227300405502,0.0356188639998436,0.0018646219978109,0.0,0.0,0.3174626785639274,0.7066519217251365
-0.0367138870060443,1.2911655902862549,-0.1914183348417282,-0.1457622498273849,0.0344674699008464,-0.0230303760617971,0.0,0.0,0.1916302786266477,-0.5495813665202366
-0.0388111099600791,1.2884044647216797,-0.2095482647418975,-0.122710146009922,0.0343045704066753,-0.0032582264393568,0.0,0.0,-0.0830223424278722,0.9804467418212268
-0.0408632270991802,1.2855685949325562,-0.2026834487915039,-0.125981718301773,0.031800590455532,-0.050084251910448,0.0,0.0,0.8698560310574788,-0.5991903965909537
-0.043011762201786,1.2833919525146484,-0.2135818004608154,-0.0967167541384697,0.0305476803332567,-0.0250605307519435,0.0,0.0,-0.8230076189311273,0.990518611342716
-0.0451110824942588,1.2811315059661863,-0.2062632292509079,-0.1003984287381172,0.0269197486340999,-0.0725650042295456,0.0,0.0,-0.0633589575234931,0.0387822600743524
-0.0472549423575401,1.2787843942642212,-0.2107384204864502,-0.1042545363306999,0.0233116615563631,-0.072168231010437,0.0,0.0,-0.1932913439564225,-0.3865986321431415
-0.0494419112801551,1.276350498199463,-0.2150700986385345,-0.1081134751439094,0.0197209026664495,-0.0718215927481651,0.0,0.0,-0.4450186833613065,0.8518918138150814
-0.0516193397343158,1.2738147974014282,-0.2128195017576217,-0.1126409247517585,0.0148624572902917,-0.097168743610382,0.0,0.0,0.4441411052276434,0.8400258754288109
-0.0537762641906738,1.2721519470214844,-0.2090952843427658,-0.0738509818911552,0.0083536440506577,-0.1301761418581009,0.0,0.0,0.3959613195044318,0.9952803149362736
-0.0560263618826866,1.2714591026306152,-0.2163508236408233,-0.0307798739522695,-0.0002012166951317,-0.1710972785949707,0.0,0.0,0.0468825762747115,-0.3424870859573169
-0.0583962425589561,1.271416425704956,-0.2279445379972458,-0.001919116009958,-0.0091244112700223,-0.1784640848636627,0.0,0.0,0.0970926454142113,-0.6624778011970852
-0.0608668327331543,1.2717721462249756,-0.2393465787172317,0.0157409515231847,-0.0167353600263595,-0.1522185206413269,0.0,0.0,-0.969728621360697,0.9721633541635604
-0.0632916465401649,1.2720510959625244,-0.2327771484851837,0.0122564751654863,-0.026325985789299,-0.1918124258518219,0.0,0.0,0.0249340534210205,-0.7139875888824463
-0.0658536925911903,1.272652268409729,-0.2478954493999481,0.0265472121536731,-0.0345240123569965,-0.1639605909585952,0.0,0.0,0.0096820592880249,-0.5771925449371338
-0.0685313194990158,1.27391254901886,-0.2605662941932678,0.0558277480304241,-0.0416368059813976,-0.1422555595636367,0.0,0.0,0.07570481300354,-0.6722961068153381
-0.0713283568620681,1.2754385471343994,-0.2738171219825744,0.0676530450582504,-0.047451052814722,-0.1162849888205528,0.0,0.0,-0.0929615497589111,-0.2700895667076111
-0.0741522759199142,1.2768783569335938,-0.2765273451805115,0.0637943819165229,-0.0532528683543205,-0.1160362735390663,0.0,0.0,0.0954765081405639,-0.5641761422157288
-0.0770058631896972,1.2789897918701172,-0.2806544303894043,0.093661643564701,-0.0578967444598674,-0.0928776115179061,0.0,0.0,0.2002110481262207,-0.3867435455322265
-0.0798827186226844,1.2815115451812744,-0.2829138040542602,0.1118878349661827,-0.0626159608364105,-0.094384416937828,0.0,0.0,0.1410235166549682,0.0731828212738037
-0.0827220901846885,1.284731388092041,-0.2793064713478088,0.1429043412208557,-0.0672003179788589,-0.0916867777705192,0.0,0.0,-0.0007959008216857,-0.0554025769233703
-0.0855814963579177,1.2878646850585938,-0.2813159823417663,0.1390467584133148,-0.0717707946896553,-0.0914095044136047,0.0,0.0,0.0351359844207763,0.0850806236267089
-0.0884139984846115,1.291479468345642,-0.2787351012229919,0.1604336649179458,-0.0762448459863662,-0.089480847120285,0.0,0.0,0.0930241346359252,0.3906383514404297
-0.0912940949201583,1.2957863807678225,-0.2831840813159942,0.1911597996950149,-0.0810302793979644,-0.0957090333104133,0.0,0.0,-0.079208493232727,0.4285458326339721
-0.0941889733076095,1.300006628036499,-0.2846724689006805,0.1873021125793457,-0.085799366235733,-0.0953815728425979,0.0,0.0,-0.2477227449417114,0.3395867347717285
-0.0970968231558799,1.304140567779541,-0.2859900593757629,0.18344447016716,-0.0905509740114212,-0.0950318053364753,0.0,0.0,-0.1538199186325073,0.6754775047302246
-0.0999540314078331,1.3081783056259155,-0.279365599155426,0.1790546029806137,-0.0968523472547531,-0.1260277926921844,0.0,0.0,-0.1952642202377319,0.8602102994918823
-0.1027584075927734,1.312110424041748,-0.2724854648113251,0.1742308139801025,-0.1047362312674522,-0.1576776206493377,0.0,0.0,-0.1527023315429687,0.743232011795044
-0.1055082306265831,1.3159395456314087,-0.2654575705528259,0.1694813519716262,-0.1141966059803962,-0.1892072856426239,0.0,0.0,-0.230539321899414,0.7253996133804321
-0.1082017868757247,1.3196684122085571,-0.2582657635211944,0.1648402959108352,-0.1252293139696121,-0.2206542789936065,0.0,0.0,-0.3235557079315185,0.3376491069793701
-0.1109000220894813,1.3233120441436768,-0.2587697505950928,0.1609745472669601,-0.1362368017435073,-0.2201500684022903,0.0,0.0,-0.1926367282867431,0.7754471302032471
-0.1135534271597862,1.3268678188323977,-0.2531107366085052,0.1568666994571685,-0.1484220176935196,-0.2437047213315963,0.0,0.0,-0.5562839508056641,0.6294116973876953
-0.1161608695983886,1.3303263187408447,-0.2473673075437545,0.1523244678974151,-0.1617936342954635,-0.2674319744110107,0.0,0.0,-0.5540279150009155,0.9192836284637452
-0.1186797171831131,1.3336788415908811,-0.2362736761569976,0.1472293585538864,-0.1774129569530487,-0.3123864233493805,0.0,0.0,-0.5829949378967285,0.7291617393493652
-0.1211448684334755,1.3369390964508057,-0.2296934127807617,0.1427961140871048,-0.1943175047636032,-0.3380910456180572,0.0,0.0,-0.3545097112655639,0.1907559633255005
-0.1236071586608886,1.340116262435913,-0.2294845581054687,0.1389172822237014,-0.2111856341361999,-0.3373627066612243,0.0,0.0,-0.503664493560791,-0.0581601858139038
-0.1260649710893631,1.343210220336914,-0.2291480302810669,0.1350387185811996,-0.2280147969722747,-0.3365831077098846,0.0,0.0,-0.4894596934318542,-0.7393529415130615
-0.1285606324672699,1.3462328910827637,-0.2341148853302002,0.1318726241588592,-0.2436831444501876,-0.3133670687675476,0.0,0.0,-0.7033047080039978,-0.6087696552276611
-0.1311037987470626,1.349189043045044,-0.2403824031352996,0.1290076076984405,-0.2578851878643036,-0.28404101729393,0.0,0.0,-0.7879822850227356,-0.0290431976318359
-0.1336391419172287,1.3520606756210327,-0.2396961152553558,0.1251363456249237,-0.2720400393009186,-0.2830966413021087,0.0,0.0,-0.688406765460968,-0.4564823508262634
-0.1361656188964843,1.354848027229309,-0.238906592130661,0.1212653890252113,-0.2861446738243103,-0.2820924818515777,0.0,0.0,-0.7815418839454651,-0.8122291564941406
-0.1387342512607574,1.357582449913025,-0.2446444928646087,0.1190815940499305,-0.2987433075904846,-0.2519726753234863,0.0,0.0,-0.6901489496231079,-0.4567314386367798
-0.1412920951843261,1.360231876373291,-0.2436675727367401,0.1152143627405166,-0.311285525560379,-0.2508445978164673,0.0,0.0,-0.8100570440292358,-0.4230822920799255
-0.1438383162021637,1.362796187400818,-0.2426082342863083,0.1113474369049072,-0.3237681090831756,-0.2496516406536102,0.0,0.0,-0.5523945689201355,-0.6448461413383484
-0.1464274376630783,1.365306735038757,-0.2484889477491378,0.1092071756720542,-0.3346482813358307,-0.2176026105880737,0.0,0.0,-0.849035382270813,-0.6540486216545105
-0.1490426063537597,1.3677501678466797,-0.2522009313106537,0.1064053773880004,-0.3444006443023681,-0.1950475126504898,0.0,0.0,-0.722423791885376,-0.3604811429977417
-0.151644229888916,1.370107889175415,-0.2509368658065796,0.1025439426302909,-0.3540832996368408,-0.1936535686254501,0.0,0.0,-0.7074882388114929,-0.5195530652999878
-0.1542703658342361,1.37239670753479,-0.2544889748096466,0.0997002571821212,-0.3626451790332794,-0.1712377667427063,0.0,0.0,-0.7125409245491028,-0.2683234214782715
-0.1568820029497146,1.3745992183685305,-0.253128170967102,0.0958409160375595,-0.3711304068565368,-0.1697044372558593,0.0,0.0,-0.7435740232467651,-0.6737475991249084
-0.1595241576433181,1.3767504692077637,-0.2575599551200866,0.093868687748909,-0.3781888484954834,-0.1411695331335067,0.0,0.0,-0.6935970783233643,-0.2341289520263672
-0.1621510535478592,1.3788151741027832,-0.2561349272727966,0.0900115147233009,-0.3851635456085205,-0.139494314789772,0.0,0.0,-0.730870246887207,-0.3655067086219787
-0.1647624969482422,1.3807934522628784,-0.2546908259391784,0.0861546024680137,-0.3920509219169616,-0.1377473771572113,0.0,0.0,-0.7296411991119385,-0.2780141234397888
-0.1673583984375,1.3826849460601809,-0.253236174583435,0.082297958433628,-0.3988473415374756,-0.135928526520729,0.0,0.0,-0.6192573308944702,-0.4537157416343689
-0.1699387580156326,1.38448965549469,-0.2517796754837036,0.0784415826201438,-0.4055492281913757,-0.1340376138687133,0.0,0.0,-0.8496134281158447,-0.6035670638084412
-0.17254438996315,1.386235237121582,-0.255531370639801,0.0761291086673736,-0.4109657108783722,-0.1083295494318008,0.0,0.0,-0.8136413097381592,-0.4294817447662353
-0.1751346588134765,1.3878939151763916,-0.2540967464447021,0.0722743645310401,-0.416280448436737,-0.1062949895858764,0.0,0.0,-0.8759511709213257,-0.6368663311004639
-0.177749827504158,1.3894920349121094,-0.2577701807022095,0.0699181407690048,-0.4203299283981323,-0.0809893459081649,0.0,0.0,-0.8360286951065063,-0.2515295147895813
-0.1803502142429351,1.3910030126571655,-0.2563932240009308,0.066064715385437,-0.4242705404758453,-0.0788120776414871,0.0,0.0,-0.6746333837509155,-0.218227207660675
-0.1829361021518707,1.39242684841156,-0.2550589442253113,0.0622115209698677,-0.4280987381935119,-0.0765640065073967,0.0,0.0,-0.7858383059501648,-0.3219752311706543
-0.1855079680681228,1.393763303756714,-0.2537763714790344,0.0583585500717163,-0.4318110346794128,-0.0742456689476966,0.0,0.0,-0.6911265850067139,-0.2310827374458313
-0.1880665719509124,1.3950127363204956,-0.252554714679718,0.0545057989656925,-0.4354039132595062,-0.07185760140419,0.0,0.0,-0.7754367589950562,-0.2764430642127991
-0.1906125098466873,1.3961747884750366,-0.2514030933380127,0.0506532713770866,-0.4388739466667175,-0.0694004669785499,0.0,0.0,-0.8710430860519409,-0.3710368871688843
-0.1931464225053787,1.3972493410110474,-0.2503307163715362,0.0468009635806083,-0.4422177076339721,-0.0668749064207077,0.0,0.0,-0.838455080986023,-0.1949933171272277
-0.1956692636013031,1.3982367515563965,-0.2493467777967453,0.0429488830268383,-0.4454317986965179,-0.0642816498875618,0.0,0.0,-0.851993203163147,-0.444624125957489
-0.1981820166110992,1.3991365432739258,-0.2484605014324188,0.0390970110893249,-0.4485128819942474,-0.0616215243935585,0.0,0.0,-0.7424901723861694,-0.2393191456794738
-0.2006856948137283,1.399949073791504,-0.2476810216903686,0.0352453589439392,-0.4514576494693756,-0.0588952712714672,0.0,0.0,-0.8104050755500793,-0.0593266487121582
-0.2031814604997635,1.4006741046905518,-0.2470174580812454,0.0313939191401004,-0.4542628526687622,-0.056103765964508,0.0,0.0,-0.9341490864753724,-0.4178236722946167
-0.2056704461574554,1.4013116359710691,-0.2464789152145385,0.0275426879525184,-0.4569252431392669,-0.0532478690147399,0.0,0.0,-0.2169040441513061,-0.0670171976089477
-0.2081540524959564,1.4018616676330566,-0.2460743933916092,0.023691663518548,-0.4594416618347168,-0.0503284446895122,0.0,0.0,-0.7807174921035767,-0.2378084063529968
-0.210633710026741,1.4023239612579346,-0.2458128035068512,0.0198408421128988,-0.461808979511261,-0.0473464094102382,0.0,0.0,-0.589034914970398,-0.115227460861206
-0.2131108343601226,1.4026987552642822,-0.2457029819488525,0.0159902162849903,-0.4640241265296936,-0.044302649796009,0.0,0.0,-0.5910010933876038,-0.5926642417907715
-0.2156183719635009,1.403009295463562,-0.2497403919696808,0.0134619828313589,-0.4651465117931366,-0.0224474631249904,0.0,0.0,-0.6504553556442261,-0.673297107219696
-0.2181644886732101,1.403254747390747,-0.2547115683555603,0.0109448796138167,-0.4650344848632812,0.0022408023942261,0.0,0.0,-0.740914523601532,-0.4393985867500305
-0.2207130938768386,1.4034124612808228,-0.2551083266735077,0.0070950472727417,-0.4647612869739532,0.0054641459137201,0.0,0.0,-0.8085266351699829,-0.412996232509613
-0.2232660353183746,1.4034825563430786,-0.2556906044483185,0.0032453169114887,-0.4643239974975586,0.0087457224726676,0.0,0.0,-0.7107604742050171,-0.5451719760894775
-0.2258548289537429,1.403489351272583,-0.2602497041225433,0.0007606414728797,-0.4628112912178039,0.0302535742521286,0.0,0.0,-0.8434306979179382,-0.4583578705787658
-0.2284518182277679,1.403408408164978,-0.2612265944480896,-0.0030890663620084,-0.4611288607120514,0.0336487889289855,0.0,0.0,-0.5548641085624695,-0.2711058855056762
-0.2310590744018554,1.4032399654388428,-0.2624120116233825,-0.0069387331604957,-0.4592738449573517,0.0370995476841926,0.0,0.0,-0.4465022087097168,-0.3330249786376953
-0.2336788177490234,1.4029834270477295,-0.2638129293918609,-0.0107883671298623,-0.4572436213493347,0.0406049713492393,0.0,0.0,-0.6315292716026306,-0.1486197113990783
-0.236313059926033,1.402639389038086,-0.2654361128807068,-0.0146379815414547,-0.4550354182720184,0.0441641882061958,0.0,0.0,-0.6695865392684937,-0.7244126796722412
-0.2390235960483551,1.4022586345672607,-0.2749010920524597,-0.0156768467277288,-0.4508101940155029,0.0845048576593399,0.0,0.0,-0.467225432395935,-0.3402709364891052
-0.2417532503604889,1.4017901420593262,-0.2769881188869476,-0.0195273868739604,-0.4464017450809479,0.0881691128015518,0.0,0.0,-0.4411371946334839,-0.4411665201187134
-0.2445044070482254,1.401234149932861,-0.2793152630329132,-0.0233780220150947,-0.4418075084686279,0.0918846875429153,0.0,0.0,-0.4602260589599609,-0.0814238786697387
-0.247279405593872,1.4005906581878662,-0.2818875908851623,-0.0272287614643573,-0.4370249807834625,0.0956506952643394,0.0,0.0,-0.4466122388839721,-0.2565224170684814
-0.2500808238983154,1.3998594284057615,-0.2847096621990204,-0.0310796163976192,-0.4320516586303711,0.0994662195444107,0.0,0.0,-0.0571928024291992,0.1022138595581054
-0.2529110908508301,1.399040937423706,-0.2877856194972992,-0.0349306017160415,-0.4268851280212402,0.1033303141593933,0.0,0.0,0.145842432975769,-0.1208179593086242
-0.2557173669338226,1.398695468902588,-0.2851328253746032,-0.0139928897842764,-0.4220058023929596,0.0975864604115486,0.0,0.0,-0.3669192790985107,-0.1345137357711792
-0.2585576474666595,1.398262619972229,-0.2887265086174011,-0.0178438052535057,-0.4169285893440246,0.1015445590019226,0.0,0.0,-0.075540006160736,0.0258823633193969
-0.2614345550537109,1.3977421522140503,-0.2925831973552704,-0.0216948725283145,-0.4116512238979339,0.1055480241775512,0.0,0.0,-0.1858063340187072,-0.1462808847427368
-0.2643507122993469,1.3971341848373413,-0.2967048287391662,-0.0255461148917675,-0.406171441078186,0.1095957309007644,0.0,0.0,-0.6058169603347778,-0.3212078809738159
-0.2673086524009704,1.3964388370513916,-0.3010928034782409,-0.0293975416570901,-0.4004871249198913,0.1136863678693771,0.0,0.0,-0.6221944689750671,0.204848051071167
-0.2703111171722412,1.3956561088562012,-0.3057478666305542,-0.0332491695880889,-0.3945961892604828,0.1178186982870101,0.0,0.0,-0.5796190500259399,0.3225421905517578
-0.2733607292175293,1.39478600025177,-0.3106702864170074,-0.0371010191738605,-0.3884966075420379,0.1219914332032203,0.0,0.0,-0.5509921312332153,0.468036413192749
-0.2764601707458496,1.3938286304473877,-0.3158597648143768,-0.0409531109035015,-0.3821864426136017,0.1262030750513076,0.0,0.0,-0.4248147010803222,0.5411202907562256
-0.2795673310756683,1.3927618265151978,-0.3157046437263489,-0.0460807271301746,-0.3768859505653381,0.1060099825263023,0.0,0.0,-0.8047488331794739,0.6047403812408447
-0.2826802730560303,1.3915752172470093,-0.3151614367961883,-0.0517288595438003,-0.3727872967720032,0.0819730907678604,0.0,0.0,-0.7156689167022705,-0.3623307943344116
-0.2858510017395019,1.390300989151001,-0.3211429715156555,-0.0555794686079025,-0.368472695350647,0.086291491985321,0.0,0.0,-0.9204756021499634,0.5560424327850342
-0.289050281047821,1.388919234275818,-0.3233631253242492,-0.0605350099503994,-0.3648423254489898,0.072607509791851,0.0,0.0,-0.6979368329048157,0.3783694505691528
-0.2923124432563782,1.3874496221542358,-0.3298615515232086,-0.0643853768706321,-0.360992968082428,0.0769871175289154,0.0,0.0,-0.2949444651603699,0.4840097427368164
-0.2956399917602539,1.385892629623413,-0.3366135656833648,-0.0682359039783477,-0.3569232523441314,0.081394150853157,0.0,0.0,-0.8341530561447144,0.4400522708892822
-0.299035370349884,1.3842480182647705,-0.3436152338981628,-0.0720866024494171,-0.35263192653656,0.0858265534043312,0.0,0.0,-0.5662433505058289,0.4610357284545898
-0.3025010228157043,1.3825159072875977,-0.3508622348308563,-0.0759374797344207,-0.3481178283691406,0.0902821943163871,0.0,0.0,-0.6723313927650452,0.949499487876892
-0.3059641420841217,1.3806648254394531,-0.3489046990871429,-0.0816425085067749,-0.3453966379165649,0.0544237792491912,0.0,0.0,-0.1379413604736328,0.7335026264190674
