x_pos,y_pos,x_vel,y_vel,angle,ang_vel,leg_1,leg_2,main_booster,lat_booster
-0.0015178680187091,1.4029055833816528,-0.1543585658073425,-0.3562023341655731,0.0023024857509881,0.0454588495194911,0.0,0.0,-0.9941130398919552,0.6411713832988427
-0.0029755593277513,1.3941923379898071,-0.1471889764070511,-0.387255311012268,0.003705829847604,0.0280702672898769,0.0,0.0,0.8750312787068208,-0.6780028000509539
-0.0043194768950343,1.3854434490203855,-0.1381366699934005,-0.3888601958751678,0.0074176001362502,0.07424196600914,0.0,0.0,0.6185000867034507,0.6640224983654963
-0.0057364464737474,1.376706600189209,-0.1443680524826049,-0.3883176445960998,0.0100515400990843,0.0526835806667804,0.0,0.0,0.95244439758251,0.8249877314529392
-0.0069249151274561,1.368412971496582,-0.1207969188690185,-0.3686221241950989,0.011975166387856,0.0384764038026332,0.0,0.0,0.7807086424788141,0.6078637529678476
-0.007908821105957,1.360281229019165,-0.1001107916235923,-0.3614268004894256,0.0136705180630087,0.0339103452861309,0.0,0.0,-0.7085882374438142,0.7690695442110768
-0.008829784579575,1.3514318466186523,-0.0928756073117256,-0.393315315246582,0.0144428722560405,0.0154483569785952,0.0,0.0,0.9115568889878178,0.6594959336734775
-0.0095192911103367,1.3429934978485107,-0.0694656148552894,-0.3750437498092651,0.0149540472775697,0.0102245490998029,0.0,0.0,0.6267132717376009,0.7059691412401334
-0.0101740835234522,1.3350805044174194,-0.0651068240404129,-0.3516837954521179,0.0145822139456868,-0.0074373632669448,0.0,0.0,0.286469817622716,-0.7863901374242955
-0.010895443148911,1.3273005485534668,-0.0738938897848129,-0.345796138048172,0.0163130927830934,0.0346208214759826,0.0,0.0,0.4238364671124957,0.7870370877318534
-0.0114759448915719,1.3195741176605225,-0.058907825499773,-0.3434019684791565,0.0171580910682678,0.0169017296284437,0.0,0.0,0.3689099965529652,0.6421311961904402
-0.0119448658078908,1.3117871284484863,-0.0471383035182952,-0.3460965156555176,0.0174049604684114,0.0049379356205463,0.0,0.0,-0.4348663903376,-0.975739791766046
-0.0124702453613281,1.3032846450805664,-0.0548754632472991,-0.3779179751873016,0.0197138544172048,0.0461821481585502,0.0,0.0,0.8296706410070991,0.9199895966086366
-0.0128423692658543,1.2946494817733765,-0.0384000316262245,-0.3838048577308655,0.020894780755043,0.0236204359680414,0.0,0.0,-0.1967295888277629,0.8427645535877678
-0.0131288524717092,1.285306692123413,-0.0283158216625452,-0.4152319133281708,0.0205573290586471,-0.0067496253177523,0.0,0.0,0.3577682337570365,-0.7591834198199408
-0.0133757591247558,1.2756037712097168,-0.0265744533389806,-0.4312623143196106,0.0224209334701299,0.0372754447162151,0.0,0.0,-0.5038903031665631,0.7533631123505578
-0.0135464668273925,1.2651935815811155,-0.0176417604088783,-0.4626923501491546,0.0229875836521387,0.0113340653479099,0.0,0.0,0.2312699341991253,-0.7241990557695959
-0.0136577608063817,1.2544792890548706,-0.0138622056692838,-0.4762358367443084,0.0256923101842403,0.0540993139147758,0.0,0.0,-0.5375100448120114,0.8962934441298016
-0.0136838909238576,1.2430578470230105,-0.0038044066168367,-0.5076408982276917,0.026866964995861,0.0234953071922063,0.0,0.0,0.5750465282058534,0.822892719333338
-0.0137420650571584,1.231725573539734,-0.0057515925727784,-0.5036566853523254,0.0268046204000711,-0.00124709517695,0.0,0.0,0.58908688735595,0.841736164611178
-0.0136134149506688,1.220773220062256,0.0138586405664682,-0.4867580533027649,0.0258227754384279,-0.0196387358009815,0.0,0.0,0.2015811884242095,-0.810572213913963
-0.0135443685576319,1.2095776796340942,0.0057257255539298,-0.4975962340831756,0.0269923582673072,0.023393852636218,0.0,0.0,-0.1934603853072347,-0.7927009882281941
-0.013521671295166,1.1976605653762815,-0.0006920674350112,-0.5297092199325562,0.0299260187894105,0.0586782991886138,0.0,0.0,0.2608027873221727,-0.983745831804072
-0.013518619351089,1.1853704452514648,-0.0051888935267925,-0.5463442206382751,0.0353623107075691,0.1087357774376869,0.0,0.0,-0.9540560007187532,-0.603122740444458
-0.0135720251128077,1.17236065864563,-0.0128543125465512,-0.5784046053886414,0.0428011566400527,0.1487901508808136,0.0,0.0,-0.4531229191245096,0.9153187213593538
-0.0135674476623535,1.1586198806762695,-0.006195496302098,-0.6109035015106201,0.0493764020502567,0.1315045952796936,0.0,0.0,0.3027394042392597,0.7643888887677349
-0.0135248182341456,1.1450287103652954,-0.0013697399990633,-0.6042452454566956,0.0549471899867057,0.1114154905080795,0.0,0.0,-0.4542079069877889,0.763026932215817
-0.0134325977414846,1.1307313442230225,0.0042797913774847,-0.6356315016746521,0.0598356910049915,0.097770094871521,0.0,0.0,-0.1807713590240496,0.9049906480772236
-0.0132820131257176,1.1157281398773191,0.0110362628474831,-0.6669740080833435,0.063814602792263,0.0795781090855598,0.0,0.0,0.7082296371155161,-0.6367084099841415
-0.0132345203310251,1.1007519960403442,-0.0009966262150555,-0.6658602952957153,0.0695024654269218,0.1137572973966598,0.0,0.0,-0.8329006640201748,0.8755373038888894
-0.0131134986877441,1.0850751399993896,0.0076736002229154,-0.6969632506370544,0.0738813802599906,0.0875784680247306,0.0,0.0,-0.891222636473995,0.9424444751568586
-0.0129247661679983,1.0686815977096558,0.0156092271208763,-0.728760838508606,0.0771116837859153,0.0646063685417175,0.0,0.0,-0.9059007750110424,0.666815686874858
-0.0126882549375295,1.051581621170044,0.0210654027760028,-0.760144054889679,0.0796712264418602,0.0511911138892173,0.0,0.0,-0.5695693801022492,-0.7497565860980825
-0.0125140193849802,1.0337485074996948,0.0126969618722796,-0.7928367853164673,0.0843534097075462,0.0936433002352714,0.0,0.0,-0.8979320115479523,-0.8849981507758279
-0.0124049186706542,1.0151909589767456,0.0039819572120904,-0.8251907229423523,0.0912112072110176,0.1371560394763946,0.0,0.0,0.3757424665890676,-0.9684349299509653
-0.0124097820371389,0.9968557953834534,-0.0098168523982167,-0.8154928684234619,0.1004599034786224,0.1849741339683532,0.0,0.0,-0.4573834971743002,0.7471658231334738
-0.0123554226011037,0.977808117866516,-0.0028858974110335,-0.8471486568450928,0.1087271347641944,0.1653445810079574,0.0,0.0,0.8343871906248415,-0.985593961871307
-0.0124209402129054,0.9593061804771424,-0.0173568371683359,-0.8231330513954163,0.1194600686430931,0.2146582156419754,0.0,0.0,0.7739744081800892,0.8214545331327547
-0.0125738140195608,0.9414470791816713,-0.024756621569395,-0.7945221066474915,0.1288814395666122,0.1884277164936065,0.0,0.0,0.3173442038990848,-0.951657372807782
-0.0128349307924509,0.923583984375,-0.0378981679677963,-0.794973611831665,0.1406266242265701,0.2349036037921905,0.0,0.0,-0.6679091525585452,0.6904511634489268
-0.0130490306764841,0.9050199389457704,-0.0324465744197368,-0.8261566758155823,0.1516295671463012,0.2200592011213302,0.0,0.0,0.959221363067627,0.9941511154174804
-0.0131154060363769,0.8867120146751404,-0.0163071546703577,-0.8147056102752686,0.1612970679998397,0.1933500468730926,0.0,0.0,0.9743001461029052,0.9913510084152222
-0.0130331041291356,0.868280827999115,-3.598463808884844e-05,-0.8200799822807312,0.1695715934038162,0.165490835905075,0.0,0.0,0.8673872947692871,0.9853203296661376
-0.0128479953855276,0.850065290927887,0.0116716790944337,-0.8103813529014587,0.1764205545186996,0.1369792968034744,0.0,0.0,0.876068115234375,0.9852758646011353
-0.0126907350495457,0.8316212892532349,0.0106047000735998,-0.8203508257865906,0.1815593391656875,0.1027756482362747,0.0,0.0,0.974978804588318,0.9659717082977296
-0.0124659538269042,0.8130761384963989,0.0188545398414134,-0.8246732950210571,0.1851944327354431,0.0727018862962722,0.0,0.0,0.9694555997848512,0.9667842388153076
-0.0121808052062988,0.7946365475654602,0.0263843145221471,-0.8198036551475525,0.1873367130756378,0.042845495045185,0.0,0.0,0.9373453855514526,0.9950823783874512
-0.0121418954804539,0.7769113779067993,0.0036970409564673,-0.7878125905990601,0.1875229179859161,0.0037244553677737,0.0,0.0,0.5607210397720337,0.989608645439148
-0.0123023986816406,0.7595556974411011,-0.0143711119890213,-0.7711517810821533,0.1858406960964203,-0.033644326031208,0.0,0.0,0.4634188413619995,0.9748916625976562
-0.012487125582993,0.7421586513519287,-0.0150787215679883,-0.7727793455123901,0.1824315339326858,-0.0681831687688827,0.0,0.0,-0.430460512638092,0.9952409267425536
-0.0125720025971531,0.7240697145462036,-0.002851721830666,-0.803265392780304,0.1767748594284057,-0.1131335869431495,0.0,0.0,0.0857331752777099,0.9752706289291382
-0.0127073284238576,0.7059927582740784,-0.0061453464441001,-0.802559494972229,0.1693727821111679,-0.1480419933795929,0.0,0.0,-0.1735385656356811,0.901350736618042
-0.0127549171447753,0.6872145533561707,0.0045915422961115,-0.8335481286048889,0.160019189119339,-0.1870714277029037,0.0,0.0,0.6909286975860596,0.404677152633667
-0.0129250530153512,0.6689288020133972,-0.0078160054981708,-0.8117417097091675,0.1508361548185348,-0.1836610585451126,0.0,0.0,-0.0097288489341735,-0.0320913791656494
-0.0130906105041503,0.6499254107475281,-0.0074902125634253,-0.843700647354126,0.1417841166257858,-0.1810406148433685,0.0,0.0,0.929350733757019,0.5045070648193359
-0.0134064676240086,0.6310029029846191,-0.0212372448295354,-0.8400464653968811,0.1314743012189865,-0.2061963081359863,0.0,0.0,0.6292073726654053,0.6228508949279785
-0.0136728286743164,0.6125673651695251,-0.0153386313468217,-0.8184131383895874,0.1202321052551269,-0.2248439788818359,0.0,0.0,0.6724622249603271,0.1849803924560547
-0.0138775827363133,0.5944560766220093,-0.0098692905157804,-0.8041220903396606,0.1096896976232528,-0.2108481228351593,0.0,0.0,0.7779754400253296,0.0460952520370483
-0.0140945436432957,0.5769616961479187,-0.0114738252013921,-0.7768075466156006,0.0995459258556366,-0.2028750628232956,0.0,0.0,0.6756594181060791,-0.0983587503433227
-0.0144624710083007,0.5599279403686523,-0.0262061543762683,-0.756385087966919,0.0890443176031112,-0.2100323438644409,0.0,0.0,-0.0145224332809448,0.3052670955657959
-0.0148253440856933,0.5421767234802246,-0.025655910372734,-0.7883443236351013,0.0785147249698638,-0.2105917930603027,0.0,0.0,0.8831267356872559,0.1207445859909057
-0.0153596876189112,0.5248902440071106,-0.0421956107020378,-0.7677372694015503,0.067400649189949,-0.2222815752029419,0.0,0.0,0.3418989181518554,0.3953821659088135
-0.0158167835325002,0.5075250267982483,-0.0348555371165275,-0.771327555179596,0.0566671043634414,-0.2146707773208618,0.0,0.0,0.7911684513092041,-0.340092658996582
-0.016280461102724,0.4904399216175079,-0.0355193242430686,-0.7589640021324158,0.045940451323986,-0.2145331352949142,0.0,0.0,0.8090713024139404,-0.4826495051383972
-0.0167501457035541,0.4732955396175384,-0.036013051867485,-0.7616672515869141,0.0351145677268505,-0.2165175378322601,0.0,0.0,0.9469516277313232,-0.5265429019927979
-0.0174345020204782,0.4564677774906158,-0.0579081587493419,-0.7476825714111328,0.0247102919965982,-0.2080857455730438,0.0,0.0,0.9239559173583984,-0.2522297501564026
-0.0181127544492483,0.4404179453849792,-0.0572031140327453,-0.7131820321083069,0.0142284575849771,-0.2096366882324218,0.0,0.0,0.4802062511444092,-0.0392355918884277
-0.0187150947749614,0.4240451753139496,-0.049745962023735,-0.727608859539032,0.0038671754300594,-0.2072254866361618,0.0,0.0,0.9298923015594482,-0.6533582210540771
-0.0193331725895404,0.4084581136703491,-0.0524589344859123,-0.6927605271339417,-0.0053529422730207,-0.1844025552272796,0.0,0.0,0.606827974319458,-0.5787134766578674
-0.0200868602842092,0.3928425014019012,-0.0666848123073577,-0.6940841674804688,-0.01393682975322,-0.1716775000095367,0.0,0.0,0.7683349847793579,-0.2372864484786987
-0.0209225658327341,0.3775981068611145,-0.0741078555583953,-0.677642285823822,-0.023270858451724,-0.1866806447505951,0.0,0.0,0.7728896141052246,-0.2581343054771423
-0.0217031482607126,0.362636387348175,-0.0684383437037468,-0.6651387810707092,-0.0327715128660202,-0.1900129169225692,0.0,0.0,0.8133649826049805,-0.7369873523712158
-0.022658634930849,0.3483655452728271,-0.0867248922586441,-0.6344794034957886,-0.0414880700409412,-0.1743313074111938,0.0,0.0,0.2843670845031738,-0.6064431071281433
-0.0235737804323434,0.3340487480163574,-0.0836660265922546,-0.636539101600647,-0.0492454729974269,-0.1551479548215866,0.0,0.0,0.8236737251281738,-0.6025947332382202
-0.0245485305786132,0.3196626007556915,-0.0903369635343551,-0.6396363377571106,-0.0562951080501079,-0.1409930884838104,0.0,0.0,0.3983713388442993,-0.5209111571311951
-0.0254799835383892,0.3049632310867309,-0.0868073031306266,-0.653557538986206,-0.0625655800104141,-0.1254094690084457,0.0,0.0,0.9740275144577026,-0.6006155610084534
-0.0264668464660644,0.2901552319526672,-0.0930139943957328,-0.6583830118179321,-0.0681785866618156,-0.1122596710920333,0.0,0.0,0.981835126876831,-0.4814039468765259
-0.0273917205631732,0.2760541141033172,-0.0863146260380745,-0.6270102262496948,-0.0742811188101768,-0.1220508813858032,0.0,0.0,0.9838094711303712,-0.6949417591094971
-0.0281877517700195,0.2627017199993133,-0.0746402367949485,-0.5936934351921082,-0.0791976898908615,-0.098331868648529,0.0,0.0,0.9694173336029052,-0.6913794279098511
-0.0290968902409076,0.2501186430454254,-0.0864928513765335,-0.5594895482063293,-0.0835740491747856,-0.0875268727540969,0.0,0.0,0.7930514812469482,-0.9049800038337708
-0.0301955230534076,0.2373738586902618,-0.1065019592642784,-0.5666247010231018,-0.0869044438004493,-0.0666078776121139,0.0,0.0,0.8974089622497559,-0.7117765545845032
-0.0312133785337209,0.2252746671438217,-0.0994680076837539,-0.5378772020339966,-0.0892018303275108,-0.0459479540586471,0.0,0.0,0.6416178941726685,0.2525544166564941
-0.0322727188467979,0.213325098156929,-0.1026189774274826,-0.5312904715538025,-0.0924848839640617,-0.0656609833240509,0.0,0.0,0.73288893699646,-0.4996629953384399
-0.0333155617117881,0.2017273753881454,-0.100171074271202,-0.5157144665718079,-0.0965665206313133,-0.0816329270601272,0.0,0.0,0.5513895750045776,-0.914478600025177
-0.0343712791800498,0.1904089599847793,-0.1027303785085678,-0.5032289028167725,-0.0993838384747505,-0.0563464537262916,0.0,0.0,0.8369070291519165,-0.54280024766922
-0.0352945327758789,0.1793289929628372,-0.0903161317110061,-0.4925747215747833,-0.1013827249407768,-0.0399774126708507,0.0,0.0,0.7145544290542603,-0.4273028373718261
-0.0361490249633789,0.1680575013160705,-0.0829799100756645,-0.5011275410652161,-0.1038335561752319,-0.0490166656672954,0.0,0.0,0.918919563293457,-0.596219539642334
-0.0368793494999408,0.1567506641149521,-0.0714994445443153,-0.5026304721832275,-0.1053571626543998,-0.0304721035063266,0.0,0.0,0.9277100563049316,-0.6830771565437317
-0.0374009124934673,0.1456989645957946,-0.0518678948283195,-0.4912086725234985,-0.105641596019268,-0.0056886668317019,0.0,0.0,0.9499505758285522,-0.4415498971939087
-0.03770112991333,0.1345974057912826,-0.0298944227397441,-0.4934073388576507,-0.1057574525475502,-0.002317122882232,0.0,0.0,0.974327564239502,-0.3516247868537903
-0.0379042625427246,0.1241181194782257,-0.0195690877735614,-0.4658004939556122,-0.1065048575401306,-0.0149484472349286,0.0,0.0,0.9500076770782472,-0.7448076009750366
-0.038022231310606,0.1142648309469223,-0.0120185632258653,-0.437906801700592,-0.1062793359160423,0.0045103640295565,0.0,0.0,0.9089667797088624,-0.4925580024719238
-0.0379061698913574,0.1048203110694885,0.0113205388188362,-0.4197380244731903,-0.1060020327568054,0.0055462289601564,0.0,0.0,0.7557554244995117,-0.4371118545532226
-0.0376378074288368,0.0951581299304962,0.0266883485019207,-0.4294168651103973,-0.105848804116249,0.0030645779334008,0.0,0.0,0.9732496738433838,-0.6546627283096313
-0.0374144539237022,0.0857023075222969,0.0216790307313203,-0.4202156662940979,-0.1051925122737884,0.0131257222965359,0.0,0.0,0.9872851371765136,-0.4403747320175171
-0.0369714722037315,0.0770604461431503,0.0437961891293525,-0.384046345949173,-0.1046960577368736,0.0099293012171983,0.0,0.0,0.9015254974365234,-0.5049898028373718
-0.036518670618534,0.068688303232193,0.0444988645613193,-0.3720383942127228,-0.10391316562891,0.0156575925648212,0.0,0.0,0.9499067068099976,-0.5229954719543457
-0.0361541733145713,0.0610343553125858,0.0357105694711208,-0.3401271998882293,-0.1031893789768219,0.0144760590046644,0.0,0.0,0.811546802520752,-0.6307281255722046
-0.0356486327946186,0.0537990443408489,0.0489400885999202,-0.3214586675167084,-0.1015909761190414,0.0319679155945777,0.0,0.0,0.8444530963897705,-0.6908740401268005
-0.0351668372750282,0.0471187680959701,0.0459873937070369,-0.2967508435249328,-0.0994149222970008,0.0435209758579731,0.0,0.0,0.5746667385101318,-0.7248811721801758
-0.0347475036978721,0.0408125035464763,0.0391077920794487,-0.2800940275192261,-0.0966092050075531,0.0561144724488258,0.0,0.0,0.5026006698608398,-0.6718409061431885
-0.0343523994088172,0.0344735495746135,0.0360376574099063,-0.2815113365650177,-0.0931686460971832,0.0688113272190094,0.0,0.0,0.6206691265106201,-0.0909557938575744
-0.0340064987540245,0.0283136945217847,0.0323108248412609,-0.2736319303512573,-0.0909146815538406,0.0450794659554958,0.0,0.0,0.7307720184326172,-0.2521623969078064
-0.0337579734623432,0.0222768634557724,0.0239820424467325,-0.2682505548000335,-0.0900497958064079,0.0172976423054933,0.0,0.0,0.9131003618240356,0.2076529264450073
-0.0333024971187114,0.0167485810816288,0.0447702035307884,-0.2456566840410232,-0.0892799347639083,0.0153971016407012,0.0,0.0,0.4786938428878784,0.223976731300354
-0.0327528938651084,0.0109881972894072,0.0545935444533824,-0.2559947371482849,-0.0889206677675247,0.0071855210699141,0.0,0.0,0.9608370065689088,0.2718733549118042
-0.0319415107369422,0.0058396076783537,0.0806526690721511,-0.2287951409816742,-0.0884317532181739,0.0097782332450151,1.0,0.0,0.982070803642273,-0.4666942358016968
-0.0310012809932231,0.002144489204511,0.0759283974766731,-0.163771778345108,-0.0690630301833152,0.3892703652381897,1.0,0.0,0.9015498161315918,0.0385068655014038
-0.0297107696533203,-0.0002808714052662,0.0933588594198226,-0.1065449491143226,-0.033703438937664,0.7072862386703491,1.0,0.0,0.5690877437591553,-0.5244629979133606
-0.0283267013728618,-0.002368273679167,0.095340296626091,-0.0923739224672317,0.0088998340070247,0.8521699905395508,1.0,1.0,0.9497766494750975,0.1788973808288574
-0.0271900184452533,-0.0032099867239594,0.0907806605100631,-0.0378501340746879,0.0307438895106315,0.4359191954135895,1.0,1.0,0.828972339630127,0.3950730562210083
-0.0262595172971487,-0.0029018188361078,0.0908018872141838,0.0136474901810288,0.0329481475055217,0.0440618284046649,0.0,1.0,-0.8526421785354614,0.2115290164947509
-0.0255117416381835,-0.0028783224988728,0.0881185233592987,0.0012792077613994,0.0197504665702581,-0.26397705078125,0.0,1.0,-0.6916100978851318,-0.2119085192680359
-0.0248055458068847,-0.0026254795957356,0.0783311873674392,0.0113094169646501,0.0121420696377754,-0.1521495878696441,1.0,1.0,-0.5115633606910706,-0.9278281331062316
-0.0242243763059377,-0.002103736391291,0.0579159148037433,0.0231844801455736,0.0123333949595689,0.0038155722431838,1.0,1.0,-0.107497751712799,-0.8820222020149231
-0.0238272659480571,-0.0016634607454761,0.0431191846728324,0.0195885021239519,0.0089651178568601,-0.0673767775297164,1.0,1.0,-0.7979635000228882,-0.6986846327781677
-0.0235652923583984,-0.0012085938360542,0.029720589518547,0.0202323906123638,0.0054812096059322,-0.0696876496076583,1.0,1.0,-0.6169201135635376,-0.7799429893493652
-0.0233959201723337,-0.0007882738136686,0.0201706402003765,0.0186966750770807,0.0022735341917723,-0.0641731843352317,1.0,1.0,-0.6227740049362183,-0.2856221795082092
-0.0232245437800884,-0.0007852697162888,0.0171397719532251,0.0001325576013186,0.0022754662204533,3.158114486723207e-05,1.0,1.0,-0.6900488138198853,0.0746068954467773
-0.0231204032897949,-0.0007881307392381,0.0104181710630655,-0.0001257074909517,0.0022741802968084,-2.9938635634607635e-05,1.0,1.0,-0.6512792110443115,-0.008817434310913
-0.023084258660674,-0.0007882022764533,0.0036141350865364,-2.603735765660531e-06,0.0022743672598153,-6.142149686638732e-07,1.0,1.0,-0.773975670337677,-0.0670772194862365
