x_pos,y_pos,x_vel,y_vel,angle,ang_vel,leg_1,leg_2,main_booster,lat_booster
-0.0015372276538982,1.4031227827072144,-0.1556539237499237,-0.3465465009212494,0.0017273385310545,0.0340710394084453,0.0,0.0,-0.6294371176902431,0.5785535118069671
-0.0030407905578613,1.3948442935943604,-0.1507165729999542,-0.3679330945014953,0.0020832915324717,0.0071202097460627,0.0,0.0,-0.6133922497410584,0.6780123661000119
-0.0044964789412915,1.3860589265823364,-0.1441600024700164,-0.390460193157196,0.0006854097009636,-0.0279601365327835,0.0,0.0,-0.3124179740482997,0.5096763572126171
-0.0059390068054199,1.3767701387405396,-0.1418672204017639,-0.4128316342830658,-0.0016681415727362,-0.0470755919814109,0.0,0.0,-0.6329677526750723,-0.668441813548104
-0.0074433325789868,1.3669819831848145,-0.1489291489124298,-0.4350294172763824,-0.0031582596711814,-0.0298051573336124,0.0,0.0,0.2560478060783036,0.7112895678327388
-0.0087954523041844,1.3573099374771118,-0.1322578638792038,-0.4298836886882782,-0.0060837832279503,-0.0585158988833427,0.0,0.0,-0.2105075513487455,-0.8611682340297513
-0.0102416034787893,1.3471367359161377,-0.1432016342878341,-0.452149748802185,-0.0074740024283528,-0.0278067924082279,0.0,0.0,-0.2250021502325465,0.7929663809801255
-0.0116349216550588,1.3364633321762085,-0.1356750726699829,-0.4743896126747131,-0.0110849766060709,-0.0722264349460601,0.0,0.0,0.7315165956475498,-0.5641037773185498
-0.013102626428008,1.3266112804412842,-0.1439320594072342,-0.4378984868526459,-0.0139018530026078,-0.0563424713909626,0.0,0.0,-0.9399659446602556,0.603155020460697
-0.0145505908876657,1.3162600994110107,-0.140430212020874,-0.460094153881073,-0.0182241965085268,-0.0864542797207832,0.0,0.0,-0.1844138091297353,-0.8074561248576455
-0.0160819049924612,1.3054097890853882,-0.1498161554336547,-0.4822782874107361,-0.0215089432895183,-0.0657005831599235,0.0,0.0,0.3652875717800592,-0.742317203590707
-0.0176271442323923,1.294710993766785,-0.1524352878332138,-0.4755352437496185,-0.0235759746283292,-0.041344441473484,0.0,0.0,0.7135161703488722,0.5110525419889533
-0.0190022476017475,1.2845945358276367,-0.1344413608312606,-0.44966921210289,-0.0266147200018167,-0.0607804469764232,0.0,0.0,-0.0872227292069955,-0.8846541699032513
-0.0204714778810739,1.2739708423614502,-0.1450148522853851,-0.4722022414207458,-0.0284975208342075,-0.0376591309905052,0.0,0.0,-0.235716667325891,0.8172386515925243
-0.0218939781188964,1.262850999832153,-0.1379132568836212,-0.4943092465400696,-0.0327964536845684,-0.0859866067767143,0.0,0.0,0.1485245765042606,-0.6587622739747245
-0.0233101844787597,1.2515301704406738,-0.1382849663496017,-0.5032245516777039,-0.0360994301736354,-0.0660654157400131,0.0,0.0,0.9690911457713688,-0.6776382200589213
-0.0246012695133686,1.2412375211715698,-0.1271477788686752,-0.4575004875659942,-0.0380420088768005,-0.0388546921312809,0.0,0.0,0.0625348804124683,0.7956203579449188
-0.0257497783750295,1.2307878732681274,-0.1108824461698532,-0.4645252823829651,-0.0419729873538017,-0.0786267668008804,0.0,0.0,0.455220947320905,0.6779048100322245
-0.0267570503056049,1.2208943367004397,-0.0951024070382118,-0.4398875832557678,-0.0475414805114269,-0.111379899084568,0.0,0.0,-0.8763821342605995,0.8248168774138773
-0.027744960039854,1.210495114326477,-0.091224081814289,-0.4624377489089966,-0.0550180561840534,-0.1495449542999267,0.0,0.0,0.2276307351966413,0.7502837945014833
-0.0285727493464946,1.200424313545227,-0.0733482614159584,-0.4479658305644989,-0.0643578618764877,-0.1868129670619964,0.0,0.0,-0.1318508037501748,0.8314126600360575
-0.0293717384338378,1.1898423433303833,-0.0682601928710937,-0.4708486199378967,-0.0758943706750869,-0.2307510375976562,0.0,0.0,-0.873554069720216,-0.9673107111997314
-0.0302689559757709,1.1787663698196411,-0.0790910124778747,-0.4928361773490906,-0.0864394754171371,-0.210920974612236,0.0,0.0,-0.8800046206801069,0.8968060543784402
-0.0311266891658306,1.1671710014343262,-0.0726141706109047,-0.5161601901054382,-0.0995101034641265,-0.2614358067512512,0.0,0.0,-0.5747974011114421,0.9246598901845636
-0.0319678299129009,1.15507173538208,-0.0690082907676696,-0.5388287305831909,-0.1145229786634445,-0.3002842962741852,0.0,0.0,-0.9868737921979756,0.9464206103090688
-0.0327934250235557,1.142448663711548,-0.0654772073030471,-0.5624207854270935,-0.1315094232559204,-0.3397288918495178,0.0,0.0,-0.2653670313254632,0.8956560256307896
-0.0335879325866699,1.1293208599090576,-0.060051254928112,-0.5852813720703125,-0.1508456617593765,-0.3867252469062805,0.0,0.0,-0.0149162065738757,-0.5838873639899042
-0.0344776138663291,1.1157159805297852,-0.0704952478408813,-0.6066404581069946,-0.1693154871463775,-0.3693961501121521,0.0,0.0,-0.2926960587887006,-0.6106984020358244
-0.0354651436209678,1.101634860038757,-0.0812672674655914,-0.6279210448265076,-0.1868579089641571,-0.350848376750946,0.0,0.0,0.7844167673358102,-0.6069504845947108
-0.0364670753479003,1.0878515243530271,-0.0833437740802764,-0.6148127317428589,-0.203816145658493,-0.3391646146774292,0.0,0.0,0.8106453751029234,0.6847188872736596
-0.0372467041015625,1.0749194622039795,-0.0592764802277088,-0.5774374008178711,-0.2226680070161819,-0.3770372569561004,0.0,0.0,-0.6162160634994507,-0.9811508059501648
-0.038153551518917,1.0615153312683103,-0.0737160071730613,-0.598399817943573,-0.2398721426725387,-0.3440828919410705,0.0,0.0,-0.9686223268508912,-0.968178391456604
-0.0391847603023052,1.0476545095443726,-0.0878349989652633,-0.6186052560806274,-0.2554304897785187,-0.3111662268638611,0.0,0.0,-0.9961769580841064,-0.9851347208023072
-0.0403423309326171,1.0333207845687866,-0.1021097302436828,-0.6394938826560974,-0.2693814039230346,-0.2790181338787079,0.0,0.0,-0.8229480385780334,-0.96461421251297
-0.0416128151118755,1.0185211896896362,-0.1147281974554061,-0.6600767970085144,-0.2820203006267547,-0.2527780830860138,0.0,0.0,-0.977291464805603,-0.9491084814071656
-0.0429937355220317,1.0032612085342407,-0.1270571053028106,-0.6803976893424988,-0.2933789491653442,-0.2271730601787567,0.0,0.0,-0.9532493948936462,-0.9666537046432496
-0.0444939620792865,0.9875330328941344,-0.1404318511486053,-0.7009953856468201,-0.3032896220684051,-0.1982137262821197,0.0,0.0,-0.0443841814994812,-0.9169007539749146
-0.0460999496281147,0.971343755722046,-0.1521292626857757,-0.721314013004303,-0.3120448887348175,-0.1751052141189575,0.0,0.0,-0.592103898525238,-0.9601971507072448
-0.0478226654231548,0.9547032117843628,-0.1652830690145492,-0.7410984039306641,-0.3193066716194153,-0.1452358514070511,0.0,0.0,0.1763139963150024,-0.9813392162322998
-0.0495027527213096,0.9382068514823914,-0.1623736023902893,-0.7344220280647278,-0.3251706659793854,-0.1172799319028854,0.0,0.0,0.1007709503173828,-0.9840735793113708
-0.0512118339538574,0.9220349192619324,-0.166660264134407,-0.7197177410125732,-0.3295956552028656,-0.0884998366236686,0.0,0.0,-0.5993171334266663,-0.9306155443191528
-0.0530192367732524,0.905390202999115,-0.1773651540279388,-0.7405324578285217,-0.3331198096275329,-0.0704830959439277,0.0,0.0,0.6528446674346924,-0.96691632270813
-0.0547377578914165,0.8886650800704956,-0.1698987632989883,-0.7437905073165894,-0.3351587355136871,-0.0407791100442409,0.0,0.0,-0.0328170657157897,-0.9772985577583312
-0.0565601363778114,0.8714708685874939,-0.1813008040189743,-0.7644078135490417,-0.3361426591873169,-0.0196787342429161,0.0,0.0,0.6340745687484741,-0.9848781228065492
-0.058448027819395,0.8542399406433105,-0.1891226917505264,-0.7657385468482971,-0.3357884585857391,0.0070841377601027,0.0,0.0,0.3020340204238891,-0.9576714634895324
-0.0603256225585937,0.8368905782699585,-0.1893883496522903,-0.7707117199897766,-0.3340830504894256,0.0341090150177478,0.0,0.0,0.5613493919372559,-0.9539031982421876
-0.0621177665889263,0.8196404576301575,-0.1821906864643097,-0.7659832239151001,-0.3309796154499054,0.0620689503848552,0.0,0.0,0.0819741487503051,-0.7458309531211853
-0.0639086738228797,0.8027435541152954,-0.1828972995281219,-0.7501068711280823,-0.3270156979560852,0.07927817851305,0.0,0.0,-0.04414564371109,-0.5664546489715576
-0.0657925605773925,0.7853788733482361,-0.1929586082696914,-0.7707377076148987,-0.3222521543502807,0.095270812511444,0.0,0.0,0.0629453659057617,-0.2931504249572754
-0.0676280036568641,0.7679874300956726,-0.1874759793281555,-0.7720832824707031,-0.3181703984737396,0.0816350728273391,0.0,0.0,0.5298391580581665,-0.7885310053825378
-0.0692591667175293,0.7508103847503662,-0.1682182103395462,-0.7623175978660583,-0.3128686249256134,0.1060360446572303,0.0,0.0,-0.0499215126037597,-0.1714323759078979
-0.070932388305664,0.7331344485282898,-0.1718402504920959,-0.7846301794052124,-0.3081870675086975,0.0936311930418014,0.0,0.0,0.4854029417037964,-0.7200992107391357
-0.0724778175354003,0.7155035138130188,-0.1600526571273803,-0.7824310660362244,-0.3024754226207733,0.1142325177788734,0.0,0.0,0.5734968185424805,-0.761703372001648
-0.0738910660147667,0.6984938979148865,-0.1477753221988678,-0.7546597719192505,-0.2958219647407532,0.1330690830945968,0.0,0.0,0.2114666700363159,-0.0668027997016906
-0.0751372352242469,0.6814507842063904,-0.1309554576873779,-0.7561976313591003,-0.2892850041389465,0.1307393312454223,0.0,0.0,0.198742389678955,-0.6943165063858032
-0.0764550194144249,0.6644542813301086,-0.1387968957424163,-0.7540201544761658,-0.2820599377155304,0.144501194357872,0.0,0.0,0.1952704191207885,-0.3021916151046753
-0.0775880813598632,0.6477615237236023,-0.1200387254357338,-0.740615725517273,-0.2751429080963135,0.1383404731750488,0.0,0.0,0.4741849899291992,-0.6731259822845459
-0.0785186737775802,0.6314080357551575,-0.1007957234978675,-0.7253928780555725,-0.2672247588634491,0.1583625972270965,0.0,0.0,-0.3544574975967407,-0.5545104146003723
-0.0795257538557052,0.614576518535614,-0.1088153272867202,-0.7466117739677429,-0.2589409649372101,0.1656761467456817,0.0,0.0,0.6271039247512817,0.1515777111053466
-0.0804475769400596,0.5983972549438477,-0.0993443801999092,-0.7178328037261963,-0.2516275346279144,0.1462685316801071,0.0,0.0,0.1115814447402954,-0.4734731912612915
-0.0813138931989669,0.5820682048797607,-0.0933649763464927,-0.7246026396751404,-0.2447783350944519,0.1369839608669281,0.0,0.0,0.4055795669555664,-0.8024517297744751
-0.0822291374206543,0.566170334815979,-0.0991150438785553,-0.7053205370903015,-0.2370535731315612,0.1544953137636184,0.0,0.0,0.5631320476531982,-0.1192913055419921
-0.0829550772905349,0.5504460334777832,-0.0801315456628799,-0.6976674199104309,-0.2294119894504547,0.1528318971395492,0.0,0.0,0.4199855327606201,-0.4446251392364502
-0.0835805907845497,0.5349851846694946,-0.0695681422948837,-0.6860703229904175,-0.2223003655672073,0.1422321796417236,0.0,0.0,0.1704330444335937,-0.7787771224975586
-0.0842367187142372,0.5194534659385681,-0.0735810697078704,-0.6891199350357056,-0.2142430692911148,0.1611456573009491,0.0,0.0,0.061670184135437,-0.3985233902931213
-0.0849280357360839,0.5040046572685242,-0.0761319771409034,-0.6856154203414917,-0.2071772515773773,0.1413165777921676,0.0,0.0,0.750375509262085,-0.3294727802276611
-0.0854483619332313,0.4893804788589477,-0.0585312247276306,-0.6490687131881714,-0.2006295323371887,0.1309543997049331,0.0,0.0,-0.4959694743156433,-0.4456174373626709
-0.0860061645507812,0.4742568433284759,-0.061659924685955,-0.6713770031929016,-0.1947048455476761,0.1184936985373497,0.0,0.0,0.7906404733657837,-0.7738386988639832
-0.0864490494132042,0.4600125253200531,-0.051183957606554,-0.6321897506713867,-0.187777042388916,0.1385559290647506,0.0,0.0,0.8529660701751709,-0.0503379106521606
-0.0869330391287803,0.4460806250572204,-0.0541870668530464,-0.6184750199317932,-0.1819598376750946,0.1163441091775894,0.0,0.0,0.5597695112228394,-0.5487288236618042
-0.0874712914228439,0.4326314628124237,-0.0598733909428119,-0.5970131754875183,-0.1758956909179687,0.1212829127907753,0.0,0.0,-0.2479633092880249,0.192908763885498
-0.0880449265241622,0.4186824560165405,-0.0628000944852829,-0.6193196177482605,-0.1704529374837875,0.1088551431894302,0.0,0.0,0.7951891422271729,-0.1272985935211181
-0.0886357277631759,0.4056257605552673,-0.063250258564949,-0.5798261761665344,-0.1662784218788147,0.083490289747715,0.0,0.0,0.2995946407318115,-0.2093017697334289
-0.0891286879777908,0.3927266299724579,-0.053110409528017,-0.572873055934906,-0.1624566167593002,0.0764360576868057,0.0,0.0,0.6700615882873535,-0.1561343669891357
-0.0896248817443847,0.3799207508563995,-0.0526742339134216,-0.5688182711601257,-0.1594117581844329,0.0608974993228912,0.0,0.0,0.6593606472015381,-0.7551984190940857
-0.0900881737470626,0.3670867681503296,-0.0504078492522239,-0.5699673891067505,-0.1553328037261963,0.0815790146589279,0.0,0.0,0.6481947898864746,-0.3554509878158569
-0.0905626267194747,0.3542618155479431,-0.050765287131071,-0.5696584582328796,-0.1520169675350189,0.0663168504834175,0.0,0.0,0.699358344078064,-0.6124202609062195
-0.0910017043352127,0.3421648442745209,-0.0478217080235481,-0.5372495055198669,-0.148111879825592,0.0781017690896987,0.0,0.0,0.5947003364562988,0.2824724912643432
-0.091279312968254,0.3307186663150787,-0.0314124934375286,-0.5083579421043396,-0.1444642543792724,0.0729525536298751,0.0,0.0,-0.1840485334396362,-0.3413662910461426
-0.0915872603654861,0.3187722563743591,-0.0338401272892952,-0.5306608080863953,-0.141429916024208,0.060686707496643,0.0,0.0,0.5616028308868408,-0.091777503490448
-0.0920019149780273,0.3068161904811859,-0.0433234684169292,-0.5312045216560364,-0.1395729035139084,0.0371403284370899,0.0,0.0,0.4816489219665527,-0.7180120944976807
-0.0923627838492393,0.2954226732254028,-0.0388576984405517,-0.5061251521110535,-0.1368162184953689,0.0551334135234355,0.0,0.0,0.3135403394699096,0.2924144268035888
-0.0927693396806716,0.2842250466346741,-0.0424343049526214,-0.4975099563598633,-0.1350398361682891,0.0355272516608238,0.0,0.0,-0.0312243103981018,0.4428358078002929
-0.0932033509016037,0.2725268304347992,-0.0445714779198169,-0.5198113918304443,-0.1338687986135482,0.0234203971922397,0.0,0.0,-0.0611298084259033,-0.6261681318283081
-0.0937137603759765,0.2603414356708526,-0.0528893694281578,-0.541407585144043,-0.1320231556892395,0.0369124449789524,0.0,0.0,0.8668484687805176,-0.61637282371521
-0.0941070541739463,0.2486219704151153,-0.0420956946909427,-0.5206227898597717,-0.1292686611413955,0.0550898127257823,0.0,0.0,0.5530669689178467,0.1742621660232544
-0.0944618210196495,0.2368763238191604,-0.037747249007225,-0.5218339562416077,-0.1270078271627426,0.0452167317271232,0.0,0.0,0.7176457643508911,0.0746265649795532
-0.0946920365095138,0.2252346128225326,-0.0251528620719909,-0.5172287225723267,-0.1248940601944923,0.0422754809260368,0.0,0.0,0.9399333000183104,-0.6939166188240051
-0.094731904566288,0.2140656113624572,-0.0073769376613199,-0.4961197972297668,-0.1215235367417335,0.0674102753400802,0.0,0.0,0.6319756507873535,0.0257599353790283
-0.0946104973554611,0.2029511034488678,0.0087060648947954,-0.4937013983726501,-0.1181009709835052,0.0684513002634048,0.0,0.0,0.9533448219299316,-0.4126940965652466
-0.0944127067923545,0.1926602870225906,0.0169513635337352,-0.4571495652198791,-0.1152895763516426,0.0562277324497699,0.0,0.0,0.4807270765304565,-0.7569379806518555
-0.0941859260201454,0.1828925460577011,0.0188519638031721,-0.4338301718235016,-0.1114895641803741,0.0760001614689827,0.0,0.0,0.2782005071640014,-0.2820038199424743
-0.0938260108232498,0.1733774989843368,0.0322935506701469,-0.4226200878620147,-0.1078128889203071,0.0735335499048233,0.0,0.0,0.1373548507690429,-0.725268542766571
-0.0934399589896202,0.1636858582496643,0.0339273400604724,-0.430407851934433,-0.1031762585043907,0.0927330181002616,0.0,0.0,0.5515787601470947,-0.7354238629341125
-0.0931350737810134,0.1542225927114486,0.0249943435192108,-0.4202204346656799,-0.097729705274105,0.1089310869574546,0.0,0.0,0.6933512687683105,0.3598426580429077
-0.0926750153303146,0.1455662101507187,0.0406640842556953,-0.3843873143196106,-0.0924296379089355,0.1060013994574546,0.0,0.0,0.0066990852355957,-0.4089202880859375
-0.0922135338187217,0.1369292140007019,0.0414051935076713,-0.3835841417312622,-0.0877345204353332,0.0939024984836578,0.0,0.0,0.3849173784255981,-0.5283409357070923
-0.091863252222538,0.1288129836320877,0.0300330929458141,-0.3604349792003631,-0.0827800258994102,0.0990898534655571,0.0,0.0,0.0268579721450805,0.4135525226593017
-0.091437816619873,0.1208377480506897,0.0378006026148796,-0.3542025685310364,-0.0780950114130973,0.0937002152204513,0.0,0.0,0.4193587303161621,0.6401431560516357
-0.0909758582711219,0.113329991698265,0.0433748587965965,-0.3335302472114563,-0.0752917453646659,0.0560655407607555,0.0,0.0,0.2981674671173095,-0.8994359374046326
-0.0906277671456337,0.1062242835760116,0.0307165682315826,-0.3156090080738067,-0.0712466463446617,0.0809019953012466,0.0,0.0,-0.4484035968780517,0.7494862079620361
-0.0902354270219802,0.0986090302467346,0.037083052098751,-0.3383569121360779,-0.0691162496805191,0.0426076278090477,0.0,0.0,0.313273549079895,-0.4470044374465942
-0.0899140387773513,0.091217502951622,0.0308996327221393,-0.3284534811973572,-0.0678838640451431,0.0246478244662284,0.0,0.0,0.2118316888809204,-0.7334005236625671
-0.0897596329450607,0.0839167460799217,0.0133217452093958,-0.3243841826915741,-0.0657910481095314,0.0418565347790718,0.0,0.0,0.7787153720855713,0.8673040866851807
-0.0893694907426834,0.077258713543415,0.038850650191307,-0.2959075272083282,-0.0656369253993034,0.0030822379048913,0.0,0.0,0.1572315692901611,-0.0954422354698181
-0.0889286026358604,0.0704820230603218,0.0441634729504585,-0.3011905550956726,-0.0657031163573265,-0.0013238411629572,0.0,0.0,0.4572633504867553,0.5542135238647461
-0.088269330561161,0.0641975700855255,0.0671772509813308,-0.2793634533882141,-0.0669455379247665,-0.024848498404026,0.0,0.0,0.0209187269210815,-0.1129223704338073
-0.0875994712114334,0.0581310614943504,0.0686933472752571,-0.2697026133537292,-0.0686327889561653,-0.0337450429797172,0.0,0.0,0.3156520128250122,-0.2705050706863403
-0.0867760628461837,0.0525698028504848,0.0838750749826431,-0.2472366839647293,-0.0701520815491676,-0.0303859207779169,0.0,0.0,0.1996135711669922,-0.6490107774734497
-0.0859184265136718,0.0471359342336654,0.0862421616911888,-0.2415264695882797,-0.0706211403012275,-0.0093813017010688,0.0,0.0,-0.0600452423095703,-0.0932668447494506
-0.0850656479597091,0.0412008129060268,0.0860564187169075,-0.2638227045536041,-0.0714003145694732,-0.0155832841992378,0.0,0.0,0.4412797689437866,-0.7115168571472168
-0.0841655731201171,0.0357982739806175,0.0895474404096603,-0.2400919795036316,-0.0709435269236564,0.0091358218342065,0.0,0.0,0.3189493417739868,-0.0867732763290405
-0.0831788033246994,0.0304350703954696,0.0981684699654579,-0.238337755203247,-0.0704468116164207,0.0099344290792942,0.0,0.0,0.525517463684082,-0.163758635520935
-0.0822673812508583,0.0254367217421531,0.0914038866758346,-0.2221613973379135,-0.0707021504640579,-0.0051068705506622,0.0,0.0,0.5922157764434814,0.3083176612854004
-0.0814463645219802,0.0206923577934503,0.0831419974565506,-0.2109115123748779,-0.0717303752899169,-0.0205646678805351,0.0,0.0,0.5380845069885254,0.0760282278060913
-0.0806091278791427,0.0162338837981224,0.0850303769111633,-0.1982184052467346,-0.0730221271514892,-0.025834996253252,0.0,0.0,0.548810601234436,0.7403743267059326
-0.0796509757637977,0.0120113706216216,0.09870295971632,-0.1878100484609604,-0.0758797004818916,-0.0571515448391437,0.0,0.0,0.4667030572891235,-0.1264649629592895
-0.0785531029105186,0.0077517009340226,0.112241044640541,-0.1894431561231613,-0.0783098191022872,-0.0486023053526878,0.0,0.0,0.5864403247833252,0.3569732904434204
-0.0772202461957931,0.0047080731019377,0.1162114366889,-0.1344792991876602,-0.0613740757107734,0.3387646377086639,1.0,0.0,0.3736348152160644,-0.668874204158783
-0.0757794380187988,0.0027172302361577,0.1108078956604003,-0.0874679833650589,-0.0284342989325523,0.6588839292526245,1.0,0.0,0.2915798425674438,0.1257835626602172
