x_pos,y_pos,x_vel,y_vel,angle,ang_vel,leg_1,leg_2,main_booster,lat_booster
-0.0015785216819494,1.4031237363815308,-0.1599284261465072,-0.3465084433555603,0.0018529719673097,0.036558698862791,0.0,0.0,-0.9485617411927796,0.6871750545434498
-0.0031517029274255,1.3948465585708618,-0.1577038168907165,-0.3678783476352691,0.0022269648034125,0.007481463253498,0.0,0.0,-0.1356333286933211,-0.5759761512042827
-0.0048110010102391,1.386063575744629,-0.1672501266002655,-0.390352338552475,0.0035303831100463,0.0260710082948207,0.0,0.0,0.9635400078661868,0.6519015145272451
-0.0066212653182446,1.3776679039001465,-0.1806526035070419,-0.3731405138969421,0.003159757470712,-0.0074133560992777,0.0,0.0,0.2896279975364018,0.9131368693419272
-0.0082910535857081,1.36953866481781,-0.1649113148450851,-0.3613009452819824,0.0011197717394679,-0.0408034995198249,0.0,0.0,-0.1969684654954113,-0.8605015379639859
-0.0100561138242483,1.3609071969985962,-0.1758054494857788,-0.3836217522621155,0.0004347774374764,-0.0137013625353574,0.0,0.0,-0.1013745964928081,0.731566850142852
-0.0118057252839207,1.3517749309539795,-0.1728945672512054,-0.4058744013309479,-0.0016078649787232,-0.0408563762903213,0.0,0.0,0.175033057180586,-0.6016704488183157
-0.0135208126157522,1.3428338766098022,-0.1709018945693969,-0.3973848223686218,-0.0022109553683549,-0.0120629779994487,0.0,0.0,0.414004129554808,0.9594568808055436
-0.0152043346315622,1.334476351737976,-0.1658425629138946,-0.3714500963687897,-0.004692668095231,-0.0496388748288154,0.0,0.0,0.1908624347532297,-0.869329087514753
-0.0169848445802927,1.326409101486206,-0.1773117035627365,-0.3585413992404938,-0.0054191122762858,-0.0145301846787333,0.0,0.0,-0.2902178817735041,-0.8777810608661559
-0.0188513752073049,1.3178423643112185,-0.1874624043703079,-0.3807469308376312,-0.0046259462833404,0.0158646386116743,0.0,0.0,0.1340807625380551,0.910134771521934
-0.0206109043210744,1.309315800666809,-0.1749696135520935,-0.3789569735527038,-0.0055911927483975,-0.019306631758809,0.0,0.0,-0.3158777756649895,0.7011359495722107
-0.0223225597292184,1.3002915382385254,-0.1685052216053009,-0.4010916650295257,-0.0082202097401022,-0.05258509516716,0.0,0.0,-0.3363559615021969,-0.8203330864941791
-0.0241071693599224,1.2907596826553345,-0.1772759407758712,-0.423648327589035,-0.0093853864818811,-0.0233058221638202,0.0,0.0,-0.4029720629129891,0.5948035377936758
-0.0258455276489257,1.2807323932647705,-0.171200230717659,-0.4456782937049866,-0.0119867166504263,-0.0520316287875175,0.0,0.0,0.4002777373971513,0.5674174986615023
-0.027442742139101,1.2705729007720947,-0.1562039256095886,-0.4515618979930877,-0.0154629303142428,-0.0695305839180946,0.0,0.0,0.7244165937453952,0.5244824535145864
-0.0288349147886037,1.2612534761428833,-0.1351208835840225,-0.4142419099807739,-0.0195271279662847,-0.0812910422682762,0.0,0.0,0.1207421211422259,-0.5886986518707451
-0.0301609989255666,1.251807689666748,-0.1298624575138092,-0.4198532700538635,-0.0222337767481803,-0.0541377291083335,0.0,0.0,0.7550617808242654,0.8049519813194013
-0.0312866196036338,1.2431416511535645,-0.1084526181221008,-0.385219544172287,-0.0263042394071817,-0.0814168006181716,0.0,0.0,-0.6581960860156852,-0.9481775518269052
-0.0324891097843647,1.2339777946472168,-0.1182915195822715,-0.4073217213153839,-0.0282320100814104,-0.0385588444769382,0.0,0.0,-0.1052559061526579,-0.6744740667537023
-0.0337214469909668,1.2243199348449707,-0.1223535761237144,-0.4292574524879455,-0.0291007459163665,-0.0173762794584035,0.0,0.0,-0.934743501050716,-0.9755801580067368
-0.0350136756896972,1.2141590118408203,-0.1302690953016281,-0.4515771865844726,-0.0280688647180795,0.0206393115222454,0.0,0.0,0.3319627218902903,-0.9554320207114748
-0.0362289436161518,1.204152226448059,-0.1245560199022293,-0.4446891546249389,-0.0250643026083707,0.0600963421165943,0.0,0.0,-0.0325076993187722,-0.634966661131674
-0.0374656692147254,1.1936393976211548,-0.1278340518474578,-0.4671739339828491,-0.0209515038877725,0.0822633430361747,0.0,0.0,-0.6647002179430013,-0.535600160279897
-0.0387284271419048,1.1826293468475342,-0.1317511647939682,-0.4892735183238983,-0.0155318984761834,0.1084020882844924,0.0,0.0,0.7498885241844773,0.8586621192455004
-0.0400527939200401,1.17222261428833,-0.1358768790960312,-0.4624896347522735,-0.0121327731758356,0.067981943488121,0.0,0.0,-0.1735619316048162,0.5667455327811984
-0.0412989631295204,1.1613178253173828,-0.1268918216228485,-0.4846352934837341,-0.0098822973668575,0.0450095832347869,0.0,0.0,-0.7615342444808324,-0.8507947483797966
-0.0425909049808979,1.149922490119934,-0.1335403174161911,-0.5064316987991333,-0.0055896551348268,0.0858525559306144,0.0,0.0,0.2163426202178573,-0.95391171839646
-0.0440285690128803,1.1388918161392212,-0.1499805152416229,-0.490244448184967,0.0005469800089485,0.1227327957749366,0.0,0.0,-0.8422610694269228,0.766126802495783
-0.0453660003840923,1.1273577213287354,-0.1384455114603042,-0.5126293897628784,0.0051913876086473,0.0928879827260971,0.0,0.0,-0.8058476291528536,-0.9203736581088188
-0.0467296615242958,1.1153333187103271,-0.1428507268428802,-0.5344567894935608,0.0115847373381257,0.1278669685125351,0.0,0.0,-0.6972793936729431,0.9173219203948976
-0.047983456403017,1.102804183959961,-0.1302181035280227,-0.5568929314613342,0.0163635183125734,0.0955755710601806,0.0,0.0,-0.9489167332649232,0.9596941471099854
-0.0491228103637695,1.0897852182388306,-0.117079772055149,-0.5786606669425964,0.0194666143506765,0.0620619058609008,0.0,0.0,-0.986650049686432,0.8699088096618652
-0.0501494407653808,1.0762593746185305,-0.1042072623968124,-0.6011686325073242,0.0209932290017604,0.0305321961641311,0.0,0.0,-0.8962906002998352,0.4758666753768921
-0.0511229522526264,1.0622328519821167,-0.0988672226667404,-0.6234249472618103,0.0224879011511802,0.0298936329782009,0.0,0.0,-0.9707523584365844,0.4638487100601196
-0.0520416274666786,1.0477054119110107,-0.093341127038002,-0.6456813812255859,0.0239489711821079,0.0292210523039102,0.0,0.0,-0.9136993885040284,0.2260465621948242
-0.0529036521911621,1.032677412033081,-0.0876421183347702,-0.667937695980072,0.0253747850656509,0.0285163912922143,0.0,0.0,-0.883396565914154,-0.3429771661758423
-0.0537074096500873,1.0171486139297483,-0.0817827135324478,-0.6901940107345581,0.0267638694494962,0.0277814660221338,0.0,0.0,-0.8232765197753906,-0.5231010317802429
-0.0544957146048545,1.0011229515075684,-0.0813163220882415,-0.7122907042503357,0.0292225517332553,0.0491734519600868,0.0,0.0,-0.954444169998169,0.6136360168457031
-0.0551721565425396,0.9845998883247375,-0.0687958151102066,-0.7343882322311401,0.0303638149052858,0.0228251609951257,0.0,0.0,-0.3380317687988281,0.0178800821304321
-0.0557862296700477,0.9675757884979248,-0.0625233203172683,-0.7566443681716919,0.0314643122255802,0.0220098942518234,0.0,0.0,-0.0477059483528137,0.542496919631958
-0.0562850944697856,0.9500522017478944,-0.0496433191001415,-0.7788189053535461,0.0312227606773376,-0.0048308256082236,0.0,0.0,-0.0656092166900634,-0.6311373710632324
-0.0567610748112201,0.9320189952850342,-0.0483841560781002,-0.8014945387840271,0.0319917425513267,0.0153800193220376,0.0,0.0,0.9437227249145508,0.3044319152832031
-0.05707473680377,0.9144229888916016,-0.0326459072530269,-0.7820730805397034,0.0332569703459739,0.0253044757992029,0.0,0.0,0.8896491527557373,0.2283117771148681
-0.0573795326054096,0.896828830242157,-0.0315040536224842,-0.7819846272468567,0.0342620611190795,0.0201019439846277,0.0,0.0,0.5823075771331787,0.7974153757095337
-0.0575160011649131,0.8792113661766052,-0.0130986524745821,-0.7829887270927429,0.0337185263633728,-0.0108706271275877,0.0,0.0,0.3543205261230469,-0.1960694193840026
-0.0575468055903911,0.8616448640823364,-0.0027174211572855,-0.7807294726371765,0.0333595126867294,-0.0071803862228989,0.0,0.0,0.4238139390945434,-0.0419521927833557
-0.057629682123661,0.8446497917175293,-0.007416233420372,-0.7553139328956604,0.0325047932565212,-0.0170945338904857,0.0,0.0,-0.505023717880249,-0.3451630473136902
-0.0576431266963481,0.8271540999412537,-0.0004280660359654,-0.7775701284408569,0.0316017605364322,-0.0180605929344892,0.0,0.0,-0.2227453589439392,0.852764368057251
-0.0575213432312011,0.8091580867767334,0.014791521243751,-0.7997634410858154,0.0290134027600288,-0.0517672225832939,0.0,0.0,0.3507790565490722,-0.7119669318199158
-0.0572683326900005,0.7913645505905151,0.0263331569731235,-0.7908039093017578,0.0279966760426759,-0.0203345101326704,0.0,0.0,0.0566787719726562,0.2673147916793823
-0.0569943413138389,0.7737752795219421,0.0286610033363103,-0.7817258834838867,0.0267593972384929,-0.0247456226497888,0.0,0.0,0.2498359680175781,-0.1167457103729248
-0.0565751083195209,0.756192684173584,0.0428422950208187,-0.781428337097168,0.0258539728820323,-0.0181088130921125,0.0,0.0,-0.1374003291130066,0.7701535224914551
-0.0560228340327739,0.7381190657615662,0.0577583238482475,-0.803236186504364,0.0233567487448453,-0.0499445758759975,0.0,0.0,-0.0507463812828063,0.3342270851135254
-0.0553982742130756,0.7195445895195007,0.0650395900011062,-0.8254928588867188,0.0208078939467668,-0.0509769506752491,0.0,0.0,0.4427533149719238,0.1657555103302002
-0.0547929778695106,0.7010839581489563,0.0635497793555259,-0.8204337358474731,0.0178210213780403,-0.0597375109791755,0.0,0.0,0.2440547943115234,-0.8420992493629456
-0.0541110038757324,0.6830307841300964,0.0695138797163963,-0.802347719669342,0.0165218748152256,-0.0259828455746173,0.0,0.0,-0.2429471611976623,0.2944868803024292
-0.0533557906746864,0.6644768714904785,0.0768917202949523,-0.8246039748191833,0.0151700712740421,-0.0270363539457321,0.0,0.0,0.1432561874389648,0.0458494424819946
-0.0524839386343956,0.646277904510498,0.0883613228797912,-0.8088323473930359,0.0140044437721371,-0.0233124438673257,0.0,0.0,-0.1559398174285888,-0.26301109790802
-0.0515384674072265,0.6275781393051147,0.0957895219326019,-0.831088662147522,0.0127856535837054,-0.0243759714066982,0.0,0.0,0.3199892044067383,-0.5050830245018005
-0.0505183227360248,0.6088171005249023,0.1021754369139671,-0.833823025226593,0.012621883302927,-0.0032754014246165,0.0,0.0,0.4660263061523437,0.0105526447296142
-0.0495208725333213,0.5904871821403503,0.1003805547952652,-0.8146594762802124,0.0119929490610957,-0.0125787304714322,0.0,0.0,0.581291913986206,-0.3377937078475952
-0.0483367927372455,0.5724009871482849,0.1185414940118789,-0.8038281202316284,0.0118572022765874,-0.0027150691021233,0.0,0.0,0.5896623134613037,-0.3232413530349731
-0.047062586992979,0.5546990633010864,0.1275065690279007,-0.7867519855499268,0.0117726018652319,-0.0016920203343033,0.0,0.0,0.665066123008728,-0.6344611048698425
-0.0457602515816688,0.5370969176292419,0.1290844082832336,-0.7823290228843689,0.0129161681979894,0.0228711832314729,0.0,0.0,0.4039229154586792,-0.5455189347267151
-0.0445467941462993,0.5197445154190063,0.1194079890847206,-0.7712351083755493,0.0148270614445209,0.0382180511951446,0.0,0.0,0.8252472877502441,0.136235237121582
-0.0432488434016704,0.503309965133667,0.1278054565191269,-0.7304443120956421,0.0167938992381095,0.0393364392220974,0.0,0.0,-0.0808444619178772,-0.3892654180526733
-0.0418760292232036,0.4863747656345367,0.1353493928909301,-0.7527008056640625,0.0187070220708847,0.0382623001933097,0.0,0.0,0.5111565589904785,-0.636435329914093
-0.0404662117362022,0.4701165854930877,0.1377543658018112,-0.7226292490959167,0.0218891575932502,0.0636428594589233,0.0,0.0,0.256915807723999,-0.4198523759841919
-0.0390608794987201,0.4538954496383667,0.1377002745866775,-0.7209833264350891,0.0246865861117839,0.055948793888092,0.0,0.0,0.4028499126434326,-0.2863990068435669
-0.0376726165413856,0.438032865524292,0.1364122480154037,-0.7050438523292542,0.0270699951797723,0.047668058425188,0.0,0.0,0.339834451675415,-0.764302670955658
-0.0362553596496582,0.4224265515804291,0.1377845704555511,-0.6936886310577393,0.030957905575633,0.0777584463357925,0.0,0.0,-0.2512305974960327,-0.5238292217254639
-0.0348135009407997,0.4063233435153961,0.1390232145786285,-0.7158159017562866,0.036056999117136,0.1019818633794784,0.0,0.0,0.7015416622161865,-0.3367882966995239
-0.0332423225045204,0.3906152546405792,0.151649996638298,-0.6982771158218384,0.0414534471929073,0.107928954064846,0.0,0.0,0.6993181705474854,-0.683255672454834
-0.0317043289542198,0.3749987185001373,0.147096499800682,-0.6942675709724426,0.0480732582509517,0.1323962360620498,0.0,0.0,0.5505452156066895,0.210687518119812
-0.030042266473174,0.3593437075614929,0.1592619717121124,-0.6960174441337585,0.0549362488090992,0.1372599005699157,0.0,0.0,0.8988749980926514,0.1361101865768432
-0.0283629409968853,0.3437697887420654,0.1612139344215393,-0.6924351453781128,0.061579555273056,0.132866233587265,0.0,0.0,0.9086447954177856,0.1491830348968505
-0.026674747467041,0.3290666341781616,0.1622006595134735,-0.653758704662323,0.0681268125772476,0.1309449672698974,0.0,0.0,0.7478349208831787,-0.1708526611328125
-0.0248859412968158,0.3151634931564331,0.1719151139259338,-0.6182502508163452,0.0750148892402648,0.1377615481615066,0.0,0.0,0.3716477155685425,-0.3626689910888672
-0.0231661796569824,0.3017646074295044,0.1655014455318451,-0.595842719078064,0.0814215913414955,0.1281342208385467,0.0,0.0,0.0954753160476684,-0.0612448453903198
-0.0214752200990915,0.288183331489563,0.1630792170763015,-0.6039522886276245,0.0873815938830375,0.1192000359296798,0.0,0.0,0.608041524887085,-0.1538465023040771
-0.0197378154844045,0.2752565145492553,0.1675958782434463,-0.5748956203460693,0.0934738740324974,0.121845856308937,0.0,0.0,0.4848805665969848,-0.0680267810821533
-0.0180649757385253,0.2625891268253326,0.1616132855415344,-0.5633620023727417,0.0990961343050003,0.1124449223279953,0.0,0.0,0.4874659776687622,0.317028284072876
-0.0164274219423532,0.2503247857093811,0.1583661586046219,-0.5454462170600891,0.1044419184327125,0.1069157868623733,0.0,0.0,0.198000431060791,-0.42509925365448
-0.0147773744538426,0.2383150607347488,0.1597108691930771,-0.5341421961784363,0.1097000539302825,0.1051628813147544,0.0,0.0,0.1371331214904785,0.3367433547973633
-0.0130376815795898,0.2264118492603302,0.1684456765651703,-0.5294468998908997,0.1151889711618423,0.1097782477736473,0.0,0.0,0.424856424331665,-0.3018906116485595
-0.0112380031496286,0.2144517004489898,0.1743985414505005,-0.532005250453949,0.1207262873649597,0.1107463836669921,0.0,0.0,0.3603594303131103,0.1744983196258545
-0.0093289371579885,0.2024985700845718,0.185019701719284,-0.5317375063896179,0.1265715062618255,0.1169043555855751,0.0,0.0,0.8312530517578125,-0.0267671346664428
-0.0072649954818189,0.1910177767276764,0.1998103260993957,-0.5108281970024109,0.1331264078617096,0.1310984492301941,0.0,0.0,0.757768988609314,-0.788341224193573
-0.0050837518647313,0.1796747595071792,0.2096744775772094,-0.5049089193344116,0.1415367573499679,0.1682069003582,0.0,0.0,0.7905192375183105,-0.0423951148986816
-0.0029510497115552,0.1690395474433899,0.2049124538898468,-0.4734886586666107,0.149875596165657,0.1667769700288772,0.0,0.0,0.7125101089477539,-0.0220101475715637
-0.000831794750411,0.1590778976678848,0.2034643441438675,-0.4436151087284088,0.1583205610513687,0.168899804353714,0.0,0.0,0.2323312759399414,-0.6960248351097107
0.0013290405040606,0.1493677198886871,0.2061541974544525,-0.4326511025428772,0.1682575047016143,0.1987387239933014,0.0,0.0,-0.0961754918098449,0.0438234806060791
0.0035613060463219,0.1391579508781433,0.2133463323116302,-0.454914927482605,0.1781541109085083,0.1979321241378784,0.0,0.0,0.5379021167755127,-0.3581650853157043
0.0057323453947901,0.1291353553533554,0.2075092494487762,-0.4466275572776794,0.1877850890159607,0.1926193982362747,0.0,0.0,0.7775700092315674,-0.6685598492622375
0.0078444480895996,0.1200019717216491,0.2001095116138458,-0.4073734283447265,0.1989466696977615,0.2232314646244049,0.0,0.0,0.146026611328125,0.0185909271240234
0.009932518005371,0.1109450459480285,0.197853997349739,-0.4040421545505523,0.2099961340427398,0.2209889143705368,0.0,0.0,0.6622203588485718,-0.6630684733390808
0.0117381094023585,0.1025101765990257,0.1686506867408752,-0.3766213357448578,0.2220349609851837,0.2407761365175247,0.0,0.0,0.3408944606781006,-0.5143543481826782
0.0135224340483546,0.0944196283817291,0.1653964817523956,-0.3615971505641937,0.2352495640516281,0.2642920613288879,0.0,0.0,0.4814245700836181,0.5409343242645264
0.0152087211608886,0.0868122428655624,0.1568591296672821,-0.3400330245494842,0.2472107112407684,0.2392233610153198,0.0,0.0,0.4109936952590942,0.2626439332962036
0.0167375560849905,0.0796099007129669,0.1415081620216369,-0.3220611214637756,0.25881227850914,0.2320316135883331,0.0,0.0,0.2956945896148681,0.4655730724334717
0.0182145126163959,0.0724672898650169,0.136473461985588,-0.3194759488105774,0.2702921628952026,0.2295971363782882,0.0,0.0,0.4146182537078857,0.51795494556427
0.0195556636899709,0.0655433237552642,0.1242223605513572,-0.3095927536487579,0.2804330885410309,0.202818363904953,0.0,0.0,0.6268404722213745,0.5249309539794922
0.0207073204219341,0.0588131994009017,0.1067635640501976,-0.3007518053054809,0.2890619039535522,0.1725762784481048,0.0,0.0,0.7360939979553223,0.5138330459594727
0.0218600276857614,0.052739605307579,0.1076263338327407,-0.2714727222919464,0.2969475984573364,0.1577137559652328,0.0,0.0,0.4867291450500488,0.507124662399292
0.0230751987546682,0.046681459993124,0.1147690638899803,-0.2706452012062073,0.3039305210113525,0.1396582573652267,0.0,0.0,0.564071536064148,0.4265538454055786
0.024268340319395,0.0412184111773967,0.1119811385869979,-0.2443493157625198,0.3115236461162567,0.151862621307373,0.0,0.0,0.1185063123703002,0.3773611783981323
0.0253476146608591,0.0359983295202255,0.1007107496261596,-0.2335718423128128,0.3190215229988098,0.1499577462673187,0.0,0.0,0.4688543081283569,0.1023441553115844
0.0263700485229492,0.0314199067652225,0.0944974571466445,-0.2052115350961685,0.3270840048789978,0.161249354481697,0.0,1.0,0.9971275329589844,0.9912478923797609
0.0273398403078317,0.0281398147344589,0.1003677397966384,-0.1457994729280471,0.3214989900588989,-0.1147401556372642,0.0,1.0,0.9462847709655762,0.8112711906433105
0.0279468540102243,0.0264007430523633,0.0819837376475334,-0.072769396007061,0.2993188500404358,-0.4437694549560547,0.0,1.0,0.890099048614502,-0.4782139658927917
0.0283032413572073,0.0258457046002149,0.0646858587861061,-0.019005112349987,0.2693479359149933,-0.5995370149612427,0.0,1.0,0.2330001592636108,-0.2253046035766601
0.0286225322633981,0.0253441669046878,0.0614652745425701,-0.0171602983027696,0.2391525655984878,-0.6040030717849731,0.0,1.0,0.4782049655914306,-0.5479887127876282
0.0286766048520803,0.0250770896673202,0.0331529155373573,-0.007609776686877,0.2110243588685989,-0.5625869631767273,0.0,1.0,0.1566276550292968,-0.2100763916969299
0.0285738948732614,0.0248115882277488,0.0176731497049331,-0.0080582005903124,0.1828898042440414,-0.5626912117004395,0.0,0.0,-0.996898889541626,0.4004979133605957
0.0285299308598041,0.0240555629134178,0.0237085539847612,-0.0303791053593158,0.1547345519065857,-0.5631052255630493,0.0,0.0,-0.9895020127296448,0.0578861236572265
0.0285435672849416,0.0228091571480035,0.0296224392950534,-0.0527005158364772,0.1265597641468048,-0.5634963512420654,0.0,0.0,-0.9686127305030824,0.116772174835205
0.0286138541996479,0.0210724454373121,0.0354081466794014,-0.0750223621726036,0.0983665958046913,-0.5638635754585266,0.0,0.0,-0.8749931454658508,-0.6698094010353088
0.0286953933537006,0.0188415627926588,0.0354918614029884,-0.09757761657238,0.0712745189666748,-0.5418417453765869,0.0,0.0,-0.3548830151557922,-0.7386852502822876
0.0287750251591205,0.0161201581358909,0.0339549593627452,-0.1199142858386039,0.045574452728033,-0.5140016078948975,0.0,0.0,0.5289735794067383,-0.8712902069091797
0.0288921352475881,0.0133288716897368,0.0359104052186012,-0.1234929114580154,0.0216843951493501,-0.4778013229370117,0.0,0.0,0.6215144395828247,-0.9158611297607422
