x_pos,y_pos,x_vel,y_vel,angle,ang_vel,leg_1,leg_2,main_booster,lat_booster
-0.0015240669017657,1.4030035734176636,-0.1543516218662262,-0.3518500626087188,0.0017403892707079,0.0343291796743869,0.0,0.0,-0.5914802391720231,-0.9125540199778044
-0.0031143189407885,1.3944846391677856,-0.1623756736516952,-0.3786292672157287,0.0050525539554655,0.0662503987550735,0.0,0.0,0.6138464294073454,0.6341419974452274
-0.0045157433487474,1.3859330415725708,-0.1425457000732422,-0.3800813257694244,0.007424090988934,0.0474352501332759,0.0,0.0,-0.2175823366741538,-0.977406729476502
-0.0060097696259617,1.376756191253662,-0.154105931520462,-0.4078887701034546,0.0120757361873984,0.0930415242910385,0.0,0.0,-0.5500906168530812,0.8702146216495071
-0.0074213980697095,1.3669629096984863,-0.1437173932790756,-0.4352824985980987,0.0145999146625399,0.0504882708191871,0.0,0.0,0.547672472099582,-0.9567816958336915
-0.0087706567719578,1.3573119640350342,-0.1395438462495803,-0.4289815127849579,0.0191663019359111,0.0913360267877578,0.0,0.0,-0.3813053572584313,-0.9052935500260932
-0.010194587521255,1.3470381498336792,-0.1488482356071472,-0.4567072987556457,0.0255522336810827,0.1277303397655487,0.0,0.0,0.8696936945922917,-0.9978745874968322
-0.0115281101316213,1.3372492790222168,-0.1420853286981582,-0.4352348446846008,0.0341911800205707,0.172794833779335,0.0,0.0,-0.7876586947582063,0.7307083011442553
-0.0128063205629587,1.3268508911132812,-0.135082870721817,-0.4623349010944366,0.0413693860173225,0.1435774713754654,0.0,0.0,-0.5824024930509994,0.6541169568480394
-0.0140341762453317,1.3158392906188965,-0.1286913454532623,-0.4895758926868438,0.0472130067646503,0.1168831437826156,0.0,0.0,-0.7670218919843896,0.840085616824518
-0.0151873584836721,1.3042129278182983,-0.1192590445280075,-0.5168532133102417,0.0511123165488243,0.0779935047030448,0.0,0.0,-0.7207934559515843,0.6207244143456782
-0.0162866599857807,1.2919687032699585,-0.112448513507843,-0.5442774891853333,0.0535959228873252,0.0496766492724418,0.0,0.0,-0.9103270882487488,0.7993777931732113
-0.0173105243593454,1.27911376953125,-0.102902628481388,-0.5713528990745544,0.0541090667247772,0.0102638956159353,0.0,0.0,-0.9386120014177606,0.9729196008760216
-0.0182494167238473,1.26563560962677,-0.092194028198719,-0.5989681482315063,0.0524312667548656,-0.0335589833557605,0.0,0.0,0.0468902058482314,-0.859581561587444
-0.019179344177246,1.252330660820007,-0.0929991155862808,-0.5913258194923401,0.0524389222264289,0.0001529825531179,0.0,0.0,-0.9738589820772624,0.8940311461006496
-0.0200264938175678,1.2384008169174194,-0.0825560167431831,-0.6190319061279297,0.050307422876358,-0.0426342263817787,0.0,0.0,-0.4511515058937825,-0.9154086823907132
-0.0209303852170705,1.2238564491271973,-0.0896098241209983,-0.6463900208473206,0.049535397440195,-0.0154416542500257,0.0,0.0,0.0823779027829512,0.8848498309618507
-0.0216675754636526,1.2090647220611572,-0.0711380019783973,-0.6573275923728943,0.0469857975840568,-0.0509966015815734,0.0,0.0,0.7648404303741236,-0.6321596931491398
-0.0223840717226266,1.1949471235275269,-0.0705921649932861,-0.6274165511131287,0.0459323711693286,-0.0210706405341625,0.0,0.0,-0.5802660838643907,-0.7489247934719936
-0.0231685638427734,1.1802033185958862,-0.0790410637855529,-0.6552993655204773,0.0465220361948013,0.0117943324148654,0.0,0.0,-0.5638869466044967,-0.7384721836585426
-0.0239999778568744,1.1648406982421875,-0.0848716646432876,-0.6828335523605347,0.0482238046824932,0.0340385735034942,0.0,0.0,-0.1109510032212168,-0.9977673733551138
-0.0249095913022756,1.1488460302352903,-0.0945981219410896,-0.7109963893890381,0.0518274828791618,0.0720797926187515,0.0,0.0,-0.2414606358953854,0.8223145046423492
-0.0257411953061819,1.1322355270385742,-0.084751158952713,-0.7383058071136475,0.0533985570073127,0.0314243733882904,0.0,0.0,-0.3714120178572859,0.8413262872998014
-0.0264992713928222,1.1150004863739014,-0.0754677057266235,-0.7659899592399597,0.0530605129897594,-0.0067612761631608,0.0,0.0,-0.499508376840126,0.7157611962047914
-0.0272151939570903,1.0971498489379885,-0.0701027661561966,-0.7933094501495361,0.0515899136662483,-0.0294148083776235,0.0,0.0,0.5665533721123321,-0.9836038099685092
-0.0282004363834857,1.079643964767456,-0.0988048836588859,-0.7780516743659973,0.0518654808402061,0.0055113299749791,0.0,0.0,0.3543994474989678,-0.63868656401208
-0.0292647369205951,1.0624094009399414,-0.1079523414373397,-0.7660308480262756,0.0533730238676071,0.0301507320255041,0.0,0.0,-0.7935036470234729,0.6733504287289914
-0.0302886012941598,1.0445642471313477,-0.1028030142188072,-0.7931321263313293,0.0537852570414543,0.0082445945590734,0.0,0.0,0.7055361065693442,-0.6299676673342555
-0.0315517410635948,1.02728533744812,-0.1275938302278518,-0.7680000066757202,0.0550537183880806,0.0253691785037517,0.0,0.0,0.292240988265513,-0.744325532212998
-0.0329139716923236,1.009947419166565,-0.1389368176460266,-0.7706743478775024,0.0577347166836261,0.0536201074719429,0.0,0.0,0.1729229512525414,-0.7595412546491547
-0.0343571677803993,0.992893397808075,-0.1485233306884765,-0.7581207156181335,0.0618949942290782,0.0832050591707229,0.0,0.0,0.2305474938230132,0.7095731805104689
-0.0358304008841514,0.9757024049758912,-0.1499694287776947,-0.7641593217849731,0.0645129606127739,0.0523595735430717,0.0,0.0,0.3256280324217731,0.8454315092338724
-0.0373549461364746,0.9588600993156432,-0.1532776057720184,-0.7485744953155518,0.0653250217437744,0.0162415746599435,0.0,0.0,0.6387653609232307,-0.715458832088118
-0.0390291213989257,0.9419138431549072,-0.1694951057434082,-0.7532652020454407,0.0673758834600448,0.0410170443356037,0.0,0.0,0.119673528083265,0.6456862471516597
-0.0406697280704975,0.9249903559684752,-0.1648017764091491,-0.7521864771842957,0.0681117624044418,0.0147176105529069,0.0,0.0,-0.3396293136567243,0.9555466836151164
-0.0422340407967567,0.9074609875679016,-0.1551404297351837,-0.7790230512619019,0.0668404921889305,-0.025425573810935,0.0,0.0,-0.0599213043468609,0.962058316429391
-0.0437265411019325,0.8893131017684937,-0.146061509847641,-0.8064323663711548,0.0636930167675018,-0.0629495307803154,0.0,0.0,-0.3380227468257171,-0.6017482317521226
-0.045264720916748,0.8705446124076843,-0.1517266780138015,-0.8340628147125244,0.0616210624575614,-0.0414390638470649,0.0,0.0,-0.3584508068188095,-0.907727487371133
-0.0468808189034462,0.8511583209037781,-0.1614117473363876,-0.8616077303886414,0.0614261291921138,-0.0038985863793641,0.0,0.0,-0.1078886566336487,0.877367548264885
-0.0484253875911235,0.8311589360237122,-0.1523728668689727,-0.8887825012207031,0.0593569315969944,-0.0413837619125843,0.0,0.0,0.1084171626880656,0.7065146410776295
-0.0500280372798442,0.8113244771957397,-0.1566083580255508,-0.8813941478729248,0.0557525046169757,-0.0720886290073394,0.0,0.0,0.9815945625305176,0.81557297706604
-0.0514410957694053,0.791826605796814,-0.1363283097743988,-0.866393506526947,0.0508317276835441,-0.0984154716134071,0.0,0.0,0.9702423810958862,0.9704155921936036
-0.0526689514517784,0.7722733616828918,-0.1160470619797706,-0.8688151836395264,0.0441606231033802,-0.1334218978881836,0.0,0.0,0.9740790128707886,-0.3689465522766113
-0.0538073554635047,0.753054141998291,-0.1075982302427291,-0.8540158867835999,0.0379926562309265,-0.1233595162630081,0.0,0.0,0.9496383666992188,0.4076101779937744
-0.0550079345703125,0.7337328195571899,-0.1135471016168594,-0.8585811257362366,0.0315571129322052,-0.1287104785442352,0.0,0.0,0.9871501922607422,-0.399662971496582
-0.0561671257019043,0.7143959999084473,-0.1096115559339523,-0.8592908978462219,0.0253315456211566,-0.1245116144418716,0.0,0.0,0.9140548706054688,-0.3865540027618408
-0.0572698600590229,0.6952178478240967,-0.1042491197586059,-0.8522733449935913,0.019387237727642,-0.1188858896493911,0.0,0.0,0.9857311248779296,-0.4040955901145935
-0.0585280433297157,0.6769182085990906,-0.1191243901848793,-0.8132441639900208,0.0127723785117268,-0.132297396659851,0.0,0.0,0.878380537033081,-0.5663713216781616
-0.06000442430377,0.6593431830406189,-0.1415707468986511,-0.7810710668563843,0.0067882295697927,-0.1196828931570053,0.0,0.0,0.5852243900299072,-0.0008243322372436
-0.061505414545536,0.641879677772522,-0.1438984274864196,-0.7761456966400146,0.0006645439425483,-0.1224738359451294,0.0,0.0,0.4137450456619262,0.3193039894104004
-0.0628850907087326,0.6245285868644714,-0.132292553782463,-0.7711647748947144,-0.0049369134940207,-0.1120291799306869,0.0,0.0,0.3752204179763794,0.446250319480896
-0.0643108338117599,0.6074771285057068,-0.13661889731884,-0.7578694820404053,-0.0108056208118796,-0.1173742860555648,0.0,0.0,0.4101235866546631,0.7825784683227539
-0.0655670166015625,0.5903674960136414,-0.118199922144413,-0.7604990005493164,-0.0181271638721227,-0.1464307308197021,0.0,0.0,0.1911265850067138,-0.3228317499160766
-0.0668114647269249,0.5735001564025879,-0.1169991716742515,-0.7497702240943909,-0.0254835076630115,-0.1471268981695175,0.0,0.0,0.5216600894927979,0.5276951789855957
-0.0678563117980957,0.5566768050193787,-0.0963095054030418,-0.7478663325309753,-0.0335598215460777,-0.1615264266729354,0.0,0.0,0.619207501411438,-0.6306394338607788
-0.0690381973981857,0.5399304032325745,-0.1110005006194114,-0.744462788105011,-0.0406615622341632,-0.1420347839593887,0.0,0.0,0.6597543954849243,-0.3572770357131958
-0.0700942054390907,0.5237579941749573,-0.0988116115331649,-0.7189754247665405,-0.04737164452672,-0.1342014223337173,0.0,0.0,0.6094460487365723,0.3227601051330566
-0.0709858909249305,0.5079399347305298,-0.0829621627926826,-0.7032299041748047,-0.053505003452301,-0.1226673126220703,0.0,0.0,0.7945473194122314,0.2238290309906005
-0.0717496871948242,0.492834597826004,-0.0705155283212661,-0.6715720891952515,-0.059308037161827,-0.1160607486963272,0.0,0.0,0.1558295488357544,-0.6437996029853821
-0.0725923553109169,0.4779472649097442,-0.0795549303293228,-0.6618539094924927,-0.0639579072594642,-0.0929973572492599,0.0,0.0,0.1115132570266723,0.5404052734375
-0.0733395591378212,0.4627998769283294,-0.0689588040113449,-0.673474907875061,-0.0696616619825363,-0.1140753254294395,0.0,0.0,0.8291871547698975,0.1288647651672363
-0.0741445571184158,0.4482056498527527,-0.0741708278656005,-0.6489372253417969,-0.0759237706661224,-0.1252420395612716,0.0,0.0,0.7123124599456787,-0.5303972959518433
-0.0748155564069747,0.4337806701660156,-0.0621823854744434,-0.6413723230361938,-0.0807990878820419,-0.0975061431527137,0.0,0.0,-0.0785213708877563,-0.6343597769737244
-0.0755356773734092,0.4187417030334472,-0.0682738795876503,-0.6686050295829773,-0.0845044553279876,-0.074107326567173,0.0,0.0,0.8978928327560425,-0.374673843383789
-0.0762091651558876,0.4037690162658691,-0.0635961592197418,-0.6656636595726013,-0.0882125720381736,-0.0741625800728797,0.0,0.0,0.9673925638198853,-0.2257360219955444
-0.0769683867692947,0.3892469108104706,-0.0714533776044845,-0.6457003355026245,-0.0926467850804328,-0.0886841788887977,0.0,0.0,0.674103856086731,0.3761792182922363
-0.0776268020272255,0.3753962516784668,-0.0614271573722362,-0.6158638596534729,-0.0970243588089943,-0.087551437318325,0.0,0.0,0.8324669599533081,-0.6649627089500427
-0.0782099738717079,0.3613945543766022,-0.0554377660155296,-0.622484564781189,-0.0998824015259742,-0.0571609735488891,0.0,0.0,0.9205632209777832,-0.6294875741004944
-0.0787107497453689,0.3482629656791687,-0.0485146045684814,-0.5837347507476807,-0.101437360048294,-0.0310988537967205,0.0,0.0,0.9569354057312012,-0.0649898052215576
-0.0792667418718338,0.3353640437126159,-0.053468782454729,-0.5734291672706604,-0.1035511568188667,-0.0422760620713233,0.0,0.0,0.6470023393630981,-0.4401347637176513
-0.0798450484871864,0.3228656649589538,-0.0552312731742858,-0.5556665658950806,-0.1061313599348068,-0.051604151725769,0.0,0.0,0.2490022182464599,-0.9319800734519958
-0.0804208740592002,0.3104573488235473,-0.0568250231444835,-0.5515347123146057,-0.1068821996450424,-0.0150167252868413,0.0,0.0,0.7212992906570435,-0.407698392868042
-0.0810373276472091,0.2987619042396545,-0.0602185428142547,-0.5198989510536194,-0.1082961782813072,-0.0282797552645206,0.0,0.0,-0.2824005484580993,0.1117972135543823
-0.081654742360115,0.2864456176757812,-0.0602819435298442,-0.5474973917007446,-0.1097520589828491,-0.0291175041347742,0.0,0.0,0.7110146284103394,-0.1941301822662353
-0.0822636634111404,0.2741181254386902,-0.0592157952487468,-0.54801344871521,-0.1114109456539154,-0.0331775546073913,0.0,0.0,0.7907736301422119,-0.3422490358352661
-0.0827610939741134,0.2616826891899109,-0.048378612846136,-0.5527887940406799,-0.1127699092030525,-0.0271793063730001,0.0,0.0,0.5360714197158813,-0.8635212182998657
-0.0833253860473632,0.2491052746772766,-0.0567036978900432,-0.558975338935852,-0.1124955415725708,0.0054873162880539,0.0,0.0,0.9768071174621582,0.37361741065979
-0.0837940201163292,0.2373232990503311,-0.0470577888190746,-0.5236310362815857,-0.1123075112700462,0.0037606928963214,0.0,0.0,0.559882402420044,0.0212060213088989
-0.0841023474931716,0.2260557264089584,-0.0313285924494266,-0.5007431507110596,-0.1118093132972717,0.009963659569621,0.0,0.0,0.79587721824646,-0.1639687418937683
-0.0844336524605751,0.215512067079544,-0.0330294966697692,-0.4686169624328613,-0.1119142174720764,-0.002098124474287,0.0,0.0,0.2910032272338867,-0.773351788520813
-0.0849120169878006,0.2047547698020935,-0.0491073653101921,-0.4780086278915405,-0.1106537133455276,0.0252102706581354,0.0,0.0,0.4504082202911377,-0.4498820900917053
-0.0852794647216796,0.1944052278995514,-0.0381491631269454,-0.4598734974861145,-0.1092667281627655,0.0277398917824029,0.0,0.0,0.0832049846649169,0.5491553544998169
-0.0856368988752365,0.1840024143457412,-0.0358814634382724,-0.4623383283615112,-0.1091346964240074,0.0026408722624182,0.0,0.0,0.4333926439285278,0.0267621278762817
-0.0859786048531532,0.1738633066415786,-0.034042727202177,-0.4506357312202453,-0.1092582270503044,-0.0024707231204956,0.0,0.0,0.4788179397583008,0.0727754831314086
-0.0862636566162109,0.1640383303165435,-0.0282919909805059,-0.4366812407970428,-0.1094658598303794,-0.0041527366265654,0.0,0.0,-0.0041838884353637,-0.7789273858070374
-0.0866019278764724,0.1536012440919876,-0.0349277928471565,-0.4637914597988128,-0.1083781644701957,0.0217538550496101,0.0,0.0,0.858312726020813,0.3839051723480224
-0.0868730545043945,0.1431130915880203,-0.028297159820795,-0.4660555124282837,-0.107199490070343,0.0235735010355711,0.0,0.0,0.9576455354690552,0.3976647853851318
-0.0869847312569618,0.1326979696750641,-0.0128351543098688,-0.4627770483493805,-0.1055434644222259,0.0331203080713748,0.0,0.0,0.9890973567962646,0.588001012802124
-0.0867912322282791,0.1226501315832138,0.0183627754449844,-0.4464992880821228,-0.1045571565628051,0.0197260975837707,0.0,0.0,0.9775223731994628,-0.6989494562149048
-0.0864259749650955,0.1126608699560165,0.0337058827280998,-0.4437708854675293,-0.1017581820487976,0.055979561060667,0.0,0.0,0.9771628379821776,-0.7440770268440247
-0.0860357284545898,0.1034080386161804,0.0347552523016929,-0.4109540581703186,-0.0975178629159927,0.084806278347969,0.0,0.0,0.8869223594665527,-0.3838245868682861
-0.0855267494916915,0.0948226079344749,0.0464855432510376,-0.3812902271747589,-0.0931392684578895,0.087571769952774,0.0,0.0,0.8488892316818237,-0.6051346659660339
-0.0848479270935058,0.0867196917533874,0.061866533011198,-0.3597660064697265,-0.0871820524334907,0.1191442981362342,0.0,0.0,0.6471023559570312,-0.1479583382606506
-0.0840414986014366,0.0784695744514465,0.0741893351078033,-0.3663095831871032,-0.0807812809944152,0.1280150711536407,0.0,0.0,0.8036623001098633,-0.2473788261413574
-0.0832480415701866,0.0704371780157089,0.0731687396764755,-0.3566749691963196,-0.0746655389666557,0.1223148852586746,0.0,0.0,0.9059991836547852,0.3054335117340088
-0.0822836905717849,0.0632623732089996,0.0898199155926704,-0.3185667991638183,-0.0681157484650611,0.1309957057237625,0.0,0.0,0.5435640811920166,0.269270658493042
-0.0813055038452148,0.0562651008367538,0.0913120731711387,-0.3107074797153473,-0.0616822056472301,0.1286709755659103,0.0,0.0,0.7650727033615112,0.4388492107391357
-0.0804083794355392,0.0499321557581424,0.0838500037789344,-0.2812369167804718,-0.0558768659830093,0.1161064133048057,0.0,0.0,0.7111736536026001,0.8421039581298828
-0.0793050751090049,0.0440513230860233,0.1059844121336937,-0.2612150013446808,-0.0515828840434551,0.0858796015381813,0.0,0.0,0.2491728067398071,-0.6924533247947693
-0.0782730132341384,0.0384123884141445,0.0975440815091133,-0.2504338920116424,-0.0459834523499012,0.1119885444641113,0.0,0.0,0.4015251398086548,0.4032837152481079
-0.077282428741455,0.0331096276640892,0.093730553984642,-0.2355268448591232,-0.0407148636877536,0.1053715795278549,0.0,0.0,0.1922829151153564,0.8173544406890869
-0.0762336701154708,0.0277193170040845,0.1012000888586044,-0.2394747138023376,-0.0370924398303031,0.0724488720297813,0.0,0.0,0.7036771774291992,0.4588110446929931
-0.0752827674150466,0.0226444341242313,0.0919924825429916,-0.2254743427038192,-0.0340278036892414,0.0612928792834281,0.0,0.0,0.4532009363174438,0.4733784198760986
-0.0744489654898643,0.0176461562514305,0.0809035822749137,-0.2220921963453292,-0.0315742567181587,0.0490708202123642,0.0,0.0,0.7290236949920654,0.8109426498413086
-0.0734054595232009,0.0131504153832793,0.1032677292823791,-0.199786901473999,-0.0305005684494972,0.0214737225323915,0.0,0.0,0.586432695388794,-0.2746868133544922
-0.072292611002922,0.0085623003542423,0.1099155768752098,-0.203889861702919,-0.0291482992470264,0.0270452909171581,0.0,0.0,0.8347628116607666,0.5869770050048828
-0.0709366798400878,0.0046185944229364,0.1349292397499084,-0.1752643883228302,-0.028490662574768,0.0131525341421365,0.0,0.0,0.2806035280227661,0.50435471534729
-0.0695431679487228,0.0009590959525667,0.1397370249032974,-0.1626507639884948,-0.0288688540458679,-0.0075639323331415,0.0,0.0,0.4776397943496704,-0.7902445793151855
-0.0679524391889572,-0.0014970921911299,0.1394518911838531,-0.1089245304465293,-0.0093959849327802,0.389579564332962,1.0,0.0,0.5487303733825684,-0.3130278587341308
-0.0662059783935546,-0.0032943510450422,0.142076164484024,-0.0801175087690353,0.0232171565294265,0.6528342366218567,1.0,1.0,0.8660745620727539,0.3829504251480102
-0.0646615028381347,-0.0039193774573504,0.1368695795536041,-0.0283135585486888,0.0392290987074375,0.318534791469574,1.0,1.0,0.2419184446334839,-0.8305884599685669
-0.0633756667375564,-0.0037879848387092,0.1283261924982071,0.0058254576288163,0.0394572541117668,0.00452221930027,0.0,1.0,-0.9478131532669068,0.0266686677932739
-0.0622513778507709,-0.0038955234922468,0.1259592175483703,-0.004484221804887,0.0260615423321723,-0.2679492831230163,0.0,1.0,-0.4210599064826965,-0.2268821001052856
-0.0611578002572059,-0.0036511921789497,0.1158329099416732,0.0109489886090159,0.0196792334318161,-0.1276300549507141,1.0,1.0,0.0155138969421386,-0.9929277300834656
-0.0603067390620708,-0.002958180848509,0.0903842598199844,0.030853483825922,0.0144821796566247,-0.103933610022068,1.0,1.0,-0.5529857277870178,-0.9531586170196532
-0.0595905296504497,-0.0023844027891755,0.0760227292776107,0.0255283713340759,0.0101399142295122,-0.086838275194168,1.0,1.0,-0.2225197553634643,-0.9382770657539368
-0.0589984878897666,-0.0019430899992585,0.0626411437988281,0.0196251943707466,0.0067560491152107,-0.0676707401871681,1.0,1.0,-0.6321988105773926,-0.8706381320953369
-0.0585144981741905,-0.001607742276974,0.0510619059205055,0.0149083547294139,0.0041424543596804,-0.0522653050720691,1.0,1.0,-0.4503868818283081,-0.7819399833679199
-0.058142852038145,-0.0013283634325489,0.0393968746066093,0.0124148223549127,0.0019363310420885,-0.0441162511706352,1.0,1.0,-0.1040236949920654,-0.6430186629295349
-0.0578416809439659,-0.0013266467722132,0.0301134195178747,6.932560791028664e-05,0.0019369517685845,1.6230598703259602e-05,1.0,1.0,-0.2176006436347961,-0.4281383752822876
-0.0575861930847168,-0.0014134072698652,0.0250692218542099,-0.0038663134910166,0.0024231278803199,0.0097322706133127,1.0,1.0,-0.6440815925598145,-0.1622953414916992
