x_pos,y_pos,x_vel,y_vel,angle,ang_vel,leg_1,leg_2,main_booster,lat_booster
-0.001577568007633,1.4032297134399414,-0.15941022336483,-0.3417928516864776,0.001477662124671,0.0291271451860666,0.0,0.0,-0.4066493511199951,0.5619125366210938
-0.003164482070133,1.395165205001831,-0.1585649400949478,-0.3584234118461609,0.0013589232694357,-0.0023743784986436,0.0,0.0,-0.5171639919281006,0.2941820621490478
-0.0048109055496752,1.38670551776886,-0.1641490012407302,-0.3759890496730804,0.0008676263387314,-0.0098269032314419,0.0,0.0,0.3143807649612427,0.6936501264572144
-0.006570816040039,1.3784449100494385,-0.173520416021347,-0.3671380281448364,-0.0015719857765361,-0.0487970262765884,0.0,0.0,0.0660655498504638,0.5267188549041748
-0.0082608219236135,1.370422124862671,-0.1652435958385467,-0.3565755188465118,-0.0052868900820612,-0.0743050500750541,0.0,0.0,-0.3483020067214966,0.1613502502441406
-0.0100173000246286,1.3620048761367798,-0.1714595854282379,-0.3741219639778137,-0.0094284890219569,-0.0828396454453468,0.0,0.0,-0.2095193862915039,0.6603680849075317
-0.0117921829223632,1.3531925678253174,-0.1715882271528244,-0.3917028307914734,-0.0152705898508429,-0.1168527230620384,0.0,0.0,-0.1352148056030273,0.0214881896972656
-0.0136375427246093,1.3439862728118896,-0.1781655102968216,-0.409248024225235,-0.0215681064873933,-0.1259621083736419,0.0,0.0,-0.2496737241744995,0.6883792877197266
-0.0155017850920557,1.3343918323516846,-0.1782353520393371,-0.4265574812889099,-0.0296706091612577,-0.1620648801326751,0.0,0.0,-0.3435375094413757,0.6723371744155884
-0.0173869132995605,1.3244059085845947,-0.1784889847040176,-0.4440517425537109,-0.0395832508802413,-0.1982713192701339,0.0,0.0,-0.1750617027282714,0.290596604347229
-0.0193472858518362,1.3140265941619873,-0.1855247914791107,-0.4616030156612396,-0.0499869175255298,-0.2080924063920974,0.0,0.0,-0.2964963912963867,0.9142236709594728
-0.0213040355592966,1.3032472133636477,-0.1826154142618179,-0.479575902223587,-0.0629182010889053,-0.2586494386196136,0.0,0.0,-0.4246350526809692,0.5484811067581177
-0.023286247625947,1.2920738458633425,-0.1833109706640243,-0.4972863495349884,-0.0776814296841621,-0.2952921390533447,0.0,0.0,-0.0577569603919982,0.4920153617858886
-0.0253474228084087,1.280509352684021,-0.1907166093587875,-0.5148496627807617,-0.092962272465229,-0.3056448400020599,0.0,0.0,0.0485345125198364,0.3656153678894043
-0.0273510925471782,1.2693229913711548,-0.1848829984664917,-0.4982131719589233,-0.1083467826247215,-0.3077183365821838,0.0,0.0,-0.0249282121658325,-0.5422466397285461
-0.0294713973999023,1.2577447891235352,-0.1969137191772461,-0.5157513618469238,-0.1233831048011779,-0.3007538914680481,0.0,0.0,0.0122431516647338,0.6557772159576416
-0.0314618125557899,1.2465364933013916,-0.1822123229503631,-0.4996181726455688,-0.1401632279157638,-0.3356328904628753,0.0,0.0,-0.5644375681877136,-0.5207306146621704
-0.033566664904356,1.2349404096603394,-0.1939517706632614,-0.517025887966156,-0.1566949635744094,-0.3306647539138794,0.0,0.0,-0.4803769588470459,-0.4002313613891601
-0.0357554443180561,0.0,-0.2018297612667083,-0.5345973372459412,-0.1737757325172424,-0.341646283864975,0.0,0.0,0.0672332048416137,-0.9467154145240784
-0.038100242614746,1.2111533880233765,-0.2188338786363601,-0.5263902544975281,-0.1895044893026352,-0.3146035075187683,0.0,0.0,0.3774709701538086,-0.8745422959327698
-0.0403605476021766,1.1998770236968994,-0.2117261588573455,-0.5030616521835327,-0.2039085179567337,-0.2881067991256714,0.0,0.0,-0.641042172908783,-0.961212992668152
-0.0427803993225097,1.1882271766662598,-0.2290432751178741,-0.5196151733398438,-0.2169854938983917,-0.2615627646446228,0.0,0.0,-0.4479200839996338,-0.8230414390563965
-0.0453367233276367,1.1762014627456665,-0.2434606999158859,-0.5363129377365112,-0.2293296307325363,-0.246904656291008,0.0,0.0,-0.1062036156654357,-0.5188180208206177
-0.0480164512991905,1.163791298866272,-0.2561777234077453,-0.5534435510635376,-0.2413224279880523,-0.2398771345615387,0.0,0.0,-0.2834792137145996,-0.7576236128807068
-0.0508553497493267,1.1510182619094849,-0.2734137177467346,-0.5694425702095032,-0.2519945502281189,-0.2134613990783691,0.0,0.0,-0.425956130027771,-0.6734018325805664
-0.0538493171334266,1.1378610134124756,-0.2900403141975403,-0.5864003300666809,-0.2615476250648498,-0.1910606473684311,0.0,0.0,0.5676343441009521,-0.4175509810447693
-0.0567504875361919,1.1253098249435425,-0.2802271842956543,-0.5596305727958679,-0.2716617286205292,-0.2022821456193924,0.0,0.0,0.4948208332061767,-0.9516445398330688
-0.0597404465079307,1.1135400533676147,-0.2903285324573517,-0.5247408151626587,-0.2805472016334533,-0.1777089238166809,0.0,0.0,0.1462829113006591,-0.7331272959709167
-0.0628243461251258,1.1022257804870603,-0.3005435168743133,-0.5043865442276001,-0.2886188328266144,-0.1614328473806381,0.0,0.0,-0.4822836518287658,-0.8313249349594116
-0.0660635977983474,1.090545654296875,-0.3172170221805572,-0.5204582810401917,-0.295531302690506,-0.138249009847641,0.0,0.0,-0.2530910968780517,-0.7163079380989075
-0.0694434195756912,1.0785053968429563,-0.3320939540863037,-0.5363346934318542,-0.3016116917133331,-0.1216074973344802,0.0,0.0,-0.4778680801391601,-0.1070467233657836
-0.0729132667183876,1.0660731792449951,-0.3405420482158661,-0.553892970085144,-0.3082810640335083,-0.1333872228860855,0.0,0.0,-0.499614953994751,-0.6362313628196716
-0.0765262618660926,1.0532808303833008,-0.3557268977165222,-0.5697451233863831,-0.3140612244606018,-0.1156038269400596,0.0,0.0,0.3371715545654297,-0.6314953565597534
-0.0802419632673263,1.0405569076538086,-0.3665607571601867,-0.5665959715843201,-0.3192547559738159,-0.1038704067468643,0.0,0.0,-0.3023399114608764,-0.1633638143539428
-0.084047794342041,1.0274412631988523,-0.3750190436840057,-0.5841544270515442,-0.3250420093536377,-0.1157452687621116,0.0,0.0,-0.503268837928772,0.0367966890335083
-0.087943747639656,1.0139341354370115,-0.3834730386734009,-0.6017137765884399,-0.331424355506897,-0.1276469230651855,0.0,0.0,-0.1161288022994995,-0.2817123532295227
-0.0919297188520431,1.000035285949707,-0.3919187784194946,-0.6192740201950073,-0.338403046131134,-0.1395736038684845,0.0,0.0,-0.2569622993469238,0.2865508794784546
-0.0960055366158485,0.9857450127601624,-0.4003523290157318,-0.6368352174758911,-0.345979243516922,-0.1515237987041473,0.0,0.0,-0.3180825710296631,0.1999341249465942
-0.1001710891723632,0.9710636734962464,-0.4087698459625244,-0.6543974280357361,-0.3541540503501892,-0.1634959876537323,0.0,0.0,0.1899200677871704,0.446390151977539
-0.1042551025748252,0.9565967917442322,-0.4001635015010834,-0.6450339555740356,-0.3628343343734741,-0.1736058443784713,0.0,0.0,-0.7043563723564148,-0.0366021990776062
-0.1084282845258712,0.9417389035224916,-0.4085373878479004,-0.6625984311103821,-0.3721152544021606,-0.1856181621551513,0.0,0.0,0.2043704986572265,0.821864128112793
-0.1123955696821212,0.9269306659698486,-0.3858948647975921,-0.6610056757926941,-0.3836219608783722,-0.2301347255706787,0.0,0.0,-0.5038760304450989,0.0564590692520141
-0.1164511665701866,0.9117324948310852,-0.3942114114761352,-0.6785756349563599,-0.395731121301651,-0.2421827316284179,0.0,0.0,0.2500427961349487,-0.1954257488250732
-0.1203711479902267,0.8966546058654785,-0.3804666399955749,-0.673383891582489,-0.4080960154533386,-0.2472978383302688,0.0,0.0,0.975667119026184,0.0932980775833129
-0.1242833137512207,0.8817011713981628,-0.378983736038208,-0.6681815385818481,-0.4212898015975952,-0.263875663280487,0.0,0.0,0.5473966598510742,-0.7391929626464844
-0.1281660050153732,0.8667864203453064,-0.3770390748977661,-0.6662902235984802,-0.4334817826747894,-0.2438389807939529,0.0,0.0,0.7490854263305664,-0.5220610499382019
-0.1319121420383453,0.8521059155464172,-0.364041268825531,-0.6557735204696655,-0.4450080096721649,-0.2305244952440261,0.0,0.0,0.0812990665435791,-0.8353441953659058
-0.1356430947780609,0.8378798961639404,-0.3636137843132019,-0.6353095769882202,-0.4554004669189453,-0.2078484296798706,0.0,0.0,0.6292998790740967,0.3223128318786621
-0.1392349302768707,0.8243977427482605,-0.3486658334732055,-0.6026891469955444,-0.4670049846172333,-0.2320902347564697,0.0,0.0,0.6930556297302246,-0.938229501247406
-0.1427650451660156,0.8112875819206238,-0.3437272906303406,-0.5858243107795715,-0.4772863388061523,-0.2056273221969604,0.0,0.0,0.8251230716705322,-0.5446778535842896
-0.1459775865077972,0.798541247844696,-0.3129139542579651,-0.5694087147712708,-0.4865716397762298,-0.1857062429189682,0.0,0.0,0.7756836414337158,-0.769767165184021
-0.1490146666765213,0.7865490317344666,-0.2961992621421814,-0.5356658101081848,-0.4949697852134704,-0.1679632663726806,0.0,0.0,0.7463462352752686,-0.5921787619590759
-0.1518440246582031,0.7747287154197693,-0.2762988209724426,-0.5277590155601501,-0.5024257898330688,-0.1491205990314483,0.0,0.0,0.7666049003601074,-0.3787187337875366
-0.1543415039777755,0.7636369466781616,-0.2426269501447677,-0.4955974519252777,-0.5104749798774719,-0.1609837263822555,0.0,0.0,0.7552639245986938,-0.9054566621780396
-0.1565766334533691,0.7527531981468201,-0.2177828848361969,-0.4858773052692413,-0.5169657468795776,-0.1298152208328247,0.0,0.0,0.5122890472412109,-0.9634776711463928
-0.1588320732116699,0.7421674132347107,-0.2210239171981811,-0.4722110033035278,-0.5221136808395386,-0.1029583364725112,0.0,0.0,0.8063904047012329,-0.8616278767585754
-0.1606898307800293,0.7322962880134583,-0.1825040429830551,-0.4399739801883697,-0.525842010974884,-0.0745660364627838,0.0,0.0,0.9385404586791992,-0.9614967703819276
-0.1621375083923339,0.7229862213134766,-0.1430065631866455,-0.4144600331783294,-0.5278522968292236,-0.0402061603963375,0.0,0.0,0.8389996290206909,-0.9443038702011108
-0.1631816923618316,0.7144674062728882,-0.1040058881044387,-0.3787719309329986,-0.5283163785934448,-0.0092816483229398,0.0,0.0,0.842341423034668,-0.7259215712547302
-0.1639867722988128,0.7068110108375549,-0.0807593017816543,-0.3401899635791778,-0.5280365347862244,0.0055964980274438,0.0,0.0,0.7758365869522095,-0.6535556316375732
-0.1646614968776703,0.699268639087677,-0.0685123056173324,-0.3348172903060913,-0.5268502831459045,0.0237248726189136,0.0,0.0,0.8350701332092285,-0.8838818073272705
-0.1651829779148101,0.6924941539764404,-0.0541208088397979,-0.3003154993057251,-0.5245921611785889,0.0451619252562522,0.0,0.0,0.6646764278411865,-0.8661487698554993
-0.1654558181762695,0.6859508752822876,-0.0305300951004028,-0.2895728349685669,-0.5209088325500488,0.0736667364835739,0.0,0.0,0.2991900444030761,-0.8723672032356262
-0.1656009703874588,0.679680347442627,-0.0188509263098239,-0.2770388722419739,-0.5159677863121033,0.098820760846138,0.0,0.0,0.3339903354644775,-0.8473847508430481
-0.1657101660966873,0.6734799742698669,-0.0163238868117332,-0.2735432386398315,-0.5098420977592468,0.1225125789642334,0.0,0.0,-0.3390132188796997,-0.827374279499054
-0.1659561097621917,0.6669468283653259,-0.0313600227236747,-0.2878657281398773,-0.502211332321167,0.1526155918836593,0.0,0.0,0.1261183023452758,-0.9182631969451904
-0.166033074259758,0.6608390808105469,-0.0156899280846118,-0.2685528099536896,-0.4932304918766022,0.1796175986528396,0.0,0.0,0.1440744400024414,-0.895632803440094
-0.1660869568586349,0.6546023488044739,-0.0145560707896947,-0.2739333808422088,-0.4829746782779693,0.2051165550947189,0.0,0.0,-0.4654232263565063,-0.8614598512649536
-0.1662590056657791,0.6480295658111572,-0.0274657066911458,-0.2885792553424835,-0.4715741872787475,0.2280097305774688,0.0,0.0,-0.7062150239944458,-0.927480399608612
-0.1665699928998947,0.6411212086677551,-0.0429091826081275,-0.3030834794044494,-0.4585285186767578,0.2609137892723083,0.0,0.0,0.1111530065536499,-0.7781980037689209
-0.1668579131364822,0.6345268487930298,-0.0415996983647346,-0.2889375984668731,-0.4444837868213653,0.2808945178985595,0.0,0.0,0.1834404468536377,-0.6387618780136108
-0.1670365333557129,0.6281647682189941,-0.0314533114433288,-0.2785094976425171,-0.4296647310256958,0.2963809370994568,0.0,0.0,-0.7219750881195068,-0.6081927418708801
-0.1673236787319183,0.6214565634727478,-0.0432912856340408,-0.2937740683555603,-0.4138919115066528,0.3154565691947937,0.0,0.0,-0.3959358930587768,-0.2220267057418823
-0.1676673889160156,0.6143597960472107,-0.0484820231795311,-0.3113536536693573,-0.3987073600292206,0.3036908805370331,0.0,0.0,0.4791488647460937,0.2198772430419922
-0.1679575890302658,0.6073755621910095,-0.0425613150000572,-0.3066749274730682,-0.3842476308345794,0.2891944944858551,0.0,0.0,0.1925796270370483,-0.0170308351516723
-0.1681675016880035,0.6003008484840393,-0.034278281033039,-0.3109171688556671,-0.3701426684856415,0.2820995450019836,0.0,0.0,-0.4990327954292297,0.5036203861236572
-0.1683953255414962,0.5928114056587219,-0.0346556007862091,-0.3298430144786834,-0.3576037287712097,0.2507790327072143,0.0,0.0,-0.367512583732605,0.1864914894104004
-0.1686731278896331,0.5849318504333496,-0.0391576550900936,-0.3474129140377044,-0.3456387519836426,0.2392992675304412,0.0,0.0,0.4943537712097168,-0.4252259731292724
-0.1686809509992599,0.5776665806770325,-0.0119898337870836,-0.3202583491802215,-0.3339084684848785,0.2346058338880539,0.0,0.0,-0.9466108679771424,-0.0089123845100402
-0.1687352210283279,0.5700107216835022,-0.0161377228796482,-0.3378254771232605,-0.3227428495883941,0.2233128547668457,0.0,0.0,-0.8501301407814026,0.2021102905273437
-0.1688342094421386,0.5619639754295349,-0.0201067440211772,-0.3553909659385681,-0.3121365010738373,0.2121270596981048,0.0,0.0,0.5959231853485107,-0.6272379755973816
-0.1687470376491546,0.5546250939369202,-0.0023289737291634,-0.3238415718078613,-0.300704687833786,0.228636547923088,0.0,0.0,-0.9571734070777892,0.2435210943222046
-0.1687009781599044,0.5468952655792236,-0.0059399297460913,-0.3414063453674316,-0.2898198664188385,0.2176962345838546,0.0,0.0,-0.938072681427002,0.3526597023010254
-0.1686941087245941,0.5387742519378662,-0.0093712005764245,-0.358969509601593,-0.2794750332832336,0.2068965882062912,0.0,0.0,-0.7068799138069153,-0.0411981344223022
-0.1687247306108474,0.5302618145942688,-0.0126233156770467,-0.3765311241149902,-0.2696625292301178,0.1962503492832183,0.0,0.0,-0.901261031627655,0.1146334409713745
-0.1687910109758377,0.5213577747344971,-0.0156971774995327,-0.3940912783145904,-0.2603739798069,0.1857712566852569,0.0,0.0,-0.4472994208335876,0.4534392356872558
-0.168891042470932,0.5120618343353271,-0.0185940694063901,-0.4116500914096832,-0.2516002953052521,0.1754739135503769,0.0,0.0,-0.2190874218940735,0.3796572685241699
-0.1690229475498199,0.5023737549781799,-0.0213156454265117,-0.4292075932025909,-0.2433316111564636,0.1653738319873809,0.0,0.0,0.2878690958023071,0.2971242666244507
-0.1689664870500564,0.4929001331329345,-0.0025279708206653,-0.4197180867195129,-0.2350267618894577,0.1660970896482467,0.0,0.0,-0.8866836428642273,0.8580267429351807
-0.168858528137207,0.4829984903335571,0.0052004591561853,-0.4391879141330719,-0.2293414771556854,0.1137057170271873,0.0,0.0,-0.086130142211914,-0.332534909248352
-0.1687770783901214,0.4727040231227875,0.0029918211512267,-0.4567402005195617,-0.2241264879703521,0.1042995601892471,0.0,0.0,-0.6714528203010559,-0.5256168246269226
-0.1687583029270172,0.4620336294174194,-0.0038217022083699,-0.4733850061893463,-0.2183608710765838,0.1153123974800109,0.0,0.0,0.318755030632019,0.6785953044891357
-0.1684867888689041,0.4516991078853607,0.0230604149401187,-0.4587148129940033,-0.2142248153686523,0.0827212184667587,0.0,0.0,-0.7508174180984497,-0.2057293653488159
-0.1682367324829101,0.4409712553024292,0.0213361829519271,-0.4762645363807678,-0.2105159163475036,0.0741777569055557,0.0,0.0,-0.4884623289108276,-0.4297221899032593
-0.1680063307285308,0.4298500418663025,0.0197657160460948,-0.493813544511795,-0.2072177976369857,0.0659622475504875,0.0,0.0,0.5735341310501099,-0.3330899477005005
-0.1675460785627365,0.4195167422294616,0.04277253895998,-0.4588057398796081,-0.2039401531219482,0.0655527859926223,0.0,0.0,-0.7090350389480591,-0.2897741794586181
-0.1671023368835449,0.4087899029254913,0.0414962619543075,-0.4763537049293518,-0.2010373771190643,0.0580556914210319,0.0,0.0,-0.1154955029487609,-0.2908099889755249
-0.1666734665632248,0.3976694643497467,0.0403599515557289,-0.4939010739326477,-0.1984899193048477,0.0509491078555583,0.0,0.0,0.4945516586303711,-0.9094296097755432
-0.1661157608032226,0.3870830535888672,0.0516512282192707,-0.4699597060680389,-0.1943469047546386,0.0828603059053421,0.0,0.0,-0.4806344509124756,-0.0362942218780517
-0.1655698716640472,0.3761030733585357,0.05077900364995,-0.4875069260597229,-0.1905171126127243,0.0765957832336425,0.0,0.0,0.7113401889801025,-0.3384885787963867
-0.1649715453386306,0.3658959567546844,0.0567010231316089,-0.4532497525215149,-0.1873743683099746,0.0628550499677658,0.0,0.0,0.0685594081878662,-0.4150184392929077
-0.1643380224704742,0.3557741641998291,0.0605653636157512,-0.4495092332363128,-0.1845732927322387,0.0560214221477508,0.0,0.0,-0.6023707985877991,-0.18515145778656
-0.1637121140956878,0.3452583253383636,0.0600480139255523,-0.4670543968677521,-0.1820152252912521,0.0511614792048931,0.0,0.0,0.7493643760681152,-0.6916177272796631
-0.1632160246372223,0.3352268636226654,0.0462793000042438,-0.4454376995563507,-0.1786792278289795,0.0667199194431305,0.0,0.0,0.0079648494720458,-0.3030959367752075
-0.162583440542221,0.3254312872886657,0.0598236806690692,-0.43494912981987,-0.1752365082502365,0.0688544884324073,0.0,0.0,0.0543769598007202,0.0344240665435791
-0.1618750542402267,0.3155791461467743,0.0673874467611312,-0.4374690651893616,-0.1717785447835922,0.069159410893917,0.0,0.0,0.2105361223220825,-0.3106069564819336
-0.1609690636396408,0.3061317503452301,0.0867963582277298,-0.4194492101669311,-0.1679679751396179,0.0762111246585846,0.0,0.0,-0.2598592042922973,-0.631069004535675
-0.160115048289299,0.2963083684444427,0.0803925842046737,-0.4360376000404358,-0.1629538983106613,0.100281573832035,0.0,0.0,0.3060371875762939,0.3054746389389038
-0.1590406447649002,0.2870631814002991,0.101988635957241,-0.4103080332279205,-0.1575023829936981,0.1090303808450698,0.0,0.0,-0.8880428075790405,0.160293698310852
-0.1579658538103103,0.2774238288402557,0.1020829454064369,-0.4278519749641418,-0.1521075069904327,0.1078974157571792,0.0,0.0,-0.269625186920166,-0.5265188813209534
-0.1569307297468185,0.267405241727829,0.0970614328980445,-0.4446293115615845,-0.1456728130578994,0.1286938488483429,0.0,0.0,-0.2700962424278259,-0.0583657622337341
-0.1558934152126312,0.2569924592971802,0.0972718745470047,-0.4621734619140625,-0.1392395198345184,0.1286660134792328,0.0,0.0,0.6036887168884277,0.3612582683563232
-0.1547141075134277,0.246830329298973,0.1110912412405014,-0.4510251879692077,-0.1324184387922287,0.1364211738109588,0.0,0.0,0.8101868629455566,0.2257444858551025
-0.1535744667053222,0.2373078465461731,0.1076763421297073,-0.4226765632629394,-0.1261641830205917,0.1250853389501571,0.0,0.0,-0.3315867185592651,0.131452202796936
-0.1524306237697601,0.2273911088705063,0.1080114841461181,-0.4402197599411011,-0.119830198585987,0.1266800016164779,0.0,0.0,0.0805327892303466,0.7168654203414917
-0.1511977165937423,0.2176213562488556,0.1182626858353614,-0.4338182210922241,-0.1148354262113571,0.0998955741524696,0.0,0.0,0.4355987310409546,0.0842747688293457
-0.1498841345310211,0.2081438601016998,0.1260971277952194,-0.4208256006240845,-0.1096048206090927,0.1046120300889015,0.0,0.0,-0.3775860071182251,-0.0585764050483703
-0.1485649049282074,0.1982719004154205,0.1264972686767578,-0.4383672177791595,-0.104217879474163,0.1077386513352394,0.0,0.0,0.3905789852142334,-0.0992414951324462
-0.1470982581377029,0.1888511925935745,0.1406717002391815,-0.4182911217212677,-0.0982709974050521,0.1189375668764114,0.0,0.0,-0.1437079906463623,-0.4404480457305908
-0.1456253975629806,0.1790360957384109,0.1410820186138153,-0.4358331263065338,-0.0921202823519706,0.1230144053697586,0.0,0.0,0.518254280090332,-0.3206926584243774
