x_pos,y_pos,x_vel,y_vel,angle,ang_vel,leg_1,leg_2,main_booster,lat_booster
-0.0015145301586017,1.4033329486846924,-0.1541897356510162,-0.3372074663639068,0.0024576357100158,0.0485305003821849,0.0,0.0,-0.0668564037616157,-0.4452321565101744
-0.0030208588577806,1.395477533340454,-0.1537487804889679,-0.3491368293762207,0.0055440315045416,0.0617341920733451,0.0,0.0,-0.5478768338219342,0.5507031677768555
-0.004466819576919,1.387326717376709,-0.1470740884542465,-0.3622713685035705,0.0079885367304086,0.048894677311182,0.0,0.0,0.875604852689696,0.5128694111888098
-0.0060139656998217,1.379732370376587,-0.156399130821228,-0.3375402987003326,0.0096595743671059,0.0334239080548286,0.0,0.0,-0.8370208588816552,0.773377673253673
-0.0074819563888013,1.371849775314331,-0.1473161727190017,-0.3503375649452209,0.0101635381579399,0.010080212727189,0.0,0.0,-0.3344834539047447,0.6456472513984404
-0.008883667178452,1.3636759519577026,-0.1397905051708221,-0.363279789686203,0.0097895143553614,-0.0074813989922404,0.0,0.0,-0.3400689618440569,-0.9103032861345592
-0.0103569030761718,1.355209469795227,-0.1495378911495208,-0.3762977719306946,0.0119752902537584,0.0437196865677833,0.0,0.0,-0.3112895723208719,0.7835199043536389
-0.0117519376799464,1.346455454826355,-0.1404573172330856,-0.3890770077705383,0.0129140606150031,0.0187774710357189,0.0,0.0,0.2043041766895921,-0.4877622311152343
-0.0131638525053858,1.338324785232544,-0.1427934765815735,-0.3613786995410919,0.0145020708441734,0.0317632816731929,0.0,0.0,-0.1187367572557425,-0.899107936786386
-0.0146483425050973,1.3299065828323364,-0.1525615900754928,-0.3741807341575622,0.0185627192258834,0.0812204107642173,0.0,0.0,-0.5549925946917136,0.3996842311467363
-0.0161363594233989,1.3211976289749146,-0.1535961776971817,-0.387136161327362,0.0233117155730724,0.09498842805624,0.0,0.0,-0.9837774429939083,-0.9193657284363695
-0.0176933296024799,1.3121936321258545,-0.1628184020519256,-0.4003049433231354,0.0303587429225444,0.1409533321857452,0.0,0.0,0.8459487720050665,0.5394917776863629
-0.0190836898982524,1.3040823936462402,-0.1462336033582687,-0.3606541454792022,0.0374797619879245,0.142433613538742,0.0,0.0,-0.1283307637323867,0.6178742067899659
-0.0204282756894826,1.295677900314331,-0.140971690416336,-0.3737117648124695,0.0439232401549816,0.1288814842700958,0.0,0.0,0.1170913674945786,-0.0627334064213875
-0.0217124931514263,1.287824630737305,-0.1360862106084823,-0.3492787182331085,0.0515034161508083,0.1516170799732208,0.0,0.0,0.5105403907857073,-0.1002435799785006
-0.022923182696104,1.2800958156585691,-0.1298886239528656,-0.3438272774219513,0.0602401047945022,0.1747498214244842,0.0,0.0,0.7704568208145612,0.6520970538910924
-0.0239932052791118,1.273476243019104,-0.1156118959188461,-0.2945705354213714,0.068761445581913,0.1704423576593399,0.0,0.0,0.7023552200378749,-0.0152073375334836
-0.0249599460512399,1.2671594619750977,-0.1066506132483482,-0.2812287211418152,0.0786546245217323,0.1978816390037536,0.0,0.0,0.1600545648362474,-0.7614815540125957
-0.0259723663330078,1.2614057064056396,-0.1134942173957824,-0.2564102709293365,0.0908164232969284,0.2432578057050705,0.0,0.0,-0.910231030448613,0.0348907027234117
-0.0270055774599313,1.2553633451461792,-0.116255298256874,-0.2693901062011719,0.1036576703190803,0.256848394870758,0.0,0.0,-0.6838050356414509,-0.3106661552832167
-0.0280619617551565,1.2490326166152954,-0.1192312017083168,-0.2823655903339386,0.1171773746609687,0.2704186141490936,0.0,0.0,-0.6266980534714857,0.6893441682381701
-0.0290882103145122,1.2424194812774658,-0.1154717579483985,-0.2949753105640411,0.129973217844963,0.2559398710727691,0.0,0.0,-0.9874234321515802,-0.8619074322072321
-0.0301949493587017,1.2355067729949951,-0.1255231201648712,-0.3085883259773254,0.1447935402393341,0.2964325845241546,0.0,0.0,-0.4147669418123094,-0.0176219137792603
-0.0313315391540527,1.228306770324707,-0.1291591227054596,-0.3215751349925995,0.1602834910154342,0.3098271489143371,0.0,0.0,0.2581969952733411,-0.2605906175138132
-0.0326855666935443,1.2215197086334229,-0.1510176956653595,-0.3034055829048157,0.1759395897388458,0.3131499588489532,0.0,0.0,0.7371872844937866,-0.533214434488437
-0.0344038009643554,1.2154672145843506,-0.188696339726448,-0.2710939347743988,0.1928779929876327,0.3387680649757385,0.0,0.0,-0.8142564567655082,0.7157055597844144
-0.0361034385859966,1.2091491222381592,-0.1859951913356781,-0.2829742431640625,0.2090291231870651,0.3230223655700683,0.0,0.0,0.4755704785066552,0.5729312627602491
-0.0380751602351665,1.2036067247390747,-0.2123816460371017,-0.248555839061737,0.224390909075737,0.3072361350059509,0.0,0.0,-0.4937261414740097,-0.6158996978105216
-0.0401467308402061,1.1977635622024536,-0.2244261056184768,-0.2624261081218719,0.2419105619192123,0.3503926992416382,0.0,0.0,0.813736753478379,-0.9337491922560242
-0.0424860939383506,1.1923757791519165,-0.2535789608955383,-0.2428091168403625,0.2619234621524811,0.4002580642700195,0.0,0.0,0.0253876494965121,-0.4313402096874296
-0.0449967384338378,0.0,-0.2712687253952026,-0.2217835038900375,0.2826296389102936,0.4141237735748291,0.0,0.0,-0.7785479426383972,0.8447201251983643
-0.0474994666874408,1.1822997331619265,-0.2695335447788238,-0.2336397320032119,0.3024800717830658,0.3970089554786682,0.0,0.0,-0.793141782283783,0.9456413984298706
-0.0499937050044536,1.1768823862075806,-0.2675633728504181,-0.2446548640727996,0.3212850391864776,0.3760994672775268,0.0,0.0,-0.773208737373352,0.9194715023040771
-0.0524780265986919,1.1712032556533811,-0.2654496133327484,-0.256287157535553,0.3390367925167084,0.3550358116626739,0.0,0.0,-0.8915584087371826,0.9727132320404052
-0.0549440383911132,1.1652798652648926,-0.262159913778305,-0.2669980227947235,0.3553477227687835,0.3262191116809845,0.0,0.0,-0.6997918486595154,0.8941947221755981
-0.0574015602469444,1.159114956855774,-0.259972333908081,-0.2775885164737701,0.370355874300003,0.3001632690429687,0.0,0.0,-0.8491164445877075,0.9667352437973022
-0.0598499290645122,1.1526987552642822,-0.257737785577774,-0.2885668575763702,0.3840518891811371,0.2739205062389374,0.0,0.0,-0.8882325887680054,0.9134286642074584
-0.0622913353145122,1.1460450887680054,-0.2556189894676208,-0.29885333776474,0.3963077068328857,0.2451161891222,0.0,0.0,-0.6556217670440674,0.95475172996521
-0.0647348389029502,1.1391549110412598,-0.2545657455921173,-0.3091201186180115,0.4072632491588592,0.2191110402345657,0.0,0.0,-0.7709758877754211,0.974235773086548
-0.0671710968017578,1.1320260763168335,-0.2523439824581146,-0.319374531507492,0.4166477918624878,0.1876914948225021,0.0,0.0,-0.7424770593643188,0.9317221641540528
-0.06962251663208,1.1246532201766968,-0.2528343498706817,-0.329978883266449,0.4249584972858429,0.1662144958972931,0.0,0.0,-0.924231767654419,0.8757287263870239
-0.0720679312944412,1.1170415878295898,-0.2506583034992218,-0.3401539623737335,0.4315888583660126,0.1326076388359069,0.0,0.0,-0.8914458155632019,0.9688444137573242
-0.0745020881295204,1.1091872453689575,-0.2478188276290893,-0.3504432141780853,0.4363839626312256,0.0959023460745811,0.0,0.0,-0.938957452774048,0.991896152496338
-0.0769272819161415,1.1010998487472534,-0.2451458871364593,-0.360261857509613,0.4392465949058532,0.0572527535259723,0.0,0.0,-0.858564019203186,0.9176517724990844
-0.0793641060590744,1.0927565097808838,-0.2451049834489822,-0.3712599575519562,0.4407908916473388,0.0308859199285507,0.0,0.0,-0.950464129447937,0.8010959625244141
-0.0818149596452713,1.084160089492798,-0.2452521324157714,-0.3821210265159607,0.4409761726856231,0.0037053283303976,0.0,0.0,-0.9800614714622498,0.9078805446624756
-0.0842727646231651,1.07532000541687,-0.2444121539592743,-0.3924618661403656,0.4394866526126861,-0.0297898352146148,0.0,0.0,-0.9723796844482422,0.8245973587036133
-0.0867665261030197,1.066232204437256,-0.2470707446336746,-0.4031825065612793,0.4369638562202453,-0.0504560582339763,0.0,0.0,-0.9748711585998536,0.8545699119567871
-0.0892980545759201,1.0568947792053225,-0.2498709708452224,-0.4139774143695831,0.4333923459053039,-0.0714299827814102,0.0,0.0,-0.9918774962425232,0.9393366575241088
-0.0918488502502441,1.04731023311615,-0.2503499686717987,-0.4245315790176391,0.4282593429088592,-0.1026608720421791,0.0,0.0,-0.989684760570526,0.905741810798645
-0.094405747950077,1.037490725517273,-0.2490678280591964,-0.434421956539154,0.4210860431194305,-0.1434657275676727,0.0,0.0,-0.9950166940689088,0.9432332515716552
-0.0969910621643066,1.0274286270141602,-0.2504940032958984,-0.4448234140872955,0.4123932719230652,-0.1738551557064056,0.0,0.0,-0.9847182035446168,0.8242117166519165
-0.0995947867631912,1.017119288444519,-0.2506209909915924,-0.4553924202919006,0.4019161462783813,-0.2095427215099334,0.0,0.0,-0.9900522232055664,0.7962901592254639
-0.1022336930036544,1.006564378738403,-0.2527224421501159,-0.4659862518310547,0.3899683952331543,-0.238954946398735,0.0,0.0,-0.9801267385482788,0.6811916828155518
-0.1049028411507606,0.99575674533844,-0.2541907429695129,-0.4769225418567657,0.3764310479164123,-0.2707471251487732,0.0,0.0,-0.9823307394981384,0.8166693449020386
-0.1076147109270095,0.9846870303153992,-0.2572008967399597,-0.4883727133274078,0.3616099953651428,-0.2964208722114563,0.0,0.0,-0.9663892388343812,0.6440389156341553
-0.110369011759758,0.9733657836914062,-0.2599672675132751,-0.4993558526039123,0.3453440964221954,-0.3253178596496582,0.0,0.0,-0.9384652376174928,0.5647330284118652
-0.11316929012537,0.9617868065834044,-0.2631702125072479,-0.5106804966926575,0.3277100026607513,-0.3526821732521057,0.0,0.0,-0.9075250625610352,0.544670820236206
-0.1160233467817306,0.9499492049217224,-0.2672602832317352,-0.522118866443634,0.3088400065898895,-0.3773991465568542,0.0,0.0,-0.8792210817337036,0.3302974700927734
-0.1189766898751258,0.9378244280815125,-0.2770737409591675,-0.5351019501686096,0.2899559736251831,-0.3776806592941284,0.0,0.0,-0.8091428875923157,0.804570198059082
-0.1219634041190147,0.9254359602928162,-0.2785235047340393,-0.5467289090156555,0.2692561149597168,-0.4139973521232605,0.0,0.0,-0.8151735067367554,0.6233870983123779
-0.1250129640102386,0.912781059741974,-0.2835696637630462,-0.5586623549461365,0.2474168092012405,-0.4367862343788147,0.0,0.0,-0.928999364376068,0.7710213661193848
-0.128093808889389,0.8998658061027527,-0.2846221029758453,-0.5702305436134338,0.22358438372612,-0.4766489863395691,0.0,0.0,-0.970342218875885,0.841528058052063
-0.1312114745378494,0.8866907954216003,-0.2862656712532043,-0.5818908214569092,0.1978385895490646,-0.5149163007736206,0.0,0.0,-0.9857349395751952,0.3473415374755859
-0.1344337463378906,0.8732327222824097,-0.2964187264442444,-0.5948972105979919,0.1719099581241607,-0.5185728073120117,0.0,0.0,-0.990913152694702,0.9216139316558838
-0.1377046555280685,0.8595073819160461,-0.2994686961174011,-0.6070522665977478,0.1442997455596923,-0.5522052645683289,0.0,0.0,-0.9931327700614928,0.9015973806381226
-0.1410098075866699,0.8455271124839783,-0.300649881362915,-0.6187159419059753,0.1145732477307319,-0.5945305824279785,0.0,0.0,-0.9602202773094176,0.7846734523773193
-0.1443508118391037,0.8312706351280212,-0.3020856976509094,-0.6314808130264282,0.0827992036938667,-0.6354816555976868,0.0,0.0,-0.9470256567001344,0.9266761541366576
-0.1477236747741699,0.816756546497345,-0.3029066324234009,-0.6435126662254333,0.0487936735153198,-0.6801110506057739,0.0,0.0,-0.6345824599266052,0.85996413230896
-0.1511466056108474,0.8019676208496094,-0.3060811161994934,-0.6564953327178955,0.0130202174186706,-0.7154697775840759,0.0,0.0,-0.8526459336280823,-0.2937444448471069
-0.1546774804592132,0.7869043350219727,-0.3164997100830078,-0.6695572733879089,-0.0231022946536541,-0.7224507927894592,0.0,0.0,-0.5917482376098633,0.9520785808563232
-0.1582370698451995,0.7715672850608826,-0.3170132339000702,-0.6826958060264587,-0.0615873225033283,-0.7697010636329651,0.0,0.0,-0.6496647000312805,-0.2969803810119629
-0.1619045287370681,0.7559589743614197,-0.3274933397769928,-0.6957769989967346,-0.1004659980535507,-0.777573823928833,0.0,0.0,-0.0619996786117553,-0.1299655437469482
-0.1656798422336578,0.7400798201560974,-0.3379987180233001,-0.7088620066642761,-0.1397588700056076,-0.7858585119247437,0.0,0.0,0.4668976068496704,-0.7532317638397217
-0.1696066856384277,0.7244593501091003,-0.3543890118598938,-0.6982876062393188,-0.1780369579792022,-0.7655620574951172,0.0,0.0,0.4246444702148437,0.2953654527664184
-0.1735334396362304,0.7089657783508301,-0.3544650673866272,-0.6936391592025757,-0.2164960354566574,-0.7691819667816162,0.0,0.0,0.84935462474823,0.4442272186279297
-0.1775200814008712,0.6937698721885681,-0.3601487278938293,-0.6815033555030823,-0.2555878460407257,-0.781837522983551,0.0,0.0,0.8550851345062256,-0.8971834182739258
-0.1814652383327484,0.679634153842926,-0.357665479183197,-0.6351248025894165,-0.2933616042137146,-0.755475640296936,0.0,0.0,0.6968064308166504,-0.8578306436538696
-0.1852503716945648,0.6664272546768188,-0.3434069752693176,-0.594460129737854,-0.3297352492809295,-0.7274729013442993,0.0,0.0,0.4281209707260132,-0.2901431918144226
-0.189004510641098,0.6539979577064514,-0.3398318290710449,-0.5609763860702515,-0.36707204580307,-0.7467373013496399,0.0,0.0,0.4826085567474365,-0.9068164229393004
-0.1929489076137542,0.6418129801750183,-0.3604863882064819,-0.5506832599639893,-0.4032189846038818,-0.7229396104812622,0.0,0.0,0.6514115333557129,-0.983821988105774
-0.1967155486345291,0.6304714679718018,-0.3446437120437622,-0.5135658383369446,-0.4378082156181335,-0.6917849779129028,0.0,0.0,0.0753461122512817,-0.9539945721626282
-0.2005673944950103,0.619461715221405,-0.3550041317939758,-0.4991103708744049,-0.4709322452545166,-0.6624804735183716,0.0,0.0,-0.4072502255439758,-0.9907283782958984
-0.2045983374118805,0.6082372665405273,-0.3749396502971649,-0.5087536573410034,-0.5023456811904907,-0.6282700896263123,0.0,0.0,-0.5596572756767273,-0.6571942567825317
-0.2087788581848144,0.5967768430709839,-0.3911214768886566,-0.5195348262786865,-0.5329117178916931,-0.611320972442627,0.0,0.0,0.212355375289917,-0.9953597784042358
-0.2128490507602691,0.5855926871299744,-0.3818719983100891,-0.50725919008255,-0.561954915523529,-0.5808643102645874,0.0,0.0,0.3870472908020019,-0.9972939491271972
-0.2169202864170074,0.5745304822921753,-0.3837268650531769,-0.501747727394104,-0.5894642472267151,-0.5501861572265625,0.0,0.0,0.2309057712554931,-0.9918994903564452
-0.2209283411502838,0.5635538697242737,-0.3790885210037231,-0.4977766871452331,-0.6154595613479614,-0.5199058055877686,0.0,0.0,0.5376349687576294,-0.9978843927383424
-0.22466941177845,0.5528801679611206,-0.3541310727596283,-0.4840234816074371,-0.6397964358329773,-0.4867377877235412,0.0,0.0,0.7686338424682617,-0.9987547993659972
-0.2281929552555084,0.5423473119735718,-0.3341237902641296,-0.4773648083209991,-0.6623993515968323,-0.4520581662654876,0.0,0.0,0.4085543155670166,-0.9998078942298888
-0.231487900018692,0.5323727130889893,-0.3128224015235901,-0.4521532654762268,-0.683423638343811,-0.4204858839511871,0.0,0.0,-0.2764813303947449,-0.999640166759491
-0.2349388152360916,0.5221913456916809,-0.329847902059555,-0.4609341323375702,-0.7029751539230347,-0.3910310268402099,0.0,0.0,0.1015907526016235,-0.9983036518096924
-0.2381856888532638,0.5122181177139282,-0.3108426034450531,-0.4512122571468353,-0.721018373966217,-0.3608648777008056,0.0,0.0,0.5475980043411255,-0.9960118532180786
-0.2413137853145599,0.5022683143615723,-0.3003920912742615,-0.4495910108089447,-0.7374407649040222,-0.3284475207328796,0.0,0.0,0.6811485290527344,-0.9993463158607484
-0.2442967444658279,0.4927469193935394,-0.2871918082237243,-0.4299885928630829,-0.7523373961448669,-0.2979321181774139,0.0,0.0,0.8078973293304443,-0.998612642288208
-0.2467091083526611,0.4839569926261902,-0.2315477877855301,-0.3967810273170471,-0.7655124068260193,-0.2634987235069275,0.0,0.0,0.692406415939331,-0.999822437763214
-0.2488911151885986,0.4756211936473846,-0.2097643911838531,-0.3759417533874511,-0.7771204710006714,-0.232161283493042,0.0,0.0,0.6840786933898926,-0.9998401999473572
-0.2507541179656982,0.4681056439876556,-0.179030105471611,-0.3388429284095764,-0.787240743637085,-0.2024050205945968,0.0,0.0,-0.5757837891578674,-0.9999521374702454
-0.2527574598789215,0.4603787958621979,-0.1940340399742126,-0.3476594984531402,-0.7960817217826843,-0.1768193542957306,0.0,0.0,0.6381688117980957,-0.9999446272850036
-0.2544161379337311,0.4532994031906128,-0.1607293337583542,-0.3181627690792084,-0.8033575415611267,-0.1455160528421402,0.0,0.0,0.5661188364028931,-0.986962616443634
-0.255768209695816,0.4468568861484527,-0.1311734169721603,-0.2891354560852051,-0.809108316898346,-0.11501494795084,0.0,0.0,-0.8968504667282104,-0.9988363981246948
-0.2572688460350036,0.4402139484882355,-0.1472263187170028,-0.2972352206707001,-0.813176155090332,-0.0813571363687515,0.0,0.0,-0.7561227679252625,-0.9999085664749146
-0.2589220404624939,0.4333864748477936,-0.1639064848423004,-0.3044407963752746,-0.8152058124542236,-0.0405929312109947,0.0,0.0,-0.1479209661483764,-0.9981290698051452
-0.2607301771640777,0.4263769090175628,-0.1808969676494598,-0.311473399400711,-0.8150820732116699,0.0024752260651439,0.0,0.0,0.4472566843032837,-0.9994290471076964
-0.2621430456638336,0.4197016358375549,-0.142505407333374,-0.2958176434040069,-0.8133249282836914,0.0351426377892494,0.0,0.0,-0.2233999967575073,-0.9994370341300964
-0.2636913657188415,0.4128105640411377,-0.1569952368736267,-0.304749071598053,-0.8102248907089233,0.0620007999241352,0.0,0.0,0.0810800790786743,-0.9989008903503418
-0.2649303078651428,0.4061162173748016,-0.1271112859249115,-0.2952860593795776,-0.8056325912475586,0.0918460413813591,0.0,0.0,0.4024446010589599,-0.9971620440483092
-0.2658374309539795,0.3999340534210205,-0.0950561687350273,-0.27176034450531,-0.7994534373283386,0.1235833615064621,0.0,0.0,-0.0645536184310913,-0.9982629418373108
-0.266855776309967,0.3935379981994629,-0.1069577112793922,-0.2807707488536834,-0.7922141551971436,0.1447854191064834,0.0,0.0,0.510840892791748,-0.9639313817024232
-0.2675662636756897,0.3874104917049408,-0.0773166269063949,-0.268127828836441,-0.7834373712539673,0.1755358278751373,0.0,0.0,0.5146405696868896,-0.9794713854789734
-0.2678723931312561,0.3818887770175934,-0.0380507446825504,-0.2405219823122024,-0.7731282114982605,0.2061837166547775,0.0,0.0,-0.4432733654975891,-0.7925082445144653
-0.2682812213897705,0.3761452138423919,-0.0490692816674709,-0.249995619058609,-0.7618935108184814,0.2246944606304168,0.0,0.0,-0.4347530603408813,-0.9923610091209412
-0.2688035368919372,0.3701829016208648,-0.0614172592759132,-0.2592174410820007,-0.749431848526001,0.2492329329252243,0.0,0.0,0.0255665779113769,-0.9918105006217957
-0.2692461609840393,0.3645310997962951,-0.0547661110758781,-0.2447501122951507,-0.7353448867797852,0.2817395627498626,0.0,0.0,0.4524743556976318,-0.9884913563728333
-0.26959428191185,0.3593043088912964,-0.0465613417327404,-0.2253168225288391,-0.7198085188865662,0.3107269704341888,0.0,0.0,0.0895168781280517,-0.9405345916748048
-0.2698165476322174,0.3543019294738769,-0.0352086946368217,-0.2148500382900238,-0.7028735876083374,0.3386981189250946,0.0,0.0,-0.3089085817337036,-0.9806250333786012
-0.2701423764228821,0.3490861654281616,-0.0468314513564109,-0.2238962352275848,-0.6845663189888,0.3661456704139709,0.0,0.0,0.172964334487915,-0.9619380831718444
-0.2703270018100738,0.3438459038734436,-0.0340158678591251,-0.2245918810367584,-0.6648882031440735,0.3935620188713074,0.0,0.0,0.1447111368179321,-0.8991794586181641
-0.2702489495277405,0.3388780355453491,-0.009018437936902,-0.2121740877628326,-0.6439422965049744,0.4189186096191406,0.0,0.0,0.1861588954925537,-0.9156194925308228
-0.2698934972286224,0.3343758583068847,0.0173814930021762,-0.1911952644586563,-0.6216897964477539,0.4450502395629883,0.0,0.0,-0.0105245113372802,-0.8906864523887634
-0.2696214318275451,0.3296392858028412,0.0079156551510095,-0.2014993131160736,-0.5984336137771606,0.4651242792606354,0.0,0.0,0.3165125846862793,-0.7430021166801453
