x_pos,y_pos,x_vel,y_vel,angle,ang_vel,leg_1,leg_2,main_booster,lat_booster
-0.0015262603992596,1.4033509492874146,-0.1542767584323883,-0.336406797170639,0.0014820806682109,0.0292143765836954,0.0,0.0,0.7127991599967465,-0.849176465932088
-0.003063392592594,1.396244764328003,-0.1566895544528961,-0.3158402144908905,0.0044275047257542,0.0589147582650184,0.0,0.0,0.5930665627227296,0.9253341945001106
-0.0043878555297851,1.3894433975219729,-0.133497729897499,-0.3022860586643219,0.0054622394964098,0.0206968430429697,0.0,0.0,0.8979380128618808,-0.90744282329757
-0.005941295530647,1.383224606513977,-0.1576106250286102,-0.2764016687870025,0.0076965992338955,0.044691152870655,0.0,0.0,0.2655168267972148,-0.6239039071643229
-0.0074424743652343,1.3774840831756592,-0.1535336375236511,-0.2551533877849579,0.0110790319740772,0.0676552131772041,0.0,0.0,0.1015972637319848,-0.6393160845092094
-0.0088994028046727,1.3720134496688845,-0.150239497423172,-0.2431852370500564,0.0155801270157098,0.0900300741195678,0.0,0.0,0.9191059793826593,-0.9325788555605448
-0.0104738231748342,1.367272973060608,-0.1635113507509231,-0.2107549011707306,0.0215740986168384,0.1198907271027565,0.0,0.0,-0.0657068642292162,-0.8059520730779944
-0.0121013643220067,1.3622604608535769,-0.1697276681661605,-0.2229014188051223,0.0284710098057985,0.1379509568214416,0.0,0.0,0.4185487240337899,-0.6387794730652142
-0.0138168334960937,1.358056664466858,-0.1794747859239578,-0.1870079338550567,0.036310289055109,0.1568004637956619,0.0,0.0,0.3655462858093632,0.6669127060495276
-0.0155086517333984,1.3544864654541016,-0.1754619777202606,-0.1588349491357803,0.0425271913409233,0.1243493184447288,0.0,0.0,0.1029698227642552,-0.9799317267781448
-0.0172324180603027,1.3512383699417114,-0.180323913693428,-0.1446118354797363,0.050384234637022,0.1571553349494934,0.0,0.0,0.6890317419633896,-0.7963320938403673
-0.0189736373722553,1.348525881767273,-0.1835076510906219,-0.1208911761641502,0.0596778579056263,0.1858895719051361,0.0,0.0,0.7597085928240441,0.9746680359224208
-0.0205352790653705,1.3466819524765017,-0.1635277718305587,-0.0822647958993911,0.0669746547937393,0.1459492743015289,0.0,0.0,-0.7593522872618297,0.8917674312791755
-0.0220262520015239,1.3445640802383425,-0.1541737914085388,-0.0943602323532104,0.0720021203160286,0.100558340549469,0.0,0.0,-0.0144932697987876,0.7057709100210057
-0.0234575271606445,1.3421874046325684,-0.1461488157510757,-0.1057762056589126,0.0749998241662979,0.0599596798419952,0.0,0.0,-0.6823280536560854,0.6556742208236727
-0.0248362533748149,1.339536190032959,-0.1390410363674163,-0.117890365421772,0.0761620178818702,0.0232457406818866,0.0,0.0,-0.2854303149772939,0.9084201215620704
-0.0261369701474905,1.3366318941116333,-0.1286990940570831,-0.1290160417556762,0.0748054683208465,-0.0271334294229745,0.0,0.0,0.1656015292432981,-0.7737012286796154
-0.0274130813777446,1.333848476409912,-0.1275997310876846,-0.1237034425139427,0.0747996643185615,-0.0001161678228527,0.0,0.0,-0.3240864897571014,0.6618626100682019
-0.0286392215639352,1.3308042287826538,-0.1207605376839637,-0.1352051794528961,0.072965383529663,-0.036688707768917,0.0,0.0,-0.6203826793723994,0.7499593023872775
-0.0298247337341308,1.3274916410446167,-0.1151064410805702,-0.1470619291067123,0.0695437341928482,-0.0684395134449005,0.0,0.0,-0.5549770806990351,0.9387832014555808
-0.0309321396052837,0.0,-0.1047034040093422,-0.1583908200263977,0.0635618865489959,-0.119647704064846,0.0,0.0,-0.1463193990740035,0.8337798552324551
-0.0319839492440223,1.3200805187225342,-0.0971316248178482,-0.1704006344079971,0.0555958151817321,-0.1593358665704727,0.0,0.0,-0.5463129400235405,-0.6348539818187773
-0.0330870635807514,1.315962314605713,-0.1029696017503738,-0.1827824264764785,0.0483261011540889,-0.145407348871231,0.0,0.0,0.0295339958878693,-0.6355486573626381
-0.0342129692435264,1.3118550777435305,-0.1062732487916946,-0.1823480278253555,0.0420822389423847,-0.1248883605003357,0.0,0.0,-0.7475174060796725,-0.7805029234409745
-0.035428237169981,1.3074718713760376,-0.116862952709198,-0.1946814954280853,0.0374624617397785,-0.0924038365483284,0.0,0.0,0.1082527394613237,0.9428302757620723
-0.0367158874869346,1.3035048246383667,-0.1218843907117843,-0.1761595606803894,0.0306740328669548,-0.1357685178518295,0.0,0.0,0.4653255548645496,-0.7728719083678308
-0.0380949974060058,1.3002326488494873,-0.1323061883449554,-0.1453184634447097,0.0251344423741102,-0.1107916235923767,0.0,0.0,0.2741240149326929,0.7067676559177548
-0.0395621284842491,1.2976471185684204,-0.1392154991626739,-0.1148003488779068,0.0177341159433126,-0.1480066776275634,0.0,0.0,-0.9357969837123132,0.6763510930873655
-0.0410027503967285,1.2947958707809448,-0.1352030336856842,-0.126648724079132,0.0089871538802981,-0.1749391257762909,0.0,0.0,-0.3656322761933399,-0.7527856728662599
-0.0425209030508995,1.291668176651001,-0.1442274153232574,-0.1389820426702499,0.0014973953366279,-0.149794653058052,0.0,0.0,0.2835209044278111,-0.9013547566140988
-0.0441109649837017,1.28926420211792,-0.1529514491558075,-0.1068477258086204,-0.0044799358583986,-0.1195466518402099,0.0,0.0,-0.2188057006459183,-0.93879728206919
-0.0458018295466899,1.2865822315216064,-0.1648679375648498,-0.1192175894975662,-0.0086401225998997,-0.0832037776708602,0.0,0.0,0.5693274040481826,0.9957701818137104
-0.0475137718021869,1.2847788333892822,-0.1645824015140533,-0.0802033394575119,-0.0151615552604198,-0.1304288953542709,0.0,0.0,0.9350034799777036,0.783172720463043
-0.0492563247680664,1.283329725265503,-0.1655940860509872,-0.0645180568099021,-0.0237106252461671,-0.1709814667701721,0.0,0.0,-0.7795142305005816,-0.6606660103712906
-0.05106782913208,1.2816112041473389,-0.1735022366046905,-0.0765173956751823,-0.0312695801258087,-0.1511789113283157,0.0,0.0,0.4988088308908698,0.8081946908118647
-0.0527940765023231,1.280651330947876,-0.1630810797214508,-0.0428926609456539,-0.0406951904296875,-0.1885126829147339,0.0,0.0,0.3336730984529825,0.6765672827265253
-0.0544943809509277,1.279965043067932,-0.1588089019060135,-0.0308466926217079,-0.0517933219671249,-0.2219624072313308,0.0,0.0,-0.4361125014833107,0.6243968158382487
-0.056161593645811,1.2790080308914185,-0.1538692563772201,-0.0430270694196224,-0.0644972920417785,-0.2540791630744934,0.0,0.0,0.775880482165314,0.9736887243915672
-0.0577600486576557,1.2791439294815063,-0.1446892321109771,0.0053230202756822,-0.0794907659292221,-0.299869567155838,0.0,0.0,0.5655458476279556,-0.7096538180208949
-0.059359360486269,1.2798749208450315,-0.1460013687610626,0.0316875129938125,-0.0932963564991951,-0.2761121392250061,0.0,0.0,0.4469237189709578,-0.6869928169914268
-0.0610721595585346,1.281381130218506,-0.1582621783018112,0.0660861060023307,-0.1062029376626014,-0.2581316828727722,0.0,0.0,-0.2849519252777099,-0.1739841699600219
-0.0628057494759559,1.2826166152954102,-0.1600803434848785,0.0539150349795818,-0.1193906590342521,-0.2637546062469482,0.0,0.0,-0.586963415145874,-0.6247211694717407
-0.0646020919084549,1.2835817337036133,-0.1671549975872039,0.0418513268232345,-0.1318154633045196,-0.2484959065914154,0.0,0.0,-0.3024051785469055,-0.8196811676025391
-0.066473864018917,1.2842848300933838,-0.1757973134517669,0.0302023850381374,-0.1431521475315094,-0.2267338335514068,0.0,0.0,-0.6515265107154846,-0.6876668930053711
-0.0684256553649902,1.28472101688385,-0.1850117444992065,0.0183682460337877,-0.1533025056123733,-0.2030070722103119,0.0,0.0,-0.6370581388473511,-0.5435988903045654
-0.0704394355416297,1.2848889827728271,-0.1919495165348053,0.006465614773333,-0.1627267748117447,-0.1884854733943939,0.0,0.0,-0.707526683807373,-0.7836325764656067
-0.0725310295820236,1.2847944498062134,-0.200881153345108,-0.0051329010166227,-0.1710172891616821,-0.1658102124929428,0.0,0.0,-0.8244500160217285,-0.5132182836532593
-0.0746921524405479,1.2844455242156982,-0.2087919265031814,-0.016369542106986,-0.1783562749624252,-0.1467798054218292,0.0,0.0,-0.8240495920181274,-0.6577385663986206
-0.0769380554556846,1.2838468551635742,-0.21860933303833,-0.0273359138518571,-0.1843524277210235,-0.119923211634159,0.0,0.0,-0.8862208724021912,-0.5213987827301025
-0.0792492851614952,1.2829859256744385,-0.225964069366455,-0.0389083959162235,-0.1895349025726318,-0.103649653494358,0.0,0.0,-0.92076176404953,-0.4239614009857178
-0.0815839767456054,1.2818527221679688,-0.2280563563108444,-0.0510694943368434,-0.1949832886457443,-0.1089673861861229,0.0,0.0,-0.9666428565979004,-0.4716379642486572
-0.0839424133300781,1.2804471254348757,-0.2301729172468185,-0.0632309019565582,-0.2006951719522476,-0.1142373457551002,0.0,0.0,-0.9834726452827454,-0.2848392724990845
-0.0863247886300087,1.2787691354751587,-0.2323125153779983,-0.0753926262259483,-0.2066679745912552,-0.119455948472023,0.0,0.0,-0.9248107671737672,-0.1132099032402038
-0.0887311920523643,1.276818871498108,-0.2344739884138107,-0.0875546783208847,-0.2128989547491073,-0.1246194243431091,0.0,0.0,-0.8899939656257629,-0.8403027653694153
-0.0912113189697265,1.274609088897705,-0.2428395450115203,-0.0989699214696884,-0.2181151658296585,-0.1043244823813438,0.0,0.0,-0.9772444367408752,-0.448905348777771
-0.0937156677246093,1.2721267938613892,-0.2450408488512039,-0.1111314073204994,-0.2235834449529647,-0.109365239739418,0.0,0.0,-0.9730752110481262,0.0440807342529296
-0.0962447151541709,1.2693722248077393,-0.247260496020317,-0.1232931613922119,-0.229300320148468,-0.114337645471096,0.0,0.0,-0.6714915037155151,-0.3088526725769043
-0.0987985581159591,1.2663453817367554,-0.2494974434375763,-0.1354551613330841,-0.2352621406316757,-0.1192366033792495,0.0,0.0,-0.9654240012168884,-0.2402000427246093
-0.1013771072030067,1.263046383857727,-0.2517505884170532,-0.1476174443960189,-0.2414649724960327,-0.1240567937493324,0.0,0.0,-0.9063143730163574,-0.0526064038276672
-0.1039806380867958,1.2594749927520752,-0.2540189027786255,-0.1597799956798553,-0.2479045987129211,-0.1287925392389297,0.0,0.0,-0.9585264325141908,-0.3861008882522583
-0.1066090613603591,1.255631446838379,-0.2563013732433319,-0.1719428151845932,-0.2545764744281769,-0.1334377378225326,0.0,0.0,-0.9440723657608032,-0.0150396227836608
-0.1092626601457595,1.2515158653259275,-0.2585970163345337,-0.1841059327125549,-0.2614757716655731,-0.1379860192537307,0.0,0.0,-0.8774332404136658,0.1500734090805053
-0.1119413375854492,1.2471283674240112,-0.260904848575592,-0.1962693035602569,-0.2685973048210144,-0.1424306333065033,0.0,0.0,-0.8952041864395142,-0.5087036490440369
-0.1146821975708007,1.2424845695495603,-0.267892062664032,-0.2075414657592773,-0.2749447822570801,-0.1269492655992508,0.0,0.0,-0.8981711864471436,0.1142696142196655
-999.0,1.2375686168670654,-0.270220935344696,-0.2197042107582092,-0.2815030515193939,-0.1311652809381485,0.0,0.0,-0.6751530766487122,0.1614880561828613
-0.1202397346496582,1.232380509376526,-0.2725590765476227,-0.2318671196699142,-0.2882658243179321,-0.1352555900812149,0.0,0.0,-0.8110753297805786,0.0099760293960571
-0.1230563148856163,1.226920247077942,-0.2749056220054626,-0.2440301924943924,-0.2952264249324798,-0.139212280511856,0.0,0.0,-0.8236595392227173,-0.6518022418022156
-0.1259422302246093,1.221199631690979,-0.2827607095241546,-0.255439817905426,-0.3012411296367645,-0.1202940717339515,0.0,0.0,-0.739582359790802,-0.4553294777870178
-0.1288533210754394,1.2152068614959717,-0.2851207852363586,-0.2676019370555877,-0.3074390888214111,-0.1239592283964157,0.0,0.0,-0.7190081477165222,-0.8612056970596313
-0.1318652182817459,1.2089736461639404,-0.2969914674758911,-0.2779274880886078,-0.3117882311344147,-0.0869825333356857,0.0,0.0,-0.7998834252357483,-0.5546916723251343
-0.1349496841430664,1.2024931907653809,-0.3053593039512634,-0.2886911034584045,-0.3149991035461426,-0.0642169862985611,0.0,0.0,-0.3542588353157043,0.4162566661834717
-0.1380594223737716,1.195739984512329,-0.3077323734760284,-0.3008507490158081,-0.3183681964874267,-0.0673815980553627,0.0,0.0,-0.4861794710159302,0.4297531843185425
-0.1411943435668945,1.1887141466140747,-0.3101083636283874,-0.3130102753639221,-0.3218863010406494,-0.0703623592853546,0.0,0.0,-0.2291840314865112,-0.3737066984176636
-0.1443543434143066,1.181415319442749,-0.3124862909317016,-0.3251696825027466,-0.3255438804626465,-0.0731513574719429,0.0,0.0,-0.0334060192108154,-0.7025048136711121
-0.1475959718227386,1.173866868019104,-0.3219654262065887,-0.3359886109828949,-0.3278218805789947,-0.0455599501729011,0.0,0.0,-0.3948603868484497,0.029071569442749
-0.1508624106645584,1.1660451889038086,-0.3243442475795746,-0.3481469452381134,-0.3302190005779266,-0.0479421988129615,0.0,0.0,-0.6341443061828613,0.371058702468872
-0.1541535407304763,1.1579508781433103,-0.3267222642898559,-0.3603050410747528,-0.3327245116233825,-0.0501102618873119,0.0,0.0,-0.6216637492179871,0.62506103515625
-0.1574223488569259,1.1495648622512815,-0.3231871426105499,-0.3735590577125549,-0.3365814089775085,-0.0771382302045822,0.0,0.0,0.1733533143997192,0.2833359241485595
-0.1604706794023513,1.1416982412338257,-0.3013106882572174,-0.3504535853862762,-0.3402614295482635,-0.0736002847552299,0.0,0.0,0.1227790117263794,0.8417887687683105
-0.1633770018815994,1.134363293647766,-0.2853902876377105,-0.3272470533847809,-0.3457612991333008,-0.1099972948431968,0.0,0.0,-0.5523409843444824,-0.5081619620323181
-0.1663544625043869,1.126775145530701,-0.2936451733112335,-0.338239312171936,-0.3500650227069855,-0.0860751122236251,0.0,0.0,-0.0645762681961059,-0.4129141569137573
-0.1693558692932129,1.118914008140564,-0.2960042655467987,-0.3503969609737396,-0.3544196188449859,-0.0870912298560142,0.0,0.0,-0.2951775789260864,-0.20701265335083
-0.172381117939949,1.110779881477356,-0.2983562350273132,-0.3625542521476745,-0.358812928199768,-0.0878662019968032,0.0,0.0,0.6456334590911865,0.4202176332473755
-0.1752440482378006,1.1033494472503662,-0.2818619310855865,-0.3313499093055725,-0.3634853959083557,-0.09344944357872,0.0,0.0,0.4723172187805176,-0.1044862270355224
-0.1779187172651291,1.0965254306793213,-0.2629881501197815,-0.3044367134571075,-0.3682216107845306,-0.0947244614362716,0.0,0.0,-0.3843517899513244,-0.330135703086853
-0.1806165724992752,1.089428186416626,-0.2653111815452575,-0.3165932595729828,-0.3729601502418518,-0.0947707742452621,0.0,0.0,-0.0009889602661132,-0.1925156712532043
-0.1833373010158538,1.0820575952529907,-0.2676219344139099,-0.3287493884563446,-0.3776889443397522,-0.0945757180452346,0.0,0.0,0.2061935663223266,0.0030944347381591
-0.1859094649553299,1.0747861862182615,-0.2530769109725952,-0.3242761492729187,-0.3820827305316925,-0.0878757983446121,0.0,0.0,0.6603971719741821,-0.0364923477172851
-0.18815279006958,1.0679574012756348,-0.2208811491727829,-0.3044337928295135,-0.3857590556144714,-0.0735267475247383,0.0,0.0,0.301345944404602,-0.7943878769874573
-0.1902456283569336,1.0612461566925049,-0.2075324803590774,-0.2987546622753143,-0.3876306712627411,-0.0374318212270736,0.0,0.0,0.9263358116149902,-0.347291350364685
-0.1920353919267654,1.0554813146591189,-0.1772474199533462,-0.2566857635974884,-0.3894763588905334,-0.0369145795702934,0.0,0.0,0.6709437370300293,-0.7208811044692993
-0.1935747116804123,1.050525188446045,-0.1537295877933502,-0.220333382487297,-0.3896911442279815,-0.0042956643737852,0.0,0.0,0.9499071836471558,0.1608331203460693
-0.1947002410888672,1.0463035106658936,-0.113059863448143,-0.1874831020832061,-0.3891476690769195,0.0108694639056921,0.0,0.0,0.9422576427459716,-0.542751133441925
-0.1956256926059723,1.042288064956665,-0.0945190265774726,-0.1779216229915619,-0.3870414793491363,0.0421236753463745,0.0,0.0,0.8319864273071289,-0.3856391906738281
-0.1964124739170074,1.038816213607788,-0.0804976746439933,-0.1538162231445312,-0.3851058781147003,0.0387120693922042,0.0,0.0,0.6130173206329346,-0.7253494262695312
-0.1968695670366287,1.0362303256988523,-0.049200490117073,-0.1139878779649734,-0.381382554769516,0.0744664669036865,0.0,0.0,0.411597728729248,-0.675099790096283
-0.1972349137067794,1.0340893268585205,-0.0414281673729419,-0.0938606336712837,-0.3761881589889526,0.1038880348205566,0.0,0.0,-0.0431466698646545,-0.539402425289154
-0.1976657807826995,1.0317072868347168,-0.0493830330669879,-0.1042254269123077,-0.3695202469825744,0.1333584189414978,0.0,0.0,0.5104324817657471,-0.0760344862937927
-0.1978108435869217,1.0299010276794434,-0.0212894491851329,-0.0785442590713501,-0.3623487055301666,0.1434310376644134,0.0,0.0,0.2688974142074585,-0.3886879682540893
-0.1978083550930023,1.028651475906372,-0.0065111592411994,-0.0538518577814102,-0.3552236557006836,0.1425007432699203,0.0,0.0,-0.2320895791053772,-0.4439527988433838
-0.1978237181901931,1.0271281003952026,-0.0084540201351046,-0.0660061165690422,-0.347947210073471,0.1455289125442505,0.0,0.0,-0.2237597107887268,-0.2898471355438232
-0.1978562325239181,1.0253313779830933,-0.0103520806878805,-0.0781604349613189,-0.340512067079544,0.1487034410238266,0.0,0.0,-0.6954230666160583,-0.0795634984970092
-0.1979055404663086,1.0232611894607544,-0.0122021650895476,-0.090314857661724,-0.3329112529754638,0.1520160883665084,0.0,0.0,-0.0986314415931701,-0.2193602919578552
-0.1979710608720779,1.0209174156188965,-0.0140009643509984,-0.1024693995714187,-0.3251383006572723,0.155458778142929,0.0,0.0,-0.2699366807937622,0.285599946975708
-0.1980520188808441,1.0183002948760986,-0.0157450232654809,-0.1146241053938865,-0.3171871304512024,0.1590236276388168,0.0,0.0,0.1344943046569824,0.6872477531433105
-0.1979735344648361,1.0157172679901123,0.001312319887802,-0.1133835986256599,-0.31040820479393,0.1355784386396408,0.0,0.0,0.0849730968475341,-0.1228293180465698
-0.1976656019687652,1.013532638549805,0.0236399583518505,-0.0955813825130462,-0.302999347448349,0.1481771767139434,0.0,0.0,-0.525411069393158,-0.526498019695282
-0.197411447763443,1.0110981464385986,0.0169870667159557,-0.1064696460962295,-0.294279396533966,0.1743990033864975,0.0,0.0,0.0098246335983276,-0.0970189571380615
-0.1969349831342697,1.00910222530365,0.0386050343513488,-0.086910679936409,-0.2849571108818054,0.1864448487758636,0.0,0.0,-0.6981754302978516,-0.2250605821609497
-0.1964702606201172,1.0068331956863403,0.037190306931734,-0.0990675538778305,-0.2754317224025726,0.1905079036951065,0.0,0.0,-0.4104769229888916,0.0722291469573974
-0.1960166990756988,1.00429105758667,0.0358534008264541,-0.1112248227000236,-0.2656992673873901,0.1946498453617096,0.0,0.0,0.1199965476989746,-0.0208719372749328
-0.1953934729099273,1.0022326707839966,0.0524018183350563,-0.0897246450185775,-0.2555658221244812,0.2026688307523727,0.0,0.0,-0.7595914006233215,0.1328402757644653
-0.1947795897722244,0.9999013543128968,0.0512327179312706,-0.1018831208348274,-0.2452183365821838,0.2069496363401413,0.0,0.0,-0.6814569234848022,0.4213813543319702
-0.1941740959882736,0.99729722738266,0.0501536913216114,-0.1140420734882354,-0.2346537709236145,0.211290955543518,0.0,0.0,-0.8500576615333557,0.2536616325378418
-0.1935759484767913,0.9944204688072203,0.0491687431931495,-0.1262015700340271,-0.2238694131374359,0.2156871557235717,0.0,0.0,-0.8957557678222656,0.7544736862182617
-0.1929284036159515,0.9912511706352234,0.0553213581442832,-0.1394499838352203,-0.2143286913633346,0.1908146739006042,0.0,0.0,-0.8925847411155701,0.9087646007537842
-0.1922134459018707,0.9877834916114808,0.0637137293815612,-0.1530160456895828,-0.2064723521471023,0.1571268141269683,0.0,0.0,-0.8985254168510437,0.9484026432037354
-0.1914149224758148,0.9840056300163268,0.0741372779011726,-0.1671153008937835,-0.2007162719964981,0.1151216402649879,0.0,0.0,-0.98516047000885,0.770897388458252
-0.1905500441789627,0.979936420917511,0.0823312848806381,-0.1803017407655716,-0.1965293139219284,0.0837387442588806,0.0,0.0,-0.9909364581108092,0.7574377059936523
-0.1896252632141113,0.9755819439888,0.0896538123488426,-0.1931570917367935,-0.1936922967433929,0.056740652769804,0.0,0.0,-0.9418867826461792,0.3548327684402466
