x_pos,y_pos,x_vel,y_vel,angle,ang_vel,leg_1,leg_2,main_booster,lat_booster
-0.001559066819027,1.4034161567687988,-0.1576012372970581,-0.3335104286670685,0.0015139724127948,0.0298458486795425,0.0,0.0,0.2420525560247528,0.8337788213192324
-0.0030447007156908,1.3962433338165283,-0.1481241434812545,-0.3187912702560425,0.0010849103564396,-0.0085812425240874,0.0,0.0,0.3524878073488915,0.8239122966519431
-0.0043785097077488,1.3893519639968872,-0.1311389207839965,-0.3062820434570312,-0.0011295716976746,-0.0442939028143882,0.0,0.0,-0.3778416389942649,-0.6781564857130866
-0.0058127404190599,1.3822500705718994,-0.1424558907747268,-0.315639853477478,-0.0020769606344401,-0.0189497284591197,0.0,0.0,-0.7657800080943116,-0.9960376819117333
-0.0073452950455248,1.3749431371688845,-0.1535065174102783,-0.3247486650943756,-0.0018319422379136,0.0049008149653673,0.0,0.0,-0.2655507498020579,0.9960269573437116
-0.0088188173249363,1.3674263954162598,-0.1447750031948089,-0.3340872228145599,-0.0043791010975837,-0.0509480461478233,0.0,0.0,0.9806733307641032,0.9845970306742632
-0.0102789876982569,1.3607394695281982,-0.1410225927829742,-0.2972133457660675,-0.0093172192573547,-0.0987714901566505,0.0,0.0,-0.7404100867790742,-0.9507648271769163
-0.0118327140808105,1.3538480997085571,-0.151419311761856,-0.3063166439533233,-0.0132384179159998,-0.078431025147438,0.0,0.0,0.8433538654862855,0.8802237455817069
-0.0133572574704885,1.34815776348114,-0.146277442574501,-0.2529729604721069,-0.0193458497524261,-0.122159719467163,0.0,0.0,-0.0144040418727815,0.6539457434948471
-0.0148680685088038,1.3422620296478271,-0.1431610733270645,-0.2621495425701141,-0.027169918641448,-0.1564959585666656,0.0,0.0,-0.5331193197996036,-0.822791259791568
-0.0164721496403217,1.336161971092224,-0.1534707844257354,-0.2712571322917938,-0.0340306237339973,-0.1372269839048385,0.0,0.0,-0.7641130231899467,-0.8602761869004698
-0.0181740764528512,1.3298555612564087,-0.164329394698143,-0.2804304957389831,-0.0398312248289585,-0.116022452712059,0.0,0.0,-0.4016420780605134,-0.7408200141380139
-0.019959831610322,1.323347806930542,-0.1734164208173751,-0.2893741726875305,-0.0449332483112812,-0.1020499095320701,0.0,0.0,0.6528911136579445,0.9279255118219754
-0.0216176025569438,1.3171464204788208,-0.1584124863147735,-0.2758620977401733,-0.0522244647145271,-0.1458378136157989,0.0,0.0,0.5866692624912497,-0.6203063804410817
-0.0231741908937692,1.3119220733642578,-0.1494243592023849,-0.2324235886335373,-0.0584010444581508,-0.1235427856445312,0.0,0.0,-0.3831631408299509,0.7992368598300059
-0.0246953014284372,1.3064744472503662,-0.1434909701347351,-0.2424770891666412,-0.066932275891304,-0.1706401854753494,0.0,0.0,-0.6211952899239281,-0.8522719614612776
-0.0263060573488473,1.3008346557617188,-0.1533020436763763,-0.2510110437870025,-0.0746353343129158,-0.1540753543376922,0.0,0.0,0.2351163621271781,-0.9698111984489808
-0.0278869625180959,1.2953933477401731,-0.1518178433179855,-0.2421626150608062,-0.0808575078845024,-0.1244545131921768,0.0,0.0,-0.0016476582285436,-0.958778390905884
-0.0295692440122365,1.289761304855347,-0.1630827784538269,-0.2506031692028045,-0.0859710797667503,-0.1022807210683822,0.0,0.0,-0.1424709520635381,0.7270136515362302
-0.0312408450990915,1.2839152812957764,-0.1602389216423034,-0.2602410018444061,-0.0928355157375335,-0.1373011171817779,0.0,0.0,-0.4138801913090428,0.7014231503800927
-0.0328838340938091,1.277858018875122,-0.155184730887413,-0.2698038220405578,-0.1018911153078079,-0.1811282038688659,0.0,0.0,-0.5039546616509216,-0.6440986834786043
-0.0346154198050498,1.271597981452942,-0.1648035943508148,-0.278812974691391,-0.1101943925023078,-0.1660805791616439,0.0,0.0,-0.2224525178099323,0.9900073037418792
-0.0362912192940712,1.2651145458221436,-0.1563124358654022,-0.2890210151672363,-0.1214068308472633,-0.2242692410945892,0.0,0.0,0.4911744347295219,0.9650549828949956
-0.0378252044320106,1.25880765914917,-0.1397661864757537,-0.2814756035804748,-0.1349904686212539,-0.2716971337795257,0.0,0.0,0.1382298119620766,-0.8312393542920276
-0.0395152084529399,1.2529927492141724,-0.1564756333827972,-0.2596192061901092,-0.1474879533052444,-0.249972254037857,0.0,0.0,-0.703304428471655,0.7028233556780702
-0.041203785687685,1.2469459772109983,-0.1547682732343673,-0.270201027393341,-0.1615671068429947,-0.2815829515457153,0.0,0.0,0.8626056858187581,-0.9713165626807416
-0.0428698547184467,1.2419302463531494,-0.1539678573608398,-0.2243443876504898,-0.1742115467786789,-0.2528887391090393,0.0,0.0,-0.9760493934525604,-0.6898128666743382
-0.0446391105651855,1.2367335557937622,-0.1654810458421707,-0.2323465049266815,-0.1856924891471862,-0.2296189069747924,0.0,0.0,-0.8653250562732804,0.722262990026414
-0.0464024543762207,1.231325387954712,-0.1632674634456634,-0.2420547604560852,-0.1988305300474167,-0.2627609372138977,0.0,0.0,0.8585681109491845,0.8058409503632623
-0.0480594635009765,1.2265052795410156,-0.1504871398210525,-0.2163427770137787,-0.2141703814268112,-0.3067972958087921,0.0,0.0,-0.8824623907360105,0.972245456361359
-0.0496760383248329,1.2214674949645996,-0.1439827680587768,-0.2265642434358596,-0.2320489138364792,-0.3575708270072937,0.0,0.0,-0.670982892904546,0.9626009158327282
-0.0512672439217567,1.216199517250061,-0.1393443048000335,-0.2373784482479095,-0.2521534562110901,-0.4020911157131195,0.0,0.0,0.3573681589508526,0.7121074557438904
-0.0527496337890625,1.2117011547088623,-0.1265293508768081,-0.2038147300481796,-0.2743406593799591,-0.4437448382377624,0.0,0.0,0.1960246685583893,0.7470257744724672
-0.0541937835514545,1.2073712348937988,-0.1208017840981483,-0.1970638781785965,-0.2986357808113098,-0.4859029352664947,0.0,0.0,0.8964877963483764,0.9952195785545568
-0.0553680434823036,1.203833818435669,-0.0915480107069015,-0.1627611815929412,-0.3254566788673401,-0.5364184975624084,0.0,0.0,-0.6777223795740346,0.9733725785647778
-0.0565021522343158,1.2000694274902344,-0.0853327140212059,-0.1739077568054199,-0.3548537194728851,-0.587941586971283,0.0,0.0,0.3607977057301086,0.6434938876791241
-0.0575175285339355,1.1966209411621094,-0.0719571486115455,-0.1608837693929672,-0.3861545920372009,-0.6260172128677368,0.0,0.0,-0.3713622778802523,0.8250888916332954
-0.0585022941231727,1.1929469108581543,-0.0671064853668212,-0.1721631437540054,-0.4197951257228851,-0.672810971736908,0.0,0.0,0.9355439376506178,-0.8813429400920572
-0.0592256560921669,1.1905148029327393,-0.0425305441021919,-0.1173049733042717,-0.452224999666214,-0.6485973596572876,0.0,0.0,-0.3587252224708797,0.8283745265503477
-0.0599214546382427,1.18784761428833,-0.0381256565451622,-0.1291326731443405,-0.4870047569274902,-0.6955955028533936,0.0,0.0,-0.2784997933731792,-0.855966522995215
-0.0607176795601844,1.1850507259368896,-0.0501436106860637,-0.1350925862789154,-0.5201938152313232,-0.6637815833091736,0.0,0.0,0.1377944946289062,-0.9932712912559508
-0.0613483414053916,1.1825109720230105,-0.0354569256305694,-0.1237679943442344,-0.5518617630004883,-0.6333585977554321,0.0,0.0,0.0647528171539306,-0.9962077736854552
-0.0619122497737407,1.1800284385681152,-0.0306001715362072,-0.1212474405765533,-0.582018256187439,-0.6031309962272644,0.0,0.0,0.4564735889434814,-0.9615489840507508
-0.062233068048954,1.1779125928878784,-0.0081054102629423,-0.1048457249999046,-0.6105924844741821,-0.5714848637580872,0.0,0.0,-0.3974306583404541,-0.9246737957000732
-0.0626543015241622,1.1756584644317627,-0.0199012234807014,-0.1108325347304344,-0.6375964283943176,-0.5400797128677368,0.0,0.0,0.0813422203063964,-0.9807392358779908
-0.0630151778459549,1.1734988689422607,-0.0155315231531858,-0.1063694283366203,-0.6630538702011108,-0.5091491937637329,0.0,0.0,-0.491063117980957,-0.9250295758247375
-0.0634622573852539,1.1711974143981934,-0.0255528651177883,-0.1124812215566635,-0.6872477531433105,-0.4838773310184479,0.0,0.0,-0.0900132060050964,-0.7857665419578552
-0.063994787633419,1.1687729358673096,-0.0356450788676738,-0.1175900548696518,-0.7099220156669617,-0.4534856677055359,0.0,0.0,-0.4735243320465088,-0.8233416676521301
-0.0646163970232009,1.1662309169769287,-0.0461664386093616,-0.1223184838891029,-0.7309083342552185,-0.4197267889976501,0.0,0.0,0.1633764505386352,-0.924326241016388
-0.0650998130440712,1.1639763116836548,-0.0337492786347866,-0.1090731173753738,-0.7503895163536072,-0.3896235525608063,0.0,0.0,-0.4120312929153442,-0.8062323331832886
-0.0656512230634689,1.1615701913833618,-0.0414279773831367,-0.1156123429536819,-0.7690479755401611,-0.3731687664985657,0.0,0.0,0.1571420431137085,-0.7748169302940369
-0.0659505873918533,1.1596338748931885,-0.0173095539212226,-0.0943385064601898,-0.7865282297134399,-0.3496051728725433,0.0,0.0,-0.2670321464538574,-0.9621567130088806
-0.0663284286856651,1.157557487487793,-0.0262384004890918,-0.1001138985157013,-0.802793562412262,-0.3253054320812225,0.0,0.0,-0.3117451667785644,-0.9366865754127502
-0.0667847618460655,1.1553634405136108,-0.0353756658732891,-0.104701466858387,-0.8174858093261719,-0.2938453555107116,0.0,0.0,-0.0292922258377075,-0.794383704662323
-0.0673069953918457,1.153016448020935,-0.0426589660346508,-0.1112002953886985,-0.8313763737678528,-0.2778107821941376,0.0,0.0,-0.5044406056404114,-0.8927876949310303
-0.0679173469543457,1.1505529880523682,-0.0528251230716705,-0.1155452206730842,-0.8434688448905945,-0.2418490201234817,0.0,0.0,-0.4166045188903808,-0.8533241152763367
-0.068592831492424,1.1479547023773191,-0.0601860173046588,-0.1210395246744155,-0.8544526100158691,-0.2196754962205886,0.0,0.0,0.1083526611328125,-0.6559250354766846
-0.0689223259687423,1.1455409526824951,-0.0263730697333812,-0.1123585402965545,-0.864395260810852,-0.1988517642021179,0.0,0.0,0.031804084777832,-0.1742504835128784
-0.0688620582222938,1.1433727741241455,0.0127492593601346,-0.101662777364254,-0.874670147895813,-0.205497458577156,0.0,0.0,0.3371222019195556,-0.3060934543609619
-0.068384364247322,1.1416854858398438,0.0549546889960765,-0.0807702392339706,-0.8857777118682861,-0.2221514880657196,0.0,0.0,-0.39254230260849,-0.1355137228965759
-0.0679368004202842,1.139796495437622,0.0521832406520843,-0.0900706574320793,-0.897432267665863,-0.2330915927886963,0.0,0.0,0.2693300247192383,-0.2483882904052734
-0.0671453475952148,1.1383007764816284,0.08702352643013,-0.0731412321329116,-0.9099894762039183,-0.2511453330516815,0.0,0.0,-0.0949819684028625,-0.0672851800918579
-0.0663824081420898,1.1366037130355835,0.0843809694051742,-0.0824438482522964,-0.9230923652648926,-0.2620574831962585,0.0,0.0,-0.1984484195709228,0.060286521911621
-0.0656470283865928,1.1347055435180664,0.081811785697937,-0.0917473658919334,-0.936739981174469,-0.2729529738426208,0.0,0.0,-0.2472621798515319,-0.0194057822227478
-0.0649381652474403,1.1326066255569458,0.0793220996856689,-0.1010517627000808,-0.950931429862976,-0.2838296294212341,0.0,0.0,-0.3561465740203857,0.235927939414978
-0.064254954457283,1.130306601524353,0.0769184082746505,-0.1103570386767387,-0.965665638446808,-0.2946850955486297,0.0,0.0,0.185780644416809,0.1728037595748901
-0.0630821213126182,1.128311038017273,0.1259603798389434,-0.0971749275922775,-0.980870246887207,-0.3040923476219177,0.0,0.0,-0.1291124820709228,-0.0603173971176147
-0.061932373791933,1.1261149644851685,0.123749554157257,-0.1064818203449249,-0.9966151118278505,-0.3148974478244781,0.0,0.0,0.0926805734634399,-0.1205168962478637
-0.0603207573294639,1.124155879020691,0.1699785888195037,-0.0963001921772956,-1.012816071510315,-0.3240200281143188,0.0,0.0,-0.2379908561706543,-0.3729641437530517
-0.0587296485900878,1.1219964027404783,0.1679898351430893,-0.1056085377931594,-1.0295541286468506,-0.3347622752189636,0.0,0.0,-0.209749698638916,-0.0861669778823852
-0.0571575164794921,1.1196367740631104,0.1661232858896255,-0.1149176284670829,-1.0468275547027588,-0.3454675674438476,0.0,0.0,0.1732532978057861,-0.3917157649993896
-0.0552090629935264,1.1173802614212036,0.2036955803632736,-0.1106887385249137,-1.0645331144332886,-0.354111760854721,0.0,0.0,-0.3567094802856445,-0.5808503031730652
-0.0532987602055072,1.114996314048767,0.1990622729063034,-0.1157552897930145,-1.081073760986328,-0.3308129906654358,0.0,0.0,-0.2586017847061157,-0.3624606132507324
-0.0514028556644916,1.1124122142791748,0.1976141184568405,-0.1250637024641037,-1.0981428623199463,-0.341382086277008,0.0,0.0,-0.2325498461723327,0.0142343044281005
-0.0495196357369422,1.1096277236938477,0.1963177323341369,-0.1343726068735122,-1.1157375574111938,-0.3518946170806885,0.0,0.0,-0.1970832347869873,-0.1430172324180603
-0.047647189348936,1.1066431999206543,0.1951795667409896,-0.1436819434165954,-1.1338547468185425,-0.3623443245887756,0.0,0.0,-0.1361192464828491,-0.4590013027191162
-0.0457836166024208,1.1034586429595947,0.1942055076360702,-0.1529916077852249,-1.1524908542633057,-0.372724711894989,0.0,0.0,-0.3391460180282593,-0.2526671886444092
-0.0439269058406353,1.1000738143920898,0.1934007406234741,-0.1623015403747558,-1.1716423034667969,-0.3830284476280212,0.0,0.0,-0.2980564832687378,-0.2260607481002807
-0.0420749671757221,1.0964887142181396,0.1927696019411087,-0.1716116219758987,-1.1913046836853027,-0.3932475745677948,0.0,0.0,-0.471768856048584,0.1881716251373291
-0.0402257926762104,1.0927035808563232,0.1923155486583709,-0.1809217482805252,-1.2114733457565308,-0.4033735692501068,0.0,0.0,-0.4844751358032226,0.4784640073776245
-0.0383771881461143,1.0887184143066406,0.1920410096645355,-0.1902317851781845,-1.2321431636810305,-0.4133972227573395,0.0,0.0,-0.5411714911460876,0.4006071090698242
-0.0365269668400287,1.0845330953598022,0.1919473707675933,-0.1995416283607483,-1.2533085346221924,-0.4233084619045257,0.0,0.0,-0.5907386541366577,0.6574704647064209
-0.0346599593758583,1.080089092254639,0.1937369555234909,-0.2123119086027145,-1.276310682296753,-0.4600417613983154,0.0,0.0,-0.4250863790512085,0.4643460512161255
-0.0327865593135356,1.0754451751708984,0.1939975172281265,-0.2216224372386932,-1.2997952699661257,-0.4696926176548004,0.0,0.0,-0.8061210513114929,0.5728557109832764
-0.0308913234621286,1.0705411434173584,0.1961257755756378,-0.2345008254051208,-1.3251432180404663,-0.5069593191146851,0.0,0.0,-0.5942696928977966,0.6207860708236694
-0.0289711952209472,1.0653599500656128,0.1984655410051345,-0.2484020590782165,-1.352723240852356,-0.5516002178192139,0.0,0.0,-0.8137619495391846,0.3700904846191406
-0.0270368568599224,1.0599783658981323,0.1992302387952804,-0.257712721824646,-1.3807612657546997,-0.5607610940933228,0.0,0.0,-0.8320686221122742,0.6333739757537842
-0.0250783916562795,1.0543155670166016,0.2012369930744171,-0.2718432247638702,-1.4110753536224363,-0.6062849760055542,0.0,0.0,-0.7842049598693848,0.5351535081863403
-0.0230923648923635,1.0483787059783936,0.2033634483814239,-0.28553307056427,-1.4434934854507446,-0.6483632326126099,0.0,0.0,-0.92363041639328,0.6749649047851562
-0.0210787765681743,1.0421481132507324,0.2052938491106033,-0.3003633320331573,-1.478423833847046,-0.6986099481582642,0.0,0.0,-0.9525615572929382,0.7876811027526855
-0.0190299041569232,1.0356297492980957,0.2077410221099853,-0.3148218393325805,-1.5157254934310913,-0.7460335493087769,0.0,0.0,-0.9271627068519592,0.7455735206604004
-0.016944695264101,1.0288223028182983,0.2100173681974411,-0.3293250799179077,-1.5553971529006958,-0.7934331893920898,0.0,0.0,-0.9761254787445068,0.7712690830230713
-0.0148238185793161,1.0217080116271973,0.211934894323349,-0.3448214828968048,-1.5977959632873535,-0.8479768633842468,0.0,0.0,-0.9724063277244568,0.7591360807418823
-0.0126738548278808,1.0142910480499268,0.2128448486328125,-0.3600054383277893,-1.6427937746047974,-0.8999560475349426,0.0,0.0,-0.9905105233192444,0.7748456001281738
-0.0104897497221827,1.006589412689209,0.2139627635478973,-0.3739797472953796,-1.689922332763672,-0.942574143409729,0.0,0.0,-0.9924293160438538,0.7956771850585938
-0.0082649234682321,0.9985784292221068,0.2153775691986084,-0.3893047571182251,-1.7396681308746338,-0.9949169158935548,0.0,0.0,-0.9957889914512634,0.7345949411392212
-0.0060035707429051,0.9902796149253844,0.2161134779453277,-0.4031972587108612,-1.791498064994812,-1.036600947380066,0.0,0.0,-0.9969251155853271,0.7539695501327515
-0.0036992072127759,0.9817012548446656,0.2172667980194091,-0.4163938760757446,-1.845122218132019,-1.072486162185669,0.0,0.0,-0.9965872168540956,0.807477593421936
-0.0013600349193438,0.9728063344955444,0.2171128988265991,-0.431592583656311,-1.901318311691284,-1.1239252090454102,0.0,0.0,-0.9977499842643738,0.6626152992248535
0.0010208130115643,0.9636264443397522,0.217600867152214,-0.4446666538715362,-1.9592626094818115,-1.158888339996338,0.0,0.0,-0.9981285333633424,0.7184233665466309
0.0034424781333655,0.9541571736335754,0.2177799195051193,-0.4577520191669464,-2.0189614295959477,-1.1939762830734253,0.0,0.0,-0.998557150363922,0.8349430561065674
0.0058936118148267,0.944380223751068,0.2164140939712524,-0.4716547131538391,-2.080803394317627,-1.2368428707122805,0.0,0.0,-0.9984639883041382,0.7071170806884766
0.0083827972412109,0.9343146681785583,0.2159914523363113,-0.4841070175170898,-2.144198179244995,-1.2678998708724976,0.0,0.0,-0.999084770679474,0.804969072341919
0.0109057426452636,0.9239560961723328,0.2149921208620071,-0.4965349435806274,-2.2091805934906006,-1.2996481657028198,0.0,0.0,-0.999339520931244,0.8099712133407593
0.0134488102048635,0.9132658839225768,0.2120116949081421,-0.5108157992362976,-2.27652907371521,-1.3469743728637695,0.0,0.0,-0.9991313219070436,0.8233795166015625
0.0160046573728323,0.9022530913352966,0.2082491219043731,-0.5242274403572083,-2.346060276031494,-1.3906270265579224,0.0,0.0,-0.9995765089988708,0.8100390434265137
0.0185713768005371,0.890899121761322,0.2040518075227737,-0.5381848216056824,-2.417959928512573,-1.4379991292953491,0.0,0.0,-0.9996603727340698,0.7303488254547119
0.0211618430912494,0.8792263865470886,0.201635479927063,-0.5504253506660461,-2.4914915561676025,-1.4706352949142456,0.0,0.0,-0.9997881650924684,0.864997148513794
0.023751163855195,0.8672031164169312,0.196179062128067,-0.5639901757240295,-2.5674099922180176,-1.5183722972869873,0.0,0.0,-0.9998286962509156,0.823631763458252
0.0263393409550189,0.8548466563224792,0.1911013424396515,-0.5762001872062683,-2.645325899124145,-1.5583223104476929,0.0,0.0,-0.9997442960739136,0.875810980796814
0.0289282798767089,0.8421528339385986,0.18654565513134,-0.5880953073501587,-2.725060224533081,-1.5946890115737915,0.0,0.0,-0.9998468160629272,0.8663961887359619
0.0315054878592491,0.8291190266609192,0.1808854937553405,-0.5997408032417297,-2.8067376613616943,-1.6335541009902954,0.0,0.0,-0.9998674392700196,0.9155147075653076
0.0340555198490619,0.8157544732093811,0.1739244163036346,-0.6105439066886902,-2.890460729598999,-1.6744701862335205,0.0,0.0,-0.9998798370361328,0.9183787107467652
0.0365967750549316,0.8020666241645813,0.1698705852031707,-0.6205074787139893,-2.9755654335021973,-1.702103853225708,0.0,0.0,-0.999879777431488,0.9262380599975586
0.0391228683292865,0.7880614995956421,0.1657601147890091,-0.6298576593399048,-3.062004566192627,-1.7287914752960205,0.0,0.0,-0.9999105930328368,0.9157097339630128
0.0416156761348247,0.773739218711853,0.1601694524288177,-0.6389304995536804,-3.1500539779663086,-1.7609970569610596,0.0,0.0,-0.9999435544013976,0.939345121383667
0.0440612807869911,0.7591062188148499,0.1536960303783416,-0.6474020481109619,-3.239879608154297,-1.7965160608291626,0.0,0.0,-0.9999359846115112,0.9431686401367188
0.0464409813284873,0.7441776990890503,0.1457737237215042,-0.6548532247543335,-3.3317995071411133,-1.8384090662002563,0.0,0.0,-0.9999498128890992,0.9557580947875975
0.0487504005432128,0.7289497256278992,0.1383716166019439,-0.662201464176178,-3.4257254600524902,-1.8785291910171509,0.0,0.0,-0.9999570846557616,0.9670193195343018
0.0509905815124511,0.7134241461753845,0.1322003155946731,-0.6692627668380737,-3.5214436054229736,-1.9143787622451784,0.0,0.0,-0.9999567866325378,0.975494146347046
