x_pos,y_pos,x_vel,y_vel,angle,ang_vel,leg_1,leg_2,main_booster,lat_booster
-0.0015166283119469,1.4034826755523682,-0.1542787402868271,-0.3305526673793793,0.0023479298688471,0.0463588573038578,0.0,0.0,-0.3287472724914551,0.9393311738967896
-0.0029427527915686,1.395922303199768,-0.1434833407402038,-0.3360150754451751,0.0031980162020772,0.0170040279626846,0.0,0.0,-0.2986102700233459,0.558361291885376
-0.0043018339201807,1.3882157802581787,-0.1359844356775283,-0.3425067663192749,0.003275073133409,0.0015413902001455,0.0,0.0,-0.4272081851959228,0.3447639942169189
-0.0056442259810864,1.3803677558898926,-0.1348977833986282,-0.3488123714923858,0.0039261910133063,0.0130238030105829,0.0,0.0,-0.019856572151184,0.5750532150268555
-0.0069121359847486,1.3723797798156738,-0.1266254782676696,-0.3550165891647339,0.0037685325369238,-0.0031534773297607,0.0,0.0,-0.1706098318099975,0.8138072490692139
-0.0080787660554051,1.3642494678497314,-0.1150832548737526,-0.3613462150096893,0.0022058170288801,-0.0312571600079536,0.0,0.0,-0.1859400272369384,0.204485535621643
-0.0092198373749852,1.3559774160385132,-0.1131093278527259,-0.3676484525203705,0.00121331657283,-0.019851665943861,0.0,0.0,-0.3491330146789551,0.6987149715423584
-0.0102642057463526,1.3475656509399414,-0.1022525057196617,-0.3738535940647125,-0.0009376122034154,-0.0430225990712642,0.0,0.0,-0.2508394718170166,0.6624000072479248
-0.0112262722104787,1.3390192985534668,-0.0933199226856231,-0.3798403143882751,-0.0038069596048444,-0.05739226937294,0.0,0.0,-0.6102799773216248,0.4295854568481445
-0.0121550559997558,1.330331325531006,-0.0905426442623138,-0.3861427903175354,-0.0061112162657082,-0.0460892170667648,0.0,0.0,-0.8128904700279236,-0.5006623268127441
-0.0130817415192723,1.3215020895004272,-0.0917627364397049,-0.3924120664596557,-0.0070023238658905,-0.0178238283842802,0.0,0.0,-0.9268226027488708,0.6840102672576904
-0.0139100076630711,1.3125290870666504,-0.0809540376067161,-0.3988122642040252,-0.0088473800569772,-0.0369048789143562,0.0,0.0,-0.5787338018417358,0.3340401649475097
-0.0146977426484227,1.3034141063690186,-0.077472798526287,-0.4051145017147064,-0.0101321591064333,-0.025698285549879,0.0,0.0,-0.9255967736244202,-0.0445541143417358
-0.015442943200469,1.2941573858261108,-0.0737792998552322,-0.4114165604114532,-0.0108597548678517,-0.0145531836897134,0.0,0.0,-0.7034130692481995,0.1028000116348266
-0.016143511980772,1.2847588062286377,-0.0698835477232933,-0.4177184402942657,-0.0110317794606089,-0.0034411333035677,0.0,0.0,-0.9254841804504396,0.2294199466705322
-0.0167975425720214,1.2752182483673096,-0.0657961666584014,-0.4240202605724334,-0.0106502510607242,0.0076312399469316,0.0,0.0,-0.8784626126289368,0.244913101196289
-0.0174034126102924,1.265535831451416,-0.0615273788571357,-0.4303221702575683,-0.0097171748057007,0.0186632089316844,0.0,0.0,-0.7999845743179321,0.2417584657669067
-0.0179593078792095,1.255711555480957,-0.0570872351527214,-0.436624139547348,-0.0082345977425575,0.0296541340649127,0.0,0.0,-0.8978413939476013,-0.0903035402297973
-0.0184636116027832,1.2457456588745115,-0.0524854660034179,-0.4429263174533844,-0.0062046200037002,0.040603220462799,0.0,0.0,-0.9435049891471864,0.3178191184997558
-0.0189148895442485,1.235637664794922,-0.0477315858006477,-0.4492287635803222,-0.0036293668672442,0.051509965211153,0.0,0.0,-0.939646303653717,0.0498931407928466
-0.0193117149174213,1.2253881692886353,-0.0428347028791904,-0.4555315375328064,-0.0005109784542582,0.0623731091618537,0.0,0.0,-0.9694067239761353,0.4508490562438965
-0.0196528434753417,1.2149969339370728,-0.0378035716712474,-0.4618347883224487,0.0031482852064073,0.0731916278600692,0.0,0.0,-0.9570630192756652,-0.4391774535179138
-0.0199368484318256,1.2044641971588137,-0.0326466597616672,-0.4681385159492492,0.0073461374267935,0.0839644372463226,0.0,0.0,-0.9575126767158508,-0.7133439779281616
-0.0202125553041696,1.1937813758850098,-0.0336257182061672,-0.4748261272907257,0.0133339622989296,0.1197670698165893,0.0,0.0,-0.8328087329864502,0.7393022775650024
-0.0203843116760253,1.1829605102539062,-0.0226394198834896,-0.480991780757904,0.0187314711511135,0.1079597473144531,0.0,0.0,-0.9841495752334596,0.1490644216537475
-0.0204956047236919,1.1719768047332764,-0.0171249229460954,-0.4882513880729675,0.0246613509953022,0.1185974925756454,0.0,0.0,-0.9545512199401855,0.8777475357055664
-0.0204755775630474,1.1608600616455078,-0.0027657868340611,-0.494168221950531,0.0293640438467264,0.0940539389848709,0.0,0.0,-0.9798835515975952,0.4487521648406982
-0.0203933715820312,1.149601936340332,0.0029245556797832,-0.5004717707633972,0.0345948040485382,0.1046153306961059,0.0,0.0,-0.8595919609069824,0.9605166912078856
-0.0201888084411621,1.1382137537002563,0.0161477942019701,-0.5062512755393982,0.0388537868857383,0.0851795971393585,0.0,0.0,-0.8530911207199097,0.71451735496521
-0.0198657996952533,1.1266846656799316,0.028850058093667,-0.5124971270561218,0.0422648601233959,0.0682214498519897,0.0,0.0,-0.9508097171783448,0.3668427467346191
-0.0194782260805368,1.1150143146514893,0.034775324165821,-0.5188003778457642,0.046197060495615,0.0786440223455429,0.0,0.0,-0.8936381936073303,0.9671372175216676
-0.0189587585628032,1.1032016277313232,0.0491386465728282,-0.525097131729126,0.0489730164408683,0.0555192418396472,0.0,0.0,-0.8825158476829529,0.6074362993240356
-0.0183322913944721,1.0912563800811768,0.0603723414242267,-0.530977189540863,0.0512207336723804,0.0449540726840496,0.0,0.0,-0.9648922681808472,0.8430497646331787
-0.0175796505063772,1.0791666507720947,0.0739836543798446,-0.5373648405075073,0.0524826236069202,0.0252380259335041,0.0,0.0,-0.9039543867111206,0.1579533815383911
-0.0167603492736816,1.0669355392456057,0.0801451951265335,-0.5436675548553467,0.0542541295289993,0.0354301258921623,0.0,0.0,-0.9609683156013488,0.2744929790496826
-0.0158737190067768,1.054563045501709,0.0863537490367889,-0.5499705672264099,0.0565318167209625,0.0455536469817161,0.0,0.0,-0.910920798778534,0.4965298175811767
-0.0149195669218897,1.042049527168274,0.0926049202680587,-0.5562738180160522,0.0593119822442531,0.0556032247841358,0.0,0.0,-0.8730388879776001,-0.2505408525466919
-0.01389741897583,1.029394507408142,0.0988944917917251,-0.5625774264335632,0.0625906139612197,0.0655731335282325,0.0,0.0,-0.7109693288803101,-0.1220772862434387
-0.0128070833161473,1.0165984630584717,0.1052184477448463,-0.5688813328742981,0.0663634464144706,0.0754564851522445,0.0,0.0,-0.8650447130203247,-0.000709056854248
-0.0116483690217137,1.0036611557006836,0.1115729063749313,-0.5751857161521912,0.0706257671117782,0.0852462202310562,0.0,0.0,-0.9413654804229736,-0.1327557563781738
-0.0104208942502737,0.9905827045440674,0.117954172194004,-0.5814905762672424,0.0753724947571754,0.0949343964457511,0.0,0.0,-0.9329643845558168,0.4878652095794678
-0.0091244699433445,0.977363646030426,0.124358631670475,-0.5877959132194519,0.0805981084704399,0.1045122966170311,0.0,0.0,-0.9020257592201232,-0.2674039602279663
-0.0077590942382812,0.9640035033226012,0.1307828426361084,-0.5941017866134644,0.0862966105341911,0.1139703243970871,0.0,0.0,-0.9033041000366212,0.680227518081665
-0.0062621114775538,0.950509250164032,0.1450705826282501,-0.600017786026001,0.0908831357955932,0.0917307212948799,0.0,0.0,-0.9447247982025146,-0.706601619720459
-0.0047548292204737,0.9368578791618348,0.1441154032945633,-0.6071476340293884,0.0974349081516265,0.1310353726148605,0.0,0.0,-0.8636338710784912,-0.484626293182373
-0.0031785010360181,0.9230658411979676,0.1505790650844574,-0.6134554147720337,0.1044382750988006,0.1400673389434814,0.0,0.0,-0.893839955329895,-0.4822763800621032
-0.0015329361194744,0.9091333746910096,0.1570496261119842,-0.6197637915611267,0.1118848621845245,0.1489318907260894,0.0,0.0,-0.8880131840705872,0.3919728994369507
0.0001815795840229,0.8950605988502502,0.1635240316390991,-0.6260729432106018,0.1197655871510505,0.157614603638649,0.0,0.0,-0.7866647243499756,0.2911341190338135
0.0019651413895189,0.8808476328849792,0.1699993312358856,-0.6323828101158142,0.1280705779790878,0.1661000102758407,0.0,0.0,-0.9322261214256288,0.840836763381958
0.0038812637794762,0.8665041327476501,0.184483915567398,-0.638114333152771,0.135169968008995,0.1419881880283355,0.0,0.0,-0.8699475526809692,-0.1122856736183166
0.0058660507202148,0.8520203828811646,0.1909518241882324,-0.6444236040115356,0.1426713764667511,0.1500281393527984,0.0,0.0,-0.6912104487419128,0.7280759811401367
0.0079703330993652,0.8374122977256775,0.2038390636444091,-0.6498997807502747,0.1492433249950409,0.131439134478569,0.0,0.0,-0.8022722005844116,0.7465187311172485
0.0102122304961085,0.8226748704910278,0.2189912796020507,-0.655522882938385,0.1544291824102401,0.1037171334028244,0.0,0.0,-0.8745367527008057,-0.4998384714126587
0.0125220296904444,0.807796835899353,0.2254263460636139,-0.6618301868438721,0.1599763929843902,0.1109444499015808,0.0,0.0,-0.8859087228775024,-0.6124982237815857
0.0148635860532522,0.7927674651145935,0.227350115776062,-0.6687251925468445,0.1667933464050293,0.1363390684127807,0.0,0.0,-0.9073604345321656,0.1204704046249389
0.0172723773866891,0.7775976061820984,0.233749657869339,-0.6750339865684509,0.1739392131567001,0.1429170072078704,0.0,0.0,-0.6533558964729309,0.627326488494873
0.0198038108646869,0.7623077034950256,0.2471555024385452,-0.6802594661712646,0.1799387633800506,0.1199908033013343,0.0,0.0,-0.7773364782333374,-0.3461646437644958
0.0224015228450298,0.7468771934509277,0.2535074949264526,-0.6865671873092651,0.1862301528453827,0.1258277744054794,0.0,0.0,-0.8397757411003113,-0.3868991136550903
0.0250650402158498,0.7313063740730286,0.2598315775394439,-0.6928750276565552,0.1927931010723114,0.1312588155269622,0.0,0.0,-0.9494725465774536,-0.749823272228241
0.0277276989072561,0.7155823111534119,0.2578085064888,-0.6999690532684326,0.2012975513935089,0.1700888574123382,0.0,0.0,-0.909625768661499,0.3583290576934814
0.0304551124572753,0.6997181177139282,0.2640686333179474,-0.7062791585922241,0.2100294679403305,0.1746387928724289,0.0,0.0,-0.8258352875709534,0.0382161140441894
0.0332466140389442,0.6837136745452881,0.2702919840812683,-0.7125893831253052,0.2189652323722839,0.178715169429779,0.0,0.0,-0.8348283767700195,0.2982226610183716
0.0361014381051063,0.6675692200660706,0.2764755487442016,-0.718899667263031,0.228080078959465,0.1822972595691681,0.0,0.0,-0.8812609910964966,0.4404122829437256
0.0390189178287982,0.651284396648407,0.2826162278652191,-0.7252098321914673,0.2373483777046203,0.1853659600019455,0.0,0.0,-0.9354953169822692,0.7054843902587891
0.0420541763305664,0.6348740458488464,0.2956920266151428,-0.7306326627731323,0.2453059554100036,0.1591519713401794,0.0,0.0,-0.904254913330078,0.2965452671051025
0.0451505668461322,0.618323028087616,0.3017366230487823,-0.7369402050971985,0.253363162279129,0.1611442565917968,0.0,0.0,-0.7651004791259766,-0.2003728747367859
0.0483075156807899,0.6016313433647156,0.3077285885810852,-0.7432473301887512,0.2614920437335968,0.1625781059265136,0.0,0.0,-0.5818395614624023,-0.1280790567398071
0.0515240654349327,0.5847989916801453,0.3136645555496216,-0.7495540976524353,0.2696642279624939,0.1634439378976822,0.0,0.0,-0.0104854106903076,0.3816877603530884
0.0547992698848247,0.5678256750106812,0.3195410966873169,-0.7558603286743164,0.2778509855270386,0.1637351810932159,0.0,0.0,-0.0991365313529968,0.6233046054840088
0.0581727996468544,0.5507257580757141,0.3304286003112793,-0.7613267302513123,0.2849594056606293,0.1421681493520736,0.0,0.0,-0.0588299036026001,-0.3760983943939209
0.0616031661629676,0.5334845781326294,0.3361754417419433,-0.7676302790641785,0.292024552822113,0.1413035690784454,0.0,0.0,0.8671905994415283,-0.5407623052597046
0.0648814216256141,0.5171110033988953,0.3198775053024292,-0.7293259501457214,0.3002201914787292,0.1639129668474197,0.0,0.0,0.6568484306335449,0.6478458642959595
0.0678774863481521,0.5017769932746887,0.2933663725852966,-0.6828134655952454,0.3066741526126861,0.1290788352489471,0.0,0.0,0.5210976600646973,0.5718261003494263
0.070879653096199,0.4871149957180023,0.2950679957866668,-0.6527418494224548,0.3120059669017792,0.1066364496946334,0.0,0.0,0.040374755859375,-0.2584580183029175
0.0738388076424598,0.4726527333259582,0.2910275757312774,-0.643828809261322,0.317083865404129,0.1015576496720314,0.0,0.0,0.1252806186676025,0.3956457376480102
0.0768247619271278,0.4583854675292969,0.2936796545982361,-0.6351842284202576,0.3221936225891113,0.1021956950426101,0.0,0.0,-0.2355408668518066,-0.0607891082763671
0.0798612609505653,0.4439758360385895,0.2989517748355865,-0.6414811611175537,0.3270953297615051,0.0980339348316192,0.0,0.0,-0.173170268535614,0.2928035259246826
0.0829474478960037,0.4294238090515136,0.3041321039199829,-0.6477771997451782,0.3317641317844391,0.093375876545906,0.0,0.0,0.0976887941360473,0.2693475484848022
0.0859555229544639,0.4155238270759582,0.2963573336601257,-0.6188080906867981,0.3364221453666687,0.0931604728102684,0.0,0.0,0.4677249193191528,0.2080047130584716
0.0886770263314247,0.4024598896503448,0.2684066891670227,-0.5814999341964722,0.3403395414352417,0.0783477276563644,0.0,0.0,0.3507289886474609,-0.0592684149742126
0.0912543311715126,0.389582872390747,0.254747211933136,-0.5730189085006714,0.3434666097164154,0.0625413805246353,0.0,0.0,0.5213370323181152,0.1376595497131347
0.093666173517704,0.3776096999645233,0.2383480370044708,-0.53282231092453,0.3464440405368805,0.0595488138496875,0.0,0.0,0.8162215948104858,0.89817214012146
0.0958571434020996,0.366358995437622,0.2185336351394653,-0.5001673102378845,0.3470346629619598,0.0118127446621656,0.0,0.0,0.7026189565658569,0.7785353660583496
0.0978510826826095,0.3559528887271881,0.2008093893527984,-0.4621540307998657,0.3455509841442108,-0.0296734329313039,0.0,0.0,0.8888251781463623,0.894153356552124
0.0996660217642784,0.3465640246868133,0.185039147734642,-0.4164339005947113,0.3418272733688354,-0.0744741559028625,0.0,0.0,0.8877475261688232,0.6293907165527344
0.1014447212219238,0.3380501866340637,0.1827702671289444,-0.3772426545619964,0.3366972208023071,-0.1026003211736679,0.0,0.0,0.8162119388580322,-0.3191429376602173
0.1031617149710655,0.329938679933548,0.1768856346607208,-0.3593086898326874,0.3312813937664032,-0.1083166748285293,0.0,0.0,0.9176948070526124,-0.366344690322876
0.1048652678728103,0.3223995268344879,0.1754693686962127,-0.3339106738567352,0.3259435892105102,-0.1067561954259872,0.0,0.0,0.8720053434371948,-0.7560833692550659
0.1065122634172439,0.3156948089599609,0.1683844029903412,-0.2971647977828979,0.3221113681793213,-0.0766446739435195,0.0,0.0,0.8695110082626343,-0.8451013565063477
0.1081544905900955,0.3095260858535766,0.166358008980751,-0.2736945748329162,0.3198971450328827,-0.0442842468619346,0.0,0.0,0.87807297706604,-0.8918287754058838
0.1094861030578613,0.3043994009494781,0.1339886486530304,-0.227667361497879,0.3190277516841888,-0.0173879116773605,0.0,0.0,0.833753228187561,-0.6528205871582031
0.110569953918457,0.3003261089324951,0.1083076149225235,-0.1810510456562042,0.3191102147102356,0.0016491658752784,0.0,0.0,0.5730137825012207,-0.7351815104484558
0.1115527153015136,0.2970505058765411,0.0969836860895156,-0.1458661556243896,0.32045379281044,0.0268713869154453,0.0,0.0,0.9663126468658448,-0.8120059967041016
0.1125065833330154,0.2942078709602356,0.0927003771066665,-0.1269399225711822,0.323259025812149,0.0561046972870826,0.0,0.0,0.9827685356140136,-0.3785002827644348
0.1132334694266319,0.2920606732368469,0.0707451179623603,-0.0958674177527427,0.3252826333045959,0.0404714867472648,0.0,0.0,0.9507557153701782,-0.4382801055908203
0.1137549430131912,0.291265457868576,0.0502369329333305,-0.0357709154486656,0.3272715508937835,0.0397784560918808,0.0,0.0,0.9226393699645996,0.2628732919692993
0.1140618324279785,0.2912540733814239,0.0293810125440359,-0.0008008285076357,0.3286318182945251,0.027205279096961,0.0,0.0,0.7431482076644897,0.5610787868499756
0.1140281707048416,0.2922486364841461,-0.0027284240350127,0.0443487986922264,0.3279605805873871,-0.0134245781227946,0.0,0.0,-0.6350352168083191,0.4339523315429687
0.114015482366085,0.2930992245674133,-0.0001208441099151,0.0380622185766696,0.3267754018306732,-0.0237037613987922,0.0,0.0,-0.5410316586494446,0.9471163749694824
0.1140854805707931,0.2938450872898102,0.0103252446278929,0.0338994674384593,0.3233011662960052,-0.0694843903183937,0.0,0.0,-0.7995845675468445,0.8036601543426514
0.1142240539193153,0.2944787442684173,0.0190712995827198,0.02931435033679,0.3178822696208954,-0.1083780378103256,0.0,0.0,-0.8463190793991089,0.8765290975570679
0.1144430190324783,0.2949971556663513,0.0292648859322071,0.0246418993920087,0.3102254271507263,-0.1531363278627395,0.0,0.0,-0.9823817610740662,0.8920097351074219
0.1147309318184852,0.2953994274139404,0.0381213352084159,0.0198426190763711,0.3005719482898712,-0.1930702328681945,0.0,0.0,-0.997435450553894,0.4756374359130859
0.1150327697396278,0.2956591248512268,0.0400605499744415,0.0135479932650923,0.2903850674629211,-0.2037379294633865,0.0,0.0,-0.999165415763855,0.8147433996200562
0.1154185310006141,0.2958137691020965,0.0508989170193672,0.0092743942514061,0.2777106761932373,-0.2534878849983215,0.0,0.0,-0.9992454648017884,0.4788984060287475
0.115815445780754,0.2958267033100128,0.0525830015540123,0.0029734396375715,0.2644976377487182,-0.2642608880996704,0.0,0.0,-0.9994792342185974,0.6032592058181763
0.1162781715393066,0.2957263588905334,0.061238944530487,-0.0018319122027605,0.2492238879203796,-0.3054748475551605,0.0,0.0,-0.999852418899536,0.7619400024414062
0.1168042197823524,0.2955134212970733,0.069630317389965,-0.0066694756969809,0.2319207340478897,-0.3460631072521209,0.0,0.0,-0.9992006421089172,0.8236794471740723
0.1174140945076942,0.2951985597610473,0.0806548148393631,-0.0110191693529486,0.2120109498500824,-0.3981958627700805,0.0,0.0,-0.9964389204978944,0.7881755828857422
0.1180981621146202,0.2947684824466705,0.0904830321669578,-0.0161018408834934,0.1897686421871185,-0.4448463320732116,0.0,0.0,-0.9982448220252992,0.8412991762161255
0.1188500374555587,0.2942292690277099,0.0995802283287048,-0.0210280921310186,0.1653051227331161,-0.4892708659172058,0.0,0.0,-0.9972588419914246,0.8958832025527954
0.1196811646223068,0.2935827374458313,0.1101409047842025,-0.025949977338314,0.1383139044046402,-0.5398245453834534,0.0,0.0,-0.9862642884254456,0.6067140102386475
0.1205687522888183,0.2928121984004974,0.1178157925605773,-0.0318095944821834,0.1094007641077041,-0.5782632231712341,0.0,0.0,-0.9915398955345154,-0.7465590834617615
0.1213869079947471,0.2918992340564728,0.1097191199660301,-0.0387673303484916,0.0817296206951141,-0.5534231662750244,0.0,0.0,-0.9926984310150146,-0.6348428130149841
0.1221450790762901,0.290844589471817,0.1027828902006149,-0.0456180423498153,0.055043026804924,-0.533731997013092,0.0,0.0,-0.8497032523155212,-0.7761997580528259
0.1228395476937294,0.2896511852741241,0.0953938588500022,-0.0522881634533405,0.0294056162238121,-0.5127483606338501,0.0,0.0,-0.9911624193191528,-0.8816728591918945
0.1234663948416709,0.2883195877075195,0.0875119268894195,-0.0588787980377674,0.0048948852345347,-0.4902148842811584,0.0,0.0,-0.8384109139442444,-0.966037094593048
0.1240318268537521,0.2868446111679077,0.0804041475057601,-0.0656459107995033,-0.018663315102458,-0.4711639881134033,0.0,0.0,-0.9799421429634094,-0.9821953177452089
0.1245297417044639,0.2852412760257721,0.0725562125444412,-0.0716976895928382,-0.0411365032196044,-0.4494636952877044,0.0,0.0,-0.9878396391868592,-0.9987887144088744
0.1249493584036827,0.2835170030593872,0.0633279830217361,-0.0773559287190437,-0.0622566752135753,-0.4224036335945129,0.0,0.0,-0.9951208233833312,-0.9120829105377196
0.1253004074096679,0.2816529273986816,0.0553730055689811,-0.0838108584284782,-0.0823084339499473,-0.4010353982448578,0.0,0.0,-0.9984606504440308,-0.991325318813324
0.1255820244550705,0.2796625792980194,0.0472738854587078,-0.0896238088607788,-0.1012597531080246,-0.3790261149406433,0.0,0.0,-0.9998584985733032,-0.956601619720459
