x_pos,y_pos,x_vel,y_vel,angle,ang_vel,leg_1,leg_2,main_booster,lat_booster
-0.0015411376953125,1.4034663438796997,-0.1567800939083099,-0.3312767148017883,0.0023919236846268,0.0472295060753822,0.0,0.0,-0.9267218054487844,0.834622394483637
-0.0030284882523119,1.3958739042282104,-0.149893581867218,-0.3374418914318084,0.0035339028108865,0.0228427555412054,0.0,0.0,0.3663113629729668,0.9163911859935888
-0.0043356893584132,1.3886184692382812,-0.130778282880783,-0.3224634826183319,0.003589067608118,0.0011034182971343,0.0,0.0,0.5551299878877782,-0.50679777098098
-0.0058213234879076,1.3819078207015991,-0.1498866379261016,-0.298257827758789,0.0048969984054565,0.0261609442532062,0.0,0.0,-0.1631492597197639,0.7417848351214585
-0.0072527886368334,1.3750418424606323,-0.1432650238275528,-0.3051564395427704,0.0050075519829988,0.0022114119492471,0.0,0.0,0.6489247360529529,0.6965305754772588
-0.0084992405027151,1.3688313961029053,-0.1242896541953086,-0.2760165333747864,0.004659988451749,-0.0069521060213446,0.0,0.0,0.008700460746128,-0.6987462716356448
-0.0098342895507812,1.362991213798523,-0.1351202130317688,-0.2595712840557098,0.00625268695876,0.031857144087553,0.0,0.0,0.0532703555356119,0.9803431574103424
-0.0109964367002248,1.3576161861419678,-0.1164053827524185,-0.238887533545494,0.0064405333250761,0.0037573378067463,0.0,0.0,-0.1352588700557173,0.7698781615384497
-0.0121149066835641,1.3520920276641846,-0.1110912784934043,-0.24551323056221,0.0056908237747848,-0.014995721168816,0.0,0.0,0.4224190575199396,-0.5926123439353759
-0.0132998470216989,1.347351312637329,-0.1194759830832481,-0.2107036858797073,0.0066610681824386,0.0194066427648067,0.0,0.0,-0.5287183372793831,-0.8094148157834615
-0.0145547864958643,1.3424525260925293,-0.1284040510654449,-0.2177431136369705,0.0095432633534073,0.057649053633213,0.0,0.0,-0.449697051097236,0.990688460514819
-0.0157374385744333,1.337394952774048,-0.119497574865818,-0.2247881442308426,0.010759187862277,0.0243209060281515,0.0,0.0,0.8580569188477825,0.5594418735904776
-0.0167430881410837,1.3333653211593628,-0.1016567200422287,-0.1790982186794281,0.0118374181911349,0.0215666070580482,0.0,0.0,0.2162846056715957,-0.6644066462227483
-0.0177618023008108,1.3295636177062988,-0.1048955768346786,-0.1689885705709457,0.0148280104622244,0.0598171167075634,0.0,0.0,0.2972371778903182,-0.5817191842361225
-0.0187288280576467,1.3265827894210815,-0.1016409397125244,-0.1325379908084869,0.0197167061269283,0.0977825075387954,0.0,0.0,-0.9259846723709456,-0.5350501425861083
-0.0197442062199115,1.323436975479126,-0.1078486591577529,-0.1399096548557281,0.0259540695697069,0.1247586011886596,0.0,0.0,-0.0553960254299534,0.9692766378329464
-0.0206796638667583,1.3201487064361572,-0.0979217067360878,-0.1462308466434478,0.0302927289158105,0.086781196296215,0.0,0.0,0.0822179330139156,-0.7818430153583458
-0.0215894691646099,1.317066311836243,-0.0974691957235336,-0.1371404826641082,0.0367074832320213,0.1283070743083953,0.0,0.0,0.254116764218415,0.7536249359516635
-0.0223921779543161,1.3147549629211426,-0.0857871919870376,-0.1028787568211555,0.0421621687710285,0.109103575348854,0.0,0.0,-0.9752641434907235,-0.7269638835331409
-0.0232726093381643,1.312281370162964,-0.0956475809216499,-0.1101607456803321,0.0496740862727165,0.1502524465322494,0.0,0.0,-0.3230663428888936,0.6202820733377123
-0.0241065975278615,1.3096598386764526,-0.0898759663105011,-0.1167428493499755,0.0560911074280738,0.1283518821001052,0.0,0.0,-0.4229901963174132,-0.9101560453918284
-0.0250228885561227,1.3068701028823853,-0.1002955436706543,-0.1243347451090812,0.0646670907735824,0.1715350002050399,0.0,0.0,0.1500081246967066,-0.7115038837601873
-0.0259296409785747,1.3044943809509275,-0.1012290492653846,-0.1060682237148284,0.0751353800296783,0.2093843668699264,0.0,0.0,-0.9974812499259132,-0.6803952376827858
-0.0268951412290334,1.3019498586654663,-0.1086514592170715,-0.1137460321187973,0.0871444046497345,0.2402018010616302,0.0,0.0,-0.8559927289400242,-0.8194840673504693
-0.0279519073665142,0.0,-0.12013790756464,-0.1212697550654411,0.1014904752373695,0.2869468629360199,0.0,0.0,-0.3545130491364467,0.8732093839324577
-0.0289666168391704,1.2963694334030151,-0.1148934587836265,-0.1286188066005706,0.1148138493299484,0.2664679586887359,0.0,0.0,0.8370497977056317,0.7025330807633677
-0.0300250053405761,1.2945600748062134,-0.11811413615942,-0.081403836607933,0.1270208656787872,0.2441399842500686,0.0,0.0,0.653121274398246,0.7274558611337096
-0.0312838554382324,1.293814778327942,-0.1366439312696457,-0.0340763852000236,0.1377348899841308,0.2142801731824875,0.0,0.0,-0.1257119331246052,-0.7911751504349523
-0.0326286330819129,1.2929043769836426,-0.1473717391490936,-0.0417005866765975,0.1505978852510452,0.2572598159313202,0.0,0.0,0.3990098302762725,-0.9302383182779316
-0.0341372489929199,1.292426824569702,-0.1657991111278534,-0.022807715460658,0.1655094772577285,0.2982319891452789,0.0,0.0,-0.3890919546888274,-0.6986882634323167
-0.0357091911137104,1.2917892932891846,-0.1735982894897461,-0.0302462484687566,0.1819499433040619,0.3288096785545349,0.0,0.0,-0.9961840510368348,0.9984441995620728
-0.0372219085693359,1.2910102605819702,-0.1660584658384323,-0.0365085192024707,0.1968018412590026,0.2970382571220398,0.0,0.0,-0.9921550750732422,0.998367428779602
-0.0386780723929405,1.2901051044464111,-0.1587540656328201,-0.0420291498303413,0.2100421339273452,0.2648056745529175,0.0,0.0,-0.9446070194244384,0.9901669025421144
-0.0400730147957801,1.2890572547912598,-0.150938019156456,-0.0482387095689773,0.2216071337461471,0.2313000708818435,0.0,0.0,-0.9870938658714294,0.9979543685913086
-0.0413973815739154,1.287881851196289,-0.1418890058994293,-0.0536936484277248,0.2311786413192749,0.1914298832416534,0.0,0.0,-0.9548025727272034,0.9899795055389404
-0.0426523201167583,1.2865842580795288,-0.132936492562294,-0.0588580481708049,0.2387335151433944,0.1510974019765854,0.0,0.0,-0.9913421869277954,0.9977165460586548
-0.0438405983150005,1.2851508855819702,-0.1243869811296463,-0.0646140649914741,0.2443861365318298,0.1130521148443222,0.0,0.0,-0.992946207523346,0.9898338317871094
-0.044956587255001,1.2835973501205444,-0.1150508075952529,-0.0696260556578636,0.2478998154401779,0.0702737718820571,0.0,0.0,-0.9991429448127748,0.998345136642456
-0.0460098274052143,1.2819236516952517,-0.106875754892826,-0.074656642973423,0.2494855523109436,0.0317143574357032,0.0,0.0,-0.9984523057937622,0.9836035966873168
-0.0469908714294433,1.2801227569580078,-0.0975602716207504,-0.079942487180233,0.2489304691553115,-0.0111013865098357,0.0,0.0,-0.9607523679733276,0.9752914905548096
-0.0479180328547954,1.278195023536682,-0.0904929488897323,-0.0853020399808883,0.2466629892587661,-0.0453495606780052,0.0,0.0,-0.9999520182609558,0.9673256874084472
-0.0487615577876567,1.276140570640564,-0.0797007158398628,-0.0905344560742378,0.2419343292713165,-0.0945732966065406,0.0,0.0,-0.9739433526992798,0.9698822498321532
-0.0495224967598915,1.2739498615264893,-0.0690873637795448,-0.0962340906262397,0.2348082363605499,-0.1425216495990753,0.0,0.0,-0.9980413913726808,0.9222960472106934
-0.050206184387207,1.2716290950775146,-0.0590481236577034,-0.1016862019896507,0.2253608107566833,-0.1889488399028778,0.0,0.0,-0.9983921647071838,0.96409273147583
-0.0508241653442382,1.2691638469696045,-0.0504942014813423,-0.1078798845410347,0.2139326333999633,-0.2285632342100143,0.0,0.0,-0.9940816164016724,0.5022592544555664
-0.0514046661555767,1.2665504217147827,-0.045446652919054,-0.1143741905689239,0.2012204974889755,-0.2542428374290466,0.0,0.0,-0.975026547908783,0.2858668565750122
-0.0519899353384971,1.2637804746627808,-0.0456719622015953,-0.1214084327220916,0.1882874369621276,-0.2586611211299896,0.0,0.0,-0.9345524907112122,-0.0670498013496398
-0.0525796897709369,1.2608542442321775,-0.0458534844219684,-0.1284430772066116,0.1751134097576141,-0.2634806036949157,0.0,0.0,-0.9077968597412108,-0.2321295142173767
-0.053173828870058,1.257771611213684,-0.0459928885102272,-0.1354782879352569,0.1616792231798172,-0.2686839997768402,0.0,0.0,-0.9547139406204224,-0.1422464251518249
-0.05377197265625,1.2545326948165894,-0.0460919141769409,-0.1425141543149948,0.1479665488004684,-0.2742539048194885,0.0,0.0,-0.8500264883041382,-0.6287345886230469
-0.0544115081429481,1.2511290311813354,-0.0508551597595214,-0.1500257104635238,0.1349158883094787,-0.2610132694244385,0.0,0.0,-0.8645020723342896,-0.3691884279251098
-0.0550544746220111,1.2475690841674805,-0.0508793108165264,-0.1570610105991363,0.1215526685118675,-0.267264574766159,0.0,0.0,-0.9359197616577148,-0.5364999175071716
-0.05573520809412,1.24384343624115,-0.0551728010177612,-0.1645815372467041,0.1087389886379242,-0.2562734186649322,0.0,0.0,-0.8922882676124573,-0.3825207948684692
-0.0564190857112407,1.2399616241455078,-0.0551293715834617,-0.1716167628765106,0.0955821275711059,-0.2631376087665558,0.0,0.0,-0.9581403732299804,-0.5224783420562744
-0.0571368224918842,1.2359169721603394,-0.0589290186762809,-0.1789885908365249,0.0828523933887481,-0.2545945048332214,0.0,0.0,-0.9351171255111694,-0.5078898668289185
-0.0579036697745323,1.23170804977417,-0.0646366700530052,-0.1864468455314636,0.070925086736679,-0.2385460883378982,0.0,0.0,-0.9286548495292664,-0.3569308519363403
-0.0586731918156147,1.2273424863815308,-0.0645064860582351,-0.1934811472892761,0.0586146935820579,-0.2462077438831329,0.0,0.0,-0.9731764197349548,0.4934539794921875
-0.059445284307003,1.22282075881958,-0.0643511265516281,-0.2005165666341781,0.0459095016121864,-0.2541039884090423,0.0,0.0,-0.924469232559204,0.0433688163757324
-0.0602196678519248,1.218142867088318,-0.064172625541687,-0.2075531929731369,0.032798483967781,-0.2622204422950744,0.0,0.0,-0.9809153079986572,-0.1574699282646179
-0.0609964355826377,1.2133090496063232,-0.0639730542898178,-0.2145911157131195,0.019271332770586,-0.2705431282520294,0.0,0.0,-0.9965111017227172,-0.3278329968452453
-0.061775304377079,1.2083195447921753,-0.0637544617056846,-0.2216304689645767,0.0053183902055025,-0.2790587842464447,0.0,0.0,-0.9672610759735109,-0.4151312112808227
-0.0625561699271202,1.2031745910644531,-0.0635189041495323,-0.2286712825298309,-0.0090693430975079,-0.2877545356750488,0.0,0.0,-0.9921451807022096,0.2991999387741089
-0.0633391365408897,1.1978744268417358,-0.0632684603333473,-0.2357136756181717,-0.0239002518355846,-0.2966181933879852,0.0,0.0,-0.9879274368286132,-0.126030683517456
-0.0641239136457443,1.192419409751892,-0.063005194067955,-0.2427577227354049,-0.0391821376979351,-0.3056381344795227,0.0,0.0,-0.9942249059677124,-0.5256510972976685
-0.0649517029523849,1.1868081092834473,-0.0678889602422714,-0.2498417496681213,-0.0538907572627067,-0.2941723167896271,0.0,0.0,-0.9955531358718872,-0.5197474360466003
-0.0658307075500488,1.1810461282730105,-0.0738177150487899,-0.2566501796245575,-0.0678174197673797,-0.278533399105072,0.0,0.0,-0.9956356883049012,-0.3784562945365906
-0.06671142578125,1.1751294136047363,-0.0735278129577636,-0.2636938095092773,-0.0822154060006141,-0.2879598736763,0.0,0.0,-0.9894922971725464,-0.7630625367164612
-0.0676463097333908,1.1690548658370972,-0.0798048451542854,-0.2707845866680145,-0.0957803130149841,-0.2712980210781097,0.0,0.0,-0.9735895991325378,-0.7228581309318542
-0.0686367973685264,1.1628413200378418,-0.0862781181931495,-0.2770213186740875,-0.1084485873579979,-0.2533655762672424,0.0,0.0,-0.9906746745109558,-0.5669071078300476
-0.0696806907653808,1.1564784049987793,-0.0924675315618515,-0.283703476190567,-0.120297685265541,-0.2369817793369293,0.0,0.0,-0.984686553478241,-0.1841875314712524
-0.070726491510868,1.1499602794647217,-0.0921687260270118,-0.2907447814941406,-0.132638618350029,-0.2468188107013702,0.0,0.0,-0.9995036721229552,-0.7642336487770081
-0.0718307495117187,1.1432996988296509,-0.0989983826875686,-0.2970894575119018,-0.1440261006355285,-0.2277495563030243,0.0,0.0,-0.9894934296607972,-0.2219873070716858
-0.0729368180036544,1.1364834308624268,-0.0987065285444259,-0.304130882024765,-0.155913233757019,-0.2377427816390991,0.0,0.0,-0.9862762689590454,-0.574066162109375
-0.0740843787789344,1.129521369934082,-0.103365883231163,-0.3106556534767151,-0.1672947257757187,-0.2276301383972168,0.0,0.0,-0.8157004714012146,-0.6906207203865051
-0.0752913504838943,1.122413158416748,-0.1102896332740783,-0.3171305954456329,-0.177724614739418,-0.2085980921983719,0.0,0.0,-0.9679684042930604,-0.5345165729522705
-0.0765381827950477,1.1151539087295532,-0.1147228330373764,-0.3238641619682312,-0.1877161413431167,-0.1998306363821029,0.0,0.0,-0.9396726489067078,-0.6480744481086731
-0.0778410881757736,1.1077475547790527,-0.1212015002965927,-0.3303446769714355,-0.1968542486429214,-0.1827621608972549,0.0,0.0,-0.9792660474777222,0.0013628005981445
-0.0791463851928711,1.1001858711242676,-0.120957925915718,-0.3373846411705017,-0.2065055519342422,-0.1930260360240936,0.0,0.0,-0.9661950469017028,-0.2724611759185791
-0.0804543495178222,1.0924688577651978,-0.1207295879721641,-0.3444257974624634,-0.2166718095541,-0.2033252269029617,0.0,0.0,-0.9712340235710144,-0.0349267721176147
-0.0817650780081749,1.0845965147018433,-0.1205181702971458,-0.3514682650566101,-0.2273545116186142,-0.2136541604995727,0.0,0.0,-0.9812322854995728,-0.7024638056755066
-0.0831455215811729,1.076584815979004,-0.1286920756101608,-0.3575524091720581,-0.2368408441543579,-0.1897266507148742,0.0,0.0,-0.976992130279541,-0.3145078420639038
-0.0845291167497634,1.06841778755188,-0.1285184174776077,-0.3645946085453033,-0.2468458116054535,-0.2000994980335235,0.0,0.0,-0.9361608028411864,-0.3326737880706787
-0.0859159454703331,1.0600957870483398,-0.1283664256334304,-0.3716380894184112,-0.257370114326477,-0.2104861289262771,0.0,0.0,-0.9561102390289308,0.0387083292007446
-0.0873064026236534,1.0516188144683838,-0.1282375901937484,-0.3786828219890594,-0.2684141993522644,-0.2208816111087799,0.0,0.0,-0.9936771392822266,-0.2220658659934997
-0.0887005776166915,1.04298734664917,-0.1281334459781646,-0.3857289552688598,-0.2799782454967499,-0.2312809526920318,0.0,0.0,-0.9843770265579224,-0.0906373858451843
-0.0900985747575759,1.0342016220092771,-0.1280554383993148,-0.3927764892578125,-0.2920622527599334,-0.2416793406009674,0.0,0.0,-0.9566311836242676,0.0629721879959106
-0.0915006622672081,1.0252617597579956,-0.1280049383640289,-0.3998254835605621,-0.3046658635139465,-0.2520720064640045,0.0,0.0,-0.9950451254844666,-0.2827716469764709
-0.0929070487618446,1.0161679983139038,-0.1279832869768142,-0.4068759679794311,-0.3177885711193084,-0.2624542117118835,0.0,0.0,-0.8797020316123962,-0.0068391561508178
-0.0943179130554199,1.006920576095581,-0.1279917359352111,-0.4139279723167419,-0.3314296305179596,-0.2728214263916015,0.0,0.0,-0.98531973361969,-0.0251470804214477
-0.0957335457205772,0.9975196719169616,-0.1280315369367599,-0.4209815561771393,-0.3455880880355835,-0.2831689417362213,0.0,0.0,-0.6185631155967712,-0.6430604457855225
-0.0972010642290115,0.9879959225654602,-0.1340675503015518,-0.4263841807842254,-0.3589273691177368,-0.2667853236198425,0.0,0.0,-0.9880797266960144,-0.3620936870574951
-0.0986738204956054,0.9783188104629515,-0.1341717988252639,-0.4334380030632019,-0.3727813959121704,-0.2770808637142181,0.0,0.0,-0.4481954574584961,-0.5847420692443848
-0.1001854911446571,0.9685102105140686,-0.1385503113269806,-0.4392833411693573,-0.3861912190914154,-0.2681962251663208,0.0,0.0,-0.9356260895729064,-0.9179937243461608
-0.1017611473798751,0.9585731625556946,-0.1460006386041641,-0.4448288381099701,-0.3985477387905121,-0.2471300363540649,0.0,0.0,-0.5659079551696777,-0.7400411367416382
-0.1034018546342849,0.9485172629356384,-0.153632640838623,-0.449899673461914,-0.4097524285316467,-0.224093958735466,0.0,0.0,-0.1466277837753296,-0.9249503016471864
-0.1051034927368164,0.9383547306060792,-0.1608297526836395,-0.4544011652469635,-0.4198023080825805,-0.2009969651699066,0.0,0.0,0.0331208705902099,-0.9563327431678772
-0.1067515388131141,0.9285816550254822,-0.1568951904773712,-0.4367380440235138,-0.4283623099327087,-0.1712009012699127,0.0,0.0,-0.4140636920928955,-0.91239994764328
-0.1084831207990646,0.9187151193618774,-0.1669335663318634,-0.4404178559780121,-0.4351233839988708,-0.1352214068174362,0.0,0.0,0.5165784358978271,-0.9400754570961
-0.1099357604980468,0.9095588326454164,-0.1404890865087509,-0.4084399342536926,-0.4403327107429504,-0.1041864976286888,0.0,0.0,-0.1318211555480957,-0.6514418125152588
-0.1114456206560134,0.9002872705459595,-0.1471202820539474,-0.4132906794548034,-0.4445523917675018,-0.084393598139286,0.0,0.0,0.8766565322875977,-0.937606930732727
-0.112756535410881,0.8921327590942383,-0.1284278780221939,-0.3632652163505554,-0.4474648237228393,-0.0582488775253295,0.0,0.0,0.7321817874908447,-0.8092585206031799
-0.1139343231916427,0.8845866918563843,-0.1161676198244094,-0.335903525352478,-0.4492311179637909,-0.0353252328932285,0.0,0.0,0.7136263847351074,-0.5211213827133179
-0.1150033921003341,0.8778389692306519,-0.1055197492241859,-0.3003364503383636,-0.4507416486740112,-0.0302109662443399,0.0,0.0,0.8378190994262695,-0.1538053750991821
-0.1159789115190506,0.8718322515487671,-0.0950348526239395,-0.2677839398384094,-0.453506201505661,-0.0552912577986717,0.0,0.0,0.8121330738067627,-0.6250054836273193
-0.1165497750043869,0.8666864037513733,-0.0556156411767005,-0.2291828244924545,-0.4551271796226501,-0.0324195623397827,0.0,0.0,0.2428079843521118,-0.0947080850601196
-0.1169676780700683,0.861728847026825,-0.0400758124887943,-0.2208939641714096,-0.4570051431655884,-0.037558414041996,0.0,0.0,-0.0894528031349182,-0.7942386269569397
-0.1174366921186447,0.8566526770591736,-0.0459251068532466,-0.2259263396263122,-0.4580788314342499,-0.0214736778289079,0.0,0.0,0.6892540454864502,-0.8834533095359802
-0.1176489815115928,0.8525583744049072,-0.0214835945516824,-0.1818866729736328,-0.4577924013137817,0.0057286592200398,0.0,0.0,-0.4092669486999511,-0.9117552042007446
-0.1179181113839149,0.8483541011810303,-0.0281033609062433,-0.1864677220582962,-0.4564901888370514,0.0260441061109304,0.0,0.0,-0.3307597637176513,-0.8344040513038635
-0.1182501763105392,0.8440322279930115,-0.0353662595152854,-0.1913772076368332,-0.4541128277778625,0.0475473441183567,0.0,0.0,0.3583681583404541,-0.9046903252601624
-0.1183665245771408,0.8405190706253052,-0.0151392295956611,-0.1550124436616897,-0.4502791464328766,0.0766737386584281,0.0,0.0,-0.5958823561668396,-0.8894503712654114
-0.1185492500662803,0.8368982672691345,-0.0229072365909814,-0.1594332903623581,-0.445199966430664,0.1015833467245101,0.0,0.0,-0.4649102091789245,-0.9312666654586792
-0.1188028305768966,0.8331590890884399,-0.031147887930274,-0.1643596440553665,-0.438873678445816,0.1265260428190231,0.0,0.0,-0.7533572912216187,-0.9545400738716124
-0.1191499680280685,0.8293237090110779,-0.0423419661819934,-0.1681025475263595,-0.4305744469165802,0.1659848690032959,0.0,0.0,-0.554442286491394,-0.8962697982788086
-0.11958809196949,0.8253846764564514,-0.0531696751713752,-0.1722345799207687,-0.42043137550354,0.2028607130050659,0.0,0.0,-0.0792115926742553,-0.9431978464126588
-0.120109274983406,0.8213377594947815,-0.06302410364151,-0.1766608208417892,-0.408668041229248,0.2352666407823562,0.0,0.0,-0.282416820526123,-0.4732728004455566
-0.1206436157226562,0.8171363472938538,-0.0640317350625991,-0.1837094128131866,-0.3973040878772735,0.2272788733243942,0.0,0.0,-0.3734768629074096,-0.6488891243934631
-0.1212298423051834,0.8127983212471008,-0.0698788911104202,-0.1896969377994537,-0.3852885067462921,0.2403116673231125,0.0,0.0,-0.6283459663391113,-0.4644437432289123
-0.1218298897147178,0.808306097984314,-0.0709469690918922,-0.1967448890209198,-0.3736557364463806,0.2326551973819732,0.0,0.0,-0.6191027760505676,-0.1932670474052429
-0.1224438697099685,0.8036589026451111,-0.0720431879162788,-0.2037915587425232,-0.3623971045017242,0.2251725941896438,0.0,0.0,-0.7430269122123718,0.4985142946243286
