x_pos,y_pos,x_vel,y_vel,angle,ang_vel,leg_1,leg_2,main_booster,lat_booster
-0.0015211105346679,1.4030003547668457,-0.1547128558158874,-0.3519934117794037,0.0023333772551268,0.0460701361298561,0.0,0.0,-0.07522714138031,0.6379152536392212
-0.0029844283126294,1.3944764137268066,-0.1477964371442794,-0.3788366913795471,0.0037811058573424,0.0289580728858709,0.0,0.0,0.113707423210144,0.5944259166717529
-0.0042973519302904,1.385733127593994,-0.132268339395523,-0.3885999619960785,0.0047467923723161,0.0193155128508806,0.0,0.0,0.2371187210083007,0.944399118423462
-0.0056365965865552,1.3769233226776123,-0.1334555000066757,-0.3915488421916961,0.0042850696481764,-0.0092352433130145,0.0,0.0,0.4721770286560058,0.3178392648696899
-0.0068576810881495,1.3683615922927856,-0.1226760596036911,-0.3805246651172638,0.0048525533638894,0.011350667104125,0.0,0.0,-0.4866499900817871,0.8167126178741455
-0.0079936031252145,1.3591749668121338,-0.112617515027523,-0.4082932472229004,0.0038902298547327,-0.0192484129220247,0.0,0.0,-0.4955364465713501,0.6038970947265625
-0.009076977148652,1.3493643999099731,-0.1066370010375976,-0.4360180199146271,0.0022090324200689,-0.0336273275315761,0.0,0.0,-0.404498815536499,0.8835217952728271
-0.0100664142519235,1.338932752609253,-0.0954452380537986,-0.4636310040950775,-0.0012489466462284,-0.0691660046577453,0.0,0.0,-0.2386730909347534,0.1303675174713134
-0.0110483169555664,1.3278768062591553,-0.0950771942734718,-0.4913749694824219,-0.0043265558779239,-0.0615577697753906,0.0,0.0,0.6859121322631836,-0.3999837636947632
-0.0120200160890817,1.3173086643218994,-0.0944166556000709,-0.4697031676769256,-0.0070562120527029,-0.0545978061854839,0.0,0.0,-0.2985702753067016,-0.2199597358703613
-0.0129838939756155,1.306116223335266,-0.0939605832099914,-0.4974558651447296,-0.0094615630805492,-0.0481108948588371,0.0,0.0,-0.7441627383232117,0.0653537511825561
-0.0139399524778127,1.2942997217178345,-0.0934710353612899,-0.5251956582069397,-0.011571574024856,-0.0422041490674018,0.0,0.0,0.6896941661834717,-0.0264350175857543
-0.0147466659545898,1.2829296588897705,-0.0794364213943481,-0.5053476691246033,-0.0127861546352505,-0.0242942478507757,0.0,0.0,-0.1806408166885376,-0.4376932978630066
-0.0155456541106104,1.2709351778030396,-0.0789040476083755,-0.5330997705459595,-0.0137659609317779,-0.0195979420095682,0.0,0.0,-0.5908268094062805,-0.7726511359214783
-0.0163837429136037,1.2583253383636477,-0.0842092782258987,-0.560430109500885,-0.0133666070178151,0.0079876342788338,0.0,0.0,-0.4724572896957397,-0.7809894680976868
-0.0172651298344135,1.2450833320617676,-0.0899972170591354,-0.5885263085365295,-0.0115273417904973,0.0367887094616889,0.0,0.0,-0.1357989311218261,-0.3896598815917969
-0.0181395523250103,1.2312169075012207,-0.0894576236605644,-0.6162697672843933,-0.0095469942316412,0.0396107323467731,0.0,0.0,-0.4067822098731994,-0.4236989021301269
-0.0190076828002929,1.216726303100586,-0.0889273434877395,-0.6440135836601257,-0.0074566644616425,0.0418102219700813,0.0,0.0,0.6458408832550049,-0.3494512438774109
-0.0197670944035053,1.2028099298477173,-0.078596755862236,-0.6184922456741333,-0.0048355930484831,0.0524265058338642,0.0,0.0,-0.0132495164871215,-0.1575087308883667
-0.020521068945527,1.1882692575454712,-0.0781078785657882,-0.6462460160255432,-0.0021686099935323,0.0533445179462432,0.0,0.0,-0.0229861736297607,-0.3510874509811401
-0.021270465105772,1.1731045246124268,-0.0776487365365028,-0.673987090587616,0.0005133751546964,0.0536445751786232,0.0,0.0,-0.8968623280525208,-0.1687503457069397
-0.0220157615840435,1.1573154926300049,-0.0772267132997512,-0.7017309665679932,0.0031790533103048,0.0533183217048645,0.0,0.0,0.4067635536193847,0.3904622793197632
-0.022648811340332,1.1415984630584717,-0.0664609596133232,-0.6985457539558411,0.0063116825185716,0.0626581758260726,0.0,0.0,-0.8693005442619324,0.1063317060470581
-0.0232792850583791,1.1252572536468506,-0.0661344081163406,-0.7262954711914062,0.0093666864559054,0.0611051693558692,0.0,0.0,-0.7712674140930176,0.6719474792480469
-0.0238674171268939,1.1082942485809326,-0.060768473893404,-0.7539228200912476,0.0112941768020391,0.0385532267391681,0.0,0.0,0.367966890335083,-0.1239324212074279
-0.0245819091796875,1.0915579795837402,-0.0727006122469902,-0.7438440918922424,0.0125284390524029,0.024685364216566,0.0,0.0,0.5735290050506592,0.1790544986724853
-0.0253016464412212,1.075235366821289,-0.073073111474514,-0.7254604697227478,0.0136164687573909,0.0217606388032436,0.0,0.0,0.1525584459304809,-0.1124541759490966
-0.0261215213686227,1.0591500997543335,-0.0824743136763572,-0.7149018049240112,0.0140926046296954,0.0095226187258958,0.0,0.0,0.6895275115966797,-0.7048541307449341
-0.0271562580019235,1.0436303615570068,-0.1048389449715614,-0.6897806525230408,0.0154400868341326,0.0269496738910675,0.0,0.0,0.1119406223297119,-0.089801013469696
-0.0282135959714651,1.0279783010482788,-0.1067925095558166,-0.6956614255905151,0.0164806097745895,0.0208106748759746,0.0,0.0,-0.7931424975395203,-0.3397994041442871
-0.029275607317686,1.011702060699463,-0.1069870367646217,-0.723402738571167,0.0172554105520248,0.0154960360378026,0.0,0.0,-0.86195307970047,0.0868165493011474
-0.0303434375673532,0.9948012828826904,-0.1072808355093002,-0.7511439919471741,0.017741285264492,0.0097176618874073,0.0,0.0,-0.6254649758338928,0.5967389345169067
-0.0313778892159462,0.977283239364624,-0.1025734320282936,-0.7785754799842834,0.0168916899710893,-0.0169921033084392,0.0,0.0,0.5540196895599365,0.2389932870864868
-0.0324863418936729,0.959648072719574,-0.109367623925209,-0.7837671041488647,0.015432528220117,-0.0291832294315099,0.0,0.0,0.6745772361755371,-0.4683319926261902
-0.0335978493094444,0.9423426985740662,-0.1093978136777877,-0.7691143155097961,0.0136973764747381,-0.0347031280398368,0.0,0.0,-0.4228942394256592,-0.8727401494979858
-0.0347876548767089,0.9244181513786316,-0.1185481771826744,-0.7966417670249939,0.0132737969979643,-0.0084714423865079,0.0,0.0,0.2394750118255615,-0.581547737121582
-0.0360622406005859,0.906377375125885,-0.1277643740177154,-0.8018151521682739,0.013576989993453,0.0060636713169515,0.0,0.0,0.3046663999557495,0.1616867780685424
-0.0373289100825786,0.8886145949363708,-0.1267057210206985,-0.7894600629806519,0.0136130722239613,0.0007218061364255,0.0,0.0,-0.0149636268615722,0.6597390174865723
-0.0385623946785926,0.8702356219291687,-0.1217130050063133,-0.8168198466300964,0.0120005132630467,-0.0322513356804847,0.0,0.0,0.7554867267608643,-0.1060791611671447
-0.0397905334830284,0.8522020578384399,-0.1208818778395652,-0.8014815449714661,0.010089804418385,-0.0382139757275581,0.0,0.0,0.9041175842285156,-0.7363989949226379
-0.0412379279732704,0.8348935842514038,-0.143520638346672,-0.7692619562149048,0.0088824722915887,-0.0241467393934726,0.0,0.0,-0.8749791383743286,0.1038558483123779
-0.0427054390311241,0.8169606924057007,-0.145056739449501,-0.7970032095909119,0.0072109797038137,-0.033429704606533,0.0,0.0,0.6074702739715576,-0.0970874428749084
-0.0441022887825965,0.7988623976707458,-0.13794507086277,-0.804359495639801,0.005500323139131,-0.0342131853103637,0.0,0.0,0.9113308191299438,0.766545295715332
-0.0453399643301963,0.7810574173927307,-0.1202889531850814,-0.7913283109664917,0.0020574075169861,-0.0688580349087715,0.0,0.0,-0.2316956520080566,-0.4228677749633789
-0.0466025359928607,0.7626282572746277,-0.1222605481743812,-0.8190707564353943,-0.0018839737167581,-0.0788276642560958,0.0,0.0,0.9833548069000244,-0.3454060554504394
-0.0478355400264263,0.7441768050193787,-0.1190472617745399,-0.8200774788856506,-0.0060786339454352,-0.083893284201622,0.0,0.0,0.9050246477127076,-0.6580308079719543
-0.0490697845816612,0.7258704304695129,-0.1201712638139724,-0.8136320114135742,-0.0092896251007914,-0.0642198175191879,0.0,0.0,0.8948478698730469,0.3871523141860962
-0.0504535660147666,0.708376407623291,-0.1339868009090423,-0.7775503993034363,-0.0136230001226067,-0.0866676941514015,0.0,0.0,0.2445701360702514,-0.3698793053627014
-0.0519602783024311,0.6911510825157166,-0.1452735215425491,-0.7656301259994507,-0.0189524944871664,-0.106589950621128,0.0,0.0,0.1342434883117675,-0.0090113282203674
-0.0535076148808002,0.673826277256012,-0.1487188339233398,-0.7700821757316589,-0.0248901266604661,-0.1187523603439331,0.0,0.0,-0.0949903130531311,-0.7215235829353333
-0.0551326759159565,0.6558790802955627,-0.1570501029491424,-0.797745943069458,-0.0302820540964603,-0.1078385710716247,0.0,0.0,0.7712979316711426,0.6920082569122314
-0.0567818656563758,0.638498067855835,-0.1573421210050583,-0.772661566734314,-0.0377574004232883,-0.1495072543621063,0.0,0.0,0.9184101819992064,-0.6054490804672241
-0.0583613403141498,0.6212593913078308,-0.1514023840427398,-0.766349732875824,-0.0442192405462265,-0.1292367875576019,0.0,0.0,0.7883477210998535,0.6624842882156372
-0.0598852150142192,0.6046937108039856,-0.1439532488584518,-0.7365225553512573,-0.0525531955063343,-0.1666790544986724,0.0,0.0,-0.2267055511474609,-0.2453048229217529
-0.0614495277404785,0.5875052213668823,-0.1474258750677108,-0.7642725110054016,-0.0614554323256015,-0.1780450940132141,0.0,0.0,0.1570965051651001,-0.9482911229133606
-0.0631893128156662,0.5701979994773865,-0.1662897616624832,-0.7695440649986267,-0.0690535083413124,-0.1519614309072494,0.0,0.0,0.6454635858535767,-0.4504680037498474
-0.0648242011666297,0.5534461140632629,-0.1556687653064727,-0.7449125051498413,-0.0767944529652595,-0.1548186987638473,0.0,0.0,0.5750168561935425,-0.5344035029411316
-0.0663557052612304,0.5370236039161682,-0.1462019383907318,-0.7302612066268921,-0.0836849883198738,-0.1378106325864792,0.0,0.0,0.7573933601379395,-0.5229790210723877
-0.0678169280290603,0.521287202835083,-0.1398750245571136,-0.6997594237327576,-0.0898756384849548,-0.1238133162260055,0.0,0.0,-0.6303361654281616,-0.6575716137886047
-0.069383904337883,0.5049412846565247,-0.1513453274965286,-0.7268143892288208,-0.0951726362109184,-0.1059401258826255,0.0,0.0,0.9334384202957152,-0.7937436103820801
-0.0709566101431846,0.4886121749877929,-0.1530755758285522,-0.7260127663612366,-0.099333606660366,-0.0832193717360496,0.0,0.0,0.9282842874526978,0.6472148895263672
-0.0725721344351768,0.4728963375091553,-0.1551431864500045,-0.6989197134971619,-0.1056984215974807,-0.1272962987422943,0.0,0.0,0.4055345058441162,0.2763468027114868
-0.074088379740715,0.4571974277496338,-0.1451087296009063,-0.6982061266899109,-0.1121665686368942,-0.1293629109859466,0.0,0.0,0.8795582056045532,-0.5144591331481934
-0.0755915641784668,0.4419178962707519,-0.1443249136209488,-0.6795516610145569,-0.1181146651506424,-0.1189616918563842,0.0,0.0,0.0638878345489502,0.0816596746444702
-0.0771132484078407,0.4263992309570312,-0.1456151306629181,-0.6902512311935425,-0.1246306002140045,-0.1303186416625976,0.0,0.0,0.2039928436279297,-0.6494333744049072
-0.0787874236702919,0.4109275937080383,-0.1614274084568023,-0.6881383657455444,-0.1305920928716659,-0.1192296370863914,0.0,0.0,0.3316109180450439,0.048761248588562
-0.080410860478878,0.3958558738231659,-0.1558423787355423,-0.6704393625259399,-0.1370653510093689,-0.1294648349285125,0.0,0.0,0.6876652240753174,-0.2988787889480591
-0.0819676369428634,0.3805882930755615,-0.1489833146333694,-0.6791903972625732,-0.1437423527240753,-0.133540078997612,0.0,0.0,0.7559866905212402,-0.4923247694969177
-0.0834242850542068,0.3660390675067901,-0.1385152339935302,-0.6473388075828552,-0.1508778184652328,-0.1427089869976043,0.0,0.0,0.3557395935058594,-0.8553884029388428
-0.0850358009338378,0.3514748215675354,-0.155039831995964,-0.6479330062866211,-0.1569845974445343,-0.1221357360482215,0.0,0.0,0.4385972023010254,-0.4730448722839355
-0.0866942405700683,0.3371804356575012,-0.1587788313627243,-0.6360676884651184,-0.1640509963035583,-0.1413276493549347,0.0,0.0,-0.0137656331062316,-0.408114492893219
-0.0884137153625488,0.3222639262676239,-0.1642975956201553,-0.6638213396072388,-0.1717058271169662,-0.1530965119600296,0.0,0.0,0.7960680723190308,-0.8316254019737244
-0.0902534499764442,0.3081476390361786,-0.1771333813667297,-0.6281992793083191,-0.1785670816898346,-0.1372248232364654,0.0,0.0,0.4704768657684326,-0.2390425205230713
-0.0920001044869422,0.2941504418849945,-0.1675459742546081,-0.6229712963104248,-0.1857112050056457,-0.142882615327835,0.0,0.0,0.7021673917770386,-0.2208008766174316
-0.093769647181034,0.2801348567008972,-0.1691085398197174,-0.6239182353019714,-0.1935995072126388,-0.1577659547328949,0.0,0.0,0.8963582515716553,-0.6152640581130981
-0.0954977050423622,0.2660300135612488,-0.165846973657608,-0.6278074979782104,-0.2006165534257888,-0.1403408646583557,0.0,0.0,0.9866843223571776,0.3405146598815918
-0.097246266901493,0.2519146502017975,-0.1671386063098907,-0.6284167766571045,-0.2083882093429565,-0.1554332375526428,0.0,0.0,0.9677330255508424,-0.4710627794265747
-0.0988738983869552,0.238566905260086,-0.1544537097215652,-0.5944243669509888,-0.2167822271585464,-0.1678804904222488,0.0,0.0,0.9867621660232544,-0.7423981428146362
-0.1003104224801063,0.2260271161794662,-0.1365128308534622,-0.5583900213241577,-0.2240030318498611,-0.1444159895181656,0.0,0.0,0.9803633689880372,-0.6959406733512878
-0.1017887145280838,0.2143715918064117,-0.1411677598953247,-0.5190483927726746,-0.2307475805282592,-0.1348910927772522,0.0,0.0,0.8811931610107422,-0.8577567338943481
-0.1034717559814453,0.2027150690555572,-0.1624874025583267,-0.5189918279647827,-0.2366466075181961,-0.1179805248975753,0.0,0.0,0.9662375450134276,0.0797737836837768
-0.1049538627266883,0.1917914748191833,-0.1420782208442688,-0.4864918887615204,-0.2428865730762481,-0.1247992068529129,0.0,0.0,0.9237167835235596,-0.8625930547714233
-0.106533333659172,0.1812928020954132,-0.1527179479598999,-0.4674804806709289,-0.2481967806816101,-0.1062043458223342,0.0,0.0,0.94227397441864,-0.5693933367729187
-0.1080933585762977,0.1713747829198837,-0.151183620095253,-0.4416208267211914,-0.2531027793884277,-0.0981199443340301,0.0,0.0,0.8556356430053711,-0.4156054258346557
-0.1095365509390831,0.161980465054512,-0.1389147639274597,-0.4184706509113312,-0.2586211860179901,-0.1103680953383445,0.0,0.0,0.8893415927886963,-0.7164872884750366
-0.110826775431633,0.1529093086719513,-0.1247603893280029,-0.4039234220981598,-0.2629841268062591,-0.0872590690851211,0.0,0.0,0.92189359664917,-0.9835399985313416
-0.1121275871992111,0.143801674246788,-0.1272719055414199,-0.4052899777889251,-0.2658562660217285,-0.0574428848922252,0.0,0.0,0.9691329002380372,-0.7315710186958313
-0.1133105307817459,0.134736880660057,-0.1166862994432449,-0.4031738042831421,-0.2675037086009979,-0.0329492166638374,0.0,0.0,0.9471070766448976,-0.6733667850494385
-0.1142538040876388,0.1259702742099762,-0.0939911678433418,-0.3896860778331756,-0.2678480446338653,-0.0068864910863339,0.0,0.0,0.9273238182067872,-0.9285881519317628
-0.1150404959917068,0.1171978786587715,-0.0799670368432998,-0.3896505236625671,-0.2665246725082397,0.0264675505459308,0.0,0.0,0.9936023950576782,-0.7439754605293274
-0.1157174110412597,0.1091461777687072,-0.0699349865317344,-0.3574455082416534,-0.2642243206501007,0.0460072122514247,0.0,0.0,0.8434944152832031,-0.0470581650733947
-0.1162056922912597,0.1016841232776641,-0.0507364869117736,-0.3313030004501343,-0.2622747719287872,0.038991130888462,0.0,0.0,0.6802341938018799,-0.6597613096237183
-0.116500474512577,0.0945516675710678,-0.0325110331177711,-0.3164570927619934,-0.2591816186904907,0.0618633516132831,0.0,0.0,0.8046720027923584,-0.5661382079124451
-0.1166993156075477,0.087280161678791,-0.0238515436649322,-0.3224826455116272,-0.2551270723342895,0.0810908749699592,0.0,0.0,0.8351953029632568,-0.0811363458633422
-0.1168760284781456,0.0802294611930847,-0.0209088400006294,-0.3128099143505096,-0.2518314719200134,0.0659117400646209,0.0,0.0,0.9062986373901368,-0.7938166856765747
-0.1168241500854492,0.073995217680931,0.0006169453263282,-0.276300698518753,-0.247178241610527,0.0930647253990173,0.0,0.0,0.8219332695007324,-0.5044206380844116
-0.1167465224862098,0.0680759027600288,0.0027249413542449,-0.2622428238391876,-0.2420589029788971,0.1023870110511779,0.0,0.0,0.6314172744750977,-0.1279748678207397
-0.1166620254516601,0.0627222880721092,0.0044365460053086,-0.2372825890779495,-0.2379727661609649,0.08172257989645,0.0,0.0,0.7097471952438354,-0.3708614110946655
-0.116380788385868,0.0577669963240623,0.0241403933614492,-0.2195954620838165,-0.2339261919260025,0.0809313878417015,0.0,0.0,0.5997529029846191,-0.5749339461326599
-0.1160889640450477,0.053288422524929,0.0246160794049501,-0.198329821228981,-0.229300782084465,0.0925086140632629,0.0,0.0,0.8296899795532227,-0.693513035774231
-0.1158167868852615,0.0494560115039348,0.0219333488494157,-0.1695184409618377,-0.2239434123039245,0.1071472540497779,0.0,0.0,0.4299685955047607,-0.8371802568435669
-0.115595057606697,0.0456588603556156,0.0156546849757432,-0.1677892804145813,-0.2173604369163513,0.1316598951816558,0.0,0.0,0.2870829105377197,-0.6059921979904175
-0.1154733672738075,0.0419740043580532,0.0050431406125426,-0.1627378761768341,-0.2101602256298065,0.1440041065216064,0.0,0.0,0.4009127616882324,-0.0771486163139343
-0.1154389381408691,0.038358174264431,-0.0027095396071672,-0.1598435938358307,-0.2039593160152435,0.1240182667970657,0.0,0.0,0.2369568347930908,0.2860047817230224
-0.1152716651558876,0.0348859652876853,0.0106031838804483,-0.1534908711910247,-0.1977904438972473,0.1233773678541183,0.0,0.0,0.5129296779632568,-0.1987342834472656
-0.1150351539254188,0.0312713496387004,0.0176497250795364,-0.1598569750785827,-0.1917501986026764,0.1208048835396766,0.0,0.0,0.7348635196685791,0.3076133728027344
-0.1145468726754188,0.0281702131032943,0.0424817986786365,-0.1370230019092559,-0.1853833794593811,0.1273365914821624,0.0,0.0,0.3920568227767944,-0.5018536448478699
-0.1140458136796951,0.025431141257286,0.0431703999638557,-0.1208860054612159,-0.1784250438213348,0.1391668617725372,0.0,0.0,0.0909138917922973,-0.0483378171920776
-0.1133989319205284,0.022877249866724,0.0576718226075172,-0.1126812398433685,-0.1713871359825134,0.1407579779624939,0.0,0.0,-0.3268458843231201,-0.4033528566360473
-0.1127970665693283,0.0197005122900009,0.0535037815570831,-0.1404317766427993,-0.1646943688392639,0.1338552087545395,0.0,0.0,0.3701039552688598,-0.4293848276138305
-0.1121330261230468,0.016904292628169,0.0600712709128856,-0.1235905587673187,-0.1583632677793502,0.126621589064598,0.0,0.0,-0.1563681364059448,0.0872079133987426
-0.1114295944571495,0.0142361735925078,0.0467199571430683,-0.1162653341889381,-0.1347039341926574,0.4732949137687683,1.0,0.0,0.1308040618896484,-0.2241837382316589
-0.1106264144182205,0.0114245750010013,0.055906631052494,-0.122958205640316,-0.1103525981307029,0.4871111512184143,1.0,0.0,0.4735451936721802,0.1662284135818481
-0.1098595634102821,0.0088911028578877,0.0512337088584899,-0.1109348982572555,-0.0850458219647407,0.5062225461006165,1.0,0.0,0.262933611869812,0.3525913953781128
-0.1091609001159668,0.0063355658203363,0.0450329035520553,-0.1123522296547889,-0.0604521706700325,0.4918854832649231,1.0,0.0,0.3108007907867431,0.5805957317352295
-0.1084075942635536,0.0038302754983305,0.0516536235809326,-0.1105549484491348,-0.0370523743331432,0.467996209859848,1.0,0.0,0.4002552032470703,0.3636704683303833
-0.1076153740286827,0.0013846731744706,0.0554228127002716,-0.1082735508680343,-0.013551564887166,0.4700167179107666,1.0,0.0,0.3275104761123657,0.7681636810302734
-0.1066402420401573,-0.0012555504217743,0.0750893205404281,-0.1172863468527793,0.0085745127871632,0.4425219595432281,0.0,0.0,0.8578500747680664,0.79630446434021
-0.1057542786002159,-0.0027803683187812,0.0879665911197662,-0.0677921250462532,0.0091246655210852,0.0109134558588266,0.0,1.0,-0.2517712116241455,0.5685648918151855
-0.1049472838640213,-0.0037559056654572,0.0821448564529419,-0.0433696024119854,0.0076621044427156,-0.0292982850223779,1.0,1.0,-0.5063876509666443,-0.9788395762443542
