x_pos,y_pos,x_vel,y_vel,angle,ang_vel,leg_1,leg_2,main_booster,lat_booster
-0.0015175819862633,1.402929663658142,-0.1539457142353058,-0.3551326394081116,0.0019619315862655,0.0387158766388893,0.0,0.0,-0.2007973213156155,0.1724486059540941
-0.0030289650894701,1.3942675590515137,-0.1532786190509796,-0.3849874436855316,0.0040723467245697,0.0422129556536674,0.0,0.0,-0.3519648435353038,-0.2044792452568022
-0.0045340536162257,1.384910225868225,-0.1528455764055252,-0.4158932566642761,0.0063836202025413,0.0462298169732093,0.0,0.0,0.7094970942474546,-0.5409365612818556
-0.0062102316878736,1.375630021095276,-0.1708628833293914,-0.4124698638916015,0.0095902830362319,0.0641390904784202,0.0,0.0,-0.7750871879244954,0.4181044747202441
-0.0078801158815622,1.3656550645828247,-0.1704401075839996,-0.4433590173721313,0.0130060128867626,0.0683207362890243,0.0,0.0,-0.2128173103266983,0.7612964455643283
-0.0094701768830418,1.3549857139587402,-0.160806655883789,-0.4742079079151153,0.0147851835936307,0.0355866886675357,0.0,0.0,0.5752374371742026,0.8733595496433957
-0.0110176084563136,1.3444485664367676,-0.1549686193466186,-0.4683260917663574,0.015014044009149,0.0045774783939123,0.0,0.0,0.2316421710028897,-0.8882979106017298
-0.0125074386596679,1.3339436054229736,-0.1513078361749649,-0.4669102728366852,0.0173166934400796,0.0460570231080055,0.0,0.0,-0.0066449065060099,0.5461030672101602
-0.0139492992311716,1.3227509260177612,-0.1456759423017501,-0.4974711537361145,0.0187791120260953,0.0292511992156505,0.0,0.0,0.9383286145641028,0.1954171276328703
-0.0154026029631495,1.3121416568756104,-0.1470379531383514,-0.4715474545955658,0.020462267100811,0.033666331321001,0.0,0.0,0.5278645419216765,0.4235091738148808
-0.0167823787778615,1.3016643524169922,-0.1402834057807922,-0.4656944870948791,0.0227498672902584,0.0457561276853084,0.0,0.0,0.0815319709806594,0.262253807068622
-0.0181188583374023,1.291012406349182,-0.136415496468544,-0.4734643399715423,0.0254850145429372,0.0547080710530281,0.0,0.0,-0.6672484210562262,-0.9395093182922556
-0.01950922049582,1.2796684503555298,-0.1435064971446991,-0.5042591691017151,0.0299108885228633,0.0885252058506012,0.0,0.0,-0.2191859061061714,-0.9750849152786564
-0.0209636688232421,1.267618179321289,-0.1518825590610504,-0.5357157588005066,0.0362821705639362,0.1274372637271881,0.0,0.0,0.9964442547042128,0.1288895102189691
-0.0222805030643939,1.2563761472702026,-0.1391835957765579,-0.4998399317264557,0.043689951300621,0.148169070482254,0.0,0.0,-0.937896437661114,-0.4050253782348563
-0.023594856262207,1.2444400787353516,-0.1391612589359283,-0.5307397842407227,0.0513329245150089,0.1528735011816024,0.0,0.0,0.570149188632745,-0.3214345263011552
-0.0248181335628032,1.233038067817688,-0.1309153437614441,-0.5070671439170837,0.0598282217979431,0.1699218153953552,0.0,0.0,-0.9387069216392968,-0.3612648366964516
-0.0260402671992778,1.220942139625549,-0.1310299336910247,-0.5379669070243835,0.0685615614056587,0.1746828258037567,0.0,0.0,-0.68963153755136,0.1290293688866797
-0.0272618290036916,1.2081527709960938,-0.131219744682312,-0.5688542127609253,0.0775351747870445,0.1794885993003845,0.0,0.0,0.7355911227993932,-0.020003458588763
-0.0286142341792583,1.1955491304397583,-0.1441412568092346,-0.5606433153152466,0.0863541886210441,0.1763963550329208,0.0,0.0,0.0036703272647067,0.3325680345552934
-0.0299299247562885,1.182944416999817,-0.1410721242427826,-0.5607805252075195,0.0957779809832573,0.1884930431842804,0.0,0.0,0.1999815885593283,0.2051656843675314
-0.0312700271606445,1.1701273918151855,-0.1437776982784271,-0.5702975392341614,0.1054850220680236,0.1941582262516021,0.0,0.0,-0.5887633677654414,0.296898454760844
-0.0326130874454975,1.1566171646118164,-0.1443101912736892,-0.6011923551559448,0.1154376119375228,0.1990694999694824,0.0,0.0,-0.515665745608554,-0.0344810615242291
-0.0339601524174213,1.14241361618042,-0.1449396610260009,-0.6320870518684387,0.1256369054317474,0.2040040493011474,0.0,0.0,0.670229605623035,-0.133199005612785
-0.0355360992252826,1.1284582614898682,-0.1673993617296219,-0.6210916638374329,0.1354184597730636,0.1956484019756317,0.0,0.0,0.7515373353806316,0.7393608674903319
-0.0373261459171772,1.1148792505264282,-0.1872268468141555,-0.6042803525924683,0.1436138749122619,0.1639087051153183,0.0,0.0,-0.575307700843716,0.3201581181065885
-0.0391227714717388,1.1006067991256714,-0.1881400048732757,-0.6351694464683533,0.1520612686872482,0.1689477562904358,0.0,0.0,-0.375714894656509,-0.6065247826746027
-0.0409857742488384,1.0856343507766724,-0.1964728534221649,-0.666522741317749,0.1622350364923477,0.203475683927536,0.0,0.0,-0.404609655471833,-0.4646464449791846
-0.0428576469421386,1.069968819618225,-0.1976105272769928,-0.697415292263031,0.1726630926132202,0.2085611820220947,0.0,0.0,-0.3390050880649891,-0.1581183338028218
-0.0447398200631141,1.0536105632781982,-0.1988655030727386,-0.7283084988594055,0.1833465546369552,0.2136693298816681,0.0,0.0,-0.8263690198187226,-0.0163243976954189
-0.0466334335505962,1.036559820175171,-0.2002406865358352,-0.759202241897583,0.1942865401506424,0.2187998592853546,0.0,0.0,-0.7206308245658875,0.9861881732940674
-0.0484723076224327,1.018830180168152,-0.1932960152626037,-0.7892499566078186,0.2037634849548339,0.1895388960838318,0.0,0.0,-0.7720924615859985,0.9970264434814452
-0.0502598769962787,1.0004372596740725,-0.18667733669281,-0.8185816407203674,0.2117630243301391,0.1599903702735901,0.0,0.0,-0.5560342073440552,0.9980995655059814
-0.0519921295344829,0.9813640713691713,-0.1796376705169677,-0.848624050617218,0.2182336449623108,0.1294126063585281,0.0,0.0,0.6174585819244385,0.999160885810852
-0.053779412060976,0.9625300765037536,-0.1834109127521515,-0.8377655148506165,0.2229712456464767,0.0947518274188041,0.0,0.0,0.3287906646728515,0.999377965927124
-0.0556264892220497,0.94393128156662,-0.1876527667045593,-0.8270639777183533,0.2259586006402969,0.0597470216453075,0.0,0.0,0.4392271041870117,0.9998037815093994
-0.0575291626155376,0.9252309203147888,-0.1914772540330886,-0.8313086032867432,0.2271803319454193,0.0244343280792236,0.0,0.0,0.8658447265625,0.9696238040924072
-0.0595256797969341,0.9071424007415771,-0.1992620974779129,-0.8038791418075562,0.2267812043428421,-0.0079825054854154,0.0,0.0,0.8614012002944946,0.987724781036377
-0.0617312416434288,0.889767587184906,-0.2183680534362793,-0.7718796133995056,0.2245727032423019,-0.0441704466938972,0.0,0.0,0.2201704978942871,0.9977149963378906
-0.0639590248465538,0.8723912835121155,-0.2188825607299804,-0.7716968655586243,0.220621109008789,-0.0790317058563232,0.0,0.0,0.0512840747833251,0.999053955078125
-0.0663239508867263,0.8550534844398499,-0.230887770652771,-0.7697421908378601,0.214960291981697,-0.1132162809371948,0.0,0.0,-0.1646031737327575,0.9999358654022216
-0.0686211585998535,0.8370504975318909,-0.2219890058040619,-0.7990264296531677,0.207144096493721,-0.1563240438699722,0.0,0.0,-0.7855537533760071,0.9999176263809204
-0.0708542838692665,0.8183718919754028,-0.2135115563869476,-0.8288161754608154,0.1972696036100387,-0.1974900811910629,0.0,0.0,-0.5092394948005676,0.9999401569366456
-0.0730254203081131,0.7990257740020752,-0.2052351534366607,-0.8582866191864014,0.185326263308525,-0.2388664484024047,0.0,0.0,0.1946046352386474,0.9992897510528564
-0.0752206817269325,0.779302179813385,-0.2058987915515899,-0.8749551177024841,0.1716555804014206,-0.2734133601188659,0.0,0.0,0.3034241199493408,0.9998712539672852
-0.0773714035749435,0.7592979073524475,-0.1997120231389999,-0.887374222278595,0.1562736928462982,-0.3076379001140594,0.0,0.0,0.3504152297973633,0.9902870655059814
-0.0794766396284103,0.739170491695404,-0.1934385448694229,-0.8928436636924744,0.1392150968313217,-0.3411716520786285,0.0,0.0,0.7158150672912598,0.9929847717285156
-0.081789493560791,0.719639003276825,-0.2122465372085571,-0.8663997650146484,0.1202700734138488,-0.3789005279541015,0.0,0.0,-0.0768635272979736,0.988761067390442
-0.0840776413679122,0.6994378566741943,-0.208465576171875,-0.8963152170181274,0.1000564321875572,-0.4042730927467346,0.0,0.0,-0.5456687211990356,0.949858546257019
-0.0863299369812011,0.6785561442375183,-0.2032690942287445,-0.9267471432685852,0.0782913267612457,-0.4353021681308746,0.0,0.0,0.950254201889038,0.7422314882278442
-0.0884311646223068,0.6580227017402649,-0.1873517483472824,-0.9115586876869202,0.0557546094059944,-0.4507345259189605,0.0,0.0,0.9846221208572388,-0.2291675806045532
-0.0906896591186523,0.6381211280822754,-0.2029873877763748,-0.8838224411010742,0.0331742465496063,-0.4516076445579529,0.0,0.0,0.8531153202056885,0.7844028472900391
-0.0928084403276443,0.6182849407196045,-0.1879966557025909,-0.881253182888031,0.0095948474481701,-0.4715881943702698,0.0,0.0,0.1836860179901123,-0.926819145679474
-0.095044232904911,0.5986254215240479,-0.2018468081951141,-0.8737585544586182,-0.011863674968481,-0.4291705191135406,0.0,0.0,0.9508283138275146,-0.6164202690124512
-0.0971759781241417,0.5791353583335876,-0.1934793591499328,-0.8664981722831726,-0.031308427453041,-0.3888954520225525,0.0,0.0,0.9819326400756836,-0.6596173048019409
-0.0995080918073654,0.5598076581954956,-0.2148093432188034,-0.8594884276390076,-0.0494859106838703,-0.3635494112968445,0.0,0.0,0.9957218170166016,0.2547516822814941
-0.1017230972647667,0.5412232279777527,-0.2039302885532379,-0.8266487121582031,-0.0668603479862213,-0.3474889099597931,0.0,0.0,0.9793597459793092,-0.8049283027648926
-0.1038130745291709,0.523148238658905,-0.1937403529882431,-0.8040876984596252,-0.0819561630487442,-0.3019163906574249,0.0,0.0,0.926703691482544,-0.0225297808647155
-0.1057836562395095,0.5058055520057678,-0.1825026571750641,-0.7716427445411682,-0.0963711664080619,-0.2883003056049347,0.0,0.0,0.9136418104171752,0.2991695404052734
-0.1078012436628341,0.4891422390937805,-0.1871120929718017,-0.741602897644043,-0.1109165698289871,-0.2909078896045685,0.0,0.0,-0.8328168988227844,0.634052038192749
-0.1098132133483886,0.4717721939086914,-0.1854579895734787,-0.7732457518577576,-0.1265589743852615,-0.312848299741745,0.0,0.0,-0.3424702882766723,-0.8061738014221191
-0.1119473427534103,0.4537278413772583,-0.1998737752437591,-0.803173303604126,-0.1400441527366638,-0.269703209400177,0.0,0.0,0.9774826765060424,-0.8182858228683472
-0.1139495819807052,0.4358875155448913,-0.1889669597148895,-0.7940033078193665,-0.1512695103883743,-0.2245073020458221,0.0,0.0,0.992506980895996,-0.3111116886138916
-0.1158628463745117,0.4184430837631225,-0.1805029958486557,-0.7764442563056946,-0.162087008357048,-0.2163497656583786,0.0,0.0,0.9986199140548706,-0.8558553457260132
-0.1178066283464431,0.4010299444198608,-0.1855689734220504,-0.7748993039131165,-0.1708971410989761,-0.1762027591466903,0.0,0.0,0.9964141845703124,-0.0136004090309143
-0.1198285073041915,0.3840163946151733,-0.1929831206798553,-0.7572475075721741,-0.1801240146160125,-0.1845378279685974,0.0,0.0,0.9973797798156738,-0.1235013008117675
-0.1216924637556076,0.3678281307220459,-0.177595630288124,-0.7205666303634644,-0.1889565885066986,-0.1766515970230102,0.0,0.0,0.9740426540374756,-0.775123119354248
-0.1235013008117675,0.3514383435249328,-0.1741500049829483,-0.7293112874031067,-0.1957246512174606,-0.1353612244129181,0.0,0.0,0.995452642440796,-0.705563485622406
-0.1251830160617828,0.3358844518661499,-0.1632225811481475,-0.6919451951980591,-0.2007104605436325,-0.0997162386775016,0.0,0.0,0.9968407154083252,-0.802807629108429
-0.1269895583391189,0.3205287754535675,-0.1773020327091217,-0.6829342246055603,-0.2040886431932449,-0.0675635337829589,0.0,0.0,0.9949204921722412,-0.02225261926651
-0.1287945806980133,0.305712342262268,-0.1769196391105651,-0.6590074896812439,-0.20771025121212,-0.0724318772554397,0.0,0.0,0.9877721071243286,0.1885660886764526
-0.1304653137922287,0.2912881374359131,-0.1639221608638763,-0.6415236592292786,-0.2108928114175796,-0.0636509656906127,0.0,0.0,0.9942498207092284,0.0677943229675293
-0.1321315765380859,0.2777125835418701,-0.1630230695009231,-0.6038771867752075,-0.2145285904407501,-0.072715513408184,0.0,0.0,0.9607313871383668,-0.1434347629547119
-0.1336240768432617,0.2644181847572326,-0.1463108509778976,-0.5912922620773315,-0.2174970805644989,-0.0593697018921375,0.0,0.0,0.9941706657409668,-0.3667790293693542
-0.1351122856140136,0.2511328756809234,-0.1459581553936004,-0.5908817648887634,-0.2203921377658844,-0.0579011961817741,0.0,0.0,0.9971923828125,0.7177329063415527
-0.1364323645830154,0.2376724034547805,-0.128179132938385,-0.5988225340843201,-0.2242622375488281,-0.0774023607373237,0.0,0.0,0.995851755142212,0.2898950576782226
-0.1377571076154709,0.2241288274526596,-0.1287378370761871,-0.6025084257125854,-0.2280526459217071,-0.0758082270622253,0.0,0.0,0.9981586933135986,0.0949633121490478
-0.1389340460300445,0.2112950682640075,-0.1141547784209251,-0.570941686630249,-0.2316367924213409,-0.0716829076409339,0.0,0.0,0.9997618198394777,-0.5366070866584778
-0.1398843824863433,0.1991918683052063,-0.0931154936552047,-0.5382232666015625,-0.2335807085037231,-0.0388784036040306,0.0,0.0,0.998647689819336,-0.4803959131240845
-0.1407977044582367,0.1878830939531326,-0.0890483856201171,-0.5029760599136353,-0.235906720161438,-0.0465199165046215,0.0,0.0,0.9890031814575196,-0.5967028737068176
-0.1418862342834472,0.1765290647745132,-0.1075220257043838,-0.5048354268074036,-0.2372541725635528,-0.026949206367135,0.0,0.0,0.9990432262420654,0.1161931753158569
-0.1427630484104156,0.1658567935228347,-0.0868043005466461,-0.4744616746902466,-0.238138660788536,-0.0176896341145038,0.0,0.0,0.9966094493865968,-0.7604807615280151
-0.143723577260971,0.1555709242820739,-0.0966255143284797,-0.4570590853691101,-0.2375646531581878,0.01148013304919,0.0,0.0,0.995354175567627,0.7975021600723267
-0.1445608139038086,0.1457894444465637,-0.0827703699469566,-0.4348878860473633,-0.2385298609733581,-0.0193038918077945,0.0,0.0,0.9756708145141602,-0.7143644094467163
-0.1453309059143066,0.1365602165460586,-0.0776574462652206,-0.4100838005542755,-0.2378669679164886,0.0132578387856483,0.0,0.0,0.9542465209960938,-0.7656095027923584
-0.1459501236677169,0.127620592713356,-0.0645652711391449,,-0.2351909875869751,0.0535197854042053,0.0,0.0,0.9246320724487304,-0.2687706351280212
-0.146511361002922,0.118557721376419,-0.0590857751667499,-0.4023235142230987,-0.2321791052818298,0.0602373406291008,0.0,0.0,0.9911458492279052,-0.3867729306221008
-0.1469138115644455,0.109469324350357,-0.0439299941062927,-0.4033527970314026,-0.2284491658210754,0.0745987147092819,0.0,0.0,0.9961991310119628,-0.0319688320159912
-0.1470488607883453,0.1006334871053695,-0.018186617642641,-0.3919863700866699,-0.2237038016319275,0.0949073731899261,0.0,0.0,0.9969730377197266,-0.1970702409744262
-0.1469758003950119,0.0917438566684722,0.0016594773624092,-0.3942519724369049,-0.2179940938949585,0.1141942590475082,0.0,0.0,0.9894931316375732,0.1958527565002441
-0.1467759162187576,0.0834863781929016,0.0142013160511851,-0.366154670715332,-0.2121397405862808,0.1170869618654251,0.0,0.0,0.9887433052062988,-0.1139466762542724
-0.1464094221591949,0.075861245393753,0.0305118318647146,-0.338025152683258,-0.205946147441864,0.1238717883825302,0.0,0.0,0.9612107276916504,0.2607066631317138
-0.1457984000444412,0.0686588361859321,0.0541181489825248,-0.319152295589447,-0.1989115178585052,0.1406927108764648,0.0,0.0,0.7953970432281494,-0.3202414512634277
-0.1450720727443695,0.0612510778009891,0.0649955198168754,-0.3282275199890136,-0.1912228763103485,0.1537727415561676,0.0,0.0,0.9711625576019288,-0.1817091703414917
-0.1443538665771484,0.0540615431964397,0.0643161088228225,-0.3185873329639435,-0.1836878508329391,0.1507005542516708,0.0,0.0,0.996617317199707,0.3244259357452392
-0.1434067785739898,0.0476873256266117,0.0866027921438217,-0.2823156416416168,-0.1755544543266296,0.1626680195331573,0.0,0.0,0.9558289051055908,-0.1425817012786865
-0.1424311697483062,0.0416213124990463,0.0894529074430465,-0.2686673700809479,-0.1674349159002304,0.1623909324407577,0.0,0.0,0.8880716562271118,-0.2539897561073303
-0.1415062844753265,0.0362411588430404,0.0849342420697212,-0.2382864654064178,-0.1598710715770721,0.1512765437364578,0.0,0.0,0.9842402935028076,0.4282844066619873
-0.1404065191745758,0.03138292953372,0.1018339172005653,-0.2150657027959823,-0.1517338305711746,0.1627448946237564,0.0,0.0,0.9088480472564696,0.1017279624938964
-0.139298528432846,0.0271300170570611,0.1028577908873558,-0.1882309168577194,-0.1438050717115402,0.1585751473903656,0.0,0.0,0.8540366888046265,-0.5432586073875427
-0.1382714211940765,0.0234648324549198,0.093888059258461,-0.1620710790157318,-0.1350032538175583,0.1760364770889282,0.0,0.0,0.7692420482635498,0.2647976875305176
-0.137260153889656,0.0199036449193954,0.0923657715320587,-0.1575019359588623,-0.1262720078229904,0.1746244728565216,0.0,0.0,0.7932097911834717,-0.4699992537498474
-0.1363531053066253,0.0166438668966293,0.0824696198105812,-0.1442046612501144,-0.118086464703083,0.1637108325958252,0.0,0.0,0.8495415449142456,0.2301864624023437
-0.1356049478054046,0.0135932303965091,0.0673329681158065,-0.1350128799676895,-0.1106526181101799,0.148676797747612,0.0,0.0,0.6346957683563232,0.879845380783081
-0.134652704000473,0.0108825536444783,0.0893120914697647,-0.1200478374958038,-0.1047810539603233,0.1174314841628074,0.0,0.0,0.4616692066192627,0.4749279022216797
-0.1336042433977127,0.0085115171968936,0.0847433060407638,-0.1041100099682807,-0.0847743079066276,0.4002214074134826,1.0,0.0,0.5227408409118652,0.0638054609298706
-0.1323620826005935,0.0064846966415643,0.1033944934606552,-0.0890345722436904,-0.0641466751694679,0.4125761985778808,1.0,0.0,0.2413148880004882,-0.4342682957649231
-0.1310992240905761,0.004642984829843,0.1054957956075668,-0.0810904130339622,-0.0435982532799243,0.4109683036804199,1.0,0.0,0.2706413269042969,-0.2785270810127258
-0.1296979933977127,0.0030898784752935,0.1188094243407249,-0.0685392096638679,-0.0225430969148874,0.4211033284664154,1.0,0.0,0.2558709383010864,-0.39325612783432
-0.1283164918422699,0.0021947717759758,0.1356172114610672,-0.0398211553692817,-0.0202243812382221,0.0461457148194313,0.0,1.0,-0.554263710975647,0.3687381744384765
-0.1270275115966797,0.0012004948221147,0.1432971358299255,-0.0444766953587532,-0.0345200113952159,-0.286013662815094,1.0,1.0,-0.0041757225990295,-0.9964324235916138
-0.1257774382829666,5.731582859880291e-06,0.1309268176555633,-0.0535044483840465,-0.0398587882518768,-0.1061003431677818,1.0,1.0,-0.2722705006599426,-0.9671646356582642
-0.1245684623718261,-0.0008282923954539,0.1230258494615554,-0.0371694304049015,-0.0419865362346172,-0.0425842180848121,1.0,1.0,-0.5191424489021301,-0.9481736421585084
-0.1234237700700759,-0.0011373544111847,0.1120576485991478,-0.0136975850909948,-0.0396453402936458,0.046772189438343,1.0,1.0,-0.6644384264945984,-0.9747881889343262
-0.1223495453596115,-0.0009627604740671,0.1008517518639564,0.007898305542767,-0.0331899002194404,0.1290661543607711,1.0,1.0,-0.8141597509384155,-0.8319895267486572
-0.121327593922615,-0.0004750633379444,0.0929121524095535,0.0218410398811101,-0.0240540523082017,0.1826736629009246,1.0,1.0,-0.958924412727356,-0.9096907377243042
-0.1203712448477745,0.0001320815063081,0.0854224041104316,0.0271074250340461,-0.014009135775268,0.2008564174175262,1.0,1.0,-0.9212020635604858,-0.939265251159668
-0.1194804161787033,0.0006779289105907,0.0796387046575546,0.0243110284209251,-0.004711857996881,0.1859082579612732,1.0,1.0,-0.9315014481544496,-0.8230870962142944
-0.1186931580305099,0.0007097220513969,0.0752685517072677,0.0014126444002613,-0.0013248558389022,0.0677078738808631,1.0,1.0,-0.8267043828964233,-0.9224558472633362
-0.1179962158203125,0.0005339121562428,0.0683214738965034,-0.0078197047114372,1.2484207218221854e-05,0.0267227850854396,1.0,1.0,-0.7085848450660706,-0.8363710045814514
-0.1173667907714843,0.0003754115023184,0.0617043264210224,-0.0070502669550478,0.0012190624838694,0.024111870676279,1.0,1.0,-0.8011487722396851,-0.9621515274047852
