x_pos,y_pos,x_vel,y_vel,angle,ang_vel,leg_1,leg_2,main_booster,lat_booster
-0.0015438080299645,1.403245449066162,-0.1558101326227188,-0.3410989940166473,0.0012808106839656,0.0252294484525918,0.0,0.0,0.3792529049315096,0.9401978696691128
-0.0029849051497876,1.395788073539734,-0.1430294066667556,-0.3314384222030639,0.0002153645182261,-0.0213105510920286,0.0,0.0,-0.6321493860169802,-0.7758417076867024
-0.0044937133789062,1.387945294380188,-0.1504957377910614,-0.3485663533210754,-0.0001563420373713,-0.007434940431267,0.0,0.0,-0.3658144222220141,0.8834633858621922
-0.0059667588211596,1.3797205686569214,-0.1450056433677673,-0.3655446767807007,-0.0024328792933374,-0.0455351844429969,0.0,0.0,-0.8160444148461865,0.7151254768461641
-0.0073916437104344,1.3711189031600952,-0.1379369795322418,-0.3823077380657196,-0.0069258473813533,-0.0898678451776504,0.0,0.0,-0.5946531898270511,0.6821559148569897
-0.00877046585083,1.3621371984481812,-0.1311576515436172,-0.3992395401000976,-0.0135743906721472,-0.1329835057258606,0.0,0.0,0.4633748646831903,-0.8859592260034357
-0.0102543830871582,1.3535457849502563,-0.1429116576910019,-0.3818950951099396,-0.018996562808752,-0.1084533184766769,0.0,0.0,0.1616306564592038,-0.8155615273806243
-0.0116926189512014,1.3452585935592651,-0.1395750939846038,-0.3683767318725586,-0.0232010167092084,-0.0840967670083046,0.0,0.0,0.9334214683102864,0.8107128017756005
-0.0130793573334813,1.3380684852600098,-0.1322534382343292,-0.3196698725223541,-0.0295426547527313,-0.1268445253372192,0.0,0.0,-0.2540087641065489,-0.807380572478177
-0.0145490644499659,1.330507755279541,-0.1416831612586975,-0.3361505270004272,-0.0347755216062068,-0.1046669110655784,0.0,0.0,-0.6537890591353739,-0.9798180893555132
-0.0161044113337993,1.3225724697113037,-0.151428535580635,-0.3527738451957702,-0.0388385765254497,-0.0812683328986167,0.0,0.0,0.8275761025540809,-0.9801323503139032
-0.0176465027034282,1.315131902694702,-0.1517142355442047,-0.3307592570781708,-0.041309043765068,-0.0494135804474353,0.0,0.0,-0.9782306503075884,0.7318582330606269
-0.0191377643495798,1.30731201171875,-0.1443504691123962,-0.3476931750774383,-0.046036098152399,-0.0945501178503036,0.0,0.0,-0.9448759761027488,-0.6166863053123224
-0.0206912998110055,1.2991106510162354,-0.1511893570423126,-0.3646312355995178,-0.0501688607037067,-0.0826625004410743,0.0,0.0,0.0500911383728113,0.6927435997732967
-0.0220805164426565,1.291311502456665,-0.1329741328954696,-0.3468450307846069,-0.0560630969703197,-0.1178955063223838,0.0,0.0,0.3604108356516078,-0.6134798210835466
-0.0234246253967285,1.2834887504577637,-0.1294053941965103,-0.3478678166866302,-0.0610226020216941,-0.0991988107562065,0.0,0.0,0.92691231082779,0.9768623516752212
-0.0244712829589843,1.2767698764801023,-0.0975179895758628,-0.298930823802948,-0.0680935457348823,-0.1414320319890976,0.0,0.0,-0.7795775080405831,-0.6834532671480781
-0.0255777351558208,1.2696709632873535,-0.1040741428732872,-0.3158202767372131,-0.0746090859174728,-0.1303227096796035,0.0,0.0,-0.4053080019566988,0.9813374516822388
-0.0266124717891216,1.2621934413909912,-0.0941260308027267,-0.3328208029270172,-0.0838674679398536,-0.1851841658353805,0.0,0.0,0.7675302226059453,0.7310416013211753
-0.0276504512876272,1.2552481889724731,-0.0923269391059875,-0.3093620538711548,-0.0952638983726501,-0.227949172258377,0.0,0.0,-0.2755145455122147,-0.7568956994264692
-0.0287528987973928,1.24793803691864,-0.0994940474629402,-0.3256138265132904,-0.1059429943561554,-0.2136012017726898,0.0,0.0,0.3206932977607475,-0.9523345128801036
-0.0298999790102243,1.2407833337783811,-0.1054093241691589,-0.3186745941638946,-0.1151908934116363,-0.1849744468927383,0.0,0.0,0.6397062878577906,0.7321174223341332
-0.0308045390993356,1.2340211868286133,-0.0795193463563919,-0.3014159500598907,-0.1260826736688614,-0.2178553342819214,0.0,0.0,0.0533492982181402,-0.9688593551125404
-0.0317251197993755,1.2271718978881836,-0.0825824663043022,-0.3052412271499634,-0.1355261206626892,-0.1888857036828994,0.0,0.0,0.6207958412178152,-0.8806045769116604
-0.0328002944588661,1.2209316492080688,-0.0991291850805282,-0.2781210839748382,-0.1439015716314315,-0.167523980140686,0.0,0.0,0.0085046743455274,0.9334624240199152
-0.0338647849857807,1.214943289756775,-0.0957753509283065,-0.2672165632247925,-0.1545581221580505,-0.2131310999393463,0.0,0.0,-0.9492233005540314,0.7652598702532051
-0.0348851196467876,1.2085691690444946,-0.089381143450737,-0.2846536636352539,-0.1672074198722839,-0.2529858648777008,0.0,0.0,-0.2263654240005173,0.7224680465996274
-0.0358764640986919,1.2018157243728638,-0.0849427431821823,-0.3018144071102142,-0.1814355999231338,-0.2845634818077087,0.0,0.0,-0.0954289504398158,0.74447243493496
-0.036837387830019,1.19468092918396,-0.0803272426128387,-0.3191123902797699,-0.1972751766443252,-0.3167914152145386,0.0,0.0,0.5200111559668152,0.6510872922493935
-0.0376959815621376,1.187820315361023,-0.0683747306466102,-0.3073431551456451,-0.2149090319871902,-0.3526773452758789,0.0,0.0,0.1368979077784782,0.7225549029633977
-0.0383736602962017,1.1814252138137815,-0.0484944432973861,-0.2871493995189667,-0.2344123423099517,-0.3900664150714874,0.0,0.0,0.9177917745951808,-0.7382127093933832
-0.0390995033085346,1.1754496097564695,-0.0542233884334564,-0.2686211466789245,-0.2530860006809234,-0.3734740316867828,0.0,0.0,0.7150217972203554,-0.6207956873892744
-0.03976621478796,1.1703678369522097,-0.0489995218813419,-0.2290119379758834,-0.2711488306522369,-0.3612567782402038,0.0,0.0,-0.9729067275598902,-0.7404658762278675
-0.040509320795536,1.1649317741394043,-0.0579261258244514,-0.2447301894426345,-0.2879775464534759,-0.336574375629425,0.0,0.0,0.2535689872434077,-0.809319910370681
-0.0411771759390831,1.159828782081604,-0.0516718812286853,-0.2298585772514343,-0.3035607039928436,-0.3116624355316162,0.0,0.0,0.4164202045633389,-0.761879538027318
-0.0417024604976177,1.155303955078125,-0.0386328026652336,-0.204073891043663,-0.3179675638675689,-0.2881373167037964,0.0,0.0,-0.4250919376115307,-0.8243938559305142
-0.0423043258488178,1.150431752204895,-0.0476577952504158,-0.2193443179130554,-0.331022560596466,-0.2610998153686523,0.0,0.0,0.7709200592475718,0.6946439332959653
-0.0425571426749229,1.146298885345459,-0.0111642070114612,-0.18698151409626,-0.345783531665802,-0.2952196002006531,0.0,0.0,-0.499987891041405,-0.728319807905968
-0.0428753867745399,1.1418298482894895,-0.0189404375851154,-0.2017756402492523,-0.3593282997608185,-0.2708946168422699,0.0,0.0,-0.2084344337145489,-0.9202548048077724
-0.0432671532034873,1.1370229721069336,-0.0277133285999298,-0.2165558040142059,-0.3714450001716614,-0.242333173751831,0.0,0.0,-0.5615593927102416,0.8084350341399977
-0.043617058545351,1.131818771362305,-0.0219645760953426,-0.2347421497106552,-0.3852875530719757,-0.2768511176109314,0.0,0.0,-0.5219616889953613,-0.971312403678894
-0.044031523168087,1.1262717247009275,-0.0296406336128711,-0.2497826069593429,-0.3978959321975708,-0.2521678507328033,0.0,0.0,0.0693936347961425,-0.9874598979949952
-0.0443793311715126,1.1206210851669312,-0.0245542265474796,-0.2540470957756042,-0.4088615477085113,-0.2193124592304229,0.0,0.0,-0.5826281309127808,-0.9916481375694276
-0.0447935089468956,1.114631175994873,-0.0325231812894344,-0.2688154578208923,-0.418450117111206,-0.1917713582515716,0.0,0.0,-0.2122384905815124,-0.9969574809074402
-0.0452927574515342,1.1083052158355713,-0.0427936241030693,-0.2832951247692108,-0.4261709749698639,-0.1544169485569,0.0,0.0,-0.3674488067626953,-0.947692573070526
-0.0458621010184288,1.101636290550232,-0.0511891022324562,-0.2981505990028381,-0.4323993921279907,-0.1245684996247291,0.0,0.0,0.4419370889663696,-0.9898062944412231
-0.0462883003056049,1.0951268672943115,-0.0385425612330436,-0.2905684411525726,-0.4368400871753692,-0.0888136178255081,0.0,0.0,-0.3368322253227234,-0.9860669374465942
-0.0467974655330181,1.0883079767227173,-0.0488315112888813,-0.3037191033363342,-0.4391190409660339,-0.0455790609121322,0.0,0.0,-0.5609784722328186,-0.963855504989624
-0.0473896972835063,1.081177830696106,-0.0591399893164634,-0.3169193267822265,-0.4392126798629761,-0.0018726021517068,0.0,0.0,-0.6616944074630737,-0.997737467288971
-0.0480572693049907,1.073719143867493,-0.0683973878622055,-0.3309807479381561,-0.437422513961792,0.0358030758798122,0.0,0.0,-0.3493151068687439,-0.9614134430885316
-0.04877720028162,1.065919280052185,-0.0748026669025421,-0.3457909524440765,-0.4343579113483429,0.0612921416759491,0.0,0.0,-0.322251558303833,-0.9868391752243042
-0.0495713241398334,1.0578012466430664,-0.0840915814042091,-0.3593656420707702,-0.4292703568935394,0.1017507910728454,0.0,0.0,-0.8258422017097473,-0.9878159761428832
-0.0504229553043842,1.0493403673171997,-0.0911952257156372,-0.3742146790027618,-0.4227316379547119,0.1307744979858398,0.0,0.0,-0.7760685086250305,-0.9066120982170104
-0.0513340011239051,1.040553331375122,-0.0987096577882766,-0.3882806003093719,-0.4145166277885437,0.1642999798059463,0.0,0.0,-0.837925374507904,-0.6286987066268921
-0.0522761344909668,1.031409502029419,-0.1025695353746414,-0.4039727449417114,-0.4055169224739074,0.1799942851066589,0.0,0.0,-0.7114072442054749,-0.8713328838348389
-0.0532875061035156,1.0219318866729736,-0.111310601234436,-0.4183510839939117,-0.3946103453636169,0.2181315422058105,0.0,0.0,-0.6721593141555786,-0.7232282161712646
-0.0543357841670513,1.0121114253997805,-0.1160894036293029,-0.433384358882904,-0.3825972080230713,0.2402626723051071,0.0,0.0,-0.7511380314826965,-0.7965995073318481
-0.0554215423762798,1.001944661140442,-0.1209514960646629,-0.4485944509506225,-0.3694616258144378,0.2627118229866028,0.0,0.0,-0.593108057975769,-0.5100757479667664
-0.0565314292907714,0.9914255738258362,-0.124182142317295,-0.4641717374324798,-0.3555326461791992,0.2785793840885162,0.0,0.0,-0.6150152087211609,-0.1488233804702758
-0.0576333031058311,0.9805303812026978,-0.1233359426259994,-0.4810370206832886,-0.3417201638221741,0.2762498259544372,0.0,0.0,-0.5012151598930359,-0.1222745180130004
-0.0587264075875282,0.9692589640617372,-0.122429683804512,-0.4979015588760376,-0.3280084729194641,0.2742339670658111,0.0,0.0,-0.8115237355232239,0.4512321949005127
-0.0598101615905761,0.9576111435890198,-0.1214666590094566,-0.5147654414176941,-0.3143818974494934,0.2725318074226379,0.0,0.0,-0.7714861035346985,0.15219247341156
-0.0608837120234966,0.9455869793891908,-0.1204502582550048,-0.5316287279129028,-0.3008248209953308,0.2711423635482788,0.0,0.0,-0.9456104040145874,0.5739583969116211
-0.0619016662240028,0.933165967464447,-0.1137072592973709,-0.5496257543563843,-0.2885343730449676,0.2458090335130691,0.0,0.0,-0.9059471487998962,0.276168942451477
-0.0629083663225174,0.9203680753707886,-0.112592838704586,-0.5664854645729065,-0.2762824296951294,0.2450391501188278,0.0,0.0,-0.9039425849914552,0.7076683044433594
-0.0638606995344162,0.9071751832962036,-0.1060540676116943,-0.5843433737754822,-0.2651934027671814,0.2217811048030853,0.0,0.0,-0.906387984752655,0.5676298141479492
-0.0647548660635948,0.8935930132865906,-0.0991038009524345,-0.6019365787506104,-0.2552968263626098,0.1979317516088485,0.0,0.0,-0.96360445022583,0.5554330348968506
-0.0655895248055458,0.8796074986457825,-0.0919107422232627,-0.6201320290565491,-0.2466758042573928,0.1724201440811157,0.0,0.0,-0.9396283626556396,0.6936020851135254
-0.0663540810346603,0.8652305603027344,-0.0835265666246414,-0.6378101706504822,-0.2394908517599105,0.1436992883682251,0.0,0.0,-0.9259639382362366,0.4655847549438476
-0.067105196416378,0.850475013256073,-0.0822213664650917,-0.6546603441238403,-0.2322706431150436,0.1444037854671478,0.0,0.0,-0.8007887601852417,0.2453243732452392
-0.06784238666296,0.8353410363197327,-0.080886922776699,-0.6715103387832642,-0.2250014096498489,0.1453844457864761,0.0,0.0,-0.8645462393760681,-0.0028812885284423
-0.0685652717947959,0.819828450679779,-0.0795256346464157,-0.6883601546287537,-0.2176697105169296,0.1466338634490966,0.0,0.0,-0.8745880722999573,0.2929004430770874
-0.0692733749747276,0.8039373159408569,-0.0781397074460983,-0.7052097916603088,-0.2102625072002411,0.1481442004442215,0.0,0.0,-0.8334906101226807,0.71846604347229
-0.0699041336774826,0.7876476645469666,-0.0689004510641098,-0.7231734991073608,-0.2043886929750442,0.117476150393486,0.0,0.0,-0.7402960062026978,0.4568641185760498
-0.0705195441842079,0.7709790468215942,-0.0674707815051078,-0.740021288394928,-0.1984144896268844,0.1194839105010032,0.0,0.0,-0.726676881313324,0.4187257289886474
-0.0711193084716796,0.75393146276474,-0.0660222917795181,-0.7568690776824951,-0.1923281252384185,0.121727205812931,0.0,0.0,-0.349016785621643,0.2191122770309448
-0.071703054010868,0.7365051507949829,-0.064556635916233,-0.7737167477607727,-0.1861182898283004,0.1241971403360366,0.0,0.0,-0.0623859763145446,0.730478048324585
-0.0722138434648513,0.7186905741691589,-0.0559633672237396,-0.7911586165428162,-0.1812151670455932,0.0980625972151756,0.0,0.0,-0.0423765182495117,0.1456314325332641
-0.0727081298828125,0.7004968523979187,-0.0544673614203929,-0.8080050349235535,-0.1761672347784042,0.1009586825966835,0.0,0.0,-0.2375303506851196,0.3918188810348511
-0.0731858238577842,0.6819239854812622,-0.052958358079195,-0.8248516321182251,-0.1709645390510559,0.1040540561079979,0.0,0.0,-0.0481927394866943,0.2474957704544067
-0.073646642267704,0.6629721522331238,-0.0514375157654285,-0.8416982293128967,-0.1655975580215454,0.1073395237326622,0.0,0.0,0.6728876829147339,0.2066731452941894
-0.0739180594682693,0.64481520652771,-0.0328687652945518,-0.8063412308692932,-0.1598682850599289,0.1145851612091064,0.0,0.0,0.0527296066284179,0.3971090316772461
-0.074177548289299,0.626837968826294,-0.0315641164779663,-0.7983996868133545,-0.1542557477951049,0.1122507601976394,0.0,0.0,0.510148286819458,0.4173766374588012
-0.0743739157915115,0.6094114780426025,-0.0252117123454809,-0.7739436626434326,-0.1486849188804626,0.1114167347550392,0.0,0.0,0.2512413263320923,0.0230541229248046
-0.0744832009077072,0.5923935770988464,-0.0166601724922657,-0.7557889223098755,-0.1429581940174102,0.1145340651273727,0.0,0.0,0.2436448335647583,-0.3281354904174804
-0.074447251856327,0.5756328701972961,-0.0026608051266521,-0.7443312406539917,-0.1367228925228119,0.1247061640024185,0.0,0.0,-0.441977858543396,0.2024266719818115
-0.0743933692574501,0.5584933757781982,-0.0010883163195103,-0.761178731918335,-0.1302757561206817,0.1289424300193786,0.0,0.0,0.4042335748672485,0.0599008798599243
-0.0741988196969032,0.5414685606956482,0.0123887453228235,-0.7560555338859558,-0.1232457384467125,0.1406008303165435,0.0,0.0,0.0093162059783935,0.0326274633407592
-0.0738540664315223,0.5245678424835205,0.0267647001892328,-0.750525176525116,-0.1155757308006286,0.1533997952938079,0.0,0.0,0.3474746942520141,0.0488688945770263
-0.0733409896492958,0.5077482461929321,0.0428286306560039,-0.7469065189361572,-0.1071500778198242,0.1685132682323455,0.0,0.0,0.1953762769699096,0.5946497917175293
-0.0727087035775184,0.4913582503795624,0.0556952245533466,-0.7279250621795654,-0.0996817201375961,0.1493671089410781,0.0,0.0,0.1891473531723022,-0.0695478916168212
-0.0719816237688064,0.4754011631011963,0.0648404210805893,-0.708697497844696,-0.0918705612421035,0.1562230736017227,0.0,0.0,0.5922269821166992,-0.3732013702392578
-0.071057416498661,0.46000936627388,0.0837337225675582,-0.6835691928863525,-0.0832600519061088,0.1722099483013153,0.0,0.0,0.3962314128875732,0.2799749374389648
-0.0700066536664962,0.44464111328125,0.0957295447587966,-0.6825430393218994,-0.0740070864558219,0.1850592195987701,0.0,0.0,-0.0672054290771484,-0.3189082741737366
-0.0689372047781944,0.4288946092128753,0.0973374843597412,-0.6993954181671143,-0.0645022317767143,0.1900972425937652,0.0,0.0,0.5999058485031128,0.0061075687408447
-0.0677133575081825,0.4140129089355469,0.1121323555707931,-0.6609994769096375,-0.0543630048632621,0.2027845084667205,0.0,0.0,0.1894296407699585,0.5098810195922852
-0.06642647087574,0.3993649780750274,0.1192351430654525,-0.6507043242454529,-0.0450186878442764,0.186886578798294,0.0,0.0,0.3859326839447021,0.0985637903213501
-0.0651948899030685,0.3853459656238556,0.1139168143272399,-0.6228153705596924,-0.0358962714672088,0.1824484169483184,0.0,0.0,-0.6575919389724731,0.5334012508392334
-0.0638961791992187,0.3709489405155182,0.1215995922684669,-0.6396938562393188,-0.0277247354388237,0.1634310334920883,0.0,0.0,0.5006614923477173,0.175119400024414
-0.0626082420349121,0.3571975231170654,0.1204778924584388,-0.6110450029373169,-0.0195127949118614,0.1642387062311172,0.0,0.0,-0.2611098289489746,0.1530706882476806
-0.0613013282418251,0.343067854642868,0.1220995783805847,-0.6278969645500183,-0.0110338842496275,0.1695783585309982,0.0,0.0,-0.1119248867034912,0.3494753837585449
-0.0599755272269248,0.3285601139068603,0.1237227693200111,-0.6447494029998779,-0.0022865775972604,0.1749459505081176,0.0,0.0,0.8162755966186523,0.6272475719451904
-0.0587174408137798,0.314666748046875,0.1182983145117759,-0.6174867749214172,0.0051312893629074,0.1483572274446487,0.0,0.0,0.886890172958374,0.4709652662277221
-0.0576152801513671,0.3012910485267639,0.1032385826110839,-0.5945165753364563,0.0120245795696973,0.1378657668828964,0.0,0.0,0.7896623611450195,0.704060435295105
-0.0563231483101844,0.2887118458747864,0.1230849400162696,-0.5591369867324829,0.0180727932602167,0.1209639310836792,0.0,0.0,0.3625462055206299,0.4562733173370361
-0.054966926574707,0.2762119770050049,0.1289851516485214,-0.5556456446647644,0.0246260724961757,0.13106569647789,0.0,0.0,0.3843441009521484,0.1754056215286255
-0.0534859672188758,0.2642967998981476,0.1406225711107254,-0.529701828956604,0.0320125706493854,0.1477297842502594,0.0,0.0,0.1246070861816406,0.3660240173339844
-0.0520184524357318,0.2527947127819061,0.1390788704156875,-0.5113875269889832,0.0395977459847927,0.1517031043767929,0.0,0.0,-0.1424335837364196,0.4955787658691406
-0.0505318641662597,0.2409145236015319,0.1407081931829452,-0.5282399654388428,0.0474529899656772,0.157104879617691,0.0,0.0,0.5978219509124756,0.6195447444915771
-0.0489239692687988,0.229505255818367,0.1536291539669037,-0.5073203444480896,0.0545298047363758,0.1415361016988754,0.0,0.0,0.6414575576782227,-0.3761078119277954
-0.0473484992980957,0.2189323455095291,0.1501585692167282,-0.4701976776123047,0.0618416294455528,0.1462363302707672,0.0,0.0,-0.2266173362731933,-0.2786221504211426
-0.0457540526986122,0.2079812139272689,0.1517883986234665,-0.4870502352714538,0.0694201961159706,0.1515711992979049,0.0,0.0,0.4147672653198242,-0.2532176971435547
-0.0440989509224891,0.1972468048334121,0.1572567820549011,-0.4774881303310394,0.0775829926133155,0.1632560938596725,0.0,0.0,0.0885206460952758,-0.2087069749832153
-0.0425368323922157,0.1867343932390213,0.1480722576379776,-0.4676622152328491,0.0856362804770469,0.1610659211874008,0.0,0.0,0.4143362045288086,0.1505405902862548
-0.0411030761897563,0.1764885038137436,0.1354981958866119,-0.4558429718017578,0.0934424325823783,0.1561231166124344,0.0,0.0,0.2507330179214477,0.0701806545257568
-0.0397066101431846,0.1664998084306717,0.1315990537405014,-0.44446662068367,0.1014319285750389,0.1597898453474044,0.0,0.0,0.4235105514526367,0.2519336938858032
-0.0383155830204486,0.1568226218223571,0.1306959986686706,-0.4306923449039459,0.1097809895873069,0.1669815629720688,0.0,0.0,0.3306533098220825,0.0755890607833862
-0.0368329063057899,0.1472168117761612,0.1391161978244781,-0.4276228249073028,0.1188698336482048,0.1817767173051834,0.0,0.0,0.0426356792449951,-0.750980019569397
-0.0353714935481548,0.1378817856311798,0.135215476155281,-0.4157968759536743,0.1297481954097747,0.2175669223070144,0.0,0.0,0.0482904911041259,-0.1164706945419311
-0.0339418426156044,0.128934159874916,0.1317236274480819,-0.3986909985542297,0.1409469246864318,0.2239745408296585,0.0,0.0,0.1679896116256714,-0.045208990573883
