x_pos,y_pos,x_vel,y_vel,angle,ang_vel,leg_1,leg_2,main_booster,lat_booster
-0.0015877723926678,1.4030907154083252,-0.160978689789772,-0.3479737937450409,0.0019782211165875,0.0390380695462226,0.0,0.0,0.5999677181243896,0.6571804285049438
-0.0031340599525719,1.3954179286956787,-0.1555697619915008,-0.3410150408744812,0.0029088768642395,0.0186154283583164,0.0,0.0,-0.2767812609672546,0.6460142135620117
-0.0046816826798021,1.3872063159942627,-0.1543050855398178,-0.3649609982967376,0.0024579630699008,-0.0090190973132848,0.0,0.0,-0.1818089485168457,0.5776687860488892
-0.006255435757339,1.3784592151641846,-0.1561861783266067,-0.3887612521648407,0.0012765286955982,-0.023630928248167,0.0,0.0,0.1203788518905639,0.799752950668335
-0.0077280043624341,1.3698444366455078,-0.1447328925132751,-0.3828767240047455,-0.0012131347320973,-0.049797885119915,0.0,0.0,-0.0977026224136352,0.8248863220214844
-0.0091819763183593,1.3606946468353271,-0.1410570740699768,-0.4066666960716247,-0.0055059939622879,-0.0858652740716934,0.0,0.0,0.0289676189422607,-0.1811410188674926
-0.0107082370668649,1.3515510559082031,-0.1484294980764389,-0.4064063131809234,-0.0096590276807546,-0.0830681696534156,0.0,0.0,0.1681618690490722,0.1573983430862426
-0.012183666229248,1.3425583839416504,-0.1440762132406234,-0.3997044265270233,-0.0130970599129796,-0.0687666535377502,0.0,0.0,-0.1731866002082824,0.4215753078460693
-0.0137174604460597,1.3330318927764893,-0.1501284539699554,-0.4234318435192108,-0.0163184627890586,-0.0644339174032211,0.0,0.0,0.2154316902160644,0.8445612192153931
-0.0152339935302734,1.3237768411636353,-0.1469188630580902,-0.4113876521587372,-0.0209915060549974,-0.0934693291783332,0.0,0.0,0.0766768455505371,0.9138426780700684
-0.0166597366333007,1.314565658569336,-0.1362638175487518,-0.4094876646995544,-0.0272409431636333,-0.1250000745058059,0.0,0.0,-0.6216742992401123,-0.3722234964370727
-0.0181402210146188,1.3048210144042969,-0.1419662088155746,-0.4332150220870971,-0.0332597605884075,-0.1203874126076698,0.0,0.0,0.0754663944244384,0.7256112098693848
-0.0195045471191406,1.2952218055725098,-0.1292180269956588,-0.426807552576065,-0.0403937473893165,-0.1426927000284195,0.0,0.0,-0.0998339653015136,0.4135568141937256
-0.0209206584841012,1.2850892543792725,-0.1346433907747268,-0.4505399763584137,-0.047290526330471,-0.1379482448101043,0.0,0.0,-0.1963567733764648,0.1508160829544067
-0.0223870277404785,1.2744234800338743,-0.1399171948432922,-0.4742646217346191,-0.0539482645690441,-0.1331669390201568,0.0,0.0,0.1957789659500122,0.648456335067749
-0.023751163855195,1.2635278701782229,-0.1287734657526016,-0.4845510721206665,-0.0615145899355411,-0.1513403505086898,0.0,0.0,-0.1695164442062378,0.3648630380630493
-0.0251623149961233,1.2520986795425415,-0.1337106525897979,-0.508280873298645,-0.0688374787569046,-0.1464712470769882,0.0,0.0,-0.5647245049476624,-0.4631811380386352
-0.0266183856874704,1.2401362657546997,-0.138465404510498,-0.5320078134536743,-0.0759162381291389,-0.1415879428386688,0.0,0.0,0.3694559335708618,0.4262633323669433
-0.027986716479063,1.2286264896392822,-0.1303302943706512,-0.511890709400177,-0.0823731645941734,-0.1291501820087433,0.0,0.0,0.2748355865478515,-0.1663165688514709
-0.02942237816751,1.2172436714172363,-0.137005478143692,-0.5062829256057739,-0.0888758972287178,-0.1300660669803619,0.0,0.0,0.6517367362976074,-0.0378670692443847
-0.030703067779541,1.2064332962036133,-0.1223684549331665,-0.4808139503002167,-0.0945378616452217,-0.1132496446371078,0.0,0.0,-0.0292637348175048,-0.6630398035049438
-0.0320718772709369,1.1950924396514893,-0.1327309906482696,-0.5043057203292847,-0.0986622050404548,-0.0824943929910659,0.0,0.0,-0.3331840634346008,0.1759918928146362
-0.0334750190377235,1.183218002319336,-0.136415496468544,-0.5280252695083618,-0.1025431603193283,-0.0776256620883941,0.0,0.0,-0.0102773904800415,-0.0527220964431762
-0.0349101051688194,1.1708093881607056,-0.1398518085479736,-0.5517475605010986,-0.1061814129352569,-0.0727715417742729,0.0,0.0,0.0924956798553466,-0.4925271868705749
-0.0364228263497352,1.1585166454315186,-0.147419273853302,-0.5466264486312866,-0.1100143194198608,-0.0766652822494506,0.0,0.0,0.4427245855331421,-0.297471284866333
-0.0380228981375694,1.146606206893921,-0.1557874828577041,-0.5296709537506104,-0.1141974404454231,-0.0836624652147293,0.0,0.0,0.5919814109802246,-0.5179244875907898
-0.0396035201847553,1.1352144479751587,-0.1551464200019836,-0.5065246820449829,-0.1170998811721801,-0.0580486170947551,0.0,0.0,0.5451531410217285,0.6634455919265747
-0.0411950126290321,1.124459743499756,-0.1548588573932647,-0.4783308207988739,-0.1213690191507339,-0.0853826478123664,0.0,0.0,-0.9272336959838868,-0.5357353091239929
-0.0428554527461528,1.1131848096847534,-0.1632850766181945,-0.5013339519500732,-0.124105766415596,-0.0547349564731121,0.0,0.0,0.5112181901931763,0.5667095184326172
-0.0444518104195594,1.1020331382751465,-0.1559304296970367,-0.4959411025047302,-0.1277987509965896,-0.0738598778843879,0.0,0.0,-0.9753958582878112,-0.6482517123222351
-0.0461085326969623,1.0903642177581787,-0.1634546518325805,-0.5188091993331909,-0.1300123929977417,-0.044272493571043,0.0,0.0,-0.8850486278533936,0.8779239654541016
-0.0477143302559852,1.0781444311141968,-0.15703746676445,-0.5434107184410095,-0.1335380524396896,-0.070513054728508,0.0,0.0,0.842170000076294,0.9193665981292723
-0.0492344871163368,1.0667340755462646,-0.1466725766658783,-0.5076130628585815,-0.1388576924800872,-0.106392815709114,0.0,0.0,0.8735698461532593,0.4016622304916382
-0.0507712364196777,1.055412769317627,-0.1482111811637878,-0.5036938190460205,-0.1443038433790207,-0.1089228838682174,0.0,0.0,-0.2799410820007324,-0.2915452718734741
-0.0523060783743858,1.0435575246810913,-0.1482320576906204,-0.52741539478302,-0.1495472490787506,-0.1048680990934372,0.0,0.0,0.8671572208404541,0.7415527105331421
-0.0536274909973144,1.032423973083496,-0.1256579011678695,-0.4954915642738342,-0.1560235172510147,-0.129525288939476,0.0,0.0,-0.5908166170120239,0.3451323509216308
-0.0549398437142372,1.0207569599151611,-0.1249477863311767,-0.5192140936851501,-0.1623082160949707,-0.1256943345069885,0.0,0.0,0.7498527765274048,-0.6884005665779114
-0.0561190620064735,1.009757161140442,-0.1133046895265579,-0.4893866181373596,-0.1669266670942306,-0.0923691615462303,0.0,0.0,0.4150447845458984,0.0703773498535156
-0.0571950897574424,0.99929940700531,-0.1030186787247657,-0.4653083980083465,-0.171521782875061,-0.0919022485613823,0.0,0.0,-0.9939664006233216,0.3013378381729126
-0.0582510009407997,0.9883078932762146,-0.1011784449219703,-0.4890292286872864,-0.1759440600872039,-0.0884453728795051,0.0,0.0,-0.9424095749855042,-0.7916290760040283
-0.0593546852469444,0.9768081903457642,-0.1079923510551452,-0.5113779306411743,-0.178327739238739,-0.0476739928126335,0.0,0.0,-0.8958332538604736,-0.7755698561668396
-0.0604789741337299,0.9647857546806335,-0.1114357858896255,-0.5344502329826355,-0.1793169826269149,-0.0197845790535211,0.0,0.0,-0.9748771786689758,-0.5777013301849365
-0.0616102218627929,0.9522332549095154,-0.1132604256272316,-0.5578768253326416,-0.1791865825653076,0.0026080894749611,0.0,0.0,-0.997706174850464,-0.7229509353637695
-0.0627535805106163,0.9391579627990724,-0.115812636911869,-0.5809485912322998,-0.1777016073465347,0.0296998973935842,0.0,0.0,-0.9692835211753844,-0.5831878185272217
-0.0639073401689529,0.9255548119544984,-0.118236519396305,-0.6042422652244568,-0.1748353391885757,0.0573253333568573,0.0,0.0,-0.9669355154037476,-0.2200405597686767
-0.0650185570120811,0.9114177823066713,-0.1141205802559852,-0.6279625296592712,-0.1718392074108123,0.0599225237965583,0.0,0.0,-0.9054991602897644,0.1108697652816772
-0.0660838112235069,0.8967468738555908,-0.1096358299255371,-0.6516830325126648,-0.1687209606170654,0.062365174293518,0.0,0.0,-0.9238556623458862,0.2201207876205444
-0.0670993775129318,0.8815421462059021,-0.1047879308462143,-0.6754038333892822,-0.1654884219169616,0.0646507889032363,0.0,0.0,-0.8989664912223816,-0.3234625458717346
-0.0680618286132812,0.8658034801483154,-0.0995834916830062,-0.6991247534751892,-0.1621495485305786,0.0667774230241775,0.0,0.0,-0.9102574586868286,0.0154355764389038
-0.0689678192138671,0.8495311141014099,-0.0940299779176712,-0.7228459119796753,-0.1587123870849609,0.0687433630228042,0.0,0.0,-0.6248260736465454,-0.0153251886367797
-0.069813922047615,0.832724928855896,-0.0881356000900268,-0.7465671300888062,-0.1551850438117981,0.0705472454428672,0.0,0.0,-0.0490339994430542,-0.0710866451263427
-0.0705968886613845,0.815385103225708,-0.0819092765450477,-0.7702886462211609,-0.1515756249427795,0.0721880197525024,0.0,0.0,0.411564826965332,-0.0202546119689941
-0.0711639374494552,0.7980536222457886,-0.0608233883976936,-0.7698745131492615,-0.1474603712558746,0.0823054313659668,0.0,0.0,-0.1238119006156921,0.1152855157852172
-0.0716615691781044,0.7801883816719055,-0.0539623610675334,-0.7935965657234192,-0.1432794779539108,0.0836179107427597,0.0,0.0,0.4185554981231689,0.5446300506591797
-0.0718477219343185,0.762370228767395,-0.0220925137400627,-0.7915891408920288,-0.1398087292909622,0.0694146156311035,0.0,0.0,-0.6588955521583557,-0.1601753830909729
-0.0719588249921798,0.7440184950828552,-0.0146384807303547,-0.8153111338615417,-0.1362887918949127,0.0703985691070556,0.0,0.0,0.0472804307937622,0.606756329536438
-0.0718089118599891,0.7258657217025757,0.0125412046909332,-0.8065649271011353,-0.1338512599468231,0.0487505607306957,0.0,0.0,-0.286487877368927,0.3248052597045898
-0.0715786963701248,0.7071792483329773,0.0205439515411853,-0.83028644323349,-0.1313808411359787,0.0494083650410175,0.0,0.0,-0.5970295667648315,-0.5282036662101746
-0.0713013634085655,0.6879717707633972,0.0242964625358581,-0.8533672094345093,-0.1279589086771011,0.0684389397501945,0.0,0.0,-0.1132260560989379,-0.0222834348678588
-0.0709386840462684,0.6682307124137878,0.0328022949397563,-0.8770895600318909,-0.1245201602578163,0.0687749907374382,0.0,0.0,0.4459249973297119,0.0175498723983764
-0.0704038590192794,0.6484301090240479,0.0498062595725059,-0.8797266483306885,-0.1208653077483177,0.073097214102745,0.0,0.0,0.4277949333190918,-0.4394962787628174
-0.0697923675179481,0.6290141940116882,0.0578810982406139,-0.8626680970191956,-0.1176102980971336,0.0651000291109085,0.0,0.0,0.4768201112747192,-0.171155571937561
-0.0689251869916915,0.6097338795661926,0.0829334929585456,-0.8566071391105652,-0.1138513162732124,0.0751797556877136,0.0,0.0,0.1715267896652221,-0.6724244356155396
-0.0679490119218826,0.5905747413635254,0.0924654081463813,-0.851132333278656,-0.1087397560477256,0.1022309884428978,0.0,0.0,0.4167900085449219,-0.6893704533576965
-0.0668872818350792,0.571397602558136,0.0996469408273696,-0.8518580198287964,-0.1022637262940406,0.1295207440853119,0.0,0.0,0.1979181766510009,-0.370257019996643
-0.0657739639282226,0.5523403882980347,0.1052602156996727,-0.8465814590454102,-0.0962320044636726,0.1206342577934265,0.0,0.0,0.2329950332641601,-0.4840587377548218
-0.0644844025373458,0.5337013006210327,0.1228372603654861,-0.8280218839645386,-0.0901624709367752,0.1213906854391098,0.0,0.0,0.4302753210067749,-0.9183458089828492
-0.0630640015006065,0.5148954391479492,0.1340327560901641,-0.835356593132019,-0.0822304561734199,0.1586401760578155,0.0,0.0,0.6869170665740967,-0.870827853679657
-0.0615076050162315,0.4968746602535248,0.1458707302808761,-0.800415575504303,-0.0725611075758934,0.1933867633342743,0.0,0.0,0.2349505424499511,-0.3266739249229431
-0.0598925575613975,0.4788584411144256,0.1521216928958892,-0.800294816493988,-0.0632739514112472,0.1857431083917617,0.0,0.0,0.7751436233520508,-0.6272145509719849
-0.0582824721932411,0.4614162147045135,0.1506926119327545,-0.7748035192489624,-0.0530669391155242,0.2041401863098144,0.0,0.0,0.7286443710327148,-0.0912061333656311
-0.0564998611807823,0.4444145858287811,0.1678434461355209,-0.7552922964096069,-0.0427805297076702,0.2057285606861114,0.0,0.0,0.482532262802124,-0.6023372411727905
-0.054751206189394,0.4280343055725097,0.1635935604572296,-0.7277265191078186,-0.031648613512516,0.2226385176181793,0.0,0.0,0.5843790769577026,0.3044090270996094
-0.0528067573904991,0.4119489192962646,0.1829197704792022,-0.7146994471549988,-0.0202719438821077,0.227533534169197,0.0,0.0,0.4774134159088135,0.0954424142837524
-0.0507766716182231,0.3958568572998047,0.1917188316583633,-0.7150825262069702,-0.0091214450076222,0.2230100333690643,0.0,0.0,0.3615037202835083,0.3498668670654297
-0.0485783591866493,0.3796338737010956,0.2083639353513717,-0.7209889888763428,0.0021963319741189,0.2263555824756622,0.0,0.0,0.6287379264831543,0.2765042781829834
-0.0463013648986816,0.3633806109428406,0.2164710462093353,-0.7224175930023193,0.0132730407640337,0.2215344905853271,0.0,0.0,0.969502568244934,-0.2744430303573608
-0.0439355857670307,0.3480132818222046,0.2255011796951294,-0.6831256747245789,0.0242019426077604,0.2185778170824051,0.0,0.0,0.713585376739502,-0.3575143814086914
-0.0413952842354774,0.3333855867385864,0.2426777631044387,-0.6503381729125977,0.0354087203741073,0.2241359055042266,0.0,0.0,0.5731468200683594,-0.5362080931663513
-0.038927175104618,0.3193895816802978,0.2348058223724365,-0.6223686337471008,0.0472756251692771,0.2373378723859787,0.0,0.0,0.3313391208648681,-0.059213638305664
-0.0364624038338661,0.3052540719509125,0.2350700348615646,-0.6286402940750122,0.0585460886359214,0.2254092246294021,0.0,0.0,0.719182014465332,0.323421835899353
-0.0338899604976177,0.2918219268321991,0.2457681447267532,-0.5974711179733276,0.0698930323123931,0.2269387990236282,0.0,0.0,0.2539812326431274,-0.1101140975952148
-0.0313103683292865,0.2785031497478485,0.2469789087772369,-0.592494010925293,0.0807632654905319,0.2174048721790313,0.0,0.0,0.5886480808258057,-0.2395111322402954
-0.0287209507077932,0.2656201720237732,0.2483411729335785,-0.5731850266456604,0.0912657752633094,0.2100501507520675,0.0,0.0,0.5668764114379883,-0.0836789608001709
-0.0260879509150981,0.253193736076355,0.2528982162475586,-0.5529521107673645,0.1015892699360847,0.2064698189496994,0.0,0.0,0.4532647132873535,0.0441068410873413
-0.0233146660029888,0.2410102188587188,0.2667045295238495,-0.5422449707984924,0.1121386811137199,0.2109882533550262,0.0,0.0,0.606192946434021,-0.1864821314811706
-0.0204394347965717,0.2287942320108413,0.2769279181957245,-0.5437643527984619,0.1226638108491897,0.2105023860931396,0.0,0.0,0.7032263278961182,-0.4426069855690002
-0.0174036026000976,0.2166813015937805,0.2926995158195495,-0.5392849445343018,0.1334987431764602,0.2166985273361206,0.0,0.0,0.8744484186172485,-0.4645403623580932
-0.0141716953366994,0.2050324976444244,0.3116845190525055,-0.518794596195221,0.1449718326330185,0.2294617593288421,0.0,0.0,0.7577590942382812,-0.1102785468101501
-0.0107364654541015,0.193506509065628,0.3314822018146515,-0.5134835243225098,0.1569959968328476,0.2404831349849701,0.0,0.0,0.809633731842041,-0.4258843660354614
-0.0073185921646654,0.1826660931110382,0.3299336731433868,-0.4830924272537231,0.1688557416200637,0.2371946573257446,0.0,0.0,0.7028696537017822,-0.348482072353363
-0.0038829804398119,0.172457680106163,0.3317188024520874,-0.4551011621952057,0.1807269752025604,0.2374245822429657,0.0,0.0,0.5290873050689697,-0.5296105742454529
-0.0003600120544433,0.162652239203453,0.3392520844936371,-0.4374397993087768,0.1938365548849105,0.2621914744377136,0.0,0.0,0.338937759399414,-0.5536104440689087
0.0032752989791333,0.1527119725942611,0.3493542075157165,-0.4437080323696136,0.2081180363893509,0.2856295108795166,0.0,0.0,0.728186845779419,-0.5886144638061523
0.0068157194182276,0.1429877877235412,0.3390168249607086,-0.4343685507774353,0.2232985198497772,0.3036093115806579,0.0,0.0,0.8018637895584106,-0.4533482789993286
0.010356044396758,0.1341397166252136,0.3387674689292907,-0.3956329226493835,0.2387720346450805,0.3094704747200012,0.0,0.0,0.466008186340332,-0.7867957353591919
0.0138124469667673,0.125466451048851,0.329044759273529,-0.3882613480091095,0.2556668221950531,0.3378959000110626,0.0,0.0,0.8012833595275879,-0.5637335181236267
0.0169836990535259,0.1174545884132385,0.3000103831291199,-0.3591586351394653,0.273174375295639,0.3501507639884949,0.0,0.0,0.6825664043426514,-0.4573225975036621
0.0201669689267873,0.1099750101566314,0.3010151982307434,-0.3357588052749634,0.2909635305404663,0.3557832837104797,0.0,0.0,0.8172317743301392,-0.5375973582267761
0.0231304168701171,0.1031099185347557,0.2783692479133606,-0.3088182806968689,0.3095400333404541,0.3715298175811767,0.0,0.0,0.5693556070327759,-0.6707900762557983
0.0258625037968158,0.0966725423932075,0.2543060183525085,-0.2902556657791137,0.3291794955730438,0.3927893936634063,0.0,0.0,0.3820531368255615,0.2376062870025634
0.0285583492368459,0.0902869552373886,0.251020610332489,-0.2881517708301544,0.3486032783985138,0.3884759247303009,0.0,0.0,0.6135821342468262,0.1994798183441162
0.0310647971928119,0.0841413363814354,0.2328074723482132,-0.2775699496269226,0.3673844337463379,0.3756230473518371,0.0,0.0,0.5804270505905151,0.6364712715148926
0.0334104523062706,0.0781081542372703,0.2185233384370803,-0.2723516225814819,0.3844082355499267,0.3404768109321594,0.0,0.0,0.2372699975967407,0.5398249626159668
0.0357916839420795,0.0723680108785629,0.223165825009346,-0.259233295917511,0.4003788232803345,0.3194122612476349,0.0,0.0,0.0736511945724487,0.010060429573059
0.0382346138358116,0.0664511993527412,0.2293546944856643,-0.2672624886035919,0.4164319038391113,0.321061909198761,0.0,0.0,0.3958096504211426,0.461745023727417
0.0406472198665142,0.0609620437026023,0.225991278886795,-0.2485520839691162,0.4329550564289093,0.3304630219936371,0.0,0.0,0.7492563724517822,0.3082257509231567
0.0428111068904399,0.0560453757643699,0.201438158750534,-0.2232143580913543,0.4492749273777008,0.3263977169990539,0.0,0.0,0.5910489559173584,-0.0053992867469787
0.0448595061898231,0.0517992600798606,0.189495176076889,-0.1937436461448669,0.4661450684070587,0.3374027013778686,0.0,0.0,-0.2656099796295166,0.4409710168838501
0.0470255836844444,0.0470222793519496,0.2014749944210052,-0.2174835950136184,0.4829361736774444,0.3358220756053924,0.0,1.0,0.995386004447937,0.999685764312744
0.0487982742488384,0.0439586974680423,0.1752825230360031,-0.1376091986894607,0.4820393919944763,-0.0224913544952869,0.0,1.0,0.9682146310806274,0.9915381669998168
0.0501978881657123,0.0425475686788558,0.1546415984630584,-0.0577188655734062,0.4656255543231964,-0.3284529447555542,0.0,1.0,0.9211959838867188,0.8611996173858643
0.0513474456965923,0.041851982474327,0.1425033062696457,-0.0220109429210424,0.4353113174438476,-0.606389045715332,0.0,1.0,0.7967661619186401,-0.6096401214599609
0.0519959442317485,0.0415326915681362,0.0948388054966926,-0.0052544833160936,0.402830958366394,-0.6496715545654297,0.0,1.0,0.5405533313751221,-0.2645061016082763
0.0523736961185932,0.0412627570331096,0.0673862099647522,-0.0039177727885544,0.3712247312068939,-0.6321507692337036,0.0,1.0,0.4580504894256592,0.4051218032836914
0.052550982683897,0.0411566123366355,0.0477712452411651,0.0027437864337116,0.3395675718784332,-0.6331686973571777,0.0,0.0,-0.9997416734695436,-0.5753116011619568
0.0528122894465923,0.0404991470277309,0.055116482079029,-0.0226866826415061,0.3093626499176025,-0.6040991544723511,0.0,0.0,-0.9996371269226074,-0.7422435879707336
0.0531476028263568,0.0392915122210979,0.061708141118288,-0.0479381829500198,0.280279666185379,-0.5816589593887329,0.0,0.0,-0.9991962909698486,-0.628535807132721
0.0535588264465332,0.0375457145273685,0.0685507133603096,-0.0725715532898902,0.2521992027759552,-0.5616093873977661,0.0,0.0,-0.9968857169151306,-0.8650908470153809
0.0540216453373432,0.0352591834962368,0.0723258331418037,-0.0973680317401886,0.225729838013649,-0.5293875932693481,0.0,0.0,-0.9727805852890016,-0.553187370300293
0.0545638091862201,0.0324284173548221,0.0794759839773178,-0.1221455782651901,0.2002111971378326,-0.5103731751441956,0.0,0.0,-0.9319884777069092,-0.4851067066192627
