x_pos,y_pos,x_vel,y_vel,angle,ang_vel,leg_1,leg_2,main_booster,lat_booster
-0.001531696296297,1.4030170440673828,-0.1557579338550567,-0.3512526750564575,0.0023192530497908,0.045791033655405,0.0,0.0,-0.3956466913223266,0.939103364944458
-0.0029913901817053,1.3945252895355225,-0.1467690467834472,-0.3774151802062988,0.0031038275919854,0.0156937483698129,0.0,0.0,0.1668038368225097,0.2468559741973877
-0.00436573009938,1.385853886604309,-0.1392224580049514,-0.3854007720947265,0.0048793815076351,0.0355143137276172,0.0,0.0,0.6174485683441162,0.931425929069519
-0.0058081625029444,1.377305030822754,-0.1445240378379821,-0.3799476325511932,0.0051526185125112,0.0054657123982906,0.0,0.0,-0.0140157341957092,0.763962984085083
-0.0071855545975267,1.3681516647338867,-0.1367084980010986,-0.4068164527416229,0.0041290745139122,-0.0204727444797754,0.0,0.0,0.0346275568008422,0.8200110197067261
-0.0084071159362792,1.358900785446167,-0.1200600117444992,-0.411144345998764,0.0020605842582881,-0.0413738004863262,0.0,0.0,0.1893175840377807,0.844933271408081
-0.0095894811674952,1.3496661186218262,-0.1149802803993225,-0.4104279279708862,-0.0011605886975303,-0.0644295662641525,0.0,0.0,-0.02046799659729,0.4215164184570312
-0.0107796667143702,1.3398239612579346,-0.116291269659996,-0.4374338686466217,-0.0038473289459943,-0.0537393875420093,0.0,0.0,-0.0870007872581482,0.7669833898544312
-0.0119181629270315,1.3293824195861816,-0.1101720482110977,-0.4640824198722839,-0.0074903601780533,-0.0728674530982971,0.0,0.0,0.8292760848999023,0.6638342142105103
-0.0130068780854344,1.3195433616638184,-0.1043984517455101,-0.4373169541358948,-0.0119188921526074,-0.0885786861181259,0.0,0.0,-0.2942016720771789,0.1791796684265136
-0.014103221707046,1.3090968132019043,-0.1056915074586868,-0.4643300175666809,-0.0158170536160469,-0.0779702588915824,0.0,0.0,-0.6211051940917969,0.4170610904693603
-0.0152070997282862,1.2980427742004397,-0.1069802418351173,-0.4913287460803985,-0.0191871542483568,-0.0674084797501564,0.0,0.0,0.2209402322769165,-0.1521351337432861
-0.0162123683840036,1.2871536016464231,-0.0981028452515602,-0.4839931428432464,-0.021575765684247,-0.0477764457464218,0.0,0.0,-0.2340894937515258,0.4530590772628784
-0.0172250755131244,1.2756567001342771,-0.0993825569748878,-0.5110011696815491,-0.0234404318034648,-0.0372967310249805,0.0,0.0,-0.0514780282974243,-0.3636344075202942
-0.0182451251894235,1.263552188873291,-0.1006552800536155,-0.5380014181137085,-0.0247828960418701,-0.026851737871766,0.0,0.0,-0.304483413696289,0.3269633054733276
-0.0192727092653512,1.2508400678634644,-0.1019210219383239,-0.5650016665458679,-0.0256058350205421,-0.0164603255689144,0.0,0.0,0.3295451402664184,0.2716968059539795
-0.0201790817081928,1.2385481595993042,-0.0908541977405548,-0.5463037490844727,-0.0253913383930921,0.004290145356208,0.0,0.0,-0.3450076580047607,-0.6327409148216248
-0.0211310386657714,1.2256444692611694,-0.0968992188572883,-0.5734713673591614,-0.023704731836915,0.0337351933121681,0.0,0.0,-0.0582579970359802,0.069880723953247
-0.0220902450382709,1.2121330499649048,-0.0981423929333686,-0.600469172000885,-0.0215080138295888,0.0439385920763015,0.0,0.0,-0.3077417612075805,0.1105549335479736
-0.0230566021054983,1.1980141401290894,-0.0993745401501655,-0.6274697780609131,-0.0188043639063835,0.054078035056591,0.0,0.0,-0.6192411184310913,-0.3482729792594909
-0.0240302085876464,1.1832877397537231,-0.1005949005484581,-0.6544719934463501,-0.0155978491529822,0.06413584202528,0.0,0.0,0.3129435777664184,0.3192342519760132
-0.024995993822813,1.1684808731079102,-0.1003651171922683,-0.6580456495285034,-0.0118494927883148,0.0749736577272415,0.0,0.0,-0.2362890243530273,0.8629224300384521
-0.0258856769651174,1.1530637741088867,-0.0911537408828735,-0.6851876974105835,-0.0096919490024447,0.0431547611951828,0.0,0.0,0.3787907361984253,0.0462013483047485
-0.0267213825136423,1.1374289989471436,-0.086513802409172,-0.6948570013046265,-0.0067738792859017,0.0583665557205677,0.0,0.0,-0.2925305366516113,0.1620086431503296
-0.0275636669248342,1.1211868524551392,-0.0876679047942161,-0.7218630909919739,-0.0033731006551533,0.0680212154984474,0.0,0.0,0.1379352807998657,0.5444774627685547
-0.0284785274416208,1.1050465106964111,-0.0941117033362388,-0.7173482179641724,-0.0007797402213327,0.0518671087920665,0.0,0.0,-0.5480948686599731,0.6217912435531616
-0.0293499939143657,1.088302493095398,-0.0890002995729446,-0.7441800236701965,0.001040392788127,0.0364029631018638,0.0,0.0,0.7777153253555298,0.432732343673706
-0.0303691867738962,1.072282791137695,-0.103570207953453,-0.7119886875152588,0.0026738296728581,0.0326689556241035,0.0,0.0,-0.1930477619171142,0.6038241386413574
-0.0313568115234375,1.0556607246398926,-0.0999260395765304,-0.738759458065033,0.0038225860334932,0.0229749381542205,0.0,0.0,-0.1302782297134399,0.240710973739624
-0.0323500633239746,1.038431167602539,-0.1009495630860328,-0.7657601833343506,0.0054186088964343,0.0319204851984977,0.0,0.0,0.4680689573287964,0.482373833656311
-0.0333363525569438,1.0217229127883911,-0.1007636338472366,-0.7426021695137024,0.0075293090194463,0.0422139391303062,0.0,0.0,-0.6133528351783752,0.4679188728332519
-0.0343279838562011,1.0044071674346924,-0.1017250418663024,-0.7696033120155334,0.0100676240399479,0.0507662892341613,0.0,0.0,0.7177063226699829,0.4208865165710449
-0.0354187972843647,0.9877328276634216,-0.1116705536842346,-0.7410998940467834,0.0126252146437764,0.0511514656245708,0.0,0.0,0.3720214366912842,0.0864303112030029
-0.0365711227059364,0.97089946269989,-0.1179841384291648,-0.7481772303581238,0.0153422905132174,0.0543415434658527,0.0,0.0,-0.6594920754432678,0.4001635313034057
-0.0377280227839946,0.9534587860107422,-0.1188367754220962,-0.775178849697113,0.0184507332742214,0.0621688850224018,0.0,0.0,-0.5790927410125732,0.5265696048736572
-0.0388463959097862,0.9354159235954284,-0.11426792293787,-0.801939070224762,0.0208573210984468,0.0481316857039928,0.0,0.0,0.5974555015563965,0.8539097309112549
-0.0399384498596191,0.917422652244568,-0.1102580800652504,-0.799713134765625,0.0218845978379249,0.0205457620322704,0.0,0.0,0.7911142110824585,0.5026373863220215
-0.040968894958496,0.900066077709198,-0.1035535484552383,-0.7714052796363831,0.0223852377384901,0.0100129600614309,0.0,0.0,-0.5950932502746582,0.7046146392822266
-0.041950799524784,0.8821119070053101,-0.0977047979831695,-0.7979609966278076,0.0219036657363176,-0.0096314530819654,0.0,0.0,-0.401191234588623,-0.6341736316680908
-0.0429837219417095,0.8635495901107788,-0.1043345481157302,-0.8250138759613037,0.0229335725307464,0.0205983109772205,0.0,0.0,0.9639229774475098,0.2899795770645141
-0.0441675186157226,0.8457631468772888,-0.119126558303833,-0.7905119061470032,0.0236658845096826,0.0146461753174662,0.0,0.0,0.4422976970672607,0.3391623497009277
-0.045256994664669,0.8280587196350098,-0.1104649528861045,-0.7868921756744385,0.0251651480793952,0.0299854017794132,0.0,0.0,0.2033476829528808,0.7393167018890381
-0.0462156310677528,0.8100863695144653,-0.0962308496236801,-0.7987769842147827,0.0255311913788318,0.0073206075467169,0.0,0.0,0.3327137231826782,0.6862673759460449
-0.0470437034964561,0.7921501994132996,-0.0821644514799118,-0.7971565127372742,0.0249007884413003,-0.0126083549112081,0.0,0.0,0.9123034477233888,0.4976458549499511
-0.0479288101196289,0.7741158604621887,-0.0878533795475959,-0.8015144467353821,0.0242511611431837,-0.0129924686625599,0.0,0.0,0.8846919536590576,0.4833910465240478
-0.0487720482051372,0.7560474872589111,-0.0840833932161331,-0.8030295968055725,0.0240169055759906,-0.0046853367239236,0.0,0.0,0.7888743877410889,0.7515203952789307
-0.0494962707161903,0.73809814453125,-0.0709693431854248,-0.7977315783500671,0.0225889887660741,-0.0285584684461355,0.0,0.0,-0.0127407312393188,0.6753661632537842
-0.0501776710152626,0.719549834728241,-0.065709576010704,-0.8243280649185181,0.0201873145997524,-0.0480334088206291,0.0,0.0,0.9517313241958618,0.2890574932098388
-0.0510348305106163,0.7017859220504761,-0.082644909620285,-0.7894718050956726,0.0171520095318555,-0.0607060082256794,0.0,0.0,0.2524555921554565,-0.0220598578453063
-0.0519146919250488,0.6839925050735474,-0.084897443652153,-0.7907886505126953,0.0141055909916758,-0.0609283447265625,0.0,0.0,0.6672993898391724,-0.263153076171875
-0.0526575073599815,0.6664590239524841,-0.0719161704182624,-0.7792447209358215,0.0117631386965513,-0.046848963946104,0.0,0.0,0.2118971347808838,-0.2896375656127929
-0.0534483902156353,0.6491279006004333,-0.0765207558870315,-0.7702535390853882,0.0092307599261403,-0.050647847354412,0.0,0.0,0.1120637655258178,0.764843225479126
-0.0540960319340229,0.6316360831260681,-0.060694120824337,-0.777396559715271,0.0052183391526341,-0.080248475074768,0.0,0.0,0.5707271099090576,-0.1265808343887329
-0.0547432899475097,0.6146745085716248,-0.0606275200843811,-0.7538391947746277,0.0011675930581986,-0.0810147672891616,0.0,0.0,0.5993194580078125,-0.2208533883094787
-0.0552454963326454,0.5978137850761414,-0.0467065572738647,-0.7493646740913391,-0.0022966712713241,-0.069285400211811,0.0,0.0,0.3767428398132324,-0.1299355030059814
-0.0558246597647666,0.5809350609779358,-0.05392337590456,-0.7501775622367859,-0.0062380195595324,-0.0788270384073257,0.0,0.0,0.5658714771270752,0.1475634574890136
-0.0563079826533794,0.5645812153816223,-0.0446221493184566,-0.7268573045730591,-0.0099033322185277,-0.0733060985803604,0.0,0.0,0.6270798444747925,0.7072048187255859
-0.0565777793526649,0.5486162304878235,-0.0219891685992479,-0.7095950245857239,-0.0148311927914619,-0.0985573753714561,0.0,0.0,0.2765820026397705,-0.1719018816947937
-0.0567779541015625,0.5329970121383667,-0.0151053890585899,-0.6942449808120728,-0.019680356606841,-0.0969832837581634,0.0,0.0,-0.4591960906982422,-0.1807863712310791
-0.0569754615426063,0.5167705416679382,-0.0146216135472059,-0.721247673034668,-0.0247425343841314,-0.1012434512376785,0.0,0.0,0.4845187664031982,-0.7453880906105042
-0.0571699142456054,0.5004299283027649,-0.0156649593263864,-0.7263230085372925,-0.0284727793186903,-0.0746049880981445,0.0,0.0,0.9353703260421752,-0.5233806371688843
-0.0575035102665424,0.484723687171936,-0.029995298013091,-0.6981207132339478,-0.0317911058664321,-0.0663665235042572,0.0,0.0,0.8678960800170898,0.2923260927200317
-0.057675551623106,0.4692801535129547,-0.0142158223316073,-0.6864436268806458,-0.0347440466284751,-0.0590590313076972,0.0,0.0,0.4666141271591186,-0.4142687916755676
-0.0578042976558208,0.454043984413147,-0.0096752755343914,-0.6772393584251404,-0.0379009656608104,-0.0631384178996086,0.0,0.0,0.9610590934753418,-0.203417420387268
-0.0579020492732524,0.438913345336914,-0.0062926793470978,-0.6725664734840393,-0.0413346029818058,-0.0686729177832603,0.0,0.0,0.85797119140625,-0.8284865021705627
-0.0581863410770893,0.424185574054718,-0.0259796883910894,-0.6546370983123779,-0.0437626950442791,-0.0485618151724338,0.0,0.0,0.8831436634063721,0.1521923542022705
-0.0583995804190635,0.4103107452392578,-0.0186150688678026,-0.616738498210907,-0.0464316606521606,-0.0533795170485973,0.0,0.0,0.9514074325561525,-0.6829656362533569
-0.0585424415767192,0.3963347375392914,-0.0128595056012272,-0.6212050318717957,-0.0478494018316268,-0.0283547341823577,0.0,0.0,0.9353461265563964,0.200448989868164
-0.0586015693843364,0.3832474052906036,-0.0042323539964854,-0.5817118883132935,-0.0495046339929103,-0.033104732632637,0.0,0.0,0.4334670305252075,-0.3942214846611023
-0.0587172508239746,0.3701742589473724,-0.0091174189001321,-0.5811107754707336,-0.0519348047673702,-0.0486032962799072,0.0,0.0,0.3846316337585449,-0.142740249633789
-0.0588757507503032,0.357350081205368,-0.0126141011714935,-0.5700784921646118,-0.055130485445261,-0.0639137625694274,0.0,0.0,0.2201051712036132,-0.909826397895813
-0.0590496063232421,0.3446126580238342,-0.0155652295798063,-0.5661765933036804,-0.0569235198199749,-0.0358607620000839,0.0,0.0,-0.0114997625350952,-0.3451859951019287
-0.0592185035347938,0.3312680721282959,-0.0146359903737902,-0.5931795239448547,-0.0591478608548641,-0.044486965984106,0.0,0.0,0.9653759002685548,-0.514439582824707
-0.0592900291085243,0.318340390920639,-0.0057819373905658,-0.5746170282363892,-0.0605099685490131,-0.0272419098764657,0.0,0.0,0.9018373489379884,-0.6905910968780518
-0.0594257339835166,0.3054830133914947,-0.0130287166684865,-0.5714598894119263,-0.0610511116683483,-0.0108230216428637,0.0,0.0,0.8983684778213501,0.1901994943618774
-0.0594554916024208,0.2925706505775451,-0.0023244919721037,-0.5739112496376038,-0.0616887770593166,-0.0127533227205276,0.0,0.0,0.957644820213318,-0.5807307958602905
-0.0595408454537391,0.2796553373336792,-0.0084788044914603,-0.5740131139755249,-0.0617497749626636,-0.0012199460761621,0.0,0.0,0.9865139722824096,0.1486459970474243
-0.0595720298588275,0.2675617933273315,-0.0025228855665773,-0.5375159382820129,-0.0623296275734901,-0.0115973372012376,0.0,0.0,0.9060925245285034,-0.6690388917922974
-0.0594922080636024,0.2562724947929382,0.0074455616995692,-0.5017263293266296,-0.0618047341704368,0.0104980701580643,0.0,0.0,0.6022632122039795,0.4941436052322387
-0.0594664588570594,0.2455728352069854,0.0030445172451436,-0.4755591452121734,-0.0622675195336341,-0.0092560173943638,0.0,0.0,0.678154468536377,0.2155936956405639
-0.0595452301204204,0.2347820550203323,-0.0062963864766061,-0.4796565175056457,-0.0638277381658554,-0.0312042646110057,0.0,0.0,0.6811027526855469,-0.7626830339431763
-0.0595817565917968,0.2245965301990509,-0.003202186897397,-0.452709287405014,-0.0642743408679962,-0.0089320102706551,0.0,0.0,0.2577571868896484,-0.1023741960525512
-0.059661291539669,0.2144672274589538,-0.0066340053454041,-0.4502493143081665,-0.065576396882534,-0.0260414369404315,0.0,0.0,0.0486783981323242,-0.37652587890625
-0.0597413070499897,0.2043782621622085,-0.0060224533081054,-0.4484869241714477,-0.067542053759098,-0.0393128916621208,0.0,0.0,0.3464417457580566,-0.5598177313804626
-0.059831716120243,0.1945435553789138,-0.007635177578777,-0.4371615648269653,-0.0689217150211334,-0.0275934301316738,0.0,0.0,0.1610591411590576,-0.8247836232185364
-0.05988235399127,0.1847132295370102,-0.0048593049868941,-0.4369120597839355,-0.0691231489181518,-0.0040286141447722,0.0,0.0,-0.2010354995727539,-0.3208947777748108
-0.0599268898367881,0.1742758601903915,-0.0037332572974264,-0.463915467262268,-0.0698371529579162,-0.0142800509929656,0.0,0.0,0.6405513286590576,-0.4480828046798706
-0.0598455443978309,0.1638201028108596,0.0089498320594429,-0.4647376835346222,-0.070640429854393,-0.0160656571388244,0.0,0.0,0.8526500463485718,-0.4808250665664673
-0.0595481880009174,0.1536980271339416,0.0302974376827478,-0.4498974978923797,-0.0711984783411026,-0.0111608719453215,0.0,0.0,0.5998001098632812,-0.894993782043457
-0.0591374412178993,0.1435248702764511,0.0401497706770896,-0.4520965218544006,-0.0702845528721809,0.0182785540819168,0.0,0.0,0.7490935325622559,-0.7813818454742432
-0.0587326064705848,0.1339476704597473,0.0385320819914341,-0.4255619943141937,-0.0683488845825195,0.0387132838368415,0.0,0.0,0.7161179780960083,-0.8020127415657043
-0.0582953467965126,0.1249516829848289,0.0406182520091533,-0.3996858298778534,-0.0652726292610168,0.0615250691771507,0.0,0.0,0.6397976875305176,-0.8926638960838318
-0.0577409751713275,0.1163364946842193,0.0508539155125618,-0.3827029466629028,-0.0607402436435222,0.0906475111842155,0.0,0.0,0.3653033971786499,-0.7666613459587097
-0.0571314804255962,0.1075075268745422,0.055225919932127,-0.3921796679496765,-0.0550811849534511,0.1131811514496803,0.0,0.0,0.7074062824249268,-0.6624355912208557
-0.0565978996455669,0.0988673791289329,0.0469748303294181,-0.3837852478027344,-0.048769362270832,0.1262366324663162,0.0,0.0,0.5084313154220581,-0.5791762471199036
-0.055981446057558,0.0908050835132598,0.0544281713664531,-0.3581093251705169,-0.0416387356817722,0.1426126062870025,0.0,0.0,0.5763692855834961,-0.0733815431594848
-0.0553582198917865,0.0829513669013977,0.0557417869567871,-0.3488861322402954,-0.0351424366235733,0.1299258768558502,0.0,0.0,0.3488177061080932,-0.2777345180511474
-0.0548073761165142,0.0754697918891906,0.0495201274752616,-0.332394391298294,-0.0296485461294651,0.1098779067397117,0.0,0.0,0.6533000469207764,0.5580654144287109
-0.0540918335318565,0.0684249475598335,0.0674089789390564,-0.313027560710907,-0.0255552697926759,0.08186537027359,0.0,0.0,0.1407794952392578,0.0209141969680786
-0.0533937439322471,0.0615511983633041,0.0663855522871017,-0.305444985628128,-0.0221671406179666,0.0677625015377998,0.0,0.0,0.5857043266296387,0.5487453937530518
-0.0527152046561241,0.0551533065736293,0.0662930458784103,-0.284329354763031,-0.0206223912537097,0.030894985422492,0.0,0.0,-0.2237008810043335,-0.0209261775016784
-0.0520302765071392,0.0481480211019516,0.0674662142992019,-0.3113309741020202,-0.019613079726696,0.020186124369502,0.0,0.0,0.8083045482635498,-0.4411499500274658
-0.0514538772404193,0.0415263995528221,0.0577632673084735,-0.2942984402179718,-0.0197304878383874,-0.0023482828401029,0.0,0.0,0.9552936553955078,-0.6476659774780273
-0.051101017743349,0.0352326482534408,0.0351500213146209,-0.2797198593616485,-0.0195985026657581,0.0026397653855383,0.0,0.0,0.771956205368042,0.5882411003112793
-0.0505583770573139,0.0294859986752271,0.0555307641625404,-0.2554255127906799,-0.0208533462136983,-0.0250967498868703,0.0,0.0,0.5462408065795898,0.0848493576049804
-0.0499448776245117,0.0236480813473463,0.062890812754631,-0.259486436843872,-0.0223797503858804,-0.0305278114974498,0.0,0.0,0.6150445938110352,0.2320098876953125
-0.0491667762398719,0.0183164924383163,0.0792391002178192,-0.2369826138019561,-0.0237876269966363,-0.0281576011329889,0.0,0.0,0.721580982208252,-0.5641992688179016
-0.04843320697546,0.0135973067954182,0.074249766767025,-0.2097533494234085,-0.0246783252805471,-0.0178137421607971,0.0,0.0,0.5057716369628906,0.1747533082962036
-0.0475443825125694,0.0094339111819863,0.0897243916988372,-0.1850546151399612,-0.0255050789564847,-0.0165353585034608,0.0,0.0,0.3816123008728027,-0.8698490262031555
-0.0466333404183387,0.0053898906335234,0.0906560271978378,-0.1797249466180801,-0.0250635538250207,0.0088306088000535,0.0,0.0,0.2700353860855102,-0.8868634104728699
-0.0457768440246582,0.0016915536252781,0.0839598104357719,-0.1643445938825607,-0.0233995504677295,0.0332799181342124,0.0,0.0,0.4798034429550171,-0.4312068223953247
-0.0447428710758686,-0.0008614802500233,0.0829794630408287,-0.113275445997715,-0.003242187667638,0.4031479954719543,1.0,0.0,0.2454243898391723,-0.6512140035629272
-0.0438446030020713,-0.002571620978415,0.076364628970623,-0.0760311335325241,0.0100579531863331,0.2660033106803894,1.0,1.0,0.4190315008163452,-0.4872763156890869
-0.0432239547371864,-0.0031574154272675,0.0574861653149127,-0.0260746516287326,0.0145696587860584,0.0902341455221176,1.0,1.0,-0.6602489352226257,-0.658984363079071
-0.0428062453866004,-0.0033381248358637,0.0403649285435676,-0.0080448659136891,0.0159565918147563,0.0277389176189899,1.0,1.0,-0.6367089152336121,-0.5743235945701599
-0.0425734519958496,-0.00310123199597,0.0251245312392711,0.0105488272383809,0.014139961451292,-0.0363326147198677,1.0,1.0,-0.624192476272583,-0.130574345588684
-0.0423809997737407,-0.0025491619016975,0.0234022550284862,0.0245805289596319,0.0100190490484237,-0.082443006336689,1.0,1.0,-0.5690996050834656,-0.2959319949150085
-0.0422062873840332,-0.0018077635904774,0.0231302715837955,0.0329787544906139,0.0044368803501129,-0.1116421073675155,1.0,1.0,-0.4741824865341186,-0.4554951190948486
-0.042037010192871,-0.001007463899441,0.023042881861329,0.0355753079056739,-0.001601394964382,-0.1207636222243309,1.0,1.0,-0.5566762685775757,-0.7294561862945557
-0.0419326797127723,-0.0002827310527209,0.0160168074071407,0.032192938029766,-0.0071060783229768,-0.1100924387574195,1.0,1.0,-0.3367408514022827,-0.3276797533035278
-0.0417995452880859,-7.169484888436273e-05,0.0149840461090207,0.0093728620558977,-0.008757066912949,-0.0330190956592559,1.0,1.0,-0.62525874376297,-0.1547728180885315
