x_pos,y_pos,x_vel,y_vel,angle,ang_vel,leg_1,leg_2,main_booster,lat_booster
-0.0016079902416095,1.4030336141586304,-0.1625661253929138,-0.3505081236362457,0.0015778067754581,0.0311097558587789,0.0,0.0,-0.1749112606048584,0.6358147859573364
-0.0032479285728186,1.3945765495300293,-0.1639051437377929,-0.3758682906627655,0.0014980708947405,-0.0015940649900585,0.0,0.0,0.2746498584747314,0.7640171051025391
-0.0047986982390284,1.3859906196594238,-0.1533732116222381,-0.3815974295139313,-0.0001853567082434,-0.0336717441678047,0.0,0.0,-0.143855333328247,0.7372987270355225
-0.0063904761336743,1.376811385154724,-0.1560437381267547,-0.4079701006412506,-0.0032946157734841,-0.0621909312903881,0.0,0.0,-0.478620171546936,0.6362630128860474
-0.0080101015046238,1.3670432567596436,-0.1570127755403518,-0.4341545104980469,-0.008188004605472,-0.0978766679763794,0.0,0.0,0.0121686458587646,0.5400469303131104
-0.0095800403505563,1.357181429862976,-0.1508583724498748,-0.4383461773395538,-0.0142486710101366,-0.1212244480848312,0.0,0.0,0.6903231143951416,0.6289656162261963
-0.0112069128081202,1.3476152420043943,-0.1549702584743499,-0.4252614974975586,-0.0218772199004888,-0.1525854170322418,0.0,0.0,0.2751917839050293,0.707744836807251
-0.0127285001799464,1.338204026222229,-0.1429777443408966,-0.4184418022632599,-0.0309639293700456,-0.1817512214183807,0.0,0.0,0.1495561599731445,0.251842737197876
-0.0143316267058253,1.3290762901306152,-0.1508323848247528,-0.4058926701545715,-0.0403512679040432,-0.1877640187740326,0.0,0.0,-0.5789924263954163,0.8377828598022461
-0.0159605983644723,1.319360613822937,-0.1514751762151718,-0.43215212225914,-0.0516576804220676,-0.2261484563350677,0.0,0.0,-0.4686965942382812,0.1634646654129028
-0.017681885510683,1.3090561628341677,-0.1604436188936233,-0.4584166705608368,-0.0632252767682075,-0.2313733398914337,0.0,0.0,0.2551999092102051,0.5626360177993774
-0.0193675048649311,1.298753023147583,-0.1556225419044494,-0.458512395620346,-0.0760489180684089,-0.2564963698387146,0.0,0.0,0.1639947891235351,0.3311135768890381
-0.0210172645747661,1.288588047027588,-0.1522249430418014,-0.4524730443954468,-0.0887012705206871,-0.2530702650547027,0.0,0.0,-0.548170804977417,0.1935693025588989
-0.0227606780827045,1.27783465385437,-0.1613333225250244,-0.4787491261959076,-0.1016175746917724,-0.2583495676517486,0.0,0.0,-0.2999135851860046,0.5371918678283691
-0.024545669555664,1.2664910554885864,-0.1639145761728286,-0.5052182674407959,-0.116113856434822,-0.2899524569511413,0.0,0.0,-0.0660857558250427,0.1369065046310424
-0.0264247898012399,1.254559874534607,-0.1730908900499344,-0.5314966440200806,-0.1308734565973281,-0.2952187061309814,0.0,0.0,0.2891329526901245,-0.4608273506164551
-0.0282045360654592,1.24301278591156,-0.1634303331375122,-0.5145488381385803,-0.1453925520181656,-0.2904084324836731,0.0,0.0,-0.2889574766159057,-0.5624057054519653
-0.0301132202148437,1.2308802604675293,-0.1769221276044845,-0.5406363010406494,-0.1593216359615326,-0.278607040643692,0.0,0.0,-0.0287413597106933,-0.3102103471755981
-0.032116699963808,1.2181603908538818,-0.186179369688034,-0.5669122338294983,-0.1735155582427978,-0.2839047312736511,0.0,0.0,0.326332688331604,-0.5171588063240051
-0.0342460647225379,1.205552577972412,-0.1994144469499588,-0.5619890689849854,-0.1871031820774078,-0.2717771828174591,0.0,0.0,0.4257432222366333,-0.7765445709228516
-0.0362884514033794,1.1933010816574097,-0.1922218948602676,-0.5460732579231262,-0.1992115825414657,-0.2421900033950805,0.0,0.0,-0.3673891425132751,-0.5735764503479004
-0.0384702682495117,1.1804710626602173,-0.2070391923189163,-0.5717610716819763,-0.2104593515396118,-0.2249755859375,0.0,0.0,0.4838782548904419,-0.6555116176605225
-0.0405712127685546,1.1677449941635132,-0.2002692967653274,-0.567028284072876,-0.2203972786664962,-0.1987762749195099,0.0,0.0,0.739560604095459,-0.8855661749839783
-0.0426858887076377,1.1548974514007568,-0.2032847851514816,-0.5722432732582092,-0.2286916822195053,-0.1659028232097625,0.0,0.0,0.5078824758529663,-0.8174874186515808
-0.0449666008353233,1.1423921585083008,-0.2210547626018524,-0.556894063949585,-0.2358153313398361,-0.1424856036901474,0.0,0.0,0.6060826778411865,-0.5525664687156677
-0.0473763458430767,1.1303462982177734,-0.2344216853380203,-0.5364335775375366,-0.2424735575914383,-0.1331646591424942,0.0,0.0,0.0226712226867675,-0.5202128291130066
-0.0498105995357036,1.1183829307556152,-0.2376557290554046,-0.5326712727546692,-0.2483418434858322,-0.1173656955361366,0.0,0.0,0.7704727649688721,-0.4139397144317627
-0.0522586815059185,1.1071674823760986,-0.2381545305252075,-0.4995969831943512,-0.2551257014274597,-0.1356773525476455,0.0,0.0,-0.2959176898002624,-0.4723407030105591
-0.0548020377755165,1.0953631401062012,-0.2474352121353149,-0.5258620977401733,-0.2621777951717376,-0.1410412192344665,0.0,0.0,0.2733935117721557,-0.3115019202232361
-0.0573587417602539,1.0835201740264893,-0.2484388798475265,-0.5276637673377991,-0.2695733308792114,-0.1479114592075348,0.0,0.0,0.3060488700866699,-0.4701555371284485
-0.0598176009953022,1.072049856185913,-0.2384777963161468,-0.5111731290817261,-0.2771695256233215,-0.1519236713647842,0.0,0.0,0.5207085609436035,-0.8556997179985046
-0.0624034889042377,1.0606282949447632,-0.2525151073932647,-0.5087921023368835,-0.2834116816520691,-0.1248428672552108,0.0,0.0,0.5535151958465576,-0.3864080309867859
-0.0649471282958984,1.04973566532135,-0.2476862668991089,-0.4854313731193542,-0.2902827262878418,-0.1374206244945526,0.0,0.0,-0.8474788665771484,-0.4665693044662475
-0.0675842314958572,1.038253903388977,-0.2567863762378692,-0.5116973519325256,-0.297423779964447,-0.1428212374448776,0.0,0.0,-0.6552789211273193,-0.3185625076293945
-0.070314310491085,1.0261831283569336,-0.2658342123031616,-0.5379637479782104,-0.304835170507431,-0.1482276618480682,0.0,0.0,-0.0490056276321411,-0.48529714345932
-0.0731366127729415,1.0135233402252195,-0.274823933839798,-0.5642306804656982,-0.3125171363353729,-0.1536395996809005,0.0,0.0,0.2231682538986206,-0.6790698170661926
-0.0760193839669227,1.0007872581481934,-0.2819172441959381,-0.5674387812614441,-0.3191190659999847,-0.1320384740829467,0.0,0.0,0.7427661418914795,0.0803340673446655
-0.0787031203508377,0.988586723804474,-0.2619433999061584,-0.5436782836914062,-0.3258062601089477,-0.133743941783905,0.0,0.0,0.7031021118164062,-0.9312952160835266
-0.0813090354204177,0.977097988128662,-0.2556983828544616,-0.5117210149765015,-0.3309145867824554,-0.1021668165922164,0.0,0.0,0.7108938694000244,0.1507724523544311
-0.0837722793221473,0.9658988118171692,-0.2412961721420288,-0.4989016652107239,-0.336158812046051,-0.1048846095800399,0.0,0.0,-0.2023479342460632,-0.5421662330627441
-0.0863702744245529,0.9541395902633668,-0.2557817697525024,-0.5235804319381714,-0.3403634428977966,-0.0840926542878151,0.0,0.0,0.9369888305664062,-0.2715298533439636
-0.0887145027518272,0.9425861835479736,-0.2307873964309692,-0.514345109462738,-0.3441700935363769,-0.0761327967047691,0.0,0.0,0.0502924919128418,0.1065492630004882
-0.0910197272896766,0.9306938052177428,-0.2269068509340286,-0.5294221639633179,-0.3479623198509216,-0.0758444666862487,0.0,0.0,0.7868012189865112,-0.6769675612449646
-0.0931564345955848,0.918984591960907,-0.2113736122846603,-0.5209647417068481,-0.3503718674182892,-0.0481909997761249,0.0,0.0,0.3501644134521484,-0.7923066020011902
-0.0953903198242187,0.9070674777030944,-0.2223387509584427,-0.5299040675163269,-0.3514828383922577,-0.0222192984074354,0.0,0.0,0.9740495681762696,-0.6586282253265381
-0.0975644141435623,0.8951132297515869,-0.2175177335739135,-0.5312716364860535,-0.3513708412647247,0.0022398722358047,0.0,0.0,0.8530263900756836,0.1125799417495727
-0.0995829552412033,0.8832401633262634,-0.2020051181316375,-0.5276582837104797,-0.3512128293514251,0.0031601847149431,0.0,0.0,0.8233051300048828,-0.8037316203117371
-0.101549431681633,0.8721842765808105,-0.197855606675148,-0.4910772144794464,-0.3499327003955841,0.0256023053079843,0.0,0.0,0.9510550498962402,-0.6852096319198608
-0.1034820526838302,0.8619704246520996,-0.1951803565025329,-0.4534875154495239,-0.3479255735874176,0.0401434190571308,0.0,0.0,0.7871146202087402,-0.4991557598114013
-0.1053248420357704,0.8519545793533325,-0.1858325600624084,-0.4447740912437439,-0.3462933599948883,0.0326435826718807,0.0,0.0,0.8874373435974121,-0.8257551789283752
-0.1069128066301345,0.8422111868858337,-0.1620508879423141,-0.432257205247879,-0.3428829312324524,0.0682091489434242,0.0,0.0,0.8611197471618652,-0.6529242396354675
-0.1084070205688476,0.8331159949302673,-0.1535346955060959,-0.4032555520534515,-0.338570237159729,0.0862541422247886,0.0,0.0,0.7022209167480469,-0.2942053079605102
-0.1097127944231033,0.8240235447883606,-0.1349449455738067,-0.403094619512558,-0.3340034186840057,0.0913363024592399,0.0,0.0,0.5998468399047852,-0.7522736191749573
-0.1108840927481651,0.8154703974723816,-0.1227362155914306,-0.3788573145866394,-0.32815021276474,0.1170638650655746,0.0,0.0,0.6286754608154297,-0.203944444656372
-0.1118266135454177,0.8069395422935486,-0.1002689152956008,-0.3777980804443359,-0.3218824565410614,0.1253552436828613,0.0,0.0,0.2017598152160644,-0.0776197910308837
-0.1127891540527343,0.7983401417732239,-0.1017300635576248,-0.3809905648231506,-0.3161998689174652,0.1136519461870193,0.0,0.0,-0.4411067962646484,0.2473405599594116
-0.1138117760419845,0.7891515493392944,-0.1074776053428649,-0.4072556793689728,-0.3107795417308807,0.1084062606096267,0.0,0.0,-0.4477449059486389,-0.1728885173797607
-0.1148912459611892,0.7793734073638916,-0.1129372119903564,-0.4335203766822815,-0.305620014667511,0.1031910628080368,0.0,0.0,-0.6561024188995361,-0.6362619400024414
-0.1160653084516525,0.7690322399139404,-0.1232434138655662,-0.4583961069583893,-0.2995779812335968,0.1208408698439598,0.0,0.0,0.5573990345001221,-0.1659353971481323
-0.1171400099992752,0.7591950297355652,-0.112757608294487,-0.4361326098442077,-0.2941251993179321,0.1090554147958755,0.0,0.0,0.0314465761184692,-0.4175820350646972
-0.1181645393371582,0.749086320400238,-0.107643648982048,-0.4482349753379822,-0.2887795865535736,0.1069120168685913,0.0,0.0,-0.5592861175537109,0.0605331659317016
-0.1192330345511436,0.7383884191513062,-0.1117990836501121,-0.4744989275932312,-0.2836865782737732,0.1018597707152366,0.0,0.0,-0.1167921423912048,-0.6945438385009766
-0.1203838363289833,0.7271174192428589,-0.120888352394104,-0.4998141229152679,-0.2777246832847595,0.1192382797598838,0.0,0.0,-0.0376401543617248,-0.1134777665138244
-0.121571160852909,0.7152570486068726,-0.1243010610342025,-0.5260783433914185,-0.2720097005367279,0.1142990589141845,0.0,0.0,-0.6211980581283569,-0.2353793978691101
-0.1227910071611404,0.7028073072433472,-0.1273206025362014,-0.5523421168327332,-0.2665383815765381,0.1094264537096023,0.0,0.0,-0.0815073251724243,0.0614900588989257
-0.1240391731262207,0.6897678971290588,-0.1299333870410919,-0.5786055326461792,-0.2613069713115692,0.1046278923749923,0.0,0.0,0.1553819179534912,-0.8191937208175659
-0.1252008378505706,0.6770337820053101,-0.1226983442902565,-0.5648086071014404,-0.2546347081661224,0.133445143699646,0.0,0.0,-0.6086737513542175,-0.6227312088012695
-0.1264245957136154,0.6637192964553833,-0.1297556459903717,-0.5904957056045532,-0.2471128106117248,0.1504378169775009,0.0,0.0,0.2445477247238159,0.0161845684051513
-0.1274865120649337,0.6507431268692017,-0.1134630888700485,-0.5755080580711365,-0.2397229820489883,0.1477967947721481,0.0,0.0,-0.6890265941619873,-0.0361785888671875
-0.1285593062639236,0.6371777057647705,-0.1143332943320274,-0.6017724871635437,-0.2325537949800491,0.1433834135532379,0.0,0.0,-0.1651163101196289,0.1734192371368408
-0.1296381056308746,0.6230229735374451,-0.1147445067763328,-0.6280364990234375,-0.2255991846323013,0.1390922963619232,0.0,0.0,0.635725736618042,0.0721418857574462
-0.1305508613586425,0.6091692447662354,-0.0980759114027023,-0.6146959662437439,-0.2187115401029586,0.1377527862787246,0.0,0.0,-0.3949794769287109,0.2644282579421997
-0.1314601898193359,0.5947259068489075,-0.0975522398948669,-0.6409592032432556,-0.212024450302124,0.1337417513132095,0.0,0.0,0.8148081302642822,0.2149678468704223
-0.1321489363908767,0.5805977582931519,-0.0756843835115432,-0.6269597411155701,-0.205156609416008,0.1373566389083862,0.0,0.0,-0.1090340614318847,-0.0199870467185974
-0.1328247040510177,0.5658798813819885,-0.0742150470614433,-0.653222382068634,-0.1984727680683136,0.1336767971515655,0.0,0.0,0.3326773643493652,0.1398561000823974
-0.133377268910408,0.5509417057037354,-0.0619767978787422,-0.6630343794822693,-0.191709890961647,0.1352574527263641,0.0,0.0,0.5724309682846069,0.7268617153167725
-0.1338228285312652,0.5358752608299255,-0.0495996959507465,-0.6689754128456116,-0.1866385042667389,0.1014277711510658,0.0,0.0,0.7627168893814087,0.1111005544662475
-0.1340928077697754,0.5214685797691345,-0.0318535342812538,-0.6396913528442383,-0.1817624568939209,0.0975210666656494,0.0,0.0,0.7800755500793457,-0.0836707353591919
-0.1340870857238769,0.5077452063560486,-0.0045438376255333,-0.6093109250068665,-0.1766302287578582,0.1026448383927345,0.0,0.0,0.0295327901840209,-0.0646837949752807
-0.1340240538120269,0.4942021667957306,0.0016300361603498,-0.601363480091095,-0.1719521880149841,0.0935606285929679,0.0,0.0,0.3972642421722412,-0.6717760562896729
-0.1340442597866058,0.4805208444595337,-0.0076916627585887,-0.6074122786521912,-0.1662672907114029,0.1136979311704635,0.0,0.0,0.8423845767974854,0.4296483993530273
-0.1338285505771637,0.467542290687561,0.0157825443893671,-0.5761874914169312,-0.1604793071746826,0.1157596260309219,0.0,0.0,0.255519151687622,-0.1231248378753662
-0.1335691511631012,0.4546396732330322,0.0205967258661985,-0.5728834271430969,-0.1551388353109359,0.1068098917603492,0.0,0.0,-0.2045235633850097,0.0034859180450439
-0.1332556754350662,0.4411467909812927,0.0260689202696084,-0.5991424322128296,-0.1498755365610122,0.1052664071321487,0.0,0.0,0.9006674289703369,-0.1222129464149475
-0.1327777802944183,0.4282598793506622,0.0426467768847942,-0.5722414255142212,-0.1447385251522064,0.1027402058243751,0.0,0.0,0.4344472885131836,0.3554255962371826
-0.1320901811122894,0.4155161082744598,0.0633080676198005,-0.5658696889877319,-0.1392991691827774,0.1087870150804519,0.0,0.0,0.4588022232055664,0.1204414367675781
-0.1312742233276367,0.4026266932487488,0.0760710090398788,-0.5723583102226257,-0.1337958723306656,0.1100659817457199,0.0,0.0,0.6698938608169556,-0.5864530205726624
-0.1302811652421951,0.3897368609905243,0.0923681035637855,-0.5722736716270447,-0.1268875002861023,0.1381675601005554,0.0,0.0,0.7355117797851562,-0.4582058191299438
-0.1289862692356109,0.3771203160285949,0.1218277215957641,-0.5601068139076233,-0.1192668974399566,0.1524121016263961,0.0,0.0,-0.4534962177276611,-0.459675669670105
-0.1276155412197113,0.3639136850833893,0.1293887645006179,-0.5863671898841858,-0.1116338595747947,0.1526607722043991,0.0,0.0,0.8351782560348511,-0.2603093981742859
-0.1260792762041092,0.351362019777298,0.1459434032440185,-0.5572962164878845,-0.1040026247501373,0.1526247709989547,0.0,0.0,0.0905736684799194,-0.6481271982192993
-0.1244369521737098,0.3389768004417419,0.1551674157381057,-0.5498505234718323,-0.0950070843100547,0.1799104362726211,0.0,0.0,0.1592531204223632,-0.0807188749313354
-0.1225787177681922,0.326688289642334,0.1762850433588028,-0.5455759763717651,-0.0855511203408241,0.1891193985939026,0.0,0.0,0.0476248264312744,-0.1158086657524108
-0.1205519661307334,0.3141113519668579,0.1927545964717865,-0.5584366321563721,-0.0757292136549949,0.1964381039142608,0.0,0.0,0.2741875648498535,-0.4304183721542358
-0.118446446955204,0.30153688788414,0.2007300406694412,-0.5583972930908203,-0.0660112127661705,0.1943601220846176,0.0,0.0,0.5770888328552246,-0.4041879773139953
-0.1161142364144325,0.2895976305007934,0.222916767001152,-0.5302125811576843,-0.0558230057358741,0.2037641555070877,0.0,0.0,0.4321564435958862,-0.5395223498344421
-0.1137250885367393,0.2778131365776062,0.2274571359157562,-0.523367166519165,-0.0445041954517364,0.2263761758804321,0.0,0.0,0.0804828405380249,-0.3229976892471313
-0.1112983673810958,0.2662244141101837,0.2314759194850921,-0.5147537589073181,-0.0334412343800067,0.2212594449520111,0.0,0.0,0.352391242980957,-0.6763870120048523
-0.1087293624877929,0.2549053430557251,0.2440649271011352,-0.5028298497200012,-0.0207656119018793,0.2535123825073242,0.0,0.0,0.2321480512619018,-0.471329927444458
-0.1060893088579177,0.2438379824161529,0.2512088716030121,-0.4917511343955993,-0.0081323888152837,0.2526644766330719,0.0,0.0,0.5470552444458008,-0.6122080087661743
-0.1034751906991005,0.2332400381565094,0.2474209815263748,-0.4710042774677276,0.0056794742122292,0.2762373685836792,0.0,0.0,0.1406900882720947,-0.3195259571075439
-0.1007778197526931,0.2225694209337234,0.2556629478931427,-0.4743614494800567,0.0195734053850173,0.2778787016868591,0.0,0.0,0.184348464012146,-0.3568441867828369
-0.0980687141418457,0.2119547426700592,0.257052332162857,-0.4720017313957214,0.0332507528364658,0.2735469937324524,0.0,0.0,0.1940847635269165,-0.179304838180542
-0.0953760147094726,0.2013138830661773,0.2557551264762878,-0.473281055688858,0.0466034635901451,0.2670541703701019,0.0,0.0,0.5258277654647827,-0.1390767097473144
-0.0925104171037674,0.1910861581563949,0.2724103629589081,-0.4550656974315643,0.0605946816504001,0.2798244059085846,0.0,0.0,0.3192052841186523,-0.6528496742248535
-0.0895526856184005,0.1807064414024353,0.2800316214561462,-0.4620330035686493,0.0761738345026969,0.311582863330841,0.0,0.0,0.7028745412826538,-0.0858868360519409
-0.086397647857666,0.1709327548742294,0.2988861799240112,-0.4353156983852386,0.0926439985632896,0.3294031322002411,0.0,0.0,0.6062006950378418,-0.3514785766601562
-0.0832254439592361,0.1616958677768707,0.3005128800868988,-0.4116454422473907,0.1092167720198631,0.3314554095268249,0.0,0.0,-0.2232050895690918,-0.0892981886863708
-0.0799435600638389,0.1518722623586654,0.3113080859184265,-0.4379259943962097,0.1260006576776504,0.3356779217720032,0.0,0.0,0.7629909515380859,0.3087317943572998
-0.0765480026602745,0.1423978358507156,0.3221054375171661,-0.4226505160331726,0.143377423286438,0.3475349545478821,0.0,0.0,0.6884729862213135,-0.0536729097366333
-0.073167897760868,0.1335743814706802,0.3204285502433777,-0.3939425647258758,0.1609412282705307,0.3512759804725647,0.0,0.0,0.631206750869751,-0.083472728729248
-0.0697414427995681,0.1253304779529571,0.3246074616909027,-0.3684469759464264,0.1790076345205307,0.3613280951976776,0.0,0.0,0.4163618087768554,-0.114696979522705
-0.0662046447396278,0.1170994639396667,0.3351495862007141,-0.3681665956974029,0.1976231783628463,0.3723108172416687,0.0,0.0,0.0994664430618286,-0.2067082524299621
-0.0627157241106033,0.1088639348745346,0.3305794596672058,-0.3685723841190338,0.2160956859588623,0.3694500923156738,0.0,0.0,0.3699915409088135,-0.1769022345542907
-0.0593089088797569,0.1006338447332382,0.3226829767227173,-0.3685154020786285,0.2343128621578216,0.3643438220024109,0.0,0.0,0.6328270435333252,0.0572507381439209
-0.0559386238455772,0.0926235541701316,0.3189856708049774,-0.3589891493320465,0.2526719868183136,0.3671823441982269,0.0,0.0,0.5014798641204834,-0.2906224131584167
-0.0525525100529193,0.0847407206892967,0.3202969431877136,-0.3536081910133362,0.271383672952652,0.3742337226867676,0.0,0.0,0.582256555557251,-0.1244452595710754
-0.0490238182246685,0.0768207609653472,0.3338415324687958,-0.3556483685970306,0.2909201085567474,0.390728622674942,0.0,0.0,0.6853671073913574,0.0662834644317627
-0.0454853996634483,0.0693611502647399,0.3342417776584625,-0.3355802297592163,0.311165302991867,0.4049044251441955,0.0,0.0,0.6191915273666382,0.2905256748199463
-0.0420509353280067,0.0624572858214378,0.3236289620399475,-0.3112244009971618,0.3317755162715912,0.4122050404548645,0.0,0.0,0.4112997055053711,0.4210515022277832
