x_pos,y_pos,x_vel,y_vel,angle,ang_vel,leg_1,leg_2,main_booster,lat_booster
-0.001615333603695,1.4035282135009766,-0.1634425371885299,-0.328527569770813,0.0017049483722075,0.0336275398731231,0.0,0.0,0.0553251504898071,0.6982125043869019
-0.0032311440445482,1.3965020179748535,-0.1617784053087234,-0.3122729659080505,0.0019051497802138,0.0040051648393273,0.0,0.0,-0.140404462814331,0.3681645393371582
-0.0049394606612622,1.3893791437149048,-0.1709199547767639,-0.3165769577026367,0.0019896011799573,0.0016891410341486,0.0,0.0,-0.3976466655731201,0.7106674909591675
-0.0066956519149243,1.382157802581787,-0.1744517087936401,-0.3209510743618011,0.0008361101499758,-0.0230717863887548,0.0,0.0,-0.0892808437347412,0.5739848613739014
-0.0084897996857762,1.3748419284820557,-0.1767484843730926,-0.3251446485519409,-0.0017975766677409,-0.0526785366237163,0.0,0.0,-0.3180865049362182,0.1059069633483886
-0.010376644320786,1.3674300909042358,-0.1859243810176849,-0.3294224143028259,-0.0045262961648404,-0.0545800328254699,0.0,0.0,-0.5430319309234619,0.4126331806182861
-0.0123561862856149,1.359922170639038,-0.1951071321964264,-0.3337000608444214,-0.0073437900282442,-0.0563545934855937,0.0,0.0,-0.336001992225647,0.8924355506896973
-0.0143407825380563,1.3523197174072266,-0.19329634308815,-0.3379165232181549,-0.0124469632282853,-0.1020732522010803,0.0,0.0,-0.8520618081092834,0.5142382383346558
-0.0163781158626079,1.3446264266967771,-0.1974913477897644,-0.3419885635375976,-0.0186206772923469,-0.1234854683279991,0.0,0.0,-0.6632048487663269,0.153173565864563
-0.0185078624635934,1.3368375301361084,-0.2066620886325836,-0.346268743276596,-0.0248603653162717,-0.1248049736022949,0.0,0.0,-0.7633655071258545,0.7215653657913208
-0.0206647869199514,1.328951120376587,-0.2076750248670578,-0.350661426782608,-0.0327928960323333,-0.1586653143167495,0.0,0.0,-0.8688735365867615,0.6892259120941162
-0.0228529926389455,1.320965051651001,-0.2092130631208419,-0.3551732897758484,-0.0423018559813499,-0.1901968121528625,0.0,0.0,-0.8723323941230774,0.3336063623428345
-0.0251328460872173,1.3128838539123535,-0.2183378487825393,-0.3594582378864288,-0.0518527813255786,-0.1910358816385269,0.0,0.0,-0.8644459843635559,0.5163123607635498
-0.0274589546024799,1.3046996593475342,-0.2217739820480346,-0.3641533851623535,-0.0625811889767646,-0.2145876139402389,0.0,0.0,-0.8109537959098816,0.2698235511779785
-0.0298758503049612,1.2964205741882324,-0.2308506667613983,-0.368440717458725,-0.0733353123068809,-0.2151020318269729,0.0,0.0,-0.6824570894241333,0.607630729675293
-0.0323272719979286,1.288033962249756,-0.2328436821699142,-0.3733918070793152,-0.0855365470051765,-0.2440468072891235,0.0,0.0,-0.8250378370285034,-0.5063943266868591
-0.0348992347717285,1.2795625925064087,-0.2456753253936767,-0.377200573682785,-0.0969686806201934,-0.2286633998155594,0.0,0.0,-0.6711296439170837,-0.2825530767440796
-0.0375607497990131,1.2709966897964478,-0.2546510994434356,-0.381490021944046,-0.1084036454558372,-0.2287197113037109,0.0,0.0,-0.609704315662384,0.5040483474731445
-0.040265180170536,0.0,-0.2577832341194153,-0.3859878778457641,-0.1209964752197265,-0.2518795132637024,0.0,0.0,-0.8340620398521423,0.0546208620071411
-0.0430580154061317,1.2535765171051023,-0.2666634321212768,-0.3902804255485534,-0.133574977517128,-0.2515926957130432,0.0,0.0,-0.7739192247390747,0.2200008630752563
-0.0459386818110942,1.2447251081466677,-0.2754901945590973,-0.3945732116699219,-0.1461320668458938,-0.2511642277240753,0.0,0.0,-0.8280223608016968,0.2790957689285278
-0.0489066131412982,1.2357794046401978,-0.284257709980011,-0.3988662660121918,-0.158659815788269,-0.2505775690078735,0.0,0.0,-0.7275640368461609,-0.5400484204292297
-0.0519939437508583,1.2267463207244873,-0.2971187233924866,-0.4027495384216308,-0.1703036278486251,-0.2328968793153762,0.0,0.0,-0.5497335195541382,0.2177762985229492
-0.0551669113337993,1.2176185846328735,-0.3057525753974914,-0.4070412516593933,-0.1819037050008773,-0.232022076845169,0.0,0.0,-0.7723093628883362,0.0744402408599853
-0.0584246627986431,1.2083961963653564,-0.314307153224945,-0.4113330841064453,-0.1934522241353988,-0.2309908866882324,0.0,0.0,-0.8471489548683167,0.2716999053955078
-0.0617692954838275,1.199058175086975,-0.3230516612529754,-0.4165607988834381,-0.204943373799324,-0.2298227846622467,0.0,0.0,-0.6859477162361145,-0.8151674270629883
-0.065259076654911,1.1896497011184692,-0.339268147945404,-0.4195331335067749,-0.2147396206855774,-0.195924624800682,0.0,0.0,-0.250131607055664,0.4857513904571533
-0.0688309669494628,1.180146098136902,-0.3475751280784607,-0.4238152503967285,-0.224466934800148,-0.1945462524890899,0.0,0.0,-0.8927530646324158,-0.2170906066894531
-0.072484016418457,1.1705472469329834,-0.355773001909256,-0.4280970990657806,-0.2341194897890091,-0.1930515170097351,0.0,0.0,-0.6444873213768005,0.1237531900405883
-0.0762166976928711,1.1608530282974243,-0.3638531565666199,-0.4323786199092865,-0.2436917573213577,-0.1914452910423278,0.0,0.0,-0.7810949683189392,-0.5110651254653931
-0.080065056681633,1.15108323097229,-0.3764876425266266,-0.435619980096817,-0.2521736621856689,-0.1696381121873855,0.0,0.0,-0.5399271845817566,-0.1797413825988769
-0.0839902907609939,1.141217827796936,-0.3843039274215698,-0.4398994445800781,-0.2605648338794708,-0.1678232550621032,0.0,0.0,-0.7396515011787415,-0.3359266519546509
-0.0879912376403808,1.131256937980652,-0.391973614692688,-0.4441786110401153,-0.2688604295253753,-0.1659119427204132,0.0,0.0,-0.3650704622268677,-0.3465557098388672
-0.092066004872322,1.1212003231048584,-0.3994860351085663,-0.4484574496746063,-0.2770559191703796,-0.1639096438884735,0.0,0.0,-0.6381855010986328,-0.5131275057792664
-0.0962507277727127,1.1110647916793823,-0.411581426858902,-0.4517858922481537,-0.2841335833072662,-0.1415531188249588,0.0,0.0,-0.6714524030685425,-0.1008758544921875
-0.1005058288574218,1.100833535194397,-0.4187447428703308,-0.456062912940979,-0.2911028861999511,-0.1393859684467315,0.0,0.0,-0.495578408241272,0.6748518943786621
-0.1047814339399337,1.090481162071228,-0.4196386337280273,-0.4617137610912323,-0.2992750704288482,-0.1634435206651687,0.0,0.0,-0.6085153222084045,0.4603413343429565
-0.1091234236955642,1.0800328254699707,-0.4264053404331207,-0.4659917950630188,-0.307331770658493,-0.1611342579126358,0.0,0.0,-0.7930329442024231,-0.0473427772521972
-0.1135294884443283,1.069488763809204,-0.4329535961151123,-0.470269501209259,-0.3152699470520019,-0.1587632298469543,0.0,0.0,-0.6700839996337891,0.319146990776062
-0.1179973632097244,1.0588487386703491,-0.4392697215080261,-0.4745468497276306,-0.3230867683887481,-0.1563366204500198,0.0,0.0,-0.4622718095779419,0.7345075607299805
-0.1224782019853591,1.0480961799621582,-0.4395153522491455,-0.4798336923122406,-0.3320067524909973,-0.1784000694751739,0.0,0.0,-0.5072020888328552,0.280701994895935
-0.1270156800746917,1.037247657775879,-0.445324957370758,-0.4841121137142181,-0.3408007621765136,-0.1758802831172943,0.0,0.0,-0.6952798366546631,0.2829962968826294
-0.1316069662570953,1.02630352973938,-0.4508585035800934,-0.4883901476860046,-0.3494669198989868,-0.1733233630657196,0.0,0.0,-0.7670130133628845,0.7532342672348022
-0.1361846029758453,1.0152267217636108,-0.4479435086250305,-0.4947225749492645,-0.3598044216632843,-0.2067503184080124,0.0,0.0,-0.6127929091453552,0.8946540355682373
-0.1407511681318283,1.0040100812911987,-0.4453682005405426,-0.5013903975486755,-0.3717373609542846,-0.2386586368083953,0.0,0.0,-0.5207465291023254,0.4675755500793457
-0.1453620940446853,0.992698609828949,-0.4499849379062652,-0.5056731104850769,-0.3835386335849762,-0.2360256612300872,0.0,0.0,-0.4569371938705444,0.5405213832855225
-0.1499714851379394,0.9812631011009216,-0.4488508701324463,-0.5115533471107483,-0.3964389562606811,-0.2580064833164215,0.0,0.0,-0.2608509063720703,0.5929015874862671
-0.1545816361904144,0.969716727733612,-0.4481937289237976,-0.5168100595474243,-0.4101952314376831,-0.2751252949237823,0.0,0.0,0.2687845230102539,0.4246830940246582
-0.1590773612260818,0.9589694142341614,-0.4365213513374328,-0.4815106093883514,-0.4242900013923645,-0.2818958163261413,0.0,0.0,-0.5399728417396545,-0.823360025882721
-0.1636645346879959,0.9481661915779114,-0.4474863409996032,-0.483568012714386,-0.4364846050739288,-0.2438921183347702,0.0,0.0,-0.932193636894226,0.2239221334457397
-0.1682776510715484,0.9372679591178894,-0.4502666890621185,-0.4878501296043396,-0.4485470354557037,-0.2412488013505935,0.0,0.0,-0.2170723676681518,0.3953369855880737
-0.1729125082492828,0.9262743592262268,-0.4526374340057373,-0.4921318590641022,-0.4604779481887817,-0.2386184930801391,0.0,0.0,0.0304788351058959,0.0734395980834961
-0.1773808449506759,0.91551274061203,-0.4364412426948547,-0.4817783534526825,-0.4719628393650055,-0.2296977937221527,0.0,0.0,0.5584487915039062,-0.0163037776947021
-0.1815177947282791,0.9056588411331176,-0.4034895896911621,-0.4414670765399933,-0.4833042323589325,-0.2268281430006027,0.0,0.0,0.0330344438552856,0.1322646141052246
-0.1854394972324371,0.8960492014884949,-0.3825316429138183,-0.4305021464824676,-0.4940864145755768,-0.2156437635421753,0.0,0.0,0.1192313432693481,-0.0800307393074035
-0.1892714500427246,0.8868116736412048,-0.3734469413757324,-0.414095401763916,-0.505041241645813,-0.2190962731838226,0.0,0.0,0.1131113767623901,-0.4407786130905151
-0.1927882134914398,0.8781373500823975,-0.3423461318016052,-0.3889942169189453,-0.5155779123306274,-0.210733413696289,0.0,0.0,0.2378541231155395,-0.5286731719970703
-0.1959881782531738,0.8699754476547241,-0.3120145201683044,-0.365788459777832,-0.5246471762657166,-0.1813853830099105,0.0,0.0,0.6956853866577148,-0.2641490697860718
-0.1986893713474273,0.8627570867538452,-0.2625931799411773,-0.3237481117248535,-0.5332403779029846,-0.1718636453151703,0.0,0.0,0.8800592422485352,-0.6626491546630859
-0.2010448426008224,0.8567127585411072,-0.2292183190584182,-0.271151065826416,-0.540520191192627,-0.1455969512462616,0.0,0.0,0.963343858718872,-0.8421615958213806
-0.2031577080488205,0.8511311411857605,-0.2067245244979858,-0.249909371137619,-0.5457735657691956,-0.1050677746534347,0.0,0.0,0.9949393272399902,-0.4978984594345093
-0.2049115598201751,0.8466330766677856,-0.1704605817794799,-0.2019273787736892,-0.5514722466468811,-0.1139740720391273,0.0,0.0,0.988910675048828,-0.3308484554290771
-0.2061852514743805,0.842716634273529,-0.1231484040617942,-0.1757979989051818,-0.5563708543777466,-0.0979721993207931,0.0,0.0,0.8971354961395264,-0.3872803449630737
-0.2070324420928955,0.8395788073539734,-0.080714926123619,-0.14113350212574,-0.5610344409942627,-0.0932721570134162,0.0,0.0,0.0396513938903808,-0.8664394617080688
-0.2077638208866119,0.8367083072662354,-0.0708115845918655,-0.1285580694675445,-0.5637505650520325,-0.054322749376297,0.0,0.0,0.3646185398101806,-0.9237251877784728
-0.2083534300327301,0.8345116376876831,-0.0583596341311931,-0.0978833884000778,-0.5644525289535522,-0.0140392780303955,0.0,0.0,-0.27592933177948,-0.9291471838951112
-0.2089533805847168,0.8322830200195312,-0.0611356571316719,-0.0985678061842918,-0.5631183385848999,0.0266839303076267,0.0,0.0,-0.2627812623977661,-0.7739068865776062
-0.2095520496368408,0.8299915194511414,-0.062306422740221,-0.1008206605911254,-0.5602709650993347,0.0569477379322052,0.0,0.0,0.2516963481903076,-0.908316433429718
-0.2097903192043304,0.8284714221954346,-0.0280465129762887,-0.0658051073551178,-0.555361807346344,0.098183661699295,0.0,0.0,-0.1714096069335937,-0.8496900200843811
-0.2100384682416916,0.8269123435020447,-0.0309269018471241,-0.0667831972241401,-0.5482683777809143,0.1418689936399459,0.0,0.0,0.2500621080398559,-0.7321463227272034
-0.2100734710693359,0.826021134853363,-0.011014113202691,-0.0365759953856468,-0.5396031737327576,0.1733041107654571,0.0,0.0,-0.0492422580718994,-0.7355852723121643
-0.2100908309221267,0.8250772356987,-0.0106587000191211,-0.038422230631113,-0.529364287853241,0.204777330160141,0.0,0.0,-0.1610811352729797,-0.5934047698974609
-0.2100870609283447,0.8240863680839539,-0.0100248362869024,-0.0400346368551254,-0.5175027251243591,0.2372316420078277,0.0,0.0,-0.3796702623367309,-0.5250792503356934
-0.2100439071655273,0.8230268955230713,-0.0071002007462084,-0.0428049340844154,-0.504585325717926,0.2583485543727875,0.0,0.0,-0.3025424480438232,-0.4961907863616943
-0.2099272310733795,0.821872889995575,0.0001068767014658,-0.0470895431935787,-0.4915916323661804,0.2598744034767151,0.0,0.0,-0.5472378730773926,-0.7995381951332092
-0.2097856998443603,0.8206562399864197,0.0011142964940518,-0.0494870543479919,-0.4770443737506866,0.2909453213214874,0.0,0.0,-0.3357137441635132,-0.6661896109580994
-0.2096157073974609,0.8193778395652771,0.0024725021794438,-0.0519043058156967,-0.4609657526016235,0.3215726613998413,0.0,0.0,-0.5078898072242737,-0.2149239182472229
-0.2093639373779297,0.8180059790611267,0.0104744862765073,-0.0561967007815837,-0.4448216557502746,0.3228822648525238,0.0,0.0,-0.4671405553817749,-0.2203922867774963
-0.2090281546115875,0.8165406584739685,0.0187115781009197,-0.0604896172881126,-0.4286157190799713,0.3241186738014221,0.0,0.0,-0.6299893856048584,-0.1767646670341491
-0.2086060494184494,0.8149821162223816,0.0271687358617782,-0.0647830367088317,-0.4123516380786896,0.3252814412117004,0.0,0.0,-0.7283661365509033,-0.1282081604003906
-0.208095833659172,0.8133301734924316,0.0358314998447895,-0.0690769478678703,-0.3960331082344055,0.3263700902462005,0.0,0.0,-0.6574668884277344,-0.0828555822372436
-0.2074954956769943,0.8115851283073425,0.044686023145914,-0.073371335864067,-0.37966388463974,0.3273841738700866,0.0,0.0,-0.7826682925224304,0.0879323482513427
-0.2068033665418625,0.8097469210624695,0.0537191033363342,-0.0776661708950996,-0.3632477223873138,0.3283234238624573,0.0,0.0,-0.728476881980896,-0.0688278675079345
-0.2060179263353347,0.8078158497810364,0.0629182308912277,-0.0819614380598068,-0.3467883467674255,0.3291873633861542,0.0,0.0,-0.7626692652702332,0.0022063255310058
-0.2051375806331634,0.8057916760444641,0.0722715407609939,-0.0862571224570274,-0.3302895426750183,0.329975813627243,0.0,0.0,-0.9179715514183044,0.7347497940063477
-0.2040985077619552,0.8036420345306396,0.0896773114800453,-0.0923547372221946,-0.3154742419719696,0.2963061928749084,0.0,0.0,-0.8770240545272827,0.29498291015625
-0.2029622048139572,0.8013989925384521,0.0993082970380783,-0.0966468527913093,-0.3006269931793213,0.2969452142715454,0.0,0.0,-0.9355654120445251,0.1556365489959716
-0.2017274349927902,0.7990624308586121,0.1090618148446083,-0.1009392738342285,-0.2857515513896942,0.2975086569786072,0.0,0.0,-0.9745796322822572,0.6615951061248779
-0.2003308832645416,0.7966045141220093,0.1267726570367813,-0.1067765429615974,-0.2725233733654022,0.2645627558231354,0.0,0.0,-0.9824320673942566,-0.4006381034851074
-0.19883394241333,0.7940524816513062,0.1367458701133728,-0.1110656931996345,-0.2592745423316955,0.264976441860199,0.0,0.0,-0.9861463308334352,0.2860597372055053
-0.1972355842590332,0.7914064526557922,0.1468156725168228,-0.1153550297021865,-0.246008813381195,0.2653146386146545,0.0,0.0,-0.98323255777359,0.1721174716949463
-0.1955351829528808,0.7886666059494019,0.1569746434688568,-0.1196445673704147,-0.2327299565076828,0.2655772566795349,0.0,0.0,-0.9944982528686525,0.0036811828613281
-0.1937317848205566,0.7858325839042664,0.1672158539295196,-0.1239342615008354,-0.2194417417049408,0.2657642364501953,0.0,0.0,-0.9925488829612732,-0.2596120834350586
-0.1918248236179351,0.7829048037528992,0.1775328814983368,-0.1282240897417068,-0.2061479687690735,0.2658756077289581,0.0,0.0,-0.9968265891075134,-0.4868229627609253
-0.1898136138916015,0.7798829674720764,0.1879198104143142,-0.1325140744447708,-0.1928524076938629,0.2659114003181457,0.0,0.0,-0.9892024397850036,0.2464169263839721
-0.1876974999904632,0.7767674326896667,0.1983710676431656,-0.1368041336536407,-0.1795588284730911,0.2658718526363373,0.0,0.0,-0.9920114874839784,0.6508092880249023
-0.1854274719953537,0.7735442519187927,0.2149926424026489,-0.1418440490961074,-0.1675257235765457,0.2406619787216186,0.0,0.0,-0.9980911016464232,0.758338451385498
-0.1830039918422699,0.7702215909957886,0.2315266877412796,-0.1464922130107879,-0.1567031741142273,0.21645088493824,0.0,0.0,-0.9977520704269408,0.3372728824615478
-0.1804742813110351,0.7668043971061707,0.2421429902315139,-0.1507775783538818,-0.145893707871437,0.2161893546581268,0.0,0.0,-0.9964251518249512,-0.1041522026062011
-0.1778379380702972,0.7632926106452942,0.2528052031993866,-0.1550629734992981,-0.1351010054349899,0.2158543765544891,0.0,0.0,-0.9986534714698792,0.5049154758453369
-0.1750601828098297,0.7596825957298279,0.2678281664848327,-0.1595771461725235,-0.1251972466707229,0.1980751603841781,0.0,0.0,-0.9974201917648317,0.7367649078369141
-0.1721200048923492,0.7559646964073181,0.2855110168457031,-0.1645532399415969,-0.1167289838194847,0.1693652123212814,0.0,0.0,-0.9971900582313538,0.6197519302368164
-0.1690327674150467,0.7521449327468872,0.3012236356735229,-0.169192835688591,-0.109285220503807,0.1488750427961349,0.0,0.0,-0.9907433986663818,0.3572849035263061
-0.1658377647399902,0.7482299208641052,0.3120355010032654,-0.1734732240438461,-0.1018724516034126,0.1482553333044052,0.0,0.0,-0.991342067718506,0.2170474529266357
-0.16253462433815,0.7442196011543274,0.322876900434494,-0.1777536422014236,-0.0944941267371177,0.147566556930542,0.0,0.0,-0.9916723966598512,-0.3647226095199585
-0.159123033285141,0.7401137351989746,0.3337452709674835,-0.1820340007543563,-0.0871536508202552,0.1468097120523452,0.0,0.0,-0.9867149591445924,-0.1682333350181579
-0.1556030213832855,0.7359123229980469,0.3446381688117981,-0.1863143146038055,-0.0798543468117713,0.1459859907627105,0.0,0.0,-0.9929348230361938,-0.1374269723892212
-0.1519742012023925,0.7316156625747681,0.3555533587932586,-0.1905945986509323,-0.0725995078682899,0.1450966298580169,0.0,0.0,-0.965721070766449,0.0867592096328735
-0.1482365578413009,0.7272233963012695,0.3664887547492981,-0.1948747932910919,-0.0653923526406288,0.144143059849739,0.0,0.0,-0.9688001871109008,-0.0972430706024169
-0.1443897187709808,0.7227357625961304,0.3774422705173492,-0.1991549432277679,-0.0582360215485096,0.1431267708539962,0.0,0.0,-0.896744430065155,0.0015774965286254
-0.1404336988925933,0.7181525230407715,0.3884120583534241,-0.203435018658638,-0.0511335581541061,0.1420494019985199,0.0,0.0,-0.9783855080604552,0.3154448270797729
-0.1363684684038162,0.7134737372398376,0.3993963897228241,-0.2077150195837021,-0.0440879166126251,0.140912726521492,0.0,0.0,-0.966914713382721,0.0951666831970214
-0.1321937590837478,0.7086995840072632,0.410393476486206,-0.2119949162006378,-0.037101998925209,0.1397185623645782,0.0,0.0,-0.974426567554474,-0.4061331748962402
-0.1279096603393554,0.703829824924469,0.4214018285274505,-0.2162747234106063,-0.0301785487681627,0.1384688317775726,0.0,0.0,-0.9417782425880432,-0.5890612006187439
-0.1235726326704025,0.6988656520843506,0.4253241419792175,-0.2204804718494415,-0.0218990389257669,0.1655900180339813,0.0,0.0,-0.973882019519806,-0.051356554031372
-0.1191259399056434,0.6938063502311707,0.4363502860069275,-0.2247618585824966,-0.013687283731997,0.1642352044582367,0.0,0.0,-0.991390824317932,0.0337095260620117
-0.114569567143917,0.6886516809463501,0.4473832249641418,-0.2290430814027786,-0.0055457376874983,0.1628313362598419,0.0,0.0,-0.9653563499450684,-0.829098105430603
-0.1099550276994705,0.6833946704864502,0.4519715905189514,-0.2336368113756179,0.0038143065758049,0.1872008442878723,0.0,0.0,-0.9598037004470824,0.0430130958557128
-0.1052307114005088,0.6780427098274231,0.4630137085914612,-0.2379196435213089,0.0130996014922857,0.1857059150934219,0.0,0.0,-0.981277346611023,-0.7583754658699036
-0.1004545241594314,0.6726020574569702,0.466836154460907,-0.2419417202472686,0.0237530525773763,0.2130689918994903,0.0,0.0,-0.9933921098709106,-0.8975299000740051
