x_pos,y_pos,x_vel,y_vel,angle,ang_vel,leg_1,leg_2,main_booster,lat_booster
-0.0015256882179528,1.4033905267715454,-0.1552342176437378,-0.3346455693244934,0.0023808691184967,0.0470110699534416,0.0,0.0,0.8923729414844253,0.8979947890172937
-0.0029188157059252,1.3964389562606812,-0.1406171023845672,-0.3089597523212433,0.0036688337568193,0.0257622897624969,0.0,0.0,-0.5036598351459181,-0.87034834182251
-0.0043673515319824,1.3892463445663452,-0.1481228768825531,-0.319682627916336,0.0069069424644112,0.0647681131958961,0.0,0.0,-0.818659027334917,-0.5490332008757162
-0.0058696744963526,1.3818178176879885,-0.1554366648197174,-0.3301890194416046,0.012055967003107,0.1029897481203079,0.0,0.0,0.2918998841717741,0.6840858955834819
-0.0072142602875828,1.3749258518218994,-0.1391016840934753,-0.306356132030487,0.0166580453515052,0.09205012768507,0.0,0.0,0.4981389132861358,0.6048116812893798
-0.0083861351013183,1.3685425519943235,-0.1215877681970596,-0.2837577760219574,0.0210018008947372,0.0868833437561988,0.0,0.0,-0.6878831061012725,0.6503304767630976
-0.0095109939575195,1.3619272708892822,-0.1162432581186294,-0.2940712571144104,0.0247233062982559,0.0744368955492973,0.0,0.0,0.8411538556679303,-0.985963742982511
-0.0105476379394531,1.356166958808899,-0.1103388667106628,-0.256146490573883,0.0313264019787311,0.1320740431547165,0.0,0.0,0.299427762648307,0.6415804989476471
-0.0115671157836914,1.3511687517166138,-0.1079461351037025,-0.2222776263952255,0.0372560881078243,0.1186045557260513,0.0,0.0,0.4657353889067859,-0.7187165493057885
-0.0126701351255178,1.346904754638672,-0.1183605939149856,-0.1897275149822235,0.0452303178608417,0.1594996303319931,0.0,0.0,-0.9539425871039418,0.8879081822993136
-0.0136953350156545,1.342414140701294,-0.1091737151145935,-0.1998030841350555,0.0518137663602829,0.1316807568073272,0.0,0.0,-0.1369809200927103,0.658551482260904
-0.0146646499633789,1.337693691253662,-0.1027250289916992,-0.2100095152854919,0.0575626492500305,0.1149880737066268,0.0,0.0,-0.4006488336835379,0.6473057462837635
-0.0155737875029444,1.3327488899230957,-0.0957771092653274,-0.2199647426605224,0.0623735599219799,0.096227042376995,0.0,0.0,-0.9204971780924024,-0.9017776258767316
-0.0165472030639648,1.327556848526001,-0.1044289097189903,-0.2310663908720016,0.0693971514701843,0.1404846608638763,0.0,0.0,-0.7152309186898864,-0.5975560835144821
-0.0175586696714162,1.3221346139907837,-0.1097753196954727,-0.2414047867059707,0.0779529884457588,0.1711322367191314,0.0,0.0,0.4001747611854567,-0.7768341915842727
-0.0185482017695903,1.3168532848358154,-0.1099314242601394,-0.2353377789258957,0.0888373404741287,0.2177070379257202,0.0,0.0,-0.4449201323053575,-0.6993419976819149
-0.0195823665708303,1.31134295463562,-0.1160859242081642,-0.2457063645124435,0.1014173328876495,0.2516225576400757,0.0,0.0,0.687810525082651,-0.8225304845001817
-0.0205609314143657,1.3061809539794922,-0.1130884736776351,-0.2305256277322769,0.11655855178833,0.3028517663478851,0.0,0.0,0.6813354941029368,0.5974071612065026
-0.0214839931577444,1.3020381927490234,-0.1072160005569458,-0.1853471100330352,0.1314029395580291,0.2969148755073547,0.0,0.0,-0.2426395198498172,0.9883659879736546
-0.0223415382206439,1.2976782321929932,-0.0995463952422142,-0.1950567811727523,0.1451667994260788,0.2753021419048309,0.0,0.0,0.4741096109333458,0.778559594799306
-0.0231117252260446,1.2941299676895142,-0.090043805539608,-0.1590204387903213,0.1582016050815582,0.2607198655605316,0.0,0.0,-0.2329815514276836,0.5474348459150922
-0.023838996887207,1.290358543395996,-0.0852509588003158,-0.1690034121274948,0.1707489043474197,0.2509682476520538,0.0,0.0,0.9744002645633258,-0.5463083549623894
-0.0245580673217773,1.2873488664627075,-0.0866055786609649,-0.1355123072862625,0.1855033934116363,0.2951158881187439,0.0,0.0,0.829617755819571,0.8508675089894914
-0.0251908302307128,1.284651756286621,-0.0770221203565597,,0.1993438005447387,0.2768331468105316,0.0,0.0,-0.002099847776672,0.5834804417231492
-0.0257899276912212,1.2817368507385254,-0.0733461901545524,-0.1314153969287872,0.2129146307706833,0.2714406251907348,0.0,0.0,-0.2455783682638435,-0.8585338245016103
-0.0264691356569528,1.2785496711730957,-0.0840766578912735,-0.1440666764974594,0.229254812002182,0.32680344581604,0.0,0.0,-0.6314649174556732,0.6459531200857366
-0.0270989425480365,1.2751553058624268,-0.07839997112751,-0.1533410400152206,0.2449089884757995,0.3130835890769958,0.0,0.0,-0.5859540042478506,0.5756670727300182
-0.0276948921382427,1.2715508937835691,-0.074674516916275,-0.1627855151891708,0.2602749466896057,0.3073189556598663,0.0,0.0,0.8472136985386802,0.658454719543132
-0.0286157615482807,1.268937349319458,-0.1060319989919662,-0.1186917573213577,0.2745439410209656,0.2853797078132629,0.0,0.0,0.5575737997665131,-0.5788325666825698
-0.0297243110835552,1.2667298316955566,-0.1264601200819015,-0.1011285036802291,0.290563702583313,0.3203952610492706,0.0,0.0,-0.2327811219230853,0.6049502881022271
-0.0307862274348735,1.264321208000183,-0.1210794076323509,-0.1100832521915435,0.3059345781803131,0.3074184060096741,0.0,0.0,-0.8403584361076355,0.9962056875228882
-0.0317803397774696,1.261709690093994,-0.1131375581026077,-0.1190271526575088,0.3201695382595062,0.2846990525722503,0.0,0.0,-0.8582303524017334,0.9860095977783204
-0.0327112190425396,1.2589094638824463,-0.1056647524237632,-0.127288356423378,0.3332817852497101,0.2622449696063995,0.0,0.0,-0.8164161443710327,0.998481035232544
-0.033571433275938,1.2559059858322144,-0.0974074825644493,-0.1361588984727859,0.3452011942863464,0.2383883446455001,0.0,0.0,-0.9181816577911376,0.9973869323730468
-0.0343536362051963,1.2527159452438354,-0.0881608426570892,-0.1441978067159652,0.355641096830368,0.2087978571653366,0.0,0.0,-0.8176527619361877,0.991565465927124
-0.0350592620670795,1.2493449449539185,-0.0790630429983139,-0.1519514918327331,0.3645960092544555,0.1790981590747833,0.0,0.0,-0.7262665033340454,0.9883456230163574
-0.0356907844543457,1.2457789182662964,-0.0703741759061813,-0.1603467911481857,0.3722330331802368,0.1527405679225921,0.0,0.0,-0.7008054852485657,0.9889853000640868
-0.0362433418631553,1.242034673690796,-0.0609893277287483,-0.1679141968488693,0.3783140182495117,0.1216198578476905,0.0,0.0,-0.7248175740242004,0.9589884281158448
-0.0367287620902061,1.2381088733673096,-0.0530957877635955,-0.1756954789161682,0.3831508457660675,0.0967365577816963,0.0,0.0,-0.8856218457221985,0.9840667247772216
-0.0371346473693847,1.2339990139007568,-0.0437103956937789,-0.1835061758756637,0.3864756822586059,0.066496729850769,0.0,0.0,-0.788515567779541,0.9920816421508788
-0.037477970123291,1.2297022342681885,-0.0364415161311626,-0.1915366798639297,0.3887179791927337,0.0448456928133964,0.0,0.0,-0.9818339943885804,0.9682779312133788
-0.0377302169799804,1.2252249717712402,-0.0256457682698965,-0.1991099417209625,0.3891647160053253,0.0089347884058952,0.0,0.0,-0.9849250316619872,0.9601140022277832
-0.0378925316035747,1.2205567359924316,-0.0150690898299217,-0.2071564048528671,0.3879308700561523,-0.0246768537908792,0.0,0.0,-0.9775988459587096,0.8309261798858643
-0.0379773154854774,1.2156994342803955,-0.0060172695666551,-0.2152130603790283,0.3853066265583038,-0.0524851456284523,0.0,0.0,-0.98043692111969,0.9118368625640868
-0.0379902832210063,1.2106391191482544,0.0022355341352522,-0.2239541858434677,0.381544291973114,-0.0752469673752784,0.0,0.0,-0.9975579380989076,0.8803229331970215
-0.0379243865609169,1.2053813934326172,0.0113976746797561,-0.232400357723236,0.3764392733573913,-0.1021011620759964,0.0,0.0,-0.9992512464523317,0.7947795391082764
-0.0377854332327842,1.1999272108078003,0.0198441799730062,-0.240862101316452,0.3701327741146087,-0.1261295527219772,0.0,0.0,-0.9984076023101808,-0.1480282545089721
-0.0376380905508995,1.1942423582077026,0.0201444514095783,-0.2512765824794769,0.3644187152385711,-0.1142807453870773,0.0,0.0,-0.9987645149230956,0.6510701179504395
-0.0374458320438861,1.1883535385131836,0.0250718351453542,-0.2602525353431701,0.3582428395748138,-0.12351755797863,0.0,0.0,-0.9989473819732666,0.8747076988220215
-0.0371815674006938,1.1822667121887207,0.0333843491971492,-0.2688106298446655,0.3509213328361511,-0.146430104970932,0.0,0.0,-0.9999139308929444,0.6169289350509644
-0.0368509292602539,1.1759800910949707,0.0409656837582588,-0.2774921655654907,0.3426131308078766,-0.1661639660596847,0.0,0.0,-0.9815728664398192,0.4022741317749023
-0.0365100875496864,1.1694631576538086,0.0414644740521907,-0.2879072427749634,0.3348795771598816,-0.1546713709831237,0.0,0.0,-0.998237669467926,0.7645692825317383
-0.0360905639827251,1.1627466678619385,0.0505823791027069,-0.2965331077575683,0.3258721828460693,-0.1801481544971466,0.0,0.0,-0.993075430393219,-0.266628623008728
-0.0356598868966102,1.1557997465133667,0.0511787608265876,-0.3069481253623962,0.3174279034137726,-0.1688849031925201,0.0,0.0,-0.9949613809585572,0.5096020698547363
-0.0351696982979774,1.148643970489502,0.0578630454838275,-0.3161285817623138,0.3082456290721893,-0.1836452782154083,0.0,0.0,-0.9985568523406982,0.0899499654769897
-0.0346674919128418,1.1412572860717771,0.0585544481873512,-0.3265427350997925,0.2996129095554352,-0.1726543605327606,0.0,0.0,-0.9942411184310912,0.3978533744812011
-0.0341529846191406,1.1336400508880615,0.0592918619513511,-0.3369555175304413,0.2915220260620117,-0.1618181765079498,0.0,0.0,-0.997804880142212,-0.3094397783279419
-0.0336256995797157,1.1257916688919067,0.0600745156407356,-0.3473670184612274,0.2839644849300384,-0.1511503905057907,0.0,0.0,-0.9914181232452391,0.72336745262146
-0.0330249778926372,1.117746353149414,0.0685181841254234,-0.3559503555297851,0.2752733528614044,-0.1738226115703582,0.0,0.0,-0.9028435349464417,0.8079369068145752
-0.03235874325037,1.1094995737075806,0.0760102123022079,-0.364789217710495,0.2656588554382324,-0.1922891587018966,0.0,0.0,-0.9778096675872804,0.8762969970703125
-0.0316049568355083,1.1010441780090332,0.0861711055040359,-0.373874306678772,0.2546296715736389,-0.220583826303482,0.0,0.0,-0.3258736133575439,-0.829420268535614
-0.030911635607481,1.0923333168029783,0.0777551308274269,-0.3857165873050689,0.2460446506738662,-0.1717003881931305,0.0,0.0,-0.8332374691963196,0.7373793125152588
-0.0301355365663766,1.0834150314331057,0.0873422771692276,-0.3947726786136627,0.2361453622579574,-0.1979853212833404,0.0,0.0,-0.6698801517486572,-0.2246174812316894
-0.0293448455631732,1.074265480041504,0.0883778259158134,-0.4051832258701324,0.2267113178968429,-0.1886810064315796,0.0,0.0,-0.8094978928565979,-0.2202160358428955
-0.0285388939082622,1.0648846626281738,0.0894510522484779,-0.4155924618244171,0.2177275419235229,-0.1796751320362091,0.0,0.0,-0.874618411064148,0.2777168750762939
-0.0277178771793842,1.0552719831466677,0.0905607789754867,-0.4260003268718719,0.2091779708862304,-0.1709912717342376,0.0,0.0,-0.8890602588653564,-0.8904621005058289
-0.0269493106752634,1.0454164743423462,0.0832202136516571,-0.4371361434459686,0.2027646005153656,-0.1282672733068466,0.0,0.0,-0.8924036622047424,-0.7656499147415161
-0.0262148864567279,1.0353039503097534,0.0780873745679855,-0.4488197267055511,0.198085069656372,-0.0935906544327735,0.0,0.0,-0.9329729676246644,0.3070160150527954
-0.025464629754424,1.0249587297439575,0.0792986303567886,-0.459221214056015,0.1937838047742843,-0.0860256105661392,0.0,0.0,-0.8753820061683655,0.3619532585144043
-0.024698544293642,1.0143808126449585,0.0805418044328689,-0.4696219563484192,0.1898394674062729,-0.0788867697119712,0.0,0.0,-0.9110345840454102,0.3380327224731445
-0.0239162445068359,1.0035700798034668,0.0818156823515892,-0.480021983385086,0.1862293630838394,-0.0722018033266067,0.0,0.0,-0.9110270738601683,0.7872133255004883
-0.0230538360774517,0.9925460815429688,0.0911770388484001,-0.4893421828746795,0.181268110871315,-0.0992250442504882,0.0,0.0,-0.9059383869171144,0.3120338916778564
-0.0221754070371389,0.981289267539978,0.0925092250108718,-0.4997419416904449,0.1765915751457214,-0.0935306027531623,0.0,0.0,-0.7258710861206055,0.5069166421890259
-0.0212366096675395,0.9698113799095154,0.0994297936558723,-0.5094793438911438,0.1710326969623565,-0.1111777797341346,0.0,0.0,-0.7163287401199341,-0.7867478728294373
-0.0203455928713083,0.958077609539032,0.0927544757723808,-0.5210840702056885,0.1673721224069595,-0.0732115134596824,0.0,0.0,-0.7232363820075989,0.0390294790267944
-0.0194385536015033,0.9461106657981871,0.0941651910543441,-0.5314813852310181,0.163912147283554,-0.0691995918750763,0.0,0.0,-0.6688598990440369,-0.7012504935264587
-0.0185721404850482,0.9338889718055724,0.0884441882371902,-0.542982280254364,0.1621044278144836,-0.0361542403697967,0.0,0.0,-0.7952418923377991,0.1234412193298339
-0.0176897998899221,0.921433925628662,0.0899019688367843,-0.5533778667449951,0.160435602068901,-0.0333765484392643,0.0,0.0,-0.0189658999443054,0.2386746406555175
-0.0167916305363178,0.908745288848877,0.0913818925619125,-0.5637729167938232,0.1588734835386276,-0.0312422774732112,0.0,0.0,-0.0122127532958984,0.2794492244720459
-0.0158777236938476,0.8958229422569275,0.0928829684853553,-0.5741674304008484,0.1573852598667144,-0.0297646410763263,0.0,0.0,-0.5782920122146606,0.5811426639556885
-0.0149119375273585,0.8826693892478943,0.0989420041441917,-0.5843513011932373,0.155027687549591,-0.04715121909976,0.0,0.0,-0.2119961977005005,0.0538495779037475
-0.0139306066557765,0.869282066822052,0.1004826202988624,-0.5947453379631042,0.1526770740747451,-0.0470121838152408,0.0,0.0,-0.347445011138916,0.7017900943756104
-0.0128884315490722,0.8556715846061707,0.1077718287706375,-0.6045535802841187,0.1491318643093109,-0.0709041059017181,0.0,0.0,-0.444617748260498,-0.7238550186157227
-0.0118930814787745,0.841816246509552,0.1015627384185791,-0.6155903935432434,0.1471042484045028,-0.0405521839857101,0.0,0.0,0.0201650857925415,0.8256721496582031
-0.0108904838562011,0.8283843398094177,0.1040413826704025,-0.5966060161590576,0.1433280557394027,-0.0755238011479377,0.0,0.0,-0.3633232116699219,0.3667289018630981
-0.0098731042817235,0.81471848487854,0.1056502237915992,-0.6069990992546082,0.1394254565238952,-0.0780521184206008,0.0,0.0,-0.5106378197669983,0.4688241481781006
-0.0088411327451467,0.8008186221122742,0.1072739362716674,-0.6173918843269348,0.1353643387556076,-0.0812226310372352,0.0,0.0,-0.0774341225624084,0.2087818384170532
-0.0077947615645825,0.7866849303245544,0.1089116930961608,-0.6277846097946167,0.1311134397983551,-0.0850181281566619,0.0,0.0,0.028719425201416,0.8866366147994995
-0.0066032409667968,0.772881031036377,0.125436469912529,-0.6129702925682068,0.1248624548316001,-0.1250197142362594,0.0,0.0,0.2191213369369506,-0.7453472018241882
-0.0053761480376124,0.7592813372612,0.1276082843542099,-0.6040242314338684,0.1199842914938926,-0.0975630283355712,0.0,0.0,0.2931123971939087,-0.7516013979911804
-0.0042698858305811,0.7463173270225525,0.1143042221665382,-0.5758914351463318,0.1163203567266464,-0.0732788518071174,0.0,0.0,-0.0939483046531677,-0.0543472170829772
-0.0031499862670898,0.7331189513206482,0.1159899458289146,-0.5862829685211182,0.1123526394367218,-0.0793545395135879,0.0,0.0,-0.1254490613937378,0.1579887866973877
-0.0020164488814771,0.7196866273880005,0.1176857948303222,-0.5966746211051941,0.108055830001831,-0.0859361439943313,0.0,0.0,0.0627150535583496,-0.5149950385093689
-0.0008608818170614,0.7063329219818115,0.1190805435180664,-0.5932504534721375,0.1045633628964424,-0.0698495060205459,0.0,0.0,-0.2511135935783386,-0.3148693442344665
0.0003081321774516,0.6927449107170105,0.1207944005727768,-0.6036415696144104,0.1006953716278076,-0.0773597583174705,0.0,0.0,-0.4945834875106811,-0.1582064628601074
0.0014903068076819,0.6789227724075317,0.1225162968039512,-0.6140328645706177,0.0964307337999343,-0.0852925553917884,0.0,0.0,0.4331836700439453,-0.4265153408050537
0.002617931459099,0.6656008362770081,0.1175747960805893,-0.5917869210243225,0.0916560962796211,-0.095492772758007,0.0,0.0,-0.196839690208435,-0.8470464944839478
0.0036774636246263,0.6520411372184753,0.1091575399041175,-0.602455735206604,0.0884809866547584,-0.0635022968053817,0.0,0.0,0.4253576993942261,-0.2387189865112304
0.0047715185210108,0.6391568183898926,0.1127109080553054,-0.5724446177482605,0.0852012112736702,-0.0655954554677009,0.0,0.0,-0.6701871156692505,-0.5822998881340027
0.0058280946686863,0.6260360479354858,0.1081614643335342,-0.5830060839653015,0.0827155858278274,-0.0497123897075653,0.0,0.0,-0.4234520196914673,-0.2584667205810547
0.0068971635773777,0.6126809120178223,0.1099139079451561,-0.5933966040611267,0.0797475129365921,-0.0593616552650928,0.0,0.0,-0.6936423182487488,-0.7659635543823242
0.0079161645844578,0.5990815758705139,0.1037894487380981,-0.6043211221694946,0.0778728500008583,-0.0374934487044811,0.0,0.0,-0.7829117178916931,-0.4787986278533935
0.0089476583525538,0.5852476954460144,0.1055501252412796,-0.6147115230560303,0.0754896774888038,-0.0476633235812187,0.0,0.0,-0.7263708114624023,-0.7332382202148438
0.0099191665649414,0.5711697936058044,0.0982481464743614,-0.6256328821182251,0.0744121074676513,-0.0215514861047267,0.0,0.0,-0.8211567997932434,-0.1981691122055053
0.0109030725434422,0.5568574070930481,0.1000150218605995,-0.6360231041908264,0.0728040039539337,-0.0321620181202888,0.0,0.0,-0.0951889753341674,-0.9637314081192015
0.0118312835693359,0.5422949194908142,0.0932529121637344,-0.6472034454345703,0.0723814889788627,-0.0084505612030625,0.0,0.0,0.0388633012771606,-0.148182213306427
0.0128280641511082,0.5282255411148071,0.1002271324396133,-0.6252763867378235,0.0718316808342933,-0.0109959999099373,0.0,0.0,-0.7379964590072632,-0.2432649731636047
0.0138368606567382,0.5139219164848328,0.1019996851682663,-0.6356664299964905,0.070724681019783,-0.022140072658658,0.0,0.0,-0.6649684906005859,-0.9852442145347596
0.0147977825254201,0.4993889331817627,0.096273548901081,-0.6459012627601624,0.0705469995737075,-0.0035539448726922,0.0,0.0,0.0481683015823364,-0.4853547811508178
0.0157930366694927,0.4851768612861633,0.1000587716698646,-0.6316203474998474,0.0700217112898826,-0.0105058792978525,0.0,0.0,-0.7996728420257568,-0.9378779530525208
0.0167248733341693,0.4707319736480713,0.0923882648348808,-0.642033576965332,0.0708060786128044,0.0156876761466264,0.0,0.0,-0.7488656044006348,-0.8874948024749756
0.0176052097231149,0.4560537934303283,0.0862205773591995,-0.6524509787559509,0.0725942105054855,0.0357625372707843,0.0,0.0,-0.7788690328598022,-0.0800679326057434
0.0184972770512104,0.4411412179470062,0.087993323802948,-0.6628411412239075,0.0737938433885574,0.023992633447051,0.0,0.0,-0.5387158393859863,-0.4530171155929565
0.0194010734558105,0.4259941577911377,0.0897646993398666,-0.6732310652732849,0.074400246143341,0.0121282543987035,0.0,0.0,-0.1239559054374694,-0.5422470569610596
0.020264720544219,0.4106055200099945,0.0850272327661514,-0.6840076446533203,0.0757195204496383,0.0263855345547199,0.0,0.0,0.4698376655578613,0.235640287399292
0.0210828781127929,0.3957303464412689,0.0811812579631805,-0.6611502170562744,0.0763486549258232,0.0125824706628918,0.0,0.0,0.0634065866470336,-0.2704315781593323
0.0219030380249023,0.3811361789703369,0.081916257739067,-0.6486349701881409,0.0764499977231025,0.0020269840024411,0.0,0.0,-0.0036274194717407,-0.5309593677520752
0.0227021221071481,0.3662989139556885,0.079584963619709,-0.659449577331543,0.0767725184559822,0.0064502926543354,0.0,0.0,0.5630266666412354,-0.0987594723701477
0.0235549919307231,0.3522053062915802,0.0851458758115768,-0.6263901591300964,0.0769101828336715,0.0027531292289495,0.0,0.0,0.0584847927093505,-0.7787846922874451
0.0243362430483102,0.338652640581131,0.0770280286669731,-0.6023982763290405,0.0779924243688583,0.021644989028573,0.0,0.0,0.0810209512710571,-0.4925621151924133
0.0251543037593364,0.3251755833625793,0.0811445862054824,-0.599014401435852,0.0786509364843368,0.0131703242659568,0.0,0.0,0.0657993555068969,-0.6501791477203369
