x_pos,y_pos,x_vel,y_vel,angle,ang_vel,leg_1,leg_2,main_booster,lat_booster
-0.0015799521934241,1.4033440351486206,-0.1600565165281295,-0.3367081880569458,0.0018371348269283,0.0362451188266277,0.0,0.0,0.1034035116939799,0.5249986858922577
-0.0031380653381347,1.3959708213806152,-0.1566786766052246,-0.3277028799057007,0.0026900023221969,0.0170597489923238,0.0,0.0,-0.2649483904709524,0.9447895421264892
-0.0046625137329101,1.3883100748062134,-0.151017427444458,-0.3404728472232818,0.0012789595639333,-0.0282234996557235,0.0,0.0,-0.2199564300987611,0.7510119410793648
-0.0061965943314135,1.3803668022155762,-0.150787353515625,-0.3530360460281372,-0.001309776562266,-0.0517793893814086,0.0,0.0,-0.4662458775663025,-0.6197156435697371
-0.00782613735646,1.372145175933838,-0.161317378282547,-0.3654040694236755,-0.0029237775597721,-0.0322831682860851,0.0,0.0,-0.3112197302358479,-0.8412839074382692
-0.0095640178769826,1.363642334938049,-0.1734645515680313,-0.3779034316539764,-0.0032450756989419,-0.0064262398518621,0.0,0.0,-0.8925237266222574,-0.7597196871999481
-0.0114212986081838,1.3548595905303955,-0.1869858503341674,-0.3903444409370422,-0.0020028394646942,0.0248470567166805,0.0,0.0,0.6401454353618972,0.7009711258343819
-0.0131175993010401,1.3467613458633425,-0.1698483526706695,-0.3599241077899933,-0.0017847999697551,0.0043611926957964,0.0,0.0,0.5213963662958501,-0.8228058479460528
-0.0149472234770655,1.339547634124756,-0.1848085075616836,-0.3206076622009277,4.194541179458611e-05,0.036538191139698,0.0,0.0,0.5776563604921727,-0.9679671429447896
-0.0169116016477346,1.3331000804901123,-0.2002198249101638,-0.2865606248378753,0.0037812939845025,0.0747937709093093,0.0,0.0,0.9499103826486368,0.8973128450190084
-0.0187537185847759,1.327426552772522,-0.1864266693592071,-0.2521710395812988,0.0059657860547304,0.0436938069760799,0.0,0.0,0.7604802219105775,-0.5325898035354821
-0.0206187255680561,1.32231605052948,-0.1899991780519485,-0.2271469086408615,0.0094344364479184,0.0693793296813964,0.0,0.0,0.2012734279554868,-0.7532215800383496
-0.0224980358034372,1.3176929950714111,-0.193070650100708,-0.205512449145317,0.0145144881680607,0.1016100272536277,0.0,0.0,0.2160957399687433,-0.5551009663602486
-0.0244268421083688,1.313177227973938,-0.1992442160844802,-0.200779378414154,0.0208025574684143,0.1257732659578323,0.0,0.0,0.1739088785590472,0.6317620049184087
-0.0262640956789255,1.3092714548110962,-0.1889929175376892,-0.1736682057380676,0.0260096658021211,0.1041515693068504,0.0,0.0,0.3813140244610908,-0.75722948849104
-0.0281228069216012,1.305451273918152,-0.1928052902221679,-0.1699207574129104,0.0328735522925853,0.1372903287410736,0.0,0.0,0.5546293154810682,-0.6750282677875519
-0.0299773216247558,1.3025707006454468,-0.1940576136112213,-0.1282402575016021,0.0413738302886486,0.170021191239357,0.0,0.0,-0.5804874465373986,-0.9716216654154128
-0.0319482795894146,1.29939866065979,-0.2071652710437774,-0.1412820667028427,0.0513457395136356,0.1994562000036239,0.0,0.0,0.3616958503530749,-0.7341630247930719
-0.0339799895882606,1.2969484329223633,-0.2148489505052566,-0.1093342080712318,0.0629136934876442,0.2313797026872635,0.0,0.0,0.6867721051552316,-0.8469439316713887
-0.0362638458609581,1.295069694519043,-0.2415990531444549,-0.0841108635067939,0.0760069489479065,0.2618889212608337,0.0,0.0,0.8035204954529791,-0.929826415152426
-0.0385871902108192,1.294156789779663,-0.2476688176393509,-0.0414213649928569,0.0912104845046997,0.3040977120399475,0.0,0.0,-0.769422707869633,0.5471926325209951
-0.0409246459603309,1.2929692268371582,-0.2479341924190521,-0.0537078268826007,0.1053107529878616,0.2820306420326233,0.0,0.0,-0.8321960446865524,-0.6790394955037267
-0.0433617606759071,1.291496753692627,-0.2589698731899261,-0.0665919929742813,0.120485745370388,0.3035270571708679,0.0,0.0,0.6206902137263339,0.9520036987192037
-0.0457413680851459,1.29021954536438,-0.2513983249664306,-0.0579041950404644,0.1338785141706466,0.2678795456886291,0.0,0.0,-0.3257991959465474,-0.9102408927128484
-0.0482670776546001,1.288649320602417,-0.2682615220546722,-0.0712670013308525,0.1495388597249984,0.3132349848747253,0.0,0.0,0.3691417921654052,-0.990843312256768
-0.0511514656245708,1.287603497505188,-0.3060344755649566,-0.0483529046177864,0.1671254336833953,0.3517312407493591,0.0,0.0,-0.8027717730780126,-0.5456104949862328
-0.0541359893977642,1.2862743139266968,-0.3171022832393646,-0.061282929033041,0.1858288794755935,0.3740687370300293,0.0,0.0,0.3948350346403233,0.5209876146034556
-0.0573840141296386,1.2856799364089966,-0.3421048521995544,-0.0286770090460777,0.2032382935285568,0.3481884598731994,0.0,0.0,0.1715937930277329,-0.6485025317192439
-0.0609524734318256,1.2855751514434814,-0.3752800822257995,-0.0073007564060389,0.2218462526798248,0.3721593022346496,0.0,0.0,0.3244528594710565,0.708010529733365
-0.0646275505423545,1.2857760190963743,-0.3844777941703796,0.006278155837208,0.2390530854463577,0.3441367745399475,0.0,0.0,-0.1027612702223994,0.7926571921550677
-0.0682982429862022,1.2857317924499512,-0.3824133574962616,-0.0045355069451034,0.254660964012146,0.3121578693389892,0.0,0.0,-0.814508855342865,0.9770190715789796
-0.0719597786664962,1.2854301929473877,-0.379811555147171,-0.015838649123907,0.2686188220977783,0.279157280921936,0.0,0.0,-0.7809451222419739,0.9927195310592652
-0.0756143555045127,1.284886598587036,-0.3774313926696777,-0.0264066979289054,0.2809058129787445,0.2457396239042282,0.0,0.0,-0.8186751008033752,0.9986348152160645
-0.0792555809020996,1.2840851545333862,-0.3743893206119537,-0.0376249812543392,0.2914709150791168,0.2113019675016403,0.0,0.0,-0.8582719564437866,0.9686262607574464
-0.082877829670906,1.2830408811569214,-0.3705944418907165,-0.048112791031599,0.3001021444797516,0.1726248413324356,0.0,0.0,-0.8280625939369202,0.9923808574676514
-0.0864801406860351,1.281760334968567,-0.3666538000106811,-0.058259442448616,0.3067442178726196,0.1328413188457489,0.0,0.0,-0.8797427415847778,0.999037265777588
-0.0900647193193435,1.280229568481445,-0.3631004393100738,-0.0690275281667709,0.3115533888339996,0.0961840003728866,0.0,0.0,-0.8668704628944397,0.9477121829986572
-0.0936300307512283,1.278462290763855,-0.3592981100082397,-0.0791336223483085,0.314418613910675,0.0573042333126068,0.0,0.0,-0.9725285768508912,0.989320993423462
-0.0971829444169998,1.2764596939086914,-0.3563427627086639,-0.0892345085740089,0.3155139684677124,0.0219069588929414,0.0,0.0,-0.9789046049118042,0.9843623638153076
-0.1007129698991775,1.2742164134979248,-0.352166086435318,-0.0995229706168174,0.3146438300609588,-0.0174025185406208,0.0,0.0,-0.9845436811447144,0.9986529350280762
-0.1042369827628135,1.2717313766479492,-0.3500800430774688,-0.1099427044391632,0.3122374415397644,-0.0481275059282779,0.0,0.0,-0.9798667430877686,0.9959357976913452
-0.1077238097786903,1.2690083980560305,-0.3441604673862457,-0.1200568005442619,0.3075462281703949,-0.0938242822885513,0.0,0.0,-0.995664656162262,0.995758056640625
-0.1111744865775108,1.2660372257232666,-0.3384282886981964,-0.1306668370962143,0.3006809949874878,-0.1373046338558197,0.0,0.0,-0.9695008993148804,0.9821486473083496
-0.1145911216735839,1.2628253698349,-0.3329333364963531,-0.140972226858139,0.2916710376739502,-0.1801989674568176,0.0,0.0,-0.982601523399353,0.887195348739624
-0.1179951652884483,1.2593533992767334,-0.3302205204963684,-0.1523118615150451,0.2811830639839172,-0.2097593545913696,0.0,0.0,-0.9971947073936462,0.9465004205703736
-0.1213718429207801,1.2556276321411133,-0.3256346881389618,-0.1633215993642807,0.2688417136669159,-0.2468270063400268,0.0,0.0,-0.9962010979652404,0.830310583114624
-0.1247292533516883,1.2516487836837769,-0.3220617175102234,-0.1743809729814529,0.2548684179782867,-0.2794656455516815,0.0,0.0,-0.96805602312088,0.6321985721588135
-0.1280988752841949,1.2474151849746704,-0.322442352771759,-0.1857069581747055,0.2400775402784347,-0.2958177030086517,0.0,0.0,-0.9677958488464355,0.3272510766983032
-0.1315182745456695,1.2429049015045166,-0.3275941610336303,-0.1981856822967529,0.2255268692970276,-0.2910135686397552,0.0,0.0,-0.9742785692214966,0.1374435424804687
-0.1349864900112152,1.2381176948547363,-0.3326826989650726,-0.2106638103723526,0.2112284153699875,-0.2859691381454468,0.0,0.0,-0.9873685836791992,0.3346625566482544
-0.1385027915239334,1.2330535650253296,-0.3377019762992859,-0.2231413275003433,0.197194218635559,-0.2806842029094696,0.0,0.0,-0.933179259300232,0.5012483596801758
-0.1420313864946365,1.2277264595031738,-0.3382733762264251,-0.2348842620849609,0.1825232803821563,-0.293418824672699,0.0,0.0,-0.9590575098991394,0.1999820470809936
-0.1456062346696853,1.2221225500106812,-0.3431333601474762,-0.2473625242710113,0.168140560388565,-0.2876541018486023,0.0,0.0,-0.9387808442115784,0.2859072685241699
-0.1492259949445724,1.216241717338562,-0.3479029834270477,-0.2598399519920349,0.1540579497814178,-0.2816520035266876,0.0,0.0,-0.9413885474205016,0.9090454578399658
-0.1528009474277496,1.21010160446167,-0.3414109349250793,-0.271314799785614,0.1380200535058975,-0.3207581341266632,0.0,0.0,-0.9142778515815736,0.8029627799987793
-0.156365305185318,1.2036926746368408,-0.3392960429191589,-0.2833380401134491,0.1209573820233345,-0.3412537276744842,0.0,0.0,-0.9465381503105164,0.734696626663208
-0.1599050462245941,1.1970272064208984,-0.335422545671463,-0.2948449850082397,0.1025312691926956,-0.368522584438324,0.0,0.0,-0.9298805594444276,0.4282841682434082
-0.1634849607944488,1.1900862455368042,-0.3397423326969147,-0.3073323667049408,0.0844516605138778,-0.3615923523902893,0.0,0.0,-0.7909399271011353,0.5586745738983154
-0.1670539826154709,1.1828820705413818,-0.3377445340156555,-0.3192127048969269,0.0654766485095024,-0.3795004487037658,0.0,0.0,-0.9393461346626282,0.9550485610961914
-0.1705944985151291,1.1754179000854492,-0.3335511684417724,-0.3309697806835174,0.0452071651816368,-0.4053900837898254,0.0,0.0,-0.945528507232666,-0.2427849173545837
-0.1741702109575271,1.1676791906356812,-0.3374307751655578,-0.3434617221355438,0.0253167431801557,-0.3978084623813629,0.0,0.0,-0.965001344680786,0.3022139072418213
-0.1777791082859039,1.1596654653549194,-0.3411418199539184,-0.3559518456459045,0.0058156349696218,-0.390022337436676,0.0,0.0,-0.9688057899475098,0.8616511821746826
-0.1813371628522873,1.1513752937316897,-0.3343608677387237,-0.3684968054294586,-0.0153511529788374,-0.4233357310295105,0.0,0.0,-0.9284756183624268,0.4835208654403686
-0.1849243193864822,1.1428108215332031,-0.3376994431018829,-0.3809899687767029,-0.0361089594662189,-0.4151559770107269,0.0,0.0,-0.9001915454864502,0.4175270795822143
-0.1885384619235992,1.1339715719223022,-0.340834230184555,-0.3934809267520904,-0.056448508054018,-0.4067912697792053,0.0,0.0,-0.8360921144485474,0.9909723997116088
-0.1921150237321853,1.1248527765274048,-0.3359460532665252,-0.4062387347221374,-0.0779277384281158,-0.4295843541622162,0.0,0.0,-0.9442313313484192,0.1826310157775879
-0.1957137137651443,1.1154593229293823,-0.3386388123035431,-0.4187306463718414,-0.0989711284637451,-0.4208679795265198,0.0,0.0,-0.9357002377510072,0.7783472537994385
-0.1992630958557129,1.105771541595459,-0.3324144780635834,-0.4322098195552826,-0.1213371828198432,-0.4473211169242859,0.0,0.0,-0.8943586349487305,0.9422025680541992
-0.2027511596679687,1.09580659866333,-0.3248293995857239,-0.4450108110904693,-0.1452119201421737,-0.477495014667511,0.0,0.0,-0.927998661994934,-0.6119760274887085
-0.2063089311122894,1.0855766534805298,-0.3337596952915191,-0.4569483399391174,-0.1672135293483734,-0.4400321841239929,0.0,0.0,-0.2978259325027466,-0.6609668135643005
-0.2099372446537017,1.0750892162322998,-0.3428730368614197,-0.4684777855873108,-0.1872210800647735,-0.4001510739326477,0.0,0.0,-0.7960080504417419,0.6007858514785767
-0.2135250121355056,1.0643128156661987,-0.33810555934906,-0.4816884994506836,-0.2080220133066177,-0.4160187840461731,0.0,0.0,-0.5950099229812622,0.3213801383972168
-0.2171184122562408,1.0532604455947876,-0.3392355442047119,-0.4941719770431518,-0.2283432781696319,-0.4064255356788635,0.0,0.0,-0.2985154390335083,0.846289873123169
-0.2206414639949798,1.0419068336486816,-0.3308931887149811,-0.5080761313438416,-0.2500927448272705,-0.4349892139434814,0.0,0.0,-0.0899766683578491,0.5019972324371338
-0.2241285294294357,1.0302598476409912,-0.326955646276474,-0.5215062499046326,-0.2723115980625152,-0.4443779587745666,0.0,0.0,0.0343204736709594,0.6725497245788574
-0.2274608612060547,1.0185836553573608,-0.3108090460300445,-0.5232896208763123,-0.2953600883483886,-0.460970014333725,0.0,0.0,0.6393905878067017,-0.1637570261955261
-0.2307185232639312,1.0071288347244265,-0.3038468658924103,-0.5137148499488831,-0.3180511891841888,-0.4538228511810303,0.0,0.0,0.3937280178070068,-0.0752367377281189
-0.2337641268968582,0.9963548183441162,-0.2832549214363098,-0.4836875200271606,-0.3402677774429321,-0.4443317949771881,0.0,0.0,-0.4093791842460632,-0.6761669516563416
-0.2368393391370773,0.9853333234786988,-0.288008451461792,-0.4945893287658691,-0.3607646226882934,-0.4099371433258056,0.0,0.0,0.6314098834991455,0.3498692512512207
-0.2397181987762451,0.9752256274223328,-0.2685270011425018,-0.4542366862297058,-0.3812579810619354,-0.4098671078681946,0.0,0.0,0.5815269947052002,-0.8693744540214539
-0.2426555156707763,0.9653882384300232,-0.2765050232410431,-0.4419277012348175,-0.3996380567550659,-0.3676015138626098,0.0,0.0,0.4661993980407715,-0.6881124973297119
-0.2453113049268722,0.9562551379203796,-0.2503679096698761,-0.4102882444858551,-0.4159929752349853,-0.3270981013774872,0.0,0.0,0.591954231262207,-0.5567204356193542
-0.2478563338518142,0.9476928114891052,-0.2407066076993942,-0.3846840262413025,-0.4309229254722595,-0.2985981702804565,0.0,0.0,0.6461167335510254,-0.4728289842605591
-0.2501437664031982,0.93980473279953,-0.2152947932481765,-0.354782372713089,-0.4455746710300445,-0.2930352985858917,0.0,0.0,0.7818255424499512,-0.5060639381408691
-0.2521259784698486,0.9326927661895752,-0.1862858831882476,-0.3199365735054016,-0.4586717784404754,-0.2619423270225525,0.0,0.0,0.8052151203155518,-0.7719254493713379
-0.253758043050766,0.926125466823578,-0.1534743458032608,-0.2951237559318542,-0.4694103300571441,-0.2147709876298904,0.0,0.0,0.8807663917541504,-0.8018060326576233
-0.2552143931388855,0.9198126196861268,-0.1379967033863067,-0.2831798493862152,-0.477881371974945,-0.1694211214780807,0.0,0.0,0.9886382818222046,-0.9031617045402528
-0.2563703060150146,0.9138206243515016,-0.1103708148002624,-0.2681256532669067,-0.4836993217468261,-0.1163584738969802,0.0,0.0,0.973124623298645,-0.9078521132469176
-0.2570658326148987,0.9083654880523682,-0.0668418109416961,-0.2434004843235016,-0.4867182075977325,-0.060377687215805,0.0,0.0,0.950780987739563,-0.9758893847465516
-0.2574151158332824,0.9031631350517272,-0.0347995236515998,-0.2312571853399276,-0.4868627786636352,-0.0028911367990076,0.0,0.0,0.8899216651916504,-0.9788103103637696
-0.2573951184749603,0.8988814949989319,-0.0002074577205348,-0.1895195543766021,-0.484399676322937,0.0492619685828685,0.0,0.0,-0.2239850163459777,-0.9548544883728028
-0.2573948800563812,0.8943721055984497,-0.0044015939347445,-0.1988731175661087,-0.4794709980487823,0.0985733270645141,0.0,0.0,-0.0262835621833801,-0.9324149489402772
-0.2574027180671692,0.8896226286888123,-0.0071155601181089,-0.2089099138975143,-0.472432017326355,0.1407796442508697,0.0,0.0,-0.1528418064117431,-0.8995984196662903
-0.2574218809604645,0.8846218585968018,-0.0101883914321661,-0.2194645702838897,-0.4632831811904907,0.1829765737056732,0.0,0.0,0.0942658185958862,-0.6644926071166992
-0.2573274075984955,0.8798508048057556,-0.0005907142767682,-0.2087383717298507,-0.4522317051887512,0.2210292518138885,0.0,0.0,0.3243155479431152,-0.881641149520874
-0.2568731307983398,0.8757352232933044,0.0330719165503978,-0.1789803653955459,-0.4387142062187195,0.2703501582145691,0.0,0.0,0.0598214864730834,-0.5614911317825317
-0.2562707364559173,0.8718728423118591,0.0462407134473323,-0.1673587262630462,-0.4234961271286011,0.3043617606163025,0.0,0.0,-0.4545815587043762,0.0118017196655273
-0.2556191086769104,0.8677302598953247,0.050548356026411,-0.179813414812088,-0.407722920179367,0.3154641389846802,0.0,0.0,-0.6578832864761353,0.2543238401412964
-0.2549172341823578,0.863307535648346,0.0549528412520885,-0.1922702193260193,-0.3913945257663727,0.326567143201828,0.0,0.0,-0.4495391249656677,-0.0413320660591125
-0.2541641592979431,0.858605146408081,0.0594468489289283,-0.204729214310646,-0.3745112121105194,0.3376663625240326,0.0,0.0,-0.8106589913368225,0.5589067935943604
-0.2533228397369385,0.853606104850769,0.0685806423425674,-0.2181930392980575,-0.358061134815216,0.329001247882843,0.0,0.0,-0.7906697392463684,0.5568784475326538
-0.252389907836914,0.8483036160469055,0.0781614407896995,-0.2319710105657577,-0.3421555459499359,0.3181125521659851,0.0,0.0,-0.4797987341880798,0.3994983434677124
-0.2514035701751709,0.8427217602729797,0.0828879326581955,-0.2444315254688263,-0.325696736574173,0.3291762769222259,0.0,0.0,-0.7135346531867981,0.3346787691116333
-0.2503630518913269,0.8368609547615051,0.0876792818307876,-0.2568943202495575,-0.308685839176178,0.3402184247970581,0.0,0.0,-0.7324944138526917,0.7699337005615234
-0.2491990625858307,0.830692708492279,0.1011928915977478,-0.2709885537624359,-0.2929638028144836,0.3144407868385315,0.0,0.0,-0.9214297533035278,0.6778321266174316
-0.2479248046875,0.8242141008377075,0.1130926460027694,-0.2851319909095764,-0.2782164216041565,0.2949474453926086,0.0,0.0,-0.8789891004562378,0.8171086311340332
-0.2465170919895172,0.8174285888671875,0.1278552412986755,-0.2991659939289093,-0.2649719715118408,0.2648888230323791,0.0,0.0,-0.9533358812332152,0.6039314270019531
-0.2450082749128341,0.8103500008583069,0.1385223567485809,-0.3124164342880249,-0.2523536682128906,0.2523663640022278,0.0,0.0,-0.9849448800086976,0.5859456062316895
-0.2433867007493972,0.8029764294624329,0.1506601870059967,-0.3257797062397003,-0.2406511455774307,0.2340506017208099,0.0,0.0,-0.9811863303184508,0.8378851413726807
-0.2416362762451172,0.7952960133552551,0.1648626625537872,-0.339722990989685,-0.2303132861852646,0.2067570984363556,0.0,0.0,-0.996487021446228,-0.2204087972640991
-0.2398290187120437,0.7873350977897644,0.169993445277214,-0.3521775305271148,-0.219437375664711,0.2175178080797195,0.0,0.0,-0.9975205063819884,0.5648188591003418
-0.2379158437252044,0.7790825963020325,0.1812567561864853,-0.3653140068054199,-0.2092746943235397,0.2032533437013626,0.0,0.0,-0.9971958994865416,-0.120117962360382
-0.2359452694654464,0.7705498933792114,0.1864516586065292,-0.3777693808078766,-0.1985806375741958,0.2138808518648147,0.0,0.0,-0.975049078464508,-0.1042391061782836
-0.2339169532060623,0.761737048625946,0.1916743218898773,-0.3902261853218078,-0.1873590499162674,0.2244313210248947,0.0,0.0,-0.997319519519806,-0.2105655670166015
-0.2318306863307953,0.7526443004608154,0.1969223767518997,-0.4026845395565033,-0.1756141930818557,0.2348974496126175,0.0,0.0,-0.990623652935028,0.3376069068908691
-0.2296863049268722,0.7432718873023987,0.2021936476230621,-0.4151444435119629,-0.1633506417274475,0.2452714443206787,0.0,0.0,-0.995229423046112,0.5247213840484619
-0.2274410277605056,0.7336086630821228,0.2128396332263946,-0.4282378256320953,-0.1516700685024261,0.2336118966341018,0.0,0.0,-0.985869526863098,0.1072688102722168
-0.225137323141098,0.7236658930778503,0.2181520015001297,-0.4406988322734833,-0.1394811868667602,0.2437779456377029,0.0,0.0,-0.9898807406425476,-0.5751478672027588
-0.222812607884407,0.7134546041488647,0.2187648117542266,-0.4526050686836242,-0.1258250921964645,0.2731218039989471,0.0,0.0,-0.995611608028412,0.8417191505432129
-0.2203596532344818,0.7029594779014587,0.2328159362077713,-0.46544349193573,-0.1134201437234878,0.2480989396572113,0.0,0.0,-0.9938730597496032,0.6031217575073242
