x_pos,y_pos,x_vel,y_vel,angle,ang_vel,leg_1,leg_2,main_booster,lat_booster
-0.001621150993742,1.403172254562378,-0.1640607118606567,-0.3443518579006195,0.0017392389709129,0.0343064591288566,0.0,0.0,0.0080759807324573,0.5682754054001408
-0.0032609938643872,1.3954148292541504,-0.1645106673240661,-0.3447745144367218,0.0022634111810475,0.0104852523654699,0.0,0.0,-0.5944756493454102,0.5110901993072379
-0.0049499510787427,1.3872010707855225,-0.1680613607168197,-0.3650582432746887,0.0014446104178205,-0.0163777358829975,0.0,0.0,0.4378854128255551,-0.6062918145483484
-0.0068983077071607,1.3791848421096802,-0.1948491036891937,-0.3562760353088379,0.0014512169873341,0.0001323834585491,0.0,0.0,-0.537041046009817,-0.5684610994427776
-0.0089800832793116,1.370718002319336,-0.2089554816484451,-0.3763077855110168,0.0022236325312405,0.0154495937749743,0.0,0.0,0.2420938630985867,-0.6530833178313276
-0.0110973361879587,1.3624106645584106,-0.2138967961072921,-0.3692203760147095,0.0043650232255458,0.0428317114710807,0.0,0.0,0.8830308989352664,0.9445481371906884
-0.0132699012756347,1.3546385765075684,-0.2173428237438202,-0.3454288840293884,0.004456128925085,0.0018223149236291,0.0,0.0,-0.7777817173159813,-0.8462566419198931
-0.0155905727297067,1.3464159965515137,-0.2333031147718429,-0.3654451072216034,0.0056791072711348,0.0244617126882076,0.0,0.0,0.8361350984826983,-0.6408714429665812
-0.018079375848174,1.3391427993774414,-0.2512317597866058,-0.3232616484165191,0.0079978238791227,0.0463785454630851,0.0,0.0,0.791250693299312,-0.6250498166206802
-0.0207226760685443,1.3326020240783691,-0.2677832245826721,-0.2907325625419616,0.0114149199798703,0.0683482140302658,0.0,0.0,-0.707449971434565,-0.6886831088251255
-0.0235103610903024,1.325608491897583,-0.2832622230052948,-0.3108612895011902,0.0158614050596952,0.0889376252889633,0.0,0.0,-0.1096866570159056,0.5565011744664317
-0.0263467784970998,1.3181631565093994,-0.2867455184459686,-0.33094522356987,0.0189326293766498,0.0614299103617668,0.0,0.0,-0.9938664290459128,-0.9250409329509464
-0.029337977990508,1.3102686405181885,-0.303532212972641,-0.3509277403354645,0.0232974253594875,0.0873037725687027,0.0,0.0,0.2324078272903313,-0.9486424073702264
-0.0324474349617958,1.3023102283477783,-0.3171338140964508,-0.353819727897644,0.0294242333620786,0.1225472912192344,0.0,0.0,-0.608682879978278,0.827689376763428
-0.0355736725032329,1.293911695480347,-0.3166239261627197,-0.3733491003513336,0.0333743803203105,0.0790101513266563,0.0,0.0,0.7938072988391449,-0.736806061591587
-0.0387361533939838,1.2855398654937744,-0.3218608796596527,-0.3722105026245117,0.038933053612709,0.111183226108551,0.0,0.0,-0.7647060903630978,-0.9763287374882506
-0.0420551300048828,1.2767242193222046,-0.3388685286045074,-0.3920064568519592,0.0458323433995246,0.1379984468221664,0.0,0.0,0.493798847776598,0.7779823910661814
-0.0452814102172851,1.267971754074097,-0.3281251490116119,-0.3891761004924774,0.0512734465301036,0.1088320985436439,0.0,0.0,0.1782064937915344,0.813918030779071
-0.048489760607481,1.2596434354782104,-0.3246029615402221,-0.3702827095985412,0.0550069250166416,0.0746763050556182,0.0,0.0,-0.7370097130985276,-0.9991389510018538
-0.0518832206726074,1.2508550882339478,-0.3452354073524475,-0.3908232152462005,0.0608388185501098,0.1166481599211692,0.0,0.0,-0.3171818580040251,0.5969914376637446
-0.0553153045475482,1.241624355316162,-0.3474849164485931,-0.4104398190975189,0.0650759860873222,0.0847507417201995,0.0,0.0,-0.6035216960001237,0.8005408374766136
-0.0587777122855186,1.231942892074585,-0.3487315773963928,-0.43039271235466,0.0675378292798996,0.0492412820458412,0.0,0.0,0.7939835460165077,-0.8560422620470414
-0.0622868537902832,1.2227017879486084,-0.3552510142326355,-0.4109172821044922,0.0718382224440574,0.0860154181718826,0.0,0.0,-0.1093563640886525,-0.987429663884243
-0.0659584030508995,1.2129900455474854,-0.3730848431587219,-0.4319283366203308,0.0777236893773078,0.1177195757627487,0.0,0.0,0.5457709614253874,0.7392996912065619
-0.0698581710457801,1.203718662261963,-0.3940013945102691,-0.4122811257839203,0.0817136019468307,0.0798055753111839,0.0,0.0,-0.7803505144003928,-0.9345280304761888
-0.0739414244890213,1.1939672231674194,-0.4145249724388122,-0.4337454736232757,0.0878626853227615,0.1229816824197769,0.0,0.0,-0.3743727865111883,0.8819207080693511
-0.0780469924211502,1.1837785243988037,-0.4148277342319488,-0.453087717294693,0.0920893624424934,0.0845332741737365,0.0,0.0,0.8291401856474812,-0.8411657446987217
-0.0825532898306846,1.1744800806045532,-0.456111192703247,-0.4136135280132293,0.0975320115685463,0.1088528037071228,0.0,0.0,-0.726123971331899,-0.9027077858330536
-0.0872369781136512,1.1647244691848757,-0.4759103655815124,-0.43409264087677,0.105009876191616,0.1495574712753296,0.0,0.0,0.5632334837070307,0.5257727033103361
-0.0920384377241134,1.1552064418792725,-0.4864122271537781,-0.4234765172004699,0.1112334430217742,0.1244714632630348,0.0,0.0,0.0185174560575267,-0.699352770733298
-0.0970289260149002,1.1460155248641968,-0.5065701007843018,-0.4090651571750641,0.118708536028862,0.1495018750429153,0.0,0.0,-0.551763117313385,0.9730663299560548
-0.102040097117424,1.1363790035247805,-0.506778359413147,-0.4287541210651397,0.1243450939655304,0.1127307638525962,0.0,0.0,-0.2041398882865905,0.9948984384536744
-0.107071116566658,1.126312017440796,-0.5068896412849426,-0.4477376639842987,0.1281145513057708,0.0753895491361618,0.0,0.0,-0.4368188381195068,0.9486545324325562
-0.1121199578046798,1.1157972812652588,-0.5068316459655762,-0.4674992561340332,0.1300462931394577,0.0386347733438015,0.0,0.0,-0.4127197265625,0.9976418018341064
-0.1171725243330001,1.1048475503921509,-0.5049935579299927,-0.4866261780261993,0.1297840625047683,-0.0052446252666413,0.0,0.0,0.0384672880172729,0.998870015144348
-0.1222775429487228,1.0941780805587769,-0.5080797076225281,-0.4739910364151001,0.1273706555366516,-0.0482682175934314,0.0,0.0,0.152942419052124,0.998998522758484
-0.1274463683366775,1.0835349559783936,-0.5123136639595032,-0.472648561000824,0.122823029756546,-0.0909525454044342,0.0,0.0,0.4028733968734741,0.9988144636154176
-0.1326585710048675,1.0734308958053589,-0.5145139694213867,-0.4485301971435547,0.1161591708660125,-0.1332773268222808,0.0,0.0,0.1887722015380859,0.9957181215286256
-0.1379738748073578,1.0637972354888916,-0.5226777791976929,-0.4274914860725403,0.1073618605732917,-0.1759463995695114,0.0,0.0,0.0400290489196777,0.9796208143234252
-0.1433069258928299,1.0543006658554075,-0.5223187208175659,-0.421328604221344,0.0964618250727653,-0.2180003821849823,0.0,0.0,-0.623868465423584,0.9914493560791016
-0.1486490219831466,1.0443707704544067,-0.5214287042617798,-0.4405471086502075,0.0837958380579948,-0.2533197402954101,0.0,0.0,-0.685006856918335,0.9760324954986572
-0.1539684236049652,1.0340007543563845,-0.5166536569595337,-0.4601052403450012,0.0686522871255874,-0.3028711080551147,0.0,0.0,-0.7896018028259277,0.9683837890625
-0.1592662781476974,1.023180365562439,-0.5120754241943359,-0.4801872074604034,0.0511389635503292,-0.3502667248249054,0.0,0.0,-0.6678289175033569,0.9942518472671508
-0.1645373404026031,1.011917233467102,-0.5069114565849304,-0.5000103116035461,0.0311899874359369,-0.3989800214767456,0.0,0.0,-0.7983580827713013,0.9906938076019288
-0.1697967499494552,1.000199556350708,-0.5037432312965393,,0.0092754429206252,-0.4382909834384918,0.0,0.0,-0.9001212120056152,0.9970710277557372
-0.1750294715166092,0.9880275130271912,-0.4987824559211731,-0.5409995913505554,-0.0149001143872737,-0.4835115075111389,0.0,0.0,-0.900103747844696,0.9759454727172852
-0.1802318543195724,0.975404679775238,-0.493472158908844,-0.5614916682243347,-0.041338711977005,-0.528772234916687,0.0,0.0,-0.9536115527153016,0.99495267868042
-0.1854209005832672,0.9623462557792664,-0.4904035925865173,-0.5813969373703003,-0.0695089772343635,-0.5634058713912964,0.0,0.0,-0.9352554678916932,0.859551191329956
-0.1906031668186187,0.9488489627838136,-0.4883329272270202,-0.6015352606773376,-0.0991330593824386,-0.5924819111824036,0.0,0.0,-0.8117576241493225,0.8468832969665527
-0.1957636773586273,0.9348997473716736,-0.4844706952571869,-0.622352659702301,-0.1305064857006073,-0.6274687051773071,0.0,0.0,-0.8328644633293152,0.6442270278930664
-0.2008991688489914,0.9204999804496764,-0.4803882241249084,-0.6432303190231323,-0.1635906994342804,-0.6616848707199097,0.0,0.0,-0.2815313339233398,0.8923752307891846
-0.2060035765171051,0.9056535363197328,-0.4757419228553772,-0.6640313267707825,-0.1984030306339264,-0.6962472200393677,0.0,0.0,-0.2706845998764038,0.3857762813568115
-0.2111353874206543,0.8903709650039673,-0.4786079823970794,-0.684232771396637,-0.2333287298679351,-0.6985147595405579,0.0,0.0,0.5824034214019775,-0.0495430827140808
-0.2161096632480621,0.8757664561271667,-0.4630444645881653,-0.6549252867698669,-0.2683521211147308,-0.7004680633544922,0.0,0.0,0.66508948802948,-0.3497622013092041
-0.2208256721496582,0.8613763451576233,-0.4381096363067627,-0.6460703611373901,-0.3027910888195038,-0.6887799501419067,0.0,0.0,0.6852457523345947,-0.921672821044922
-0.2255840748548507,0.8473144173622131,-0.444244921207428,-0.631901741027832,-0.3356201946735382,-0.656582772731781,0.0,0.0,0.5579476356506348,-0.9689496755599976
-0.2300763130187988,0.8338740468025208,-0.4198651909828186,-0.6044797897338867,-0.3664639890193939,-0.6168762445449829,0.0,0.0,0.8348729610443115,-0.9358301758766174
-0.2342103421688079,0.8209937214851379,-0.3863418698310852,-0.5796571969985962,-0.3952171206474304,-0.57506263256073,0.0,0.0,0.7393624782562256,-0.9697883129119872
-0.2379930466413498,0.8088729977607727,-0.353412389755249,-0.545840322971344,-0.42194265127182,-0.5345103740692139,0.0,0.0,0.848872184753418,-0.9650144577026368
-0.2415598928928375,0.7976245880126953,-0.3337407112121582,-0.5070067048072815,-0.4468961060047149,-0.4990690648555755,0.0,0.0,0.8381056785583496,-0.8044672608375549
-0.2449375689029693,0.7864829301834106,-0.3166199326515198,-0.5021247267723083,-0.4701607227325439,-0.4652924537658691,0.0,0.0,0.9368124008178712,-0.8320884108543396
-0.2480950355529785,0.7761304378509521,-0.2960956990718841,-0.4669281840324402,-0.4920265078544616,-0.4373156130313873,0.0,0.0,0.8950831890106201,-0.8332234621047974
-0.2508700489997864,0.7660502195358276,-0.259802371263504,-0.454472005367279,-0.5119419693946838,-0.3983087837696075,0.0,0.0,0.764726996421814,-0.98200523853302
-0.2533378005027771,0.7564154267311096,-0.2310406863689422,-0.434215635061264,-0.5298374891281128,-0.3579098880290985,0.0,0.0,0.6715755462646484,-0.993202269077301
-0.2556295394897461,0.7469029426574707,-0.2153446227312088,-0.4282635450363159,-0.5457185506820679,-0.3176218271255493,0.0,0.0,0.7081692218780518,-0.9860131740570068
-0.2577552795410156,0.7378970384597778,-0.2004739046096801,-0.4052310585975647,-0.5597475171089172,-0.2805797457695007,0.0,0.0,0.960700750350952,-0.9739463329315186
-0.2593366205692291,0.7297797203063965,-0.147893339395523,-0.3650971353054046,-0.571719765663147,-0.2394434511661529,0.0,0.0,0.8322293758392334,-0.9666630625724792
-0.260679543018341,0.7215903401374817,-0.1259154975414276,-0.3675939440727234,-0.5815847516059875,-0.1972995847463607,0.0,0.0,0.9802964925765992,-0.997704803943634
-0.2614417672157287,0.7142768502235413,-0.0696892887353897,-0.3279332220554352,-0.5893153548240662,-0.154612585902214,0.0,0.0,0.4203052520751953,-0.9805477261543274
-0.2620671391487121,0.7071568965911865,-0.0577064640820026,-0.3186095058917999,-0.5950663685798645,-0.1150199323892593,0.0,0.0,0.8864787817001343,-0.9986209869384766
-0.2623622417449951,0.7007127404212952,-0.0263002309948205,-0.2878632247447967,-0.5988914370536804,-0.0765009894967079,0.0,0.0,0.6631050109863281,-0.9099644422531128
-0.2622737884521484,0.6946249008178711,0.0104250190779566,-0.2712885439395904,-0.6007810831069946,-0.0377930663526058,0.0,0.0,-0.1593841314315796,-0.9597874283790588
-0.2621932625770569,0.688170850276947,0.0075783194042742,-0.2866279780864715,-0.6002090573310852,0.0114410147070884,0.0,0.0,0.1226682662963867,-0.9939976334571838
-0.2618402540683746,0.6817659139633179,0.0331085808575153,-0.283665269613266,-0.5975905656814575,0.0523693040013313,0.0,0.0,0.0293149948120117,-0.9926783442497252
-0.2613695561885834,0.6752917170524597,0.0431248284876346,-0.2859618961811065,-0.5928868055343628,0.0940748751163482,0.0,0.0,-0.5633556842803955,-0.997994303703308
-0.2608890533447265,0.6684150695800781,0.0425509959459304,-0.3031744062900543,-0.5863558650016785,0.1306189149618148,0.0,0.0,-0.0420379042625427,-0.9936591982841492
-0.2604066729545593,0.6611466407775879,0.0408728197216987,-0.3198089301586151,-0.5776517987251282,0.1740810573101043,0.0,0.0,-0.507316529750824,-0.927492380142212
-0.2599067091941833,0.653494119644165,0.0409033969044685,-0.3361977338790893,-0.5669724345207214,0.2135869562625885,0.0,0.0,-0.4844096899032593,-0.992701292037964
-0.2593817114830017,0.6454535126686096,0.0417925231158733,-0.35286945104599,-0.5544884204864502,0.2496798932552337,0.0,0.0,-0.5274134278297424,-0.959781527519226
-0.2588487267494201,0.6370413899421692,0.0404374450445175,-0.3686414659023285,-0.5396103262901306,0.2975615561008453,0.0,0.0,-0.5733570456504822,-0.7165073156356812
-0.2582946419715881,0.6282261610031128,0.040857445448637,-0.3860756456851959,-0.5229421854019165,0.3333626389503479,0.0,0.0,-0.4215207099914551,-0.4779524207115173
-0.2576571106910705,0.6189621686935425,0.0491072982549667,-0.4061973690986633,-0.5063223838806152,0.3323957920074463,0.0,0.0,-0.1662869453430175,-0.7151414752006531
-0.2569916248321533,0.6092970967292786,0.0502293221652507,-0.4236350059509277,-0.48798468708992,0.3667545914649963,0.0,0.0,-0.5339877605438232,-0.4744775891304016
-0.2562397420406341,0.5991840958595276,0.0587448664009571,-0.4437611699104309,-0.4696923494338989,0.3658466041088104,0.0,0.0,-0.3700765967369079,-0.6862123012542725
-0.255448043346405,0.5886637568473816,0.0612784810364246,-0.4616486728191376,-0.4499719440937042,0.3944085240364074,0.0,0.0,-0.231058120727539,0.0507264137268066
-0.2545676231384277,0.5776959657669067,0.0700169950723648,-0.4817790687084198,-0.4302946627140045,0.3935461044311523,0.0,0.0,-0.6253865957260132,-0.226304292678833
-0.2535975873470306,0.5662810206413269,0.0788544714450836,-0.5019094944000244,-0.410659521818161,0.3927025496959686,0.0,0.0,-0.3866843581199646,0.3604353666305542
-0.2525371015071869,0.5544185638427734,0.0877824202179908,-0.5220399498939514,-0.3910658061504364,0.3918744921684265,0.0,0.0,-0.5227822661399841,0.3236808776855469
-0.2513853907585144,0.5421088337898254,0.0967930704355239,-0.5421705842018127,-0.3715128898620605,0.3910585343837738,0.0,0.0,-0.5950937271118164,0.5491960048675537
-0.2500935196876526,0.5293188095092773,0.1120413541793823,-0.5641027092933655,-0.3533973693847656,0.3623104095458984,0.0,0.0,-0.4908649921417236,0.330146312713623
-0.2487092018127441,0.5160806179046631,0.1211989894509315,-0.5842291712760925,-0.335321843624115,0.3615104556083679,0.0,0.0,-0.5312745571136475,0.5008265972137451
-0.2471920549869537,0.5023773908615112,0.135443702340126,-0.6053439974784851,-0.3183591365814209,0.3392543792724609,0.0,0.0,-0.3814252018928528,0.0879158973693847
-0.2455815821886062,0.4882257878780365,0.1447232365608215,-0.6254674792289734,-0.3014363646507263,0.3384554982185364,0.0,0.0,-0.245328664779663,0.0427318811416626
-0.2438773214817047,0.4736256897449493,0.1540551334619522,-0.6455909013748169,-0.2845538258552551,0.3376506268978119,0.0,0.0,0.2800478935241699,0.4639966487884521
-0.242007166147232,0.4591622948646545,0.1707879155874252,-0.6397427320480347,-0.2679003477096557,0.3330692946910858,0.0,0.0,-0.0323790311813354,0.4488329887390136
-0.2400424480438232,0.4442502856254577,0.1802115142345428,-0.6598656177520752,-0.25128835439682,0.3322401046752929,0.0,0.0,0.012811541557312,0.4750852584838867
-0.2379098832607269,0.4294019341468811,0.1970318704843521,-0.6572334170341492,-0.2347848862409591,0.330069363117218,0.0,0.0,0.4089385271072387,-0.3335748314857483
-0.2356275022029876,0.4151315689086914,0.212478682398796,-0.631801426410675,-0.2188157737255096,0.3193822801113128,0.0,0.0,-0.1505565643310547,-0.065153419971466
-0.2332497090101242,0.4004124701023102,0.2220120429992675,-0.6519226431846619,-0.202891543507576,0.3184846043586731,0.0,0.0,0.6160106658935547,-0.5041478276252747
-0.2307214736938476,0.3863554894924164,0.2361848056316375,-0.6225613951683044,-0.1861500591039657,0.3348296284675598,0.0,0.0,0.1667726039886474,0.0749680995941162
-0.228056862950325,0.372645616531372,0.2500913441181183,-0.607352614402771,-0.1697271764278412,0.3284577429294586,0.0,0.0,-0.3215091824531555,-0.2856403589248657
-0.2252961695194244,0.3584871888160705,0.2597067654132843,-0.6274752020835876,-0.1533546894788742,0.3274497389793396,0.0,0.0,0.3091218471527099,-0.0921259522438049
-0.2224576920270919,0.3446076512336731,0.2679182887077331,-0.6153041124343872,-0.1374624073505401,0.3178454339504242,0.0,0.0,-0.2641888260841369,-0.2929751276969909
-0.2195228040218353,0.3302792310714721,0.2775772511959076,-0.635425329208374,-0.1216253042221069,0.3167420327663421,0.0,0.0,0.3988543748855591,0.0965152978897094
-0.2163286209106445,0.3163916766643524,0.3031239807605743,-0.6159744262695312,-0.1054314523935318,0.3238771557807922,0.0,0.0,0.277368426322937,-0.8175570368766785
-0.213018849492073,0.302476018667221,0.3130158483982086,-0.6173049807548523,-0.0876174643635749,0.3562796413898468,0.0,0.0,0.4483091831207275,-0.3320475816726684
-0.2094271630048751,0.2890951633453369,0.3406521677970886,-0.5937231779098511,-0.0692797750234603,0.3667538464069366,0.0,0.0,0.3049699068069458,-0.517942488193512
-0.2057564705610275,0.2761945724487304,0.3475948870182037,-0.5725686550140381,-0.0500218868255615,0.3851576745510101,0.0,0.0,-0.1361854076385498,-0.0767931938171386
-0.2019889801740646,0.2628467679023742,0.3573285937309265,-0.5926996469497681,-0.0308354273438453,0.3837292194366455,0.0,0.0,0.7971804141998291,-0.3186219930648803
-0.1980223655700683,0.2499931901693344,0.3769254982471466,-0.570979654788971,-0.0113405603915452,0.3898973166942596,0.0,0.0,0.8326669931411743,0.1992796659469604
-0.1939564645290374,0.2380509972572326,0.3869473040103912,-0.5307298302650452,0.0080378176644444,0.3875676095485687,0.0,0.0,0.4993754625320434,-0.3355085849761963
-0.1897446662187576,0.2267343550920486,0.4013847708702087,-0.5031841993331909,0.0275870040059089,0.3909838795661926,0.0,0.0,0.5092568397521973,-0.3848854303359985
-0.1853740662336349,0.215601697564125,0.417013019323349,-0.4952751398086548,0.0473883152008056,0.3960264027118683,0.0,0.0,0.7247598171234131,-0.1646170616149902
-0.1810648888349533,0.2049797922372818,0.4115753769874573,-0.4728072881698608,0.0665061920881271,0.3823577165603637,0.0,0.0,0.5931954383850098,0.1293658018112182
-0.1768157035112381,0.1946409046649933,0.4062852263450622,-0.4604395627975464,0.0849539190530777,0.3689547181129455,0.0,0.0,0.8966851234436035,-0.2348212003707885
-0.1725495308637619,0.1848181635141372,0.4082304835319519,-0.4377111494541168,0.1031845360994339,0.3646124005317688,0.0,0.0,0.3614284992218017,0.4863699674606323
-0.1682109832763672,0.1752066910266876,0.4155173897743225,-0.428547739982605,0.1214060932397842,0.3644310235977173,0.0,0.0,0.7093729972839355,0.2826024293899536
-0.1636870354413986,0.1657257676124572,0.4335822165012359,-0.4230128824710846,0.1401389837265014,0.3746580481529236,0.0,0.0,0.826052188873291,0.0677611827850341
-0.1590656340122223,0.1569422036409378,0.4429812431335449,-0.3922942280769348,0.1592509299516677,0.3822388648986816,0.0,0.0,0.6992731094360352,-0.0892364382743835
-0.1544544249773025,0.1489457935094833,0.442037969827652,-0.3575522601604461,0.1783572435379028,0.3821266293525696,0.0,0.0,0.5037555694580078,-0.2032437920570373
-0.1497406065464019,0.1409362107515335,0.452219545841217,-0.3583969473838806,0.1976008713245391,0.3848728239536285,0.0,0.0,0.383777379989624,-0.2479791641235351
