x_pos,y_pos,x_vel,y_vel,angle,ang_vel,leg_1,leg_2,main_booster,lat_booster
-0.0015245437389239,1.403528332710266,-0.1540760695934295,-0.3285210728645324,0.0014499615645036,0.0285784993320703,0.0,0.0,0.0345762155421722,-0.5732087433802437
-0.0030594826675951,1.3964940309524536,-0.1558307707309723,-0.3126330971717834,0.0037641385570168,0.0462887808680534,0.0,0.0,-0.0332290237018453,0.7196983386694424
-0.0045267106033861,1.3893585205078125,-0.1470419466495514,-0.3171414732933044,0.0040805460885167,0.0063288710080087,0.0,0.0,0.2933576291452278,0.5861233820965737
-0.0060533522628247,1.3827110528945925,-0.1513686180114746,-0.2954344749450683,0.0027942471206188,-0.0257286317646503,0.0,0.0,-0.9534270184014586,-0.7247939554569109
-0.0076267244294285,1.375969648361206,-0.1569885015487671,-0.2996194064617157,0.002443904755637,-0.0070071755908429,0.0,0.0,-0.1469987656818527,-0.7257527655527384
-0.0092466352507472,1.3691309690475464,-0.1625938266515731,-0.303943783044815,0.0030440529808402,0.0120041696354746,0.0,0.0,0.7227837254206257,-0.9398209550433816
-0.0109712602570652,1.3630990982055664,-0.1747931241989135,-0.2680934965610504,0.0053370562382042,0.0458646714687347,0.0,0.0,-0.8449125766530763,0.6211671882561669
-0.0126382829621434,1.3569732904434204,-0.1673769950866699,-0.272264152765274,0.0060048713348805,0.0133576765656471,0.0,0.0,0.0123793619088041,0.6788010428637966
-0.0142671586945652,1.3515281677246094,-0.1621369570493698,-0.2419950067996978,0.0052652927115559,-0.0147927943617105,0.0,0.0,0.1214922884663007,-0.8409440631068497
-0.0159697532653808,1.346731424331665,-0.1711746752262115,-0.2131964862346649,0.006170630455017,0.0181083064526319,0.0,0.0,-0.3472734689308854,0.6366669100598898
-0.0176198966801166,1.34183931350708,-0.1644884645938873,-0.2174205631017685,0.0056463456712663,-0.0104868086054921,0.0,0.0,-0.0731105549934469,0.8573661174908442
-0.0192001350224018,1.3368502855300903,-0.1556179970502853,-0.2217312008142471,0.0032719331793487,-0.0474927127361297,0.0,0.0,-0.377577820310603,0.5320413929484831
-0.0207354538142681,1.331768274307251,-0.1499199718236923,-0.2258674502372741,-0.0003034148539882,-0.0715136379003524,0.0,0.0,-0.1923496742065891,-0.7099795888629932
-0.0223273281008005,1.3265835046768188,-0.15694659948349,-0.2304318845272064,-0.002517641056329,-0.0442885085940361,0.0,0.0,-0.20084389605648,0.6950764843279715
-0.0238593108952045,1.3213098049163818,-0.1493799984455108,-0.234397605061531,-0.0062873940914869,-0.0754022300243377,0.0,0.0,-0.4358852080927289,-0.8868783579500896
-0.0254570953547954,1.3159301280975342,-0.1576022058725357,-0.2391023188829422,-0.0084386691451072,-0.043029312044382,0.0,0.0,0.7426623075772811,-0.5947150876142051
-0.0269475933164358,1.311813473701477,-0.1486918181180954,-0.1829650700092315,-0.0087892273440957,-0.0070115886628627,0.0,0.0,-0.8173472608703554,-0.6627609614061136
-0.028488541021943,1.3075953722000122,-0.1549969911575317,-0.1874676793813705,-0.0078979264944791,0.0178275201469659,0.0,0.0,-0.0758987305909084,0.9687247692209208
-0.029952049255371,1.3032894134521484,-0.1452641785144806,-0.1913855224847793,-0.008973111398518,-0.0215058121830225,0.0,0.0,-0.0132648764567406,0.8319191858199693
-0.0313711166381835,1.298885941505432,-0.1396629512310028,-0.1957170069217682,-0.0111836772412061,-0.0442153885960578,0.0,0.0,-0.4666817974674224,0.5893577535088179
-0.0327469818294048,1.2943899631500244,-0.1342491954565048,-0.1998495012521743,-0.0144911957904696,-0.0661565214395523,0.0,0.0,-0.371189658164617,-0.8101606936481447
-0.0342002883553504,1.289794683456421,-0.1439319401979446,-0.2042487263679504,-0.0158732160925865,-0.0276424176990985,0.0,0.0,0.4832392714136477,0.7122526311418148
-0.0354765877127647,1.2858309745788574,-0.1254064738750457,-0.1761880069971084,-0.0180636662989854,-0.043812770396471,0.0,0.0,-0.9839355115803344,0.5749404560167568
-0.0367188453674316,1.2817633152008057,-0.1211260184645652,-0.1808254420757293,-0.0211347863078117,-0.0614281073212623,0.0,0.0,0.7007636335005667,0.9019457928057386
-0.0380566604435443,1.2785987854003906,-0.1290290653705597,-0.1407237946987152,-0.0258366037160158,-0.0940447151660919,0.0,0.0,-0.9584752937810984,0.8934304623500413
-0.0393603332340717,1.2753193378448486,-0.1246866583824157,-0.1458583921194076,-0.0314463749527931,-0.1121953353285789,0.0,0.0,-0.7546187621141889,0.657674585039665
-0.0406319610774517,1.271945834159851,-0.1206150278449058,-0.1500840634107589,-0.0379143171012401,-0.1293586492538452,0.0,0.0,-0.5296932696266443,0.5877497814681361
-0.0418887138366699,1.2684807777404783,-0.1186803951859474,-0.1541993468999862,-0.0448201484978199,-0.1381168067455291,0.0,0.0,0.5125024038825552,-0.6897122669237736
-0.0433218963444232,1.266000509262085,-0.1379725933074951,-0.1104006916284561,-0.0501134991645813,-0.1058668941259384,0.0,0.0,-0.4416954171292913,0.560536146887582
-0.0447366721928119,1.2634190320968628,-0.1355452388525009,-0.1149428933858871,-0.0559721812605857,-0.1171735674142837,0.0,0.0,0.007592115715481,-0.8627969584507902
-0.0462020859122276,1.2615288496017456,-0.1428932249546051,-0.0841427370905876,-0.0595849528908729,-0.0722551345825195,0.0,0.0,-0.9736220240592957,-0.1123198270797729
-0.0476941093802452,0.0,-0.146106407046318,-0.0884099975228309,-0.0626552551984787,-0.0614058747887611,0.0,0.0,-0.9958927631378174,-0.6384517550468445
-0.0492712967097759,1.257470965385437,-0.1566292345523834,-0.0921098664402961,-0.0637225359678268,-0.0213456321507692,0.0,0.0,-0.970423698425293,-0.6242722868919373
-0.0509323105216026,1.2553025484085083,-0.1669862419366836,-0.0963363870978355,-0.0628470778465271,0.0175090264528989,0.0,0.0,-0.8711456656455994,-0.4420123696327209
-0.0526236519217491,1.2530378103256226,-0.1706159263849258,-0.1006022617220878,-0.0613894015550613,0.0291537456214427,0.0,0.0,-0.9306265115737916,-0.200960099697113
-0.0543467514216899,0.0,-0.1743815392255783,-0.1048682555556297,-0.0593378245830535,0.0410314053297042,0.0,0.0,-0.993240237236023,-0.0112198591232299
-0.0561026558279991,1.2482185363769531,-0.1782812625169754,-0.1091344729065895,-0.0566814690828323,0.0531270615756511,0.0,0.0,-0.9915806651115416,0.2337502241134643
-0.0578927025198936,1.245664358139038,-0.1823129951953888,-0.1134010106325149,-0.0534101501107215,0.0654265433549881,0.0,0.0,-0.9860532879829408,0.7233837842941284
-0.059664249420166,1.2430174350738523,-0.179741695523262,-0.1175502389669418,-0.050858337432146,0.0510362572968006,0.0,0.0,-0.9875016808509828,0.2321559190750122
-0.0614723190665245,1.24027419090271,-0.1840303242206573,-0.1218169555068016,-0.0476731620728969,0.0637034326791763,0.0,0.0,-0.9825072288513184,0.431717038154602
-0.063318058848381,1.2374347448349,-0.1884434670209884,-0.1260841190814972,-0.0438463874161243,0.0765357241034507,0.0,0.0,-0.9869422316551208,0.5339713096618652
-0.0651516914367675,1.2344943284988403,-0.1865990310907364,-0.1305921375751495,-0.0406506173312664,0.0639152750372886,0.0,0.0,-0.9922894835472108,0.889560341835022
-0.0669437423348426,1.231442928314209,-0.1810293048620224,-0.1355743408203125,-0.0388551242649555,0.0359097532927989,0.0,0.0,-0.9820830821990968,-0.0879691839218139
-0.0687768012285232,1.228295087814331,-0.1857983767986297,-0.1398413330316543,-0.0363966412842273,0.0491696335375309,0.0,0.0,-0.9874119758605956,0.6420713663101196
-0.0706048011779785,1.2250407934188845,-0.1847567856311798,-0.1445910632610321,-0.0344611257314682,0.0387102887034416,0.0,0.0,-0.9984171390533448,-0.3157253265380859
-0.0724758133292198,1.22169029712677,-0.1897471994161605,-0.1488583236932754,-0.031850941479206,0.0522038266062736,0.0,0.0,-0.9997391700744628,0.643974781036377
-0.074334904551506,1.218237042427063,-0.1878119260072708,-0.1534319967031479,-0.0299720149487257,0.0375781841576099,0.0,0.0,-0.9635645747184752,0.0645598173141479
-0.0762391090393066,1.2146878242492676,-0.1930100321769714,-0.1576994806528091,-0.0274085830897092,0.0512685887515544,0.0,0.0,-0.9956790804862976,0.5159516334533691
-0.07815732806921,1.2110453844070437,-0.1943052411079406,-0.1618379652500152,-0.0249560419470071,0.0490506626665592,0.0,0.0,-0.998432159423828,0.7823688983917236
-0.0800626724958419,1.2073023319244385,-0.1922071874141693,-0.1663308590650558,-0.0233124215155839,0.0328725799918174,0.0,0.0,-0.9988200068473816,0.7507727146148682
-0.0819423645734787,1.2034600973129272,-0.1884622275829315,-0.1707510352134704,-0.022821495309472,0.0098183890804648,0.0,0.0,-0.9992795586586,0.8438512086868286
-0.0838102325797081,1.1995253562927246,-0.186448186635971,-0.1748836934566497,-0.023148663341999,-0.0065437220036983,0.0,0.0,-0.995585024356842,0.5862905979156494
-0.0856726616621017,0.0,-0.185231328010559,-0.1794024258852005,-0.0241518188267946,-0.0200628601014614,0.0,0.0,-0.9924011826515198,0.7754886150360107
-0.0875236541032791,1.191361665725708,-0.1832160055637359,-0.1834766417741775,-0.0260004475712776,-0.0369729660451412,0.0,0.0,-0.9989596605300904,-0.4238127470016479
-0.0894254669547081,1.1871378421783447,-0.1890281736850738,-0.1877443045377731,-0.0271425899118185,-0.0228428523987531,0.0,0.0,-0.9998739361763,0.2511340379714966
-0.0913789719343185,1.1828176975250244,-0.1949135959148407,-0.1920116692781448,-0.0275764986872673,-0.008678083308041,0.0,0.0,-0.9997459650039672,0.7553181648254395
-0.0933156013488769,1.1784052848815918,-0.1921881288290023,-0.196129634976387,-0.0290369410067796,-0.0292087011039257,0.0,0.0,-0.9928927421569824,0.7043552398681641
-0.0952367782592773,1.173896551132202,-0.1896105706691742,-0.2004362046718597,-0.0315083675086498,-0.0494285225868225,0.0,0.0,-0.9811963438987732,0.4960247278213501
-0.0972114577889442,0.0,-0.1956945359706878,-0.2047037333250045,-0.0332682467997074,-0.0351976975798606,0.0,0.0,-0.9829548001289368,0.8174536228179932
-0.0991837531328201,1.1645948886871338,-0.1947351396083831,-0.2088111340999603,-0.035735685378313,-0.0493485853075981,0.0,0.0,-0.9914994835853576,0.5650019645690918
-0.1011625304818153,1.1597940921783447,-0.1948623359203338,-0.2134412229061126,-0.0387109965085983,-0.0595064051449298,0.0,0.0,-0.9864481687545776,0.5842857360839844
-0.1031579971313476,1.1548978090286257,-0.1962737143039703,-0.2176984995603561,-0.0419426150619983,-0.0646324902772903,0.0,0.0,-0.989066481590271,-0.4440116286277771
-0.1052092537283897,1.1499053239822388,-0.2025742083787918,-0.2219657748937606,-0.0444625578820705,-0.0503985993564128,0.0,0.0,-0.9915948510169984,0.6237913370132446
-0.1072653755545616,1.144813895225525,-0.202487513422966,-0.2263821065425872,-0.0475610420107841,-0.061969481408596,0.0,0.0,-0.995101511478424,0.5842182636260986
-0.1093317046761512,1.1396185159683228,-0.2030201256275177,-0.2310271710157394,-0.0511278100311756,-0.0713353753089904,0.0,0.0,-0.9936330318450928,-0.3748688697814941
-0.1114550605416297,1.134326457977295,-0.2094484269618988,-0.2352940589189529,-0.0539858676493167,-0.0571610704064369,0.0,0.0,-0.984097182750702,-0.5561254024505615
-0.1136780753731727,1.128948211669922,-0.2212070673704147,-0.2390810549259185,-0.055068302899599,-0.0216487105935812,0.0,0.0,-0.9333047866821288,0.9976773262023926
-0.1158698052167892,1.1234540939331057,-0.2165081202983856,-0.2442886680364608,-0.0577040016651153,-0.052714318037033,0.0,0.0,-0.987980842590332,0.6323976516723633
-0.1180672645568847,1.117866039276123,-0.2164572030305862,-0.2484822273254394,-0.0609503127634525,-0.0649259909987449,0.0,0.0,-0.9781758785247804,0.7469074726104736
-0.1202734932303428,1.1121737957000732,-0.2167790234088897,-0.2531470656394958,-0.0647511109709739,-0.0760161131620407,0.0,0.0,-0.8486750721931458,-0.1072325110435485
-0.1225383728742599,1.1063849925994873,-0.2233579158782959,-0.2574133574962616,-0.067854069173336,-0.0620592050254344,0.0,0.0,-0.9928826093673706,0.995508909225464
-0.1247796043753624,1.1004934310913086,-0.2195827662944793,-0.2620657384395599,-0.0723451450467109,-0.0898212939500808,0.0,0.0,-0.963698148727417,-0.1920193433761596
-0.1270800530910492,1.0945053100585938,-0.2262007296085357,-0.2663320899009704,-0.0761448442935943,-0.075994111597538,0.0,0.0,-0.9762027859687804,0.6656937599182129
-0.1293808966875076,1.0884138345718384,-0.2254382073879242,-0.2709739804267883,-0.0807444974780082,-0.091993048787117,0.0,0.0,-0.9883760213851928,0.8754401206970215
-0.1316764801740646,1.082211136817932,-0.2239401340484619,-0.2759841382503509,-0.0863087773323059,-0.1112856641411781,0.0,0.0,-0.9781569242477416,0.3970274925231933
-0.1340317726135254,1.0759119987487793,-0.2305945605039596,-0.2802506983280182,-0.0911938399076461,-0.0977011397480964,0.0,0.0,-0.9548725485801696,0.9187872409820556
-0.1363787651062011,1.069498062133789,-0.2287012040615081,-0.2854469716548919,-0.0971423834562301,-0.1189710050821304,0.0,0.0,-0.847135066986084,0.0892263650894165
-0.138785645365715,1.0629873275756836,-0.2353649884462356,-0.2897133231163025,-0.1024214699864387,-0.1055817753076553,0.0,0.0,-0.8180222511291504,-0.6054728031158447
-0.1412933319807052,1.0563925504684448,-0.2471735477447509,-0.2933562397956848,-0.1059874817728996,-0.0713200196623802,0.0,0.0,-0.9987035989761353,-0.6164664030075073
-0.1439180374145507,1.0497159957885742,-0.2610121369361877,-0.2968343496322632,-0.1074342727661132,-0.0289359055459499,0.0,0.0,-0.9763116836547852,0.7491168975830078
-0.1465570479631424,1.0429275035858154,-0.2619144320487976,-0.3018566071987152,-0.1094050258398056,-0.0394150353968143,0.0,0.0,-0.5926458239555359,-0.2239667773246765
-0.1492560356855392,1.036042094230652,-0.2685596346855163,-0.3061199188232422,-0.1107300445437431,-0.0265004523098468,0.0,0.0,-0.991605281829834,0.1818170547485351
-0.152014821767807,1.029059648513794,-0.2751924395561218,-0.3103830516338348,-0.1114161759614944,-0.0137226032093167,0.0,0.0,-0.7163788080215454,0.9863790273666382
-0.1547626554965973,1.021972417831421,-0.2729302942752838,-0.315122902393341,-0.1132577583193779,-0.0368316620588302,0.0,0.0,-0.1071211099624633,0.933749794960022
-0.1574978828430175,1.0147807598114014,-0.2704619765281677,-0.3198604583740234,-0.1162994503974914,-0.0608339980244636,0.0,0.0,-0.6028813719749451,0.158831238746643
-0.1602926254272461,1.0074925422668457,-0.2770371437072754,-0.3241241574287414,-0.1187250614166259,-0.0485121570527553,0.0,0.0,-0.3505963087081909,0.1322265863418579
-0.1631467789411544,1.0001070499420166,-0.2835858762264251,-0.3283874690532684,-0.1205429658293724,-0.0363580211997032,0.0,0.0,-0.7933992147445679,0.254518985748291
-0.1660601645708084,0.9926246404647828,-0.2901045083999634,-0.3326506018638611,-0.1217619106173515,-0.0243794023990631,0.0,0.0,-0.7764431238174438,0.9916906356811525
-0.1689354926347732,0.985027313232422,-0.2844277024269104,-0.337917685508728,-0.1248546838760376,-0.0618552640080452,0.0,0.0,-0.8784258961677551,0.9437668323516846
-0.1717788726091385,0.9773088693618774,-0.2794821262359619,-0.3434588015079498,-0.1296911835670471,-0.096729852259159,0.0,0.0,-0.7714557647705078,0.9695050716400146
-0.1746046096086502,0.9694859385490416,-0.2763688266277313,-0.3482345342636108,-0.135872483253479,-0.1236259341239929,0.0,0.0,-0.0701122879981994,0.5421016216278076
-0.1774432212114334,0.9615615010261536,-0.2770819962024688,-0.3528302013874054,-0.1426309049129486,-0.1351683139801025,0.0,0.0,-0.5790992975234985,0.9551806449890136
-0.1802488267421722,0.9535250067710876,-0.2720237076282501,-0.3580233156681061,-0.1511430144309997,-0.1702423691749572,0.0,0.0,0.2157773971557617,0.5988011360168457
-0.1829479187726974,0.9457131624221802,-0.260863333940506,-0.3481432199478149,-0.1601759195327758,-0.1806580573320388,0.0,0.0,-0.5569002032279968,0.4876574277877807
-0.1857035607099533,0.937804877758026,-0.2670538425445556,-0.3524118363857269,-0.1686826050281524,-0.170133575797081,0.0,0.0,-0.1496248245239257,0.6567709445953369
-0.1884558647871017,0.929793417453766,-0.2657563686370849,-0.3571680188179016,-0.1781710535287857,-0.1897695511579513,0.0,0.0,-0.4236997961997986,0.7928975820541382
-0.191204160451889,0.9216698408126832,-0.2643617391586303,-0.3623434007167816,-0.1886861473321914,-0.2103016376495361,0.0,0.0,-0.0329406261444091,0.9543182849884032
-0.1939473152160644,0.9134422540664672,-0.2628419101238251,-0.3671733140945434,-0.2002259045839309,-0.230795532464981,0.0,0.0,-0.380014419555664,0.2405885457992553
-0.1967443525791168,0.9051189422607422,-0.2687336504459381,-0.3714452385902405,-0.2112896144390106,-0.2212743759155273,0.0,0.0,-0.7272400856018066,0.7716726064682007
-0.1995394676923751,0.8966881036758423,-0.2676290869712829,-0.3764495551586151,-0.2233010083436966,-0.2402277886867523,0.0,0.0,0.0574895143508911,-0.474864661693573
-0.2023323476314544,0.8888803720474243,-0.2676405310630798,-0.3488180935382843,-0.2351084947586059,-0.2361501008272171,0.0,0.0,-0.3051729202270508,0.7653377056121826
-0.2051207572221756,0.8809544444084167,-0.266192615032196,-0.3543319404125213,-0.247963398694992,-0.2570981085300445,0.0,0.0,-0.8184220790863037,0.7203502655029297
-0.2079150229692459,0.8729172945022583,-0.2660776972770691,-0.3595184981822967,-0.2615707516670227,-0.2721464335918426,0.0,0.0,-0.2596901655197143,0.8765126466751099
-0.2107087671756744,0.8647632002830505,-0.2651734054088592,-0.3650044500827789,-0.2761048078536987,-0.2906808257102966,0.0,0.0,-0.5878616571426392,0.8935329914093018
-0.2134697884321212,0.8564860224723816,-0.2602798342704773,-0.3709525167942047,-0.2923735380172729,-0.3253749012947082,0.0,0.0,-0.0622609853744506,0.2632869482040405
-0.2162775993347168,0.8481144905090332,-0.2653911709785461,-0.3752335906028747,-0.3082665503025055,-0.3178611397743225,0.0,0.0,-0.1328641772270202,0.5851540565490723
-0.2190752476453781,0.8396272659301758,-0.2633917927742004,-0.3807801008224487,-0.3252736628055572,-0.3401422500610351,0.0,0.0,-0.5835281014442444,0.9497568607330322
-0.2218469083309173,0.8310194611549377,-0.2594360113143921,-0.3866639733314514,-0.3437933623790741,-0.3703946471214294,0.0,0.0,0.4250489473342895,0.375423789024353
-0.2242964804172516,0.8232967257499695,-0.2281998693943023,-0.3473258912563324,-0.3614146709442138,-0.3524259626865387,0.0,0.0,0.0205553770065307,0.188138723373413
-0.2266160994768142,0.8159579038619995,-0.2158165723085403,-0.3303419053554535,-0.3785047531127929,-0.3418017327785492,0.0,0.0,0.2810019254684448,0.0115755796432495
-0.2287460267543792,0.8094104528427124,-0.19721220433712,-0.2952767312526703,-0.3953234553337097,-0.3363738656044006,0.0,0.0,0.8441288471221924,-0.4068343043327331
-0.2305122911930084,0.8039466142654419,-0.1615011394023895,-0.247130200266838,-0.4115476608276367,-0.32448410987854,0.0,0.0,0.972720503807068,-0.8127461671829224
-0.2320586144924163,0.7991124987602234,-0.1416143476963043,-0.2187065184116363,-0.4256078600883484,-0.2812037169933319,0.0,0.0,0.9907145500183104,-0.1987684965133667
-0.2334651947021484,0.795292317867279,-0.1273266822099685,-0.1738789081573486,-0.4401006400585174,-0.2898557186126709,0.0,0.0,0.9881689548492432,-0.3826797008514404
-0.2347791194915771,0.7923169732093811,-0.1177099496126174,-0.1366120725870132,-0.4550747275352478,-0.2994820475578308,0.0,0.0,0.958986759185791,-0.8422510623931885
-0.2359128892421722,0.7902083992958069,-0.1015397906303405,-0.0976287573575973,-0.4681269228458404,-0.2610438466072082,0.0,0.0,0.8782522678375244,-0.5839012861251831
-0.2368132174015045,0.7888249754905701,-0.0796229168772697,-0.0650407820940017,-0.4796717464923858,-0.2308965921401977,0.0,0.0,0.8030333518981934,-0.5695538520812988
-0.237463429570198,0.7877886891365051,-0.0562641508877277,-0.0491229407489299,-0.489442229270935,-0.1954096257686615,0.0,0.0,0.7694411277770996,-0.9296666383743286
-0.2377521097660064,0.7875988483428955,-0.0222015567123889,-0.0108305253088474,-0.496913194656372,-0.1494190245866775,0.0,0.0,-0.1666644811630249,-0.6779896020889282
-0.238103300333023,0.7873542308807373,-0.029836256057024,-0.0127890771254897,-0.5028493404388428,-0.1187226623296737,0.0,0.0,-0.1236095428466796,-0.792932391166687
