x_pos,y_pos,x_vel,y_vel,angle,ang_vel,leg_1,leg_2,main_booster,lat_booster
-0.0015186310047283,1.4030201435089111,-0.1540354192256927,-0.3511016964912414,0.0019489303231239,0.0384583547711372,0.0,0.0,-0.1127880811691284,0.7754334211349487
-0.0029658316634595,1.394535779953003,-0.1451504826545715,-0.3770824670791626,0.002369375899434,0.0084103066474199,0.0,0.0,0.017436146736145,0.7882776260375977
-0.0042502405121922,1.385814905166626,-0.127522736787796,-0.3875981569290161,0.0014723633648827,-0.0179419871419668,0.0,0.0,-0.0989421606063842,0.5170295238494873
-0.0054960250854492,1.3764880895614624,-0.1230391412973404,-0.4145268499851227,-4.874218575423584e-05,-0.0304251313209533,0.0,0.0,-0.0406084656715393,0.2776939868927002
-0.0067357062362134,1.366557002067566,-0.1226315647363662,-0.4413765370845794,-0.0013677187962457,-0.0263822171837091,0.0,0.0,0.2941954135894775,0.4928536415100097
-0.0078609464690089,1.3566598892211914,-0.1119177341461181,-0.4398745596408844,-0.001965926028788,-0.0119649888947606,0.0,0.0,-0.1928337812423706,0.4290727376937866
-0.0089797023683786,1.346158504486084,-0.1114812865853309,-0.4667308926582336,-0.0023527117446064,-0.0077367918565869,0.0,0.0,0.2077887058258056,0.72193443775177
-0.0099103925749659,1.3357638120651243,-0.091623917222023,-0.4619854092597961,-0.0037858285941183,-0.0286650154739618,0.0,0.0,-0.3753429055213928,-0.5166261196136475
-0.0108757019042968,1.3247709274291992,-0.0963580980896949,-0.4885797500610351,-0.0039539937861263,-0.0033639450557529,0.0,0.0,-0.665678858757019,0.0668013095855712
-0.0118338586762547,1.313173770904541,-0.0958772152662277,-0.5154281854629517,-0.0038980499375611,0.0011191213270649,0.0,0.0,0.0937405824661254,-0.0311429500579834
-0.0127262119203805,1.3015623092651367,-0.0897938460111618,-0.5160570740699768,-0.0033426543232053,0.011108816601336,0.0,0.0,-0.7932347655296326,0.0988578796386718
-0.0136110307648777,1.289346694946289,-0.089286208152771,-0.5429127812385559,-0.0025552306324243,0.0157500021159648,0.0,0.0,-0.291505217552185,-0.316661536693573
-0.0144884111359715,1.2765270471572876,-0.0887653157114982,-0.5697633028030396,-0.0015320230741053,0.0204659458249807,0.0,0.0,-0.3932427167892456,-0.2410827875137329
-0.0153579711914062,1.2631032466888428,-0.0882318988442421,-0.5966132879257202,-0.0002699164615478,0.0252445135265588,0.0,0.0,0.0512561798095703,0.0299910306930542
-0.0161295887082815,1.2498621940612793,-0.0791213512420654,-0.5884959101676941,0.0016569721046835,0.0385413989424705,0.0,0.0,-0.4348659515380859,-0.3138173818588257
-0.016893196851015,1.2360167503356934,-0.0785655528306961,-0.6153545379638672,0.0038282466121017,0.0434294678270816,0.0,0.0,-0.3711930513381958,-0.4838714599609375
-0.017648696899414,1.2215673923492432,-0.0779983401298523,-0.6422048807144165,0.0062470939010381,0.0483811572194099,0.0,0.0,-0.5318307280540466,-0.01979660987854
-0.0183959957212209,1.2065140008926392,-0.0774206072092056,-0.6690554022789001,0.0089158145710825,0.0533794946968555,0.0,0.0,-0.2549189925193786,0.3442950248718261
-0.0191348083317279,1.1908564567565918,-0.0768326595425605,-0.6959077715873718,0.011836739256978,0.0584236569702625,0.0,0.0,-0.6919902563095093,0.0859807729721069
-0.0198650360107421,1.1745951175689695,-0.076235182583332,-0.7227602601051331,0.0150120100006461,0.0635110884904861,0.0,0.0,-0.3398473262786865,0.3049814701080322
-0.0205866806209087,1.1577296257019043,-0.0756287574768066,-0.7496130466461182,0.0184436701238155,0.0686390027403831,0.0,0.0,-0.1352216005325317,0.763084888458252
-0.0212378501892089,1.1402575969696045,-0.0672948136925697,-0.7765636444091797,0.0205881148576736,0.0428929403424263,0.0,0.0,0.548283576965332,0.4146389961242676
-0.0217691417783498,1.122950553894043,-0.0561258569359779,-0.7692477107048035,0.0235591679811477,0.0594264045357704,0.0,0.0,-0.0062928199768066,0.6164450645446777
-0.0222368240356445,1.105034351348877,-0.0486580282449722,-0.796303927898407,0.0254241190850734,0.0373023226857185,0.0,0.0,0.4416229724884033,0.4416046142578125
-0.0228335373103618,1.0873515605926514,-0.0612504668533802,-0.7859267592430115,0.0269788298755884,0.0310968942940235,0.0,0.0,0.7259771823883057,0.2821080684661865
-0.0235927589237689,1.07014000415802,-0.0770512372255325,-0.764977753162384,0.0280943047255277,0.022309586405754,0.0,0.0,0.7724130153656006,0.0279411077499389
-0.0243603698909282,1.0534931421279907,-0.0781866908073425,-0.7398853302001953,0.0294953342527151,0.0280207097530365,0.0,0.0,0.5713051557540894,0.1588213443756103
-0.0252660755068063,1.0374135971069336,-0.0916734188795089,-0.7146636843681335,0.0305893383920192,0.0218800418078899,0.0,0.0,-0.4280452728271484,0.3652495145797729
-0.0261622425168752,1.0207302570343018,-0.0910015776753425,-0.7415141463279724,0.0319525226950645,0.0272636469453573,0.0,0.0,0.0705188512802124,0.5527424812316895
-0.0270303729921579,1.0039159059524536,-0.0873312428593635,-0.7473205327987671,0.0324621461331844,0.0101924780756235,0.0,0.0,0.6856775283813477,-0.127952754497528
-0.0278979297727346,0.987793505191803,-0.0876336023211479,-0.7165736556053162,0.0333313755691051,0.0173847116529941,0.0,0.0,-0.901786744594574,-0.187984824180603
-0.0287558548152446,0.9710671305656432,-0.0869506150484085,-0.7434240579605103,0.034472893923521,0.0228305589407682,0.0,0.0,0.4895979166030884,0.8366842269897461
-0.0296465866267681,0.954827070236206,-0.0886985287070274,-0.7217684388160706,0.0341060236096382,-0.0073376568034291,0.0,0.0,-0.9422813653945924,-0.3874312043190002
-0.0305276867002248,0.9379830956459044,-0.0880115777254104,-0.7486188411712646,0.0340131074190139,-0.0018583515193313,0.0,0.0,-0.1203232407569885,0.1216835975646972
-0.0313990600407123,0.920535147190094,-0.0873237252235412,-0.7754691243171692,0.034194890409708,0.0036355566699057,0.0,0.0,-0.7565759420394897,0.4134914875030517
-0.0322607979178428,0.9024831056594848,-0.0866357013583183,-0.8023195266723633,0.0346520245075225,0.0091426521539688,0.0,0.0,0.8331514596939087,0.7803647518157959
-0.0331003181636333,0.8845821022987366,-0.0830546170473098,-0.7955811023712158,0.0337661914527416,-0.0177164934575557,0.0,0.0,0.5586931705474854,-0.3697372674942016
-0.0339184775948524,0.8671556115150452,-0.0813695639371872,-0.7745051980018616,0.0333228930830955,-0.0088655902072787,0.0,0.0,-0.2235385179519653,0.4593251943588257
-0.0347269065678119,0.8491250276565552,-0.0806855708360672,-0.8013556003570557,0.0331565625965595,-0.0033265526872128,0.0,0.0,0.7789804935455322,-0.062260627746582
-0.035517118871212,0.8314732313156128,-0.0792733579874038,-0.7845296859741211,0.0334083177149295,0.0050351824611425,0.0,0.0,0.0234416723251342,0.3854633569717407
-0.0363799110054969,0.8139373064041138,-0.0865063741803169,-0.7793829441070557,0.0336317792534828,0.0044694235548377,0.0,0.0,0.44500732421875,0.9319579601287842
-0.0370517745614051,0.7964915037155151,-0.0659392029047012,-0.7753390073776245,0.0323990806937217,-0.0246537830680608,0.0,0.0,0.6301397085189819,-0.7333097457885742
-0.0376768112182617,0.7788999080657959,-0.0632266104221344,-0.7818657755851746,0.0331122986972332,0.0142643405124545,0.0,0.0,0.3793094158172607,0.093316912651062
-0.0382242202758789,0.7613701224327087,-0.0561285503208637,-0.7791358828544617,0.0344874002039432,0.0275019071996212,0.0,0.0,0.5441120862960815,0.7089087963104248
-0.0387572273612022,0.7436412572860718,-0.053461592644453,-0.7879539132118225,0.0346514321863651,0.0032804931979626,0.0,0.0,0.1325259208679199,0.6516335010528564
-0.0392016395926475,0.7256498336791992,-0.0436330810189247,-0.7996076941490173,0.0338455140590667,-0.016118187457323,0.0,0.0,0.4602880477905273,-0.1782557368278503
-0.0395964607596397,0.7076491713523865,-0.0391946844756603,-0.800024151802063,0.0335676968097686,-0.0055560264736413,0.0,0.0,0.7711949348449707,0.4934608936309814
-0.0401325225830078,0.6903784275054932,-0.0530425794422626,-0.7675740718841553,0.0330110974609851,-0.011131971143186,0.0,0.0,0.2259740829467773,0.6993025541305542
-0.0407342910766601,0.6733838319778442,-0.058335106819868,-0.7552689909934998,0.0311923120170831,-0.0363757275044918,0.0,0.0,-0.2663571834564209,0.7184655666351318
-0.0412723533809185,0.6557859778404236,-0.0508457347750663,-0.7820684909820557,0.0282733552157878,-0.0583794042468071,0.0,0.0,0.3184332847595215,0.6215896606445312
-0.0416392311453819,0.6382747888565063,-0.0329942516982555,-0.7782087922096252,0.0246313214302063,-0.0728408098220825,0.0,0.0,0.6797939538955688,-0.3561028242111206
-0.0420743934810161,0.6212807297706604,-0.0398365035653114,-0.755231499671936,0.0209963954985141,-0.0726984590291976,0.0,0.0,-0.1742850542068481,0.1556372642517089
-0.0425010696053504,0.6036828756332397,-0.0392730608582496,-0.7820826172828674,0.0176391564309597,-0.0671446993947029,0.0,0.0,0.6921024322509766,-0.0814123749732971
-0.0429306998848915,0.5867064595222473,-0.0398519188165664,-0.754472553730011,0.0145743386819958,-0.0612965747714042,0.0,0.0,0.8000047206878662,-0.3316739797592163
-0.0431975349783897,0.569926381111145,-0.0246221832931041,-0.7457627058029175,0.0125372931361198,-0.040740992873907,0.0,0.0,0.3697997331619262,0.6708743572235107
-0.0434958450496196,0.553124725818634,-0.0265422519296407,-0.7467190027236938,0.0092877419665455,-0.0649909302592277,0.0,0.0,0.7333898544311523,0.3243136405944824
-0.0436956398189067,0.5369746088981628,-0.017421580851078,-0.7177679538726807,0.0067701726220548,-0.0503512993454933,0.0,0.0,0.0354994535446167,0.4527736902236938
-0.0438042655587196,0.5208554863929749,-0.0089895892888307,-0.7164005637168884,0.0049277702346444,-0.0368482619524002,0.0,0.0,0.1996113061904907,0.6927425861358643
-0.0437925346195697,0.5050370097160339,0.0040697525255382,-0.7030366659164429,0.0020619039423763,-0.057317167520523,0.0,0.0,0.086841344833374,0.048241376876831
-0.0438249595463275,0.4893897175788879,-0.0003824904852081,-0.6954320669174194,-0.0007623195415362,-0.0564844384789466,0.0,0.0,0.6628942489624023,0.0160325765609741
-0.0437988266348838,0.4736974239349365,0.0049624764360487,-0.697436511516571,-0.0030757372733205,-0.0462684221565723,0.0,0.0,0.3830235004425049,-0.0222291350364685
-0.0438482277095317,0.458282321691513,-0.0024769161827862,-0.6851252913475037,-0.0055060973390936,-0.0486071743071079,0.0,0.0,0.8631240129470825,0.1587148904800415
-0.0437488555908203,0.4431366920471191,0.0114742210134863,-0.673143208026886,-0.007021945901215,-0.0303169582039117,0.0,0.0,0.9100420475006104,0.304315447807312
-0.0436112396419048,0.4284495711326599,0.0148957800120115,-0.652764081954956,-0.008142870850861,-0.0224183164536952,0.0,0.0,0.3013943433761596,0.3788210153579712
-0.0434592254459857,0.4136319756507873,0.0160372108221054,-0.6585673093795776,-0.0089677767828106,-0.0164980050176382,0.0,0.0,0.9102314710617064,0.10822594165802
-0.043438721448183,0.3992370963096618,0.0032763842027634,-0.6397802233695984,-0.0101888990029692,-0.0244222059845924,0.0,0.0,0.8395683765411377,0.7230269908905029
-0.0433203689754009,0.3856745660305023,0.0142044182866811,-0.60279780626297,-0.0125240748748183,-0.0467034801840782,0.0,0.0,0.3076647520065307,0.7138453722000122
-0.04306535795331,0.3718441724777221,0.0289365202188491,-0.6147152781486511,-0.0159098245203495,-0.0677151456475257,0.0,0.0,0.923530340194702,-0.7617925405502319
-0.042816162109375,0.3589099049568176,0.0264754053205251,-0.5748763680458069,-0.0174424201250076,-0.0306520517915487,0.0,0.0,0.2037431001663208,0.6047079563140869
-0.0425851829349994,0.3458868265151977,0.0257408507168293,-0.5788368582725525,-0.020049063488841,-0.052132599055767,0.0,0.0,0.8566120862960815,-0.1263894438743591
-0.0424384102225303,0.3334038853645324,0.0175344031304121,-0.5548369884490967,-0.0228775721043348,-0.0565699823200702,0.0,0.0,0.3846522569656372,0.0281113386154174
-0.0422508232295513,0.3210982084274292,0.0212489441037178,-0.5469605326652527,-0.0253339987248182,-0.0491286925971508,0.0,0.0,0.6275300979614258,-0.6707106828689575
-0.0422305092215538,0.309450626373291,0.0032239500433206,-0.5176900029182434,-0.0265077129006385,-0.0234743021428585,0.0,0.0,0.5847311019897461,0.2655297517776489
-0.0421225540339946,0.2980266213417053,0.0113967712968587,-0.5077433586120605,-0.0271087810397148,-0.0120213357731699,0.0,0.0,0.0142278671264648,0.218946099281311
-0.0420269966125488,0.2863593101501465,0.010024725459516,-0.5185568928718567,-0.0275624506175518,-0.0090735126286745,0.0,0.0,0.8147661685943604,-0.2631317377090454
-0.0418453216552734,0.2746200263500213,0.0180358383804559,-0.5217415690422058,-0.0274312794208526,0.0026231999509036,0.0,0.0,0.6840529441833496,-0.0079607367515563
-0.0416852943599224,0.2627967000007629,0.0157859269529581,-0.5254773497581482,-0.0272139739245176,0.0043462738394737,0.0,0.0,0.8815957307815552,0.6096481084823608
-0.0414618477225303,0.2517277002334595,0.0231448058038949,-0.4919718503952026,-0.028005376458168,-0.0158279314637184,0.0,0.0,0.7074220180511475,-0.5745354294776917
-0.0411711707711219,0.2413224279880523,0.0282432939857244,-0.4624382555484772,-0.0271970722824335,0.0161663331091403,0.0,0.0,0.0918494462966919,-0.069304883480072
-0.0409402847290039,0.2311259657144546,0.0223943442106246,-0.4531623721122741,-0.0265113748610019,0.013714088127017,0.0,0.0,0.2028385400772094,0.149957537651062
-0.0407979972660541,0.2206906676292419,0.0137641355395317,-0.4637818932533264,-0.0260466858744621,0.0092937592417001,0.0,0.0,0.3986961841583252,0.5956228971481323
-0.0405548103153705,0.2106567770242691,0.0247452687472105,-0.4459603726863861,-0.0264790151268243,-0.0086467815563082,0.0,0.0,0.272953987121582,-0.3637717962265014
-0.04037981107831,0.2006866037845611,0.0181049685925245,-0.4431269466876983,-0.0270706135779619,-0.0118319494649767,0.0,0.0,0.4703898429870605,0.183756947517395
-0.0402393341064453,0.1910188496112823,0.0146734891459345,-0.4296899735927582,-0.0276932027190923,-0.0124517437070608,0.0,0.0,0.5067734718322754,-0.4705879688262939
-0.0400948524475097,0.1817036420106887,0.0149438930675387,-0.4140200018882751,-0.0281792394816875,-0.0097206141799688,0.0,0.0,0.4666389226913452,-0.6714515686035156
-0.0399069786071777,0.172557383775711,0.0175787787884473,-0.4064770638942718,-0.0269863698631525,0.0238574352115392,0.0,0.0,0.1061048507690429,-0.8405293226242065
-0.0397647842764854,0.1631443351507187,0.0111430920660495,-0.4183048903942108,-0.0239449944347143,0.0608270764350891,0.0,0.0,0.5114715099334717,0.9134968519210817
-0.0394496917724609,0.1536669135093689,0.0299913976341485,-0.4211979210376739,-0.0224477145820856,0.0299454927444458,0.0,0.0,0.2829058170318603,-0.5694551467895508
-0.0390490517020225,0.1442474275827407,0.036988828331232,-0.418599009513855,-0.0194155257195234,0.0606439113616943,0.0,0.0,0.3006560802459717,-0.2659088373184204
-0.0385377891361713,0.1346864551305771,0.0474000163376331,-0.4248892068862915,-0.0157355163246393,0.0736000016331672,0.0,0.0,0.5480060577392578,-0.6285502910614014
-0.0380764007568359,0.1255832463502884,0.0410226769745349,-0.4045431911945343,-0.0106891337782144,0.1009279638528823,0.0,0.0,0.7135818004608154,-0.7271556854248047
-0.0376351363956928,0.1170622706413269,0.0373583436012268,-0.3786747753620147,-0.00400504283607,0.1336817145347595,0.0,0.0,0.5013654232025146,0.4108865261077881
-0.0370847694575786,0.1088465526700019,0.0476344935595989,-0.3651442229747772,0.0033077131956815,0.1462553888559341,0.0,0.0,0.0851356983184814,0.2159649133682251
-0.036475658416748,0.1003493145108223,0.0530896969139575,-0.3776906728744507,0.011019374243915,0.1542332470417022,0.0,0.0,0.7549458742141724,0.7670885324478149
-0.0358803756535053,0.092057853937149,0.0533094815909862,-0.3685711324214935,0.0171598549932241,0.1228095889091491,0.0,0.0,0.8790671825408936,0.7644990682601929
-0.0351446159183979,0.0846477374434471,0.0685995370149612,-0.3294038772583008,0.0220766179263591,0.0983354598283767,0.0,0.0,0.2814193964004516,-0.6959473490715027
-0.034502126276493,0.077293187379837,0.0578486546874046,-0.3269759118556976,0.0283991508185863,0.1264506876468658,0.0,0.0,0.087517499923706,0.7496724128723145
-0.0339180938899517,0.0701254680752754,0.0535434894263744,-0.3186651170253753,0.0331965424120426,0.0959476977586746,0.0,0.0,0.5401403903961182,0.9398664236068726
-0.0331987366080284,0.063342198729515,0.0688484460115432,-0.301552951335907,0.0362519174814224,0.0611073300242424,0.0,0.0,0.1462074518203735,-0.6841503381729126
-0.0326038375496864,0.0567349530756473,0.0550635531544685,-0.2937691807746887,0.0406250059604644,0.0874617025256156,0.0,0.0,0.6478090286254883,0.883338451385498
-0.0320714935660362,0.0506480559706687,0.0507357902824878,-0.2705988883972168,0.0430930368602275,0.0493607893586158,0.0,0.0,0.2947038412094116,0.6821403503417969
-0.031533908098936,0.0445416308939456,0.0526891462504863,-0.271424800157547,0.0441490076482296,0.0211194343864917,0.0,0.0,0.6806621551513672,-0.0546427965164184
-0.0311525352299213,0.0387401208281517,0.0376639664173126,-0.2578610479831695,0.0446201413869857,0.0094228237867355,0.0,0.0,0.7497236728668213,0.6379032135009766
-0.0309281349182128,0.0331560485064983,0.0237210597842931,-0.2481420338153839,0.0433518998324871,-0.0253648869693279,0.0,0.0,0.7569746971130371,0.973464012145996
-0.0305453296750783,0.0281321629881858,0.0414120927453041,-0.2231972068548202,0.0402617305517196,-0.0618035979568958,0.0,0.0,0.4556536674499511,-0.2787842750549316
-0.0301332473754882,0.0229947660118341,0.0441684052348136,-0.2282536029815673,0.0373429730534553,-0.0583752915263175,0.0,0.0,0.5526995658874512,-0.4725309610366821
-0.0296236034482717,0.0183355901390314,0.053377378731966,-0.2070131599903106,0.0349625460803508,-0.0476084388792514,0.0,0.0,0.2795425653457641,-0.0640808343887329
-0.0291647911071777,0.0139724584296345,0.0484735891222953,-0.1938591301441192,0.0323946885764598,-0.0513570830225944,0.0,0.0,0.4605212211608886,-0.1500609517097473
-0.0286170002073049,0.010143837891519,0.0569138638675212,-0.1701158434152603,0.0302921645343303,-0.0420504920184612,0.0,0.0,0.134960651397705,-0.7078855037689209
-0.0280903819948434,0.0063082790002226,0.0534205622971057,-0.1704530119895935,0.029531255364418,-0.0152178825810551,0.0,0.0,0.1680295467376709,-0.3525190353393554
-0.0275990478694438,0.0027338243089616,0.0500727780163288,-0.158846378326416,0.0286047253757715,-0.0185301713645458,0.0,0.0,0.5115706920623779,0.3933956623077392
-0.0271837227046489,0.0003208732523489,0.0609114356338977,-0.1069839373230934,0.0094659812748432,-0.3827752768993377,0.0,1.0,0.3864285945892334,0.0385901927947998
-0.0267054550349712,-0.0021073485258966,0.0670711249113082,-0.1079076677560806,-0.0095231253653764,-0.3797822296619415,1.0,1.0,0.9644579887390136,-0.8161575198173523
-0.0264166835695505,-0.0034800672437995,0.0397455319762229,-0.061318501830101,-0.0195708572864532,-0.2000645697116851,1.0,1.0,0.3997887372970581,-0.6454799771308899
-0.0262405388057231,-0.0038894796743988,0.0205385908484458,-0.0182534214109182,-0.0224383324384689,-0.0573072358965873,1.0,1.0,-0.5688052177429199,-0.6621325612068176
-0.0261916164308786,-0.0038438462652266,0.0045362347736954,0.0020380134228616,-0.0220379047095775,0.0080663794651627,1.0,1.0,-0.5375362634658813,-0.0646978616714477
-0.0261135101318359,-0.0034333609510213,0.0045289970003068,0.0183007027953863,-0.0188281033188104,0.0641649290919303,1.0,1.0,-0.84185791015625,0.4630863666534424
-0.0260114669799804,-0.002745964564383,0.0049869497306644,0.0306026134639978,-0.0136832110583782,0.1029086932539939,1.0,1.0,-0.7001675963401794,0.5044050216674805
-0.0258389469236135,-0.0019413733389228,0.0111692082136869,0.0358040370047092,-0.007664299570024,0.1203857213258743,1.0,1.0,-0.1449385285377502,0.6870636940002441
-0.0255939476191997,-0.0011501574190333,0.0184790845960378,0.0351844653487205,-0.0017177758272737,0.1189361214637756,1.0,1.0,-0.4728741645812988,0.4917395114898681
-0.0253983493894338,-0.000893666758202,0.0175454821437597,0.0114007331430912,0.0002692029229365,0.0397394523024559,1.0,1.0,-0.1784065961837768,-0.0663578510284423
