x_pos,y_pos,x_vel,y_vel,angle,ang_vel,leg_1,leg_2,main_booster,lat_booster
-0.0015480995643883,1.4033960103988647,-0.1569020450115203,-0.3344112932682037,0.0018677415791898,0.0368510596454143,0.0,0.0,-0.0042228266423152,-0.7162909549477796
-0.0031724930740892,1.3956626653671265,-0.1656747311353683,-0.3437078893184662,0.0050634061917662,0.0639200657606124,0.0,0.0,0.355652970982339,0.6384914472111729
-0.0046524046920239,1.3881943225860596,-0.1502760350704193,-0.3319381773471832,0.0073240986093878,0.0452176667749881,0.0,0.0,-0.8067775144999463,0.8421396764108406
-0.0061037065461277,1.3804949522018433,-0.1461523920297622,-0.3421965837478637,0.0083315186202526,0.0201503038406372,0.0,0.0,-0.9869734089983008,0.8796653451793457
-0.0074955942109227,1.3725709915161133,-0.1381624042987823,-0.352174699306488,0.0073119914159178,-0.0203923303633928,0.0,0.0,-0.1884256743689796,-0.8819727588550188
-0.0089655872434377,1.3644163608551023,-0.1474226862192154,-0.3624248802661896,0.007728521246463,0.0083312764763832,0.0,0.0,0.5665020714816649,-0.8830660013547335
-0.0105578424409031,1.3568536043167114,-0.1614649146795272,-0.3361407816410064,0.0099428668618202,0.0442911833524704,0.0,0.0,0.9692671222964576,-0.80507900877415
-0.0120518682524561,1.350223183631897,-0.1538014560937881,-0.2947239577770233,0.0142934154719114,0.0870190635323524,0.0,0.0,-0.461238105939918,0.7767826438072254
-0.0135105131193995,1.3433737754821775,-0.1488334834575653,-0.3044457733631134,0.0172242615371942,0.0586220324039459,0.0,0.0,-0.8936959463504563,-0.8169238843342048
-0.015058135613799,1.3362995386123655,-0.1594573706388473,-0.314469039440155,0.0218671914190053,0.0928669497370719,0.0,0.0,-0.1550330714938501,0.6700218278118439
-0.0165699962526559,1.3289995193481443,-0.1544278711080551,-0.3245004117488861,0.0250828135758638,0.0643181726336479,0.0,0.0,-0.5297733497111441,-0.8394147199829707
-0.0181644447147846,1.3214671611785889,-0.1642780005931854,-0.3348620235919952,0.0298609063029289,0.0955706238746643,0.0,0.0,0.119023913261208,-0.6312939172716496
-0.019748305901885,1.314422369003296,-0.1647188514471054,-0.3132410645484924,0.036129206418991,0.1253774166107177,0.0,0.0,0.404989217299482,0.7587039606378063
-0.0212418548762798,1.3076016902923584,-0.1543687880039215,-0.3032678961753845,0.0410912595689296,0.0992501378059387,0.0,0.0,-0.2299064285678982,-0.7825462001121598
-0.0228070262819528,1.300558090209961,-0.1628345847129821,-0.3132352828979492,0.0473369397222995,0.1249250620603561,0.0,0.0,-0.6552771054344693,0.9831236565898596
-0.0243044849485158,1.2932811975479126,-0.1538219898939132,-0.3235482275485992,0.0513722784817218,0.0807141736149787,0.0,0.0,-0.1487359638737808,0.7174416701048962
-0.0257567409425973,1.2857896089553833,-0.1476309299468994,-0.3330415189266205,0.0537526831030845,0.0476124361157417,0.0,0.0,0.8334811865241574,-0.7350451669994048
-0.0271413810551166,1.2786954641342163,-0.142841950058937,-0.315460205078125,0.0580872744321823,0.0866999700665474,0.0,0.0,0.2919725317391901,0.7398333111338492
-0.0284430496394634,1.2723321914672852,-0.1332708895206451,-0.2829292714595794,0.061164017766714,0.0615405067801475,0.0,0.0,0.0193602527707381,0.8573442943945528
-0.0297807697206735,1.2662638425827026,-0.1352557241916656,-0.2697715759277344,0.0626304149627685,0.0293304175138473,0.0,0.0,0.5989035136299392,-0.9444909238915
-0.0311234481632709,1.2610692977905271,-0.1379137635231018,-0.2310294210910797,0.0662501752376556,0.0724015161395073,0.0,0.0,-0.9366729176390218,0.619104424718369
-0.0324395187199115,1.2556474208831787,-0.1340992152690887,-0.241078570485115,0.0687117725610733,0.0492364130914211,0.0,0.0,0.2062160030006288,0.9184499168657244
-0.0336235053837299,1.2506097555160522,-0.1191921979188919,-0.2239342182874679,0.0694924518465995,0.0156153235584497,0.0,0.0,0.1224673843147832,-0.766159802239103
-0.0348509773612022,1.2456517219543457,-0.1252284198999405,-0.2204754501581192,0.0719428062438964,0.0490117594599723,0.0,0.0,0.4743676695146577,-0.7041978261291532
-0.0363381393253803,1.2413053512573242,-0.1524336636066436,-0.1933543533086776,0.0756355300545692,0.0738612413406372,0.0,0.0,0.2297260075604992,0.9402062382484152
-0.0379387848079204,1.2374920845031738,-0.1619519144296646,-0.1695763319730758,0.0775051042437553,0.0373914390802383,0.0,0.0,-0.5858452587379066,0.9536446894694586
-0.0394865982234478,1.2334650754928589,-0.1548427790403366,-0.1789806932210922,0.0775607377290725,0.0011126892641186,0.0,0.0,0.3964623778434215,0.7460984779635408
-0.041175365447998,1.2302532196044922,-0.167341262102127,-0.1426760703325271,0.0760386511683464,-0.0304414369165897,0.0,0.0,-0.1234234274203842,-0.7314737421604229
-0.0429570190608501,1.2268106937408447,-0.178506538271904,-0.1530159264802932,0.0763862133026123,0.0069508799351751,0.0,0.0,-0.6705850519233105,-0.6141642692776719
-0.0448105819523334,1.223131775856018,-0.1870897114276886,-0.1635994166135788,0.078098826110363,0.0342524088919162,0.0,0.0,-0.97092785308576,-0.7335618695705428
-0.0467425361275672,1.2192261219024658,-0.1964479982852935,-0.1737600117921829,0.0813230797648429,0.0644850134849548,0.0,0.0,-0.7384216101416998,0.6864829347885171
-0.0486486442387104,1.2150936126708984,-0.1927651464939117,-0.1837766766548156,0.0834556892514228,0.042652390897274,0.0,0.0,0.5875723605805256,0.6521496381552688
-0.0506753921508789,1.2118861675262451,-0.2034145891666412,-0.1426008194684982,0.0841959342360496,0.0148047674447298,0.0,0.0,-0.9584506203876456,0.7590060950800541
-0.0526691451668739,1.2084498405456543,-0.1988632380962371,-0.1526882946491241,0.0836834236979484,-0.0102500934153795,0.0,0.0,-0.9966066793045862,0.7764944023494437
-0.0546209327876567,1.2047948837280271,-0.1931542009115219,-0.1623351722955703,0.0816784501075744,-0.0400994941592216,0.0,0.0,0.7759318401411903,-0.941321348947382
-0.0567123405635356,1.202127456665039,-0.2091429680585861,-0.1185540407896041,0.0816764906048774,-3.928273144993e-05,0.0,0.0,0.8651681508071136,-0.7060953417773566
-0.0589532852172851,1.1999855041503906,-0.2255322188138961,-0.0952722504734993,0.0831020697951316,0.0285113714635372,0.0,0.0,-0.776541111406641,0.7767731274535157
-0.0611493103206157,1.1976293325424194,-0.2194676697254181,-0.104713536798954,0.0829756259918212,-0.002529215067625,0.0,0.0,-0.1943805342699147,0.6470507420701619
-0.0633173957467079,1.19505774974823,-0.2155611217021942,-0.1142231225967407,0.0817365944385528,-0.0247805081307888,0.0,0.0,0.936251320829347,-0.7592542436113362
-0.0655867606401443,1.1933207511901855,-0.2273959368467331,-0.0772242695093154,0.082185611128807,0.0089804399758577,0.0,0.0,-0.5131794623925596,-0.7210813295625229
-0.0679421424865722,1.1913530826568604,-0.2377899140119552,-0.0875762850046157,0.0844168588519096,0.0446249172091484,0.0,0.0,-0.9939159154891968,0.9418058395385742
-0.0702261924743652,1.1891663074493408,-0.2284662425518036,-0.0971973910927772,0.0844799429178237,0.0012616823660209,0.0,0.0,-0.9973487854003906,0.9582279920578004
-0.0724396705627441,1.1867514848709106,-0.2192683964967727,-0.1072047874331474,0.0824204161763191,-0.0411904528737068,0.0,0.0,-0.9843139052391052,0.6865620613098145
-0.0746073722839355,1.184114933013916,-0.2131712436676025,-0.11699128895998,0.0788584202527999,-0.0712402760982513,0.0,0.0,-0.9997816681861876,0.6302287578582764
-0.0767451301217079,1.1812479496002195,-0.2090906351804733,-0.127176746726036,0.0742173045873642,-0.0928225368261337,0.0,0.0,-0.9677679538726808,0.7024935483932495
-0.0788393020629882,1.178152561187744,-0.2032926976680755,-0.1372846215963363,0.0681606978178024,-0.1211322769522667,0.0,0.0,-0.9891544580459596,0.0547043085098266
-0.0809493064880371,1.174829125404358,-0.2049635648727417,-0.1474473774433136,0.0621912963688373,-0.119387961924076,0.0,0.0,-0.95612633228302,-0.434433102607727
-0.0830745697021484,1.171277642250061,-0.2065786570310592,-0.1576099991798401,0.0563079603016376,-0.1176667660474777,0.0,0.0,-0.998436450958252,0.8401118516921997
-0.0851631164550781,1.167509913444519,-0.2016692608594894,-0.1671993285417556,0.0492042638361454,-0.1420740783214569,0.0,0.0,-0.994546353816986,0.8136167526245117
-0.0872036963701248,1.1635167598724363,-0.1953729838132858,-0.177211657166481,0.0406224690377712,-0.1716357916593551,0.0,0.0,-0.9907568693161012,-0.1281023025512695
-0.0892578139901161,1.1592962741851809,-0.1968080699443817,-0.1873773038387298,0.0321229510009288,-0.1699903607368469,0.0,0.0,-0.9990045428276062,0.0200448036193847
-0.0913249030709266,1.1548478603363037,-0.1981792449951172,-0.1975427716970443,0.023704320192337,-0.1683727204799652,0.0,0.0,-0.9831106066703796,-0.6772657036781311
-0.0934480652213096,1.150166392326355,-0.2049812078475952,-0.2079626768827438,0.0164678394794464,-0.1447294652462005,0.0,0.0,-0.9990586042404176,0.6256239414215088
-0.095533087849617,1.1452643871307373,-0.1999810189008712,-0.2178012579679489,0.0080581232905387,-0.1681945621967315,0.0,0.0,-0.9969801902770996,-0.2959209680557251
-0.0976289734244346,1.1401346921920776,-0.201149970293045,-0.2279664129018783,-0.0002752430737018,-0.1666673421859741,0.0,0.0,-0.998873770236969,-0.1681550741195678
-0.0997351631522178,1.134777307510376,-0.2022483646869659,-0.238131433725357,-0.0085338754579424,-0.1651724576950073,0.0,0.0,-0.944818675518036,-0.4834791421890259
-0.1018507927656173,1.1291921138763428,-0.2032748907804489,-0.2482962906360626,-0.0167194325476884,-0.1637111008167266,0.0,0.0,-0.996513605117798,0.5350488424301147
-0.1039232239127159,1.123380184173584,-0.1976964324712753,-0.2584371566772461,-0.0261414367705583,-0.1884401887655258,0.0,0.0,-0.9914100170135498,0.6128017902374268
-0.1059490218758583,1.1173454523086548,-0.1917273700237274,-0.268442302942276,-0.0368633493781089,-0.2144381999969482,0.0,0.0,-0.9227946400642396,0.0324500799179077
-0.1079821586608886,1.1110835075378418,-0.192532405257225,-0.2786108553409576,-0.0475174747407436,-0.2130825817584991,0.0,0.0,-0.9963923692703248,0.1666152477264404
-0.1100218743085861,1.1045944690704346,-0.1932622045278549,-0.2887792587280273,-0.0581056997179985,-0.2117645293474197,0.0,0.0,-0.9567851424217224,0.536700963973999
-0.1120319366455078,1.097878098487854,-0.189471036195755,-0.2989958226680755,-0.0695197433233261,-0.2282806932926178,0.0,0.0,-0.9987132549285888,0.0298728942871093
-0.1140471473336219,1.0909347534179688,-0.1900495588779449,-0.3091654777526855,-0.0808717384934425,-0.2270399630069732,0.0,0.0,-0.9975120425224304,-0.4659310579299927
-0.1160666495561599,1.083764672279358,-0.1905523389577865,-0.319335013628006,-0.0921636968851089,-0.225839227437973,0.0,0.0,-0.9737561941146852,0.3597347736358642
-0.1180896759033203,1.0763673782348633,-0.1909795701503753,-0.3295043706893921,-0.1033976525068283,-0.2246792763471603,0.0,0.0,-0.9685068726539612,0.4992959499359131
-0.1201156601309776,1.068743109703064,-0.1913317143917083,-0.3396735787391662,-0.1145756840705871,-0.2235607802867889,0.0,0.0,-0.944546103477478,0.7210725545883179
-0.1220841407775878,1.0608903169631958,-0.1841781884431839,-0.3500365018844604,-0.1271866410970688,-0.2522190511226654,0.0,0.0,-0.9653174877166748,-0.857711672782898
-0.1241131797432899,1.052811861038208,-0.1917657554149627,-0.3600380718708038,-0.1382711678743362,-0.2216906249523162,0.0,0.0,-0.9199867844581604,0.0689043998718261
-0.1261427849531173,1.0445060729980469,-0.1918970197439193,-0.3702068328857422,-0.1493061482906341,-0.2206995189189911,0.0,0.0,-0.3853849768638611,-0.2362854480743408
-0.1281723082065582,1.0359734296798706,-0.1919567584991455,-0.3803755342960357,-0.1602937281131744,-0.2197516858577728,0.0,0.0,-0.1790224313735962,0.0217663049697875
-0.130201056599617,1.0272135734558103,-0.1919462382793426,-0.3905440866947174,-0.1712360978126526,-0.218847393989563,0.0,0.0,0.1434274911880493,0.5142874717712402
-0.1320918053388595,1.018847942352295,-0.1772252023220062,-0.373215764760971,-0.1831195950508117,-0.2376700341701507,0.0,0.0,-0.7812492251396179,-0.4939298033714294
-0.1339804679155349,1.0102553367614746,-0.1770791858434677,-0.383385956287384,-0.1949622631072998,-0.2368527352809906,0.0,0.0,-0.7789492607116699,0.207743763923645
-0.1358662545680999,1.0014359951019287,-0.176867738366127,-0.3935560584068298,-0.2067662179470062,-0.2360792458057403,0.0,0.0,-0.5227456092834473,0.711615800857544
-0.1376976072788238,0.9923682808876038,-0.1701378971338272,-0.4048810303211212,-0.2198885083198547,-0.2624458968639374,0.0,0.0,-0.0482162237167358,-0.2858972549438476
-0.1395247429609298,0.9830742478370668,-0.1698019355535507,-0.4150537252426147,-0.2329764515161514,-0.2617588639259338,0.0,0.0,0.2139676809310913,-0.4142760038375854
-0.1413123160600662,0.973925530910492,-0.1658006012439727,-0.4087077677249908,-0.246139645576477,-0.2632635235786438,0.0,0.0,-0.8068957924842834,-0.8544939160346985
-0.1431595832109451,0.9645827412605286,-0.1735690385103225,-0.417149543762207,-0.2575163841247558,-0.2275346964597702,0.0,0.0,-0.1367242932319641,-0.660889208316803
-0.1450437605381012,0.9550362229347228,-0.1784522086381912,-0.4260684549808502,-0.2677003443241119,-0.2036793231964111,0.0,0.0,-0.802331268787384,-0.6898112297058105
-0.1469827592372894,0.9452945590019226,-0.1856061369180679,-0.4345046281814575,-0.2761947810649872,-0.1698889583349228,0.0,0.0,0.4558615684509277,0.2405463457107544
-0.1489453315734863,0.9357931017875672,-0.1874844431877136,-0.4239726364612579,-0.2851930260658264,-0.1799651533365249,0.0,0.0,-0.7772935628890991,-0.8569939136505127
-0.1509596854448318,0.9260976910591124,-0.1942985951900482,-0.4323216080665588,-0.2925390005111694,-0.1469196230173111,0.0,0.0,-0.0023102760314941,-0.5397918224334717
-0.1530140936374664,0.9161955714225768,-0.1995846331119537,-0.4412820935249328,-0.2985839247703552,-0.1208985224366188,0.0,0.0,0.954251766204834,-0.0211647152900695
-0.1548867225646972,0.9072434306144714,-0.1811445653438568,-0.3991461396217346,-0.3049113154411316,-0.1265476495027542,0.0,0.0,0.748863935470581,-0.23801189661026
-0.1565408706665039,0.8991278409957886,-0.1592698991298675,-0.3619959950447082,-0.3112817704677582,-0.1274085342884063,0.0,0.0,0.8418910503387451,-0.7564905285835266
-0.1579436361789703,0.8916890025138855,-0.1358551234006881,-0.3315686881542206,-0.3158703446388244,-0.0917714908719062,0.0,0.0,0.8729299306869507,-0.7700982093811035
-0.1592483520507812,0.88458251953125,-0.1276266425848007,-0.3164684474468231,-0.318822294473648,-0.059038907289505,0.0,0.0,0.9910420179367064,-0.5762806534767151
-0.1603228598833084,0.8779000639915466,-0.1060660257935524,-0.2973021566867828,-0.3202570676803589,-0.0286952462047338,0.0,0.0,0.995509386062622,-0.7623812556266785
-0.1610448807477951,0.8719083666801453,-0.0727589130401611,-0.2661798596382141,-0.3196861743927002,0.0114177484065294,0.0,0.0,0.987580418586731,0.1170741319656372
-0.1614487618207931,0.8662845492362976,-0.0416872575879097,-0.2496597021818161,-0.3183329999446869,0.0270637162029743,0.0,0.0,0.8051936626434326,-0.6475315093994141
-0.1616391241550445,0.8616331219673157,-0.0216097515076398,-0.2061673104763031,-0.3156651258468628,0.0533575713634491,0.0,0.0,0.747657060623169,-0.8824465870857239
-0.1616000235080719,0.8579192161560059,-0.0004577098879963,-0.1641181260347366,-0.3111283779144287,0.0907349288463592,0.0,0.0,0.3830157518386841,-0.2609694004058838
-0.161279872059822,0.8547264933586121,0.0271656215190887,-0.1408673971891403,-0.306107610464096,0.1004155054688453,0.0,0.0,-0.7426912188529968,-0.6698657274246216
-0.1609920561313629,0.8513187170028687,0.0228325612843036,-0.1502143293619156,-0.2999582290649414,0.1229876279830932,0.0,0.0,-0.5776181817054749,-0.5896867513656616
-0.1607416123151779,0.8477038145065308,0.0178265459835529,-0.1591934859752655,-0.2925073206424713,0.1490190327167511,0.0,0.0,-0.8029153347015381,0.2460073232650756
-0.1604797393083572,0.8438610434532166,0.0189584419131279,-0.1693571954965591,-0.2850587964057922,0.148970752954483,0.0,0.0,-0.9901492595672609,0.0301192998886108
-0.1602061241865158,0.8397903442382812,0.0201086830347776,-0.1795209199190139,-0.2776139080524444,0.1488970220088958,0.0,0.0,-0.9944199919700624,-0.6516683101654053
-0.1599793434143066,0.8355233073234558,0.0138711091130971,-0.1880028992891311,-0.2685736119747162,0.1808061897754669,0.0,0.0,-0.8814640045166016,0.9051955938339232
-0.1596610099077224,0.8310002684593201,0.0250555984675884,-0.1997938305139541,-0.2616337835788727,0.1387968212366104,0.0,0.0,-0.9928428530693054,0.5547071695327759
-0.159291461110115,0.826237678527832,0.0311692263931036,-0.2106502950191497,-0.2557202279567718,0.1182710975408554,0.0,0.0,-0.7772427797317505,0.3829412460327148
-0.1589097082614898,0.8212469220161438,0.0323758237063884,-0.2208124995231628,-0.2498147338628769,0.1181098669767379,0.0,0.0,-0.998240053653717,0.4201877117156982
-0.1585159301757812,0.8160281181335449,0.0335920825600624,-0.2309747040271759,-0.2439182102680206,0.1179303973913192,0.0,0.0,-0.8283764123916626,0.5964484214782715
-0.1580729484558105,0.8105680346488953,0.0394617244601249,-0.2418802678585052,-0.2390020787715912,0.0983224436640739,0.0,0.0,-0.9887008666992188,-0.7965560555458069
-0.1576943397521972,0.8049060702323914,0.0310563631355762,-0.2505584359169006,-0.2320889085531234,0.1382631361484527,0.0,0.0,-0.5824858546257019,0.7521893978118896
-0.1572346687316894,0.7989960312843323,0.0409098304808139,-0.261876493692398,-0.2269669622182846,0.1024388447403907,0.0,0.0,-0.9167289137840272,-0.5451773405075073
-0.1568011343479156,0.7928662896156311,0.0373392030596733,-0.2715148329734802,-0.2208739966154098,0.1218593940138816,0.0,0.0,-0.9911138415336608,0.3673286437988281
-0.1563551872968673,0.7865086793899536,0.0385797694325447,-0.28167724609375,-0.2147934436798095,0.1216108351945877,0.0,0.0,-0.9987850189208984,0.3377642631530761
-0.1558969467878341,0.7799229025840759,0.0398206301033496,-0.2918396592140198,-0.2087257951498031,0.1213529556989669,0.0,0.0,-0.9906383156776428,0.288898229598999
-0.1554263085126876,0.7731090784072876,0.0410603247582912,-0.3020020723342895,-0.2026714235544204,0.1210871934890747,0.0,0.0,-0.9763538241386414,0.2711794376373291
-0.1549433767795562,0.7660672068595886,0.0422974117100238,-0.3121644854545593,-0.1966306716203689,0.120815061032772,0.0,0.0,-0.996424913406372,0.7845127582550049
-0.1543870866298675,0.7587869167327881,0.0511827170848846,-0.3229870796203613,-0.1921553164720535,0.0895071402192115,0.0,0.0,-0.99441796541214,-0.3229067325592041
-0.1538186073303222,0.7512781620025635,0.0524107441306114,-0.3331481218338012,-0.1876939833164215,0.089226946234703,0.0,0.0,-0.9196488857269288,-0.2379762530326843
-0.153237909078598,0.7435412406921387,0.0536319427192211,-0.3433091938495636,-0.1832467466592788,0.0889448598027229,0.0,0.0,-0.9836405515670776,-0.1392632126808166
-0.1526453047990799,0.7355760335922241,0.0548449680209159,-0.3534702360630035,-0.1788136214017868,0.0886623859405517,0.0,0.0,-0.994388222694397,-0.3719512820243835
-0.1520407646894455,0.7273826003074646,0.0560484826564788,-0.3636312484741211,-0.1743945628404617,0.0883808508515358,0.0,0.0,-0.9222872257232666,-0.354243516921997
-0.1514244079589843,0.7189609408378601,0.0572411827743053,-0.3737922310829162,-0.1699894517660141,0.0881018042564392,0.0,0.0,-0.9846348762512208,0.0931746959686279
-0.1507963240146637,0.7103107571601868,0.0584217794239521,-0.383953183889389,-0.1655981391668319,0.08782659471035,0.0,0.0,-0.9851493239402772,-0.2763397693634033
-0.1501566916704177,0.7014322876930237,0.0595890060067176,-0.3941141366958618,-0.1612203121185302,0.0875566154718399,0.0,0.0,-0.9952839612960817,-0.4252038598060608
-0.149505615234375,0.6923256516456604,0.0607416145503521,-0.4042750597000122,-0.1568556427955627,0.0872932747006416,0.0,0.0,-0.9948765635490416,0.1672488451004028
-0.1488432884216308,0.6829907298088074,0.061878390610218,-0.4144359827041626,-0.1525037288665771,0.0870379358530044,0.0,0.0,-0.995351493358612,-0.4769643545150757
