x_pos,y_pos,x_vel,y_vel,angle,ang_vel,leg_1,leg_2,main_booster,lat_booster
-0.0015199661720544,1.4033654928207395,-0.1538443714380264,-0.3357688784599304,0.001661448390223,0.0327657833695411,0.0,0.0,0.0474956370244112,0.8313805448844762
-0.0029346465598791,1.3960096836090088,-0.1413665115833282,-0.3269287347793579,0.0015493492828682,-0.0022413462866097,0.0,0.0,-0.9929484378374251,-0.5277224794734656
-0.0043818475678563,1.388390064239502,-0.1453248262405395,-0.3386485874652862,0.0021493197418749,0.0120005635544657,0.0,0.0,-0.3293661354710164,0.7608839607305659
-0.0057830810546875,1.3805088996887207,-0.1394107192754745,-0.3502701818943023,0.0014431934105232,-0.014123648405075,0.0,0.0,0.5440885543591467,-0.9303275014582382
-0.0071261404082179,1.373285889625549,-0.1355575323104858,-0.3210245668888092,0.0026694380212575,0.0245272982865571,0.0,0.0,0.1249262440587122,-0.5913564767539706
-0.0084189418703317,1.3663575649261477,-0.1317964494228363,-0.307927519083023,0.0051562725566327,0.0497412011027336,0.0,0.0,0.7587288115417794,0.8242461783902155
-0.009684657678008,1.3600926399230957,-0.1273011118173599,-0.2784460186958313,0.0058726095594465,0.0143282543867826,0.0,0.0,0.1034282112798974,-0.9812762700903328
-0.0109215732663869,1.354219913482666,-0.1262815296649933,-0.2610280811786651,0.0084476731717586,0.0515060536563396,0.0,0.0,0.5004672567984891,0.9889448202794846
-0.0121116638183593,1.3492392301559448,-0.1195423454046249,-0.2213575989007949,0.0089739263057708,0.0105258552357554,0.0,0.0,0.9002368839153132,-0.637701504606501
-0.013374519534409,1.345255970954895,-0.1280286312103271,-0.177048310637474,0.0106921419501304,0.0343674793839454,0.0,0.0,0.862307659336188,-0.7042623248194921
-0.0146111492067575,1.34201979637146,-0.1270014494657516,-0.1438566297292709,0.0140015967190265,0.0661951228976249,0.0,0.0,0.6362679442160097,0.828923591392172
-0.0157299041748046,1.3393105268478394,-0.1136483997106552,-0.1204321831464767,0.0157470591366291,0.0349124409258365,0.0,0.0,-0.4113363437997561,0.6310049158317287
-0.0168081279844045,1.3363466262817385,-0.1079913005232811,-0.1317301988601684,0.0159186888486146,0.0034326531458646,0.0,0.0,-0.2587997391817547,-0.6897335078598557
-0.017955970019102,1.333116054534912,-0.1161365285515785,-0.1435953825712204,0.0172551870346069,0.0267322100698947,0.0,0.0,0.40886731936816,0.5484357837233531
-0.018965721130371,1.330690860748291,-0.101495623588562,-0.107792854309082,0.0177737530320882,0.0103721832856535,0.0,0.0,0.5916556530004498,0.6883634877223281
-0.0198355671018362,1.3284322023391724,-0.0863492637872695,-0.1003754511475563,0.0171413104981184,-0.0126498434692621,0.0,0.0,-0.4936326734427059,0.7249125603512636
-0.0206619258970022,1.3259247541427612,-0.0801710113883018,-0.1114173308014869,0.0147132975980639,-0.0485648587346077,0.0,0.0,0.5303787150250521,-0.800217416639946
-0.021437644958496,1.3236737251281738,-0.0769454464316368,-0.1000374406576156,0.0140971895307302,-0.0123231504112482,0.0,0.0,-0.7191289872499522,-0.8841799612328416
-0.0223015788942575,0.0,-0.0872492119669914,-0.1112584993243217,0.0149377835914492,0.0168133378028869,0.0,0.0,-0.2612460814106516,-0.980770986815898
-0.0232845302671194,1.3184059858322144,-0.1013683453202247,-0.1229063794016838,0.0179795660078525,0.0608409456908702,0.0,0.0,-0.5123072538968989,-0.8336628985477779
-0.0243519786745309,1.3153870105743408,-0.1111359372735023,-0.1342334449291229,0.0223254188895225,0.0869247242808342,0.0,0.0,-0.1374760800419654,0.726994668679414
-0.0253944396972656,1.3121068477630615,-0.1071641594171524,-0.1458274871110916,0.0252055767923593,0.0576084554195404,0.0,0.0,2.4720810287037764e-05,0.7291475269781029
-0.0263315197080373,1.309066653251648,-0.0952214375138282,-0.1351542919874191,0.0267048720270395,0.0299885030835866,0.0,0.0,0.8680672483235623,-0.9200940149009263
-0.0272991172969341,1.3062865734100342,-0.100307323038578,-0.1236189976334571,0.0302111580967903,0.0701320618391037,0.0,0.0,0.978378910736598,-0.8162146000109887
-0.0285770408809185,1.3043941259384155,-0.1325890868902206,-0.0842137336730957,0.0349628962576389,0.0950432270765304,0.0,0.0,0.1432259405507558,-0.973207303371286
-0.030105972662568,1.3029465675354004,-0.1597016751766204,-0.064504437148571,0.0416892729699611,0.134527638554573,0.0,0.0,0.0307405018634157,-0.8515531995550039
-0.0317572578787803,1.3019213676452637,-0.1737044602632522,-0.0458276458084583,0.0501536503434181,0.169287770986557,0.0,0.0,-0.6001909613914085,-0.7558973783202515
-0.0335214622318744,1.30064058303833,-0.1868790090084076,-0.057307481765747,0.0604986920952796,0.2069007456302642,0.0,0.0,0.5216933464771061,-0.7204833283729408
-0.0355588905513286,1.3001594543457031,-0.2154497802257537,-0.0219064597040414,0.0720898881554603,0.2318238466978073,0.0,0.0,-0.6184685166959687,0.7385251669012337
-0.0375811569392681,1.2994239330291748,-0.212569922208786,-0.0332182459533214,0.0823280587792396,0.2047632485628128,0.0,0.0,0.5145016187337397,-0.6909553397571772
-0.0397454276680946,1.2995946407318115,-0.2282565534114837,0.006891265977174,0.094049297273159,0.2344248592853546,0.0,0.0,-0.9410974383354188,0.9982231855392456
-0.0418835654854774,1.2995117902755735,-0.2239646464586258,-0.0043548201210796,0.1041189804673194,0.2013939321041107,0.0,0.0,-0.9481056928634644,0.9923148155212402
-0.0439982414245605,1.2991909980773926,-0.2199754416942596,-0.0148795209825038,0.1125632226467132,0.1688849478960037,0.0,0.0,-0.9814127683639526,0.9924473762512208
-0.046086311340332,1.2986146211624146,-0.2156167328357696,-0.0261413473635911,0.1193326488137245,0.135388508439064,0.0,0.0,-0.968287229537964,0.9888978004455566
-0.0481389984488487,1.2977962493896484,-0.2101403921842575,-0.0367713794112205,0.1241722330451011,0.0967914685606956,0.0,0.0,-0.9825145602226256,0.98514986038208
-0.0501574501395225,1.296741247177124,-0.2047736942768097,-0.0471332184970378,0.1270862817764282,0.0582809746265411,0.0,0.0,-0.9791510701179504,0.9891294240951538
-0.0521463379263877,1.2954367399215698,-0.2000346928834915,-0.0580812282860279,0.1282233297824859,0.0227408111095428,0.0,0.0,-0.989614963531494,0.9500741958618164
-0.0541022308170795,1.293895602226257,-0.1948148012161255,-0.068421646952629,0.1274549812078476,-0.0153669323772192,0.0,0.0,-0.9982773065567015,0.8929264545440674
-0.0560394302010536,1.2921181917190552,-0.1913860589265823,-0.0787999629974365,0.1251360327005386,-0.0463789775967597,0.0,0.0,-0.9846618175506592,0.8463951349258423
-0.0579532608389854,1.2900962829589844,-0.1874108612537384,-0.0895386785268783,0.1211729273200035,-0.0792620331048965,0.0,0.0,-0.9946793913841248,0.7794160842895508
-0.0598640441894531,1.2878313064575195,-0.1859243065118789,-0.1002549827098846,0.116057388484478,-0.1023107767105102,0.0,0.0,-0.992651104927063,0.5653526782989502
-0.0617679581046104,1.285315990447998,-0.1840095967054367,-0.1113093867897987,0.1097179651260376,-0.1267885714769363,0.0,0.0,-0.9375532865524292,0.3620896339416504
-0.0637189894914627,1.2825422286987305,-0.1888540387153625,-0.1228307262063026,0.1035178825259208,-0.1240015998482704,0.0,0.0,-0.9958977103233336,0.19374680519104
-0.0657173171639442,1.2795101404190063,-0.1937262713909149,-0.1343518942594528,0.0974612161517143,-0.1211336627602577,0.0,0.0,-0.9992237091064452,0.5336003303527832
-0.0677235573530197,1.276219129562378,-0.1936655938625335,-0.14583221077919,0.090561993420124,-0.1379843205213546,0.0,0.0,-0.9592339396476746,0.229298710823059
-0.0697774887084961,1.2726696729660034,-0.1985867917537689,-0.1573540270328521,0.0838135704398155,-0.1349685341119766,0.0,0.0,-0.9701874256134032,-0.3414760828018188
-0.0718793869018554,1.2688617706298828,-0.2035296857357025,-0.1688756346702575,0.0772192850708961,-0.1318856626749038,0.0,0.0,-0.9807549118995668,0.4566600322723388
-0.0740293487906456,1.2647957801818848,-0.2084925174713134,-0.1803970038890838,0.070782296359539,-0.128740131855011,0.0,0.0,-0.9844962358474731,0.0781618356704711
-0.0762274712324142,1.2604711055755615,-0.2134735882282257,-0.1919181495904922,0.0645054727792739,-0.1255361437797546,0.0,0.0,-0.6701405048370361,0.1026686429977417
-0.0784740447998046,1.2558881044387815,-0.2184714376926422,-0.2034390568733215,0.0583915822207927,-0.1222776919603347,0.0,0.0,-0.9267573356628418,-0.6992801427841187
-0.0808111205697059,1.2510424852371216,-0.2287642955780029,-0.2151738852262497,0.0535034276545047,-0.0977632328867912,0.0,0.0,-0.9582948684692384,0.6832516193389893
-0.0831480994820594,1.245946764945984,-0.2276804149150848,-0.2262722849845886,0.0475524365901947,-0.1190197616815567,0.0,0.0,-0.9594918489456176,0.6695361137390137
-0.0854712501168251,1.240593433380127,-0.2248621731996536,-0.2377092242240905,0.0401980355381965,-0.1470882445573806,0.0,0.0,-0.996143102645874,0.5546313524246216
-0.0877991691231727,1.2349896430969238,-0.2243949919939041,-0.2488554120063781,0.0319056361913681,-0.1658480316400528,0.0,0.0,-0.9692270755767822,0.2343940734863281
-0.090175911784172,1.2291276454925537,-0.2294569462537765,-0.260378360748291,0.0237871501594781,-0.1623695194721222,0.0,0.0,-0.9503385424613952,0.4496569633483886
-0.0926016792654991,1.2230074405670166,-0.2345284670591354,-0.2719009518623352,0.0158443246036767,-0.1588563621044159,0.0,0.0,-0.8979699611663818,0.9693546295166016
-0.0949878692626953,1.2166404724121094,-0.2284909784793853,-0.2829093635082245,0.0058494969271123,-0.1998968422412872,0.0,0.0,-0.977628767490387,-0.3151875734329223
-0.0974230766296386,1.2100154161453247,-0.2335787713527679,-0.294434517621994,-0.0039665633812546,-0.1963214725255966,0.0,0.0,-0.9810376167297364,0.2826200723648071
-0.0999074950814247,1.2031326293945312,-0.2386734783649444,-0.3059592247009277,-0.0136025110259652,-0.1927190274000167,0.0,0.0,-0.9141355752944946,-0.8582505583763123
-0.1025174111127853,1.196000576019287,-0.2533660233020782,-0.3170635402202606,-0.0211342182010412,-0.1506338417530059,0.0,0.0,-0.958549737930298,0.2325550317764282
-0.1051765456795692,1.188610315322876,-0.2584719657897949,-0.3285846710205078,-0.0284834168851375,-0.1469841599464416,0.0,0.0,-0.6390969157218933,0.9549262523651124
-0.1078218445181846,1.1809637546539309,-0.2556727528572082,-0.3400351405143738,-0.0372317135334014,-0.1749657541513443,0.0,0.0,-0.9702852964401244,0.4423356056213379
-0.1105164512991905,1.1730592250823977,-0.2607870399951935,-0.3515576720237732,-0.0457954667508602,-0.1712753772735595,0.0,0.0,-0.8160924315452576,0.4778985977172851
-0.113260269165039,1.1648962497711182,-0.2659043669700622,-0.3630798161029815,-0.0541738346219062,-0.1675674021244049,0.0,0.0,-0.9298333525657654,0.239233136177063
-0.1160533875226974,1.1564748287200928,-0.271024078130722,-0.3746015131473541,-0.0623660013079643,-0.1638433635234832,0.0,0.0,-0.420195996761322,0.3430128097534179
-0.1188957244157791,1.1477952003479004,-0.2761454582214355,-0.3861228227615356,-0.0703712478280067,-0.1601047217845916,0.0,0.0,-0.8023200631141663,0.9451653957366944
-0.1217096298933029,1.138860106468201,-0.27152019739151,-0.3976106643676758,-0.0801351964473724,-0.1952794641256332,0.0,0.0,0.0169031620025634,0.3625228404998779
-0.1245079040527343,1.129930019378662,-0.2704015374183655,-0.3974294662475586,-0.0894772335886955,-0.1868409514427185,0.0,0.0,-0.8219516277313232,0.7357232570648193
-0.1272943466901779,1.1207420825958252,-0.2678703665733337,-0.4090298414230346,-0.1001597717404365,-0.213650494813919,0.0,0.0,-0.5235768556594849,0.8703384399414062
-0.1300723999738693,1.111284255981445,-0.2657620012760162,-0.4212085008621216,-0.1121185347437858,-0.2391753643751144,0.0,0.0,-0.683759868144989,0.0032696723937988
-0.132899671792984,1.1015688180923462,-0.2708830237388611,-0.4327353537082672,-0.1238875836133956,-0.2353806942701339,0.0,0.0,-0.4053899049758911,0.478403091430664
-0.1357759535312652,1.0915956497192385,-0.2760017812252044,-0.4442616105079651,-0.1354665160179138,-0.2315786629915237,0.0,0.0,-0.801082968711853,0.1483575105667114
-0.1387013494968414,1.0813648700714111,-0.2811175882816314,-0.4557873010635376,-0.1468550264835357,-0.2277701795101165,0.0,0.0,-0.6413334012031555,-0.8230136632919312
-0.1417323052883148,1.0708885192871094,-0.2933282256126404,-0.4666124582290649,-0.156607836484909,-0.1950562894344329,0.0,0.0,-0.2939628362655639,0.7238481044769287
-0.1447594612836837,1.0601357221603394,-0.2917904257774353,-0.4790883958339691,-0.1675404757261276,-0.2186528891324997,0.0,0.0,0.5764760971069336,0.5058705806732178
-0.1476766616106033,1.0495511293411257,-0.2801670134067535,-0.4717670381069183,-0.179112821817398,-0.2314468920230865,0.0,0.0,-0.3991390466690063,0.2534373998641968
-0.1506426781415939,1.0387086868286133,-0.2852635085582733,-0.4832919538021087,-0.1904938668012619,-0.2276205122470855,0.0,0.0,0.6230562925338745,-0.6240198016166687
-0.1535662710666656,1.028778076171875,-0.2824647128582001,-0.4426692426204681,-0.2004477232694625,-0.1990769952535629,0.0,0.0,-0.2483336925506591,0.3943774700164795
-0.1565384864807129,1.0185890197753906,-0.2875456213951111,-0.4541909098625183,-0.2102100551128387,-0.1952470690011978,0.0,0.0,0.2081172466278076,-0.4120784997940063
-0.1595149040222168,1.0090440511703491,-0.2877934575080871,-0.4256566762924194,-0.2201604545116424,-0.1990076452493667,0.0,0.0,-0.2236206531524658,0.3552241325378418
-0.1625397652387619,0.9992405772209167,-0.2928555011749267,-0.4371779561042785,-0.2299192547798156,-0.1951759457588195,0.0,0.0,-0.047081708908081,-0.180813193321228
-0.1656131744384765,0.9891786575317384,-0.2979063391685486,-0.4486987888813019,-0.2394864708185196,-0.1913444846868515,0.0,0.0,-0.4030994772911072,-0.1795032620429992
-0.1687348335981369,0.978858232498169,-0.3029447197914123,-0.4602191746234894,-0.248862162232399,-0.1875138133764267,0.0,0.0,-0.4153633713722229,0.2790011167526245
-0.1719046533107757,0.9682791829109192,-0.307969331741333,-0.471739113330841,-0.2580463588237762,-0.1836845874786377,0.0,0.0,0.2936099767684936,0.7951254844665527
-0.174931526184082,0.9582195281982422,-0.2923133671283722,-0.4489566385746002,-0.2686554491519928,-0.2121820896863937,0.0,0.0,0.2702605724334717,-0.3084933757781982
-0.1778228729963302,0.9485216736793518,-0.2792710661888122,-0.4328574240207672,-0.2787632346153259,-0.2021554261445999,0.0,0.0,-0.4462883472442627,0.7602367401123047
-0.1807032525539398,0.9385327100753784,-0.2768356204032898,-0.4461382925510406,-0.2902899086475372,-0.2305333912372589,0.0,0.0,0.2695820331573486,0.767687201499939
-0.1834082603454589,0.9286644458770752,-0.258096843957901,-0.4411126375198364,-0.3031015396118164,-0.2562324404716491,0.0,0.0,-0.6064286231994629,0.1960991621017456
-0.1861603707075119,0.9185382723808287,-0.2630319595336914,-0.4526377022266388,-0.3157225251197815,-0.2524195611476898,0.0,0.0,0.7448986768722534,0.6832308769226074
-0.1886281073093414,0.9086440205574036,-0.2338292151689529,-0.4426229894161224,-0.3291936218738556,-0.2694219052791595,0.0,0.0,-0.557938814163208,-0.2956812977790832
-0.191142275929451,0.8984920978546143,-0.2387143671512603,-0.4541489779949188,-0.3424747288227081,-0.2656218111515045,0.0,0.0,0.4919359683990478,0.5919206142425537
-0.1933991461992263,0.8890158534049988,-0.2121307551860809,-0.4244529902935028,-0.3567063510417938,-0.2846325635910034,0.0,0.0,0.5374605655670166,0.1956321001052856
-0.195376306772232,0.8800937533378601,-0.1849261671304702,-0.3997727036476135,-0.3702127337455749,-0.2701278924942016,0.0,0.0,0.8168516159057617,0.159564733505249
-0.1971656829118728,0.8713554739952087,-0.1668708026409149,-0.391537457704544,-0.3830174505710602,-0.2560941278934479,0.0,0.0,0.2066279649734497,-0.4177669286727905
-0.1988966912031173,0.8628982901573181,-0.1611132621765136,-0.3791519999504089,-0.395811527967453,-0.2558817863464355,0.0,0.0,0.926267147064209,-0.5724349021911621
-0.2002273499965667,0.8555464148521423,-0.1226919889450073,-0.3296783864498138,-0.4069360494613647,-0.2224903553724289,0.0,0.0,0.9863966703414916,-0.3793622255325317
-0.2013572752475738,0.8488951325416565,-0.1027202829718589,-0.2986004054546356,-0.4180033504962921,-0.2213459461927414,0.0,0.0,0.9800269603729248,-0.6219887137413025
-0.2023325860500335,0.8434237241744995,-0.0882816910743713,-0.2459374517202377,-0.4280091524124145,-0.2001159191131591,0.0,0.0,0.9947555065155028,-0.5828099846839905
-0.2029406577348709,0.8388047218322754,-0.0531762465834617,-0.207633301615715,-0.4363027215003967,-0.1658712774515152,0.0,0.0,0.9389889240264891,-0.8617869019508362
-0.2033412903547287,0.8352152705192566,-0.0341623947024345,-0.1613793224096298,-0.442739337682724,-0.128731831908226,0.0,0.0,0.909569501876831,-0.9106622338294984
-0.2035713195800781,0.8326585292816162,-0.0188600961118936,-0.1149517074227333,-0.4472654461860657,-0.0905224382877349,0.0,0.0,0.6468100547790527,-0.927623689174652
-0.2037198096513748,0.8305754065513611,-0.0126202199608087,-0.0933014601469039,-0.4497116208076477,-0.0489237233996391,0.0,0.0,0.3558821678161621,-0.9371537566184998
-0.203859657049179,0.8290191888809204,-0.0136435432359576,-0.0692744478583335,-0.4500812888145447,-0.0073932083323597,0.0,0.0,0.4454460144042969,-0.8318322896957397
-0.2040327042341232,0.8279590010643005,-0.0185544267296791,-0.0467166043817997,-0.4487102329730987,0.0274209640920162,0.0,0.0,0.3069593906402588,-0.944242537021637
-0.2039760649204254,0.8273971080780029,0.0024001759011298,-0.023929301649332,-0.4451389610767364,0.0714257210493087,0.0,0.0,0.3515346050262451,-0.7580947875976562
-0.2038324773311615,0.8269799947738647,0.0094225797802209,-0.0169750805944204,-0.4397452175617218,0.1078748330473899,0.0,0.0,-0.3770208954811096,-0.7010716795921326
-0.2037620097398758,0.8263348340988159,0.0009033677051775,-0.0267667956650257,-0.4330566823482513,0.1337708681821823,0.0,0.0,0.0658779144287109,-0.7678312659263611
-0.2035855799913406,0.8261661529541016,0.0098558980971574,-0.0051172915846109,-0.424591988325119,0.1692935973405838,0.0,0.0,-0.3022316694259643,-0.8137016296386719
-0.2034851014614105,0.8257770538330078,0.0008487257291562,-0.0145554654300212,-0.4146488010883331,0.1988634020090103,0.0,0.0,-0.0232813954353332,-0.5884855389595032
-0.2034544944763183,0.8251535296440125,-0.0073298150673508,-0.0246997289359569,-0.4034656584262848,0.2236635386943817,0.0,0.0,0.0236470699310302,-0.4456183910369873
-0.2032608091831207,0.8249720931053162,0.0087844980880618,-0.0050919847562909,-0.3921306729316711,0.2266997396945953,0.0,0.0,-0.5113475322723389,-0.6003364324569702
-0.2031346261501312,0.8245615363121033,0.0007627551094628,-0.0150289135053753,-0.3795032203197479,0.252549260854721,0.0,0.0,-0.6113121509552002,0.3504159450531006
-0.2030366361141204,0.8238932490348816,-0.0022651033941656,-0.0265527665615081,-0.3667069375514984,0.2559254765510559,0.0,0.0,-0.523339569568634,0.5463700294494629
-0.2029327452182769,0.8229491114616394,-0.0010491212597116,-0.0390727557241916,-0.3546380996704101,0.2413769215345382,0.0,0.0,-0.5771726369857788,0.5027720928192139
-0.2028245031833648,0.8217294216156006,-4.3914558773394674e-05,-0.0515613481402397,-0.3432181179523468,0.228399708867073,0.0,0.0,-0.4347008466720581,0.126279592514038
-0.2027386724948883,0.8202517032623291,-0.0024894995149224,-0.0630837529897689,-0.3316360712051391,0.2316411286592483,0.0,0.0,-0.5488162636756897,0.183964729309082
-0.2026731520891189,0.8185157775878906,-0.0047192024067044,-0.0746067315340042,-0.3198946118354797,0.2348294705152511,0.0,0.0,-0.0429020524024963,0.7116725444793701
-0.2025625705718994,0.8164834380149841,0.0013107057893648,-0.0882085487246513,-0.309770792722702,0.2024761438369751,0.0,0.0,-0.2282056808471679,0.2461162805557251
-0.2024678289890289,0.8141926527023315,-0.0004543328250292,-0.0997295156121254,-0.2994934618473053,0.2055466175079345,0.0,0.0,-0.6449933648109436,0.7153981924057007
-0.2023291140794754,0.8116239905357361,0.0052350587211549,-0.1124153137207031,-0.2905748784542084,0.178371399641037,0.0,0.0,0.3969800472259521,0.0866727828979492
