x_pos,y_pos,x_vel,y_vel,angle,ang_vel,leg_1,leg_2,main_booster,lat_booster
-0.0015729904407635,1.4034042358398438,-0.1597744226455688,-0.3340419828891754,0.0022190362215042,0.0438064560294151,0.0,0.0,-0.8424543105777056,-0.6035369869414358
-0.003239631652832,1.39568829536438,-0.1703580617904663,-0.3429447710514068,0.0058772037737071,0.0731710419058799,0.0,0.0,-0.7621634299329119,-0.8498276228224043
-0.0050087929703295,1.3877449035644531,-0.1823392063379287,-0.3530606031417846,0.0112368315458297,0.1072025150060653,0.0,0.0,-0.7662360318462982,0.6568736009452417
-0.0067875860258936,1.3795803785324097,-0.1826305836439132,-0.3629137575626373,0.0159366335719823,0.0940048024058342,0.0,0.0,0.3543182028495628,-0.8414114047269978
-0.0085725784301757,1.3720016479492188,-0.1854746788740158,-0.3369198143482208,0.0228259302675724,0.1377988159656524,0.0,0.0,0.4175518436792655,-0.7471648874489148
-0.010347843170166,1.3649038076400757,-0.1865855306386947,-0.3156280815601349,0.0317821912467479,0.1791419386863708,0.0,0.0,-0.663516070307443,-0.9026581699045566
-0.0122492788359522,1.3575835227966309,-0.2014141976833343,-0.3256244361400604,0.0429431796073913,0.2232403010129928,0.0,0.0,0.0930988814466513,0.7879202968839515
-0.0140457153320312,1.350699782371521,-0.1897737234830856,-0.3062635064125061,0.0529662743210792,0.2004805505275726,0.0,0.0,-0.6132597687705321,0.6812288568920921
-0.0158430095762014,1.3436086177825928,-0.1888471841812133,-0.3155076205730438,0.0619928911328315,0.1805488765239715,0.0,0.0,-0.260469448434881,0.8141733782709082
-0.0176300052553415,1.336309552192688,-0.1864984929561615,-0.3247474133968353,0.0697212815284729,0.1545817703008651,0.0,0.0,-0.046724392144428,0.9548642991080928
-0.0193848609924316,1.3288006782531738,-0.1814032942056656,-0.3340143263339996,0.0755870789289474,0.1173264756798744,0.0,0.0,-0.8269617902386559,0.817964579096353
-0.0211216919124126,1.3210786581039429,-0.1780569702386856,-0.3434304594993591,0.0799293741583824,0.0868536680936813,0.0,0.0,-0.1180110257450792,0.8818728671608098
-0.022828483954072,1.3131513595581057,-0.1731901615858078,-0.3524612784385681,0.0824171602725982,0.0497607924044132,0.0,0.0,0.3862079325141845,-0.7184110175723369
-0.0246059410274028,1.3054440021514893,-0.182069182395935,-0.3427964150905609,0.0867070406675338,0.0858056098222732,0.0,0.0,0.9435906018731192,0.8538990601099641
-0.0262743942439556,1.2990071773529053,-0.1700852662324905,-0.2862769961357116,0.0899285078048706,0.0644349828362464,0.0,0.0,0.8138057676695745,0.6489815096668846
-0.0278462413698434,1.2928543090820312,-0.159700721502304,-0.2736089825630188,0.0924277454614639,0.0499890074133873,0.0,0.0,-0.2409873469676033,0.6393474649620254
-0.0294117927551269,1.286497712135315,-0.1577194929122924,-0.2825931012630462,0.0935811102390289,0.0230693835765123,0.0,0.0,-0.253918308742959,-0.7270726310019203
-0.0310756675899028,1.2799086570739746,-0.1688804477453231,-0.2930009663105011,0.0960459411144256,0.049301192164421,0.0,0.0,-0.5208140931298066,-0.8521200425884805
-0.032851792871952,1.273099660873413,-0.1817150264978408,-0.3028920888900757,0.1001185551285743,0.0814596712589263,0.0,0.0,0.6297010780977441,0.799186814829518
-0.0347641929984092,1.2668997049331665,-0.1937498301267624,-0.2757190465927124,0.1026139929890632,0.0499134846031665,0.0,0.0,-0.849359553986708,-0.9698774672785634
-0.0367930419743061,1.2604777812957764,-0.2070799320936203,-0.2857239842414856,0.1067890152335167,0.0835079476237297,0.0,0.0,-0.7346691232947395,0.7416881189770547
-0.0388181693851947,1.2538410425186155,-0.2053465545177459,-0.2951689064502716,0.1096003130078315,0.0562312714755535,0.0,0.0,0.4851873530157697,-0.7986518064981624
-0.0408862121403217,1.247724175453186,-0.2115665227174759,-0.2722194492816925,0.1143320798873901,0.0946438312530517,0.0,0.0,0.1320059856184974,0.9227868308628588
-0.0429059043526649,1.24171781539917,-0.2050008475780487,-0.2671835720539093,0.1173466965556144,0.0602977089583873,0.0,0.0,-0.4588955016500833,-0.8691744536363152
-0.0450668334960937,1.2354791164398191,-0.2213654816150665,-0.2777040302753448,0.1226017773151397,0.105111226439476,0.0,0.0,0.7282029050165992,-0.8529629089193973
-0.0476076118648052,1.230056881904602,-0.2608594894409179,-0.2415567487478256,0.1293457150459289,0.1348786652088165,0.0,0.0,0.4810793740819903,-0.9747672052276642
-0.0503623001277446,1.225376009941101,-0.2842723429203033,-0.2088285237550735,0.1381040066480636,0.1751657724380493,0.0,0.0,-0.9038886572375512,-0.746672984816253
-0.0532460212707519,1.2204689979553225,-0.2990284562110901,-0.2191121131181717,0.148726224899292,0.2124445736408233,0.0,0.0,0.9233400108469044,-0.9001385185583052
-0.0565573684871196,1.2166355848312378,-0.3432824909687042,-0.1716365218162536,0.1608689129352569,0.2428538352251052,0.0,0.0,-0.8511292167081719,0.9909772113800116
-0.0598510727286338,1.2125980854034424,-0.3396106362342834,-0.1805882155895233,0.171121135354042,0.205044224858284,0.0,0.0,-0.95101590779495,0.9601013178863372
-0.0631264671683311,1.2083721160888672,-0.3357869684696197,-0.1887962073087692,0.1793909817934036,0.1653972417116165,0.0,0.0,0.5633865432097673,-0.6561200369107293
-0.0666629821062088,1.2044998407363892,-0.36302450299263,-0.173266127705574,0.1888023316860199,0.1882269978523254,0.0,0.0,0.2935084746193088,-0.844385295477576
-0.0705140084028244,1.2013014554977417,-0.3960557579994201,-0.1435829699039459,0.1998166739940643,0.2202869951725006,0.0,0.0,0.954189366284374,-0.6547397678973219
-0.0746367424726486,1.1984663009643557,-0.4242684245109558,-0.1276687234640121,0.2119082510471344,0.2418315857648849,0.0,0.0,0.2242548467449603,-0.61862188218196
-0.078950211405754,1.1960844993591309,-0.4445094466209411,-0.1077983081340789,0.2252197265625,0.2662292420864105,0.0,0.0,0.9542995576643304,0.9839960590084156
-0.0834238082170486,1.194833517074585,-0.4585038721561432,-0.0573384650051593,0.2365240752696991,0.2260866612195968,0.0,0.0,0.8746237494728448,0.7682834808680109
-0.0880484580993652,1.1941230297088623,-0.4719276428222656,-0.0331277400255203,0.2461412101984024,0.1923426240682602,0.0,0.0,0.2515649905403594,-0.7834096889014097
-0.0929009467363357,1.1940274238586426,-0.49619060754776,-0.0061165592633187,0.2572869658470154,0.222915768623352,0.0,0.0,-0.4708462999519556,-0.7327487803165
-0.0978728309273719,1.1936975717544556,-0.509531557559967,-0.0168798379600048,0.2699114382266998,0.2524894773960113,0.0,0.0,0.6782717597375925,-0.7517628674946305
-0.1030945777893066,1.1940317153930664,-0.5359302759170532,0.0122577408328652,0.2840155959129333,0.2820833027362823,0.0,0.0,0.3548322751801769,0.7306090045252476
-0.1085936576128006,1.1950559616088867,-0.561899721622467,0.0431363731622695,0.2963745594024658,0.247179701924324,0.0,0.0,-0.6946344375610352,0.9992365837097168
-0.1140598282217979,1.195900559425354,-0.5560939311981201,0.0355704687535762,0.3061637878417969,0.1957844793796539,0.0,0.0,-0.7526723742485046,0.9948662519454956
-0.1194952949881553,1.1965558528900146,-0.5505997538566589,0.0276166498661041,0.3134787380695343,0.1462992131710052,0.0,0.0,-0.558364748954773,0.9840930700302124
-0.1249026283621788,1.197030544281006,-0.545385479927063,0.0200827121734619,0.3183171153068542,0.0967674329876899,0.0,0.0,-0.7407376766204834,0.9787683486938475
-0.1302971839904785,1.1973073482513428,-0.5421829223632812,0.0116970045492053,0.321155846118927,0.0567744076251983,0.0,0.0,-0.7959955930709839,0.9854367971420288
-0.1356681883335113,1.1973932981491089,-0.5376123189926147,0.003704591654241,0.3216827511787414,0.0105378394946455,0.0,0.0,-0.7577106952667236,0.9658935070037842
-0.1410165727138519,1.1972929239273071,-0.5330995917320251,-0.0040759141556918,0.3198786079883575,-0.036082673817873,0.0,0.0,-0.9197453260421752,0.9638899564743042
-0.1463664025068283,1.197010517120361,-0.5315304398536682,-0.0117911817505955,0.3162909150123596,-0.0717538818717002,0.0,0.0,-0.8931655883789062,0.986940860748291
-0.151718333363533,1.1965439319610596,-0.5300361514091492,-0.0196234621107578,0.3109454214572906,-0.1069105118513107,0.0,0.0,-0.953581690788269,0.9195752143859864
-0.1570607125759124,1.195886254310608,-0.5271636247634888,-0.0277248211205005,0.3036094307899475,-0.1467199772596359,0.0,0.0,-0.9970532059669496,0.8892323970794678
-0.1623780280351638,1.195047378540039,-0.5222730040550232,-0.0353437885642051,0.2938415110111236,-0.195358395576477,0.0,0.0,-0.9991242289543152,0.9101030826568604
-0.167692095041275,1.1940228939056396,-0.5200923681259155,-0.0432988926768302,0.2821982204914093,-0.2328656166791916,0.0,0.0,-0.9948899745941162,0.7155617475509644
-0.1729988157749176,1.1928032636642456,-0.5174565315246582,-0.0517056509852409,0.2686420679092407,-0.2711230218410492,0.0,0.0,-0.9991241693496704,0.9789042472839355
-0.1782896965742111,1.1914050579071045,-0.5136669278144836,-0.0593883581459522,0.2528786361217499,-0.315268725156784,0.0,0.0,-0.985579550266266,-0.1397034525871276
-0.1836378127336502,1.1897892951965332,-0.5191143155097961,-0.069193810224533,0.2369057387113571,-0.3194578289985657,0.0,0.0,-0.9984974265098572,0.8196796178817749
-0.1889893561601638,1.187971830368042,-0.5178151726722717,-0.0780860111117363,0.2193312644958496,-0.3514895141124725,0.0,0.0,-0.966023087501526,0.8860262632369995
-0.1943199187517166,1.1859720945358276,-0.5133829712867737,-0.0860673934221267,0.1994713544845581,-0.3971981406211853,0.0,0.0,-0.9600777626037598,0.529541015625
-0.1996568739414215,1.183774709701538,-0.5124174356460571,-0.0949379652738571,0.1780825853347778,-0.4277756810188293,0.0,0.0,-0.9964395761489868,0.9482237100601196
-0.2049683630466461,1.1813950538635254,-0.5074149370193481,-0.1030844077467918,0.1543282270431518,-0.4750877916812897,0.0,0.0,-0.989757001399994,0.483487606048584
-0.2103354930877685,1.1788023710250854,-0.5126715898513794,-0.1129178702831268,0.1303493976593017,-0.4795766770839691,0.0,0.0,-0.9813408255577089,0.4657443761825561
-0.2157577574253082,1.1759967803955078,-0.5178812146186829,-0.1227528005838394,0.1061439514160156,-0.484109103679657,0.0,0.0,-0.9933524131774902,0.2635431289672851
-0.2212345600128173,1.172978162765503,-0.5230394601821899,-0.1325892508029937,0.0817099809646606,-0.4886797368526459,0.0,0.0,-0.9069260954856871,-0.1028860807418823
-0.2267652451992035,1.169747233390808,-0.5281416177749634,-0.1424272209405899,0.057045828551054,-0.4932833313941955,0.0,0.0,-0.9840660691261292,-0.1191653609275817
-0.232349008321762,1.1663038730621338,-0.5331822633743286,-0.1522666960954666,0.0321501046419143,-0.4979147911071777,0.0,0.0,-0.992248833179474,0.7383005619049072
-0.2379257678985595,1.1626462936401367,-0.5307214856147766,-0.162191241979599,0.0055346237495541,-0.5323096513748169,0.0,0.0,-0.944361686706543,-0.3732883930206299
-0.2435539662837982,1.1587780714035034,-0.5356215834617615,-0.1720402389764785,-0.0213142689317464,-0.5369781851768494,0.0,0.0,-0.9439294338226318,-0.304445743560791
-0.2492325752973556,1.1546993255615234,-0.5404423475265503,-0.1818908154964447,-0.0483972877264022,-0.5416604280471802,0.0,0.0,-0.8542296290397644,-0.1749932765960693
-0.2549605965614319,1.1504101753234863,-0.5451763868331909,-0.1917429566383361,-0.0757148712873458,-0.546351969242096,0.0,0.0,-0.9223790168762208,0.3634085655212402
-0.2607367634773254,1.1459110975265503,-0.5498158931732178,-0.2015966325998306,-0.1032672896981239,-0.5510486364364624,0.0,0.0,-0.9581747055053712,0.9192965030670166
-0.2664991021156311,1.1411890983581543,-0.5467186570167542,-0.2121583968400955,-0.1326028704643249,-0.5867120027542114,0.0,0.0,-0.9337052702903748,-0.0305466651916503
-0.2723069190979004,1.1362590789794922,-0.5511454939842224,-0.2220223993062973,-0.1621729433536529,-0.5914018154144287,0.0,0.0,-0.7190935611724854,0.0514870882034301
-0.2781587541103363,1.1311205625534058,-0.5554521083831787,-0.231887862086296,-0.1919772028923034,-0.5960851311683655,0.0,0.0,-0.8694994449615479,-0.2602654099464416
-0.2840529382228851,1.1257741451263428,-0.5596286058425903,-0.2417547106742859,-0.2220150977373123,-0.6007581949234009,0.0,0.0,-0.527846097946167,0.3555617332458496
-0.2899877429008484,1.1202199459075928,-0.5636645555496216,-0.2516228258609772,-0.2522859573364258,-0.6054176092147827,0.0,0.0,-0.5711430907249451,-0.2665404081344604
-0.2959613800048828,1.1144583225250244,-0.5675494074821472,-0.2614921629428863,-0.2827889025211334,-0.6100597381591797,0.0,0.0,-0.5692585706710815,-0.1127851605415344
-0.3019718527793884,1.1084890365600586,-0.5712719559669495,-0.2713626325130462,-0.3135229349136352,-0.6146811246871948,0.0,0.0,-0.3440039157867431,-0.8781941533088684
-0.3080883026123047,1.1023372411727903,-0.5837355852127075,-0.2797165513038635,-0.3426119089126587,-0.5817800164222717,0.0,0.0,-0.2925053238868713,-0.7067255973815918
-0.314289391040802,1.096010684967041,-0.593658447265625,-0.2877177596092224,-0.3704549968242645,-0.5568618774414062,0.0,0.0,0.4920555353164673,-0.2487603425979614
-0.3201871514320373,1.090465426445007,-0.563718318939209,-0.2534554004669189,-0.3981914520263672,-0.5547291040420532,0.0,0.0,0.3733695745468139,-0.4215962886810303
-0.3259360194206238,1.085704326629639,-0.5485132932662964,-0.2192633152008056,-0.4265852272510528,-0.5678757429122925,0.0,0.0,0.024072527885437,-0.843277096748352
-0.3317746222019195,1.0811054706573486,-0.5592132806777954,-0.2120970785617828,-0.4534561336040497,-0.5374182462692261,0.0,0.0,0.3457239866256714,-0.4926515817642212
-0.337325245141983,1.0771430730819702,-0.5306771397590637,-0.1842774450778961,-0.4803971350193023,-0.5388208031654358,0.0,0.0,0.6700208187103271,-0.8719660043716431
-0.3427896499633789,1.0738698244094849,-0.5236788988113403,-0.1536123305559158,-0.5058915615081787,-0.5098889470100403,0.0,0.0,0.7477045059204102,-0.6947844624519348
-0.348026841878891,1.071413516998291,-0.5022522211074829,-0.1173107847571373,-0.5302661657333374,-0.4874934256076813,0.0,0.0,0.150694727897644,-0.5782752633094788
-0.3530796468257904,1.0694186687469482,-0.4849843084812164,-0.096784621477127,-0.5536375641822815,-0.4674279689788818,0.0,0.0,0.5510530471801758,-0.8066126108169556
-0.3578348755836487,1.0678855180740356,-0.4569039344787597,-0.075973741710186,-0.5753703117370605,-0.4346553385257721,0.0,0.0,0.4974443912506103,-0.6022523045539856
-0.3624541163444519,1.0665435791015625,-0.4445082545280456,-0.0673301145434379,-0.5959821939468384,-0.4122377336025238,0.0,0.0,0.1717948913574218,-0.4111027717590332
-0.3668666481971741,1.06528639793396,-0.4241620004177093,-0.0637500956654548,-0.6164959073066711,-0.410273790359497,0.0,0.0,0.4780012369155884,-0.5155431628227234
-0.3709063529968261,1.06435227394104,-0.3881438374519348,-0.0491379871964454,-0.6357605457305908,-0.385293036699295,0.0,0.0,0.477328896522522,-0.6363906860351562
-0.3746712803840637,1.0635474920272827,-0.3620453476905823,-0.0429974421858787,-0.6535928845405579,-0.3566469550132751,0.0,0.0,0.6727776527404785,-0.5038369297981262
-0.3780076503753662,1.0634770393371582,-0.320097267627716,-0.0101569732651114,-0.6705303192138672,-0.3387481868267059,0.0,0.0,0.36451256275177,-0.6372745037078857
-0.3809661269187927,1.0639503002166748,-0.2834802865982055,0.0143998181447386,-0.6862071752548218,-0.3135367035865783,0.0,0.0,0.4182085990905761,-0.834128201007843
-0.3835116028785705,1.0648211240768433,-0.2436963319778442,0.0327034294605255,-0.700115442276001,-0.2781657576560974,0.0,0.0,0.1548959016799926,-0.5602359175682068
-0.3858777582645416,1.0656989812850952,-0.2267890870571136,0.0334327444434165,-0.7128611207008362,-0.2549130618572235,0.0,0.0,0.4933513402938843,-0.5577165484428406
-0.3880037665367126,1.066973328590393,-0.2035975903272628,0.0513889826834201,-0.724664568901062,-0.2360685169696808,0.0,0.0,-0.2012816667556762,-0.7452113628387451
-0.3901490271091461,1.068085551261902,-0.2065598517656326,0.0446968153119087,-0.7352029085159302,-0.2107662260532379,0.0,0.0,0.0833926200866699,-0.6656389236450195
-0.3920784890651703,1.069464087486267,-0.1860391646623611,0.0570672005414962,-0.7444413900375366,-0.1847690492868423,0.0,0.0,0.0229780673980712,0.3488315343856811
-0.3937121033668518,1.0712463855743408,-0.1561235189437866,0.0747305676341056,-0.7541985511779785,-0.1951424926519394,0.0,0.0,-0.4553259611129761,-0.1502174139022827
-0.3953243196010589,1.0728107690811155,-0.153939664363861,0.0649259462952613,-0.7641125321388245,-0.1982795000076294,0.0,0.0,0.0953364372253418,-0.0226566195487976
-0.396594226360321,1.0747326612472534,-0.1195483654737472,0.0806233063340187,-0.7743420004844666,-0.2045899182558059,0.0,0.0,-0.1777501702308654,-0.0728726983070373
-0.3978381156921386,1.0764368772506714,-0.1169104427099227,0.070818692445755,-0.7847170829772949,-0.2075015008449554,0.0,0.0,-0.280519962310791,0.0020785331726074
-0.3990537524223327,1.0779231786727903,-0.1140620484948158,0.0610142238438129,-0.7952319383621216,-0.2102966606616974,0.0,0.0,-0.5736663937568665,-0.4878232479095459
-0.4002390503883362,1.0791913270950315,-0.1110145896673202,0.0512099117040634,-0.8058806657791138,-0.2129731625318527,0.0,0.0,0.0965614318847656,-0.5437372326850891
-0.4012472033500671,1.0807663202285769,-0.0940396338701248,0.0652510970830917,-0.8155837059020996,-0.1940607726573944,0.0,0.0,-0.2725511789321899,0.0609121322631835
-0.4022213816642761,1.082122802734375,-0.0906261354684829,0.0554484575986862,-0.8254084587097168,-0.1964955478906631,0.0,0.0,-0.1693283319473266,0.188230276107788
-0.4031598567962646,1.083261251449585,-0.087047278881073,0.0456460490822792,-0.8353488445281982,-0.1988075226545334,0.0,0.0,-0.5834687352180481,-0.1679979562759399
-0.4040609896183014,1.084181547164917,-0.083313837647438,0.0358438864350318,-0.8453986644744873,-0.200995922088623,0.0,0.0,-0.0562691688537597,0.1246250867843627
-0.4049232006072998,1.084883213043213,-0.079436220228672,0.0260419901460409,-0.8555516600608826,-0.2030602693557739,0.0,0.0,-0.0490371584892272,0.1148005723953247
-0.4057452082633972,1.0853664875030518,-0.0754244178533554,0.0162403807044029,-0.8658016920089722,-0.20500048995018,0.0,0.0,0.0111407041549682,-0.4864767789840698
-0.4062252044677734,1.0859229564666748,-0.0413860864937305,0.0195039939135313,-0.875926673412323,-0.2025001943111419,0.0,0.0,-0.1671741604804992,-0.755304753780365
-0.4066959917545318,1.0863327980041504,-0.0416261777281761,0.0138212349265813,-0.8843656778335571,-0.1687796413898468,0.0,0.0,-0.2029128670692443,-0.5074776411056519
-0.4071428775787353,1.086566925048828,-0.0399171374738216,0.0064949723891913,-0.8918242454528809,-0.1491709500551223,0.0,0.0,-0.5333239436149597,-0.3827130794525146
-0.4075451493263244,1.086582064628601,-0.0354536399245262,-0.0033024710137397,-0.8993554711341858,-0.1506245881319046,0.0,0.0,-0.1811296939849853,0.478613018989563
-0.4079018235206604,1.0863780975341797,-0.0308985821902751,-0.0130995856598019,-0.906953513622284,-0.1519605815410614,0.0,0.0,-0.4460142850875854,-0.6858642101287842
-0.4082521498203277,1.0860285758972168,-0.0314654298126697,-0.0185896251350641,-0.9126895070075988,-0.1147202402353286,0.0,0.0,0.0140756368637084,-0.4468854665756225
-0.4082896709442138,1.0857927799224854,-0.0001404551730956,-0.0136122610419988,-0.9185421466827391,-0.1170530468225479,0.0,0.0,-0.1450068950653076,-0.1202316880226135
-0.4082793295383453,1.085337519645691,0.0046512829139828,-0.0234070904552936,-0.9244447350502014,-0.1180523186922073,0.0,0.0,-0.3552145957946777,-0.2604801654815674
-0.4082203805446625,1.084662914276123,0.009509109891951,-0.0332015939056873,-0.9303920269012452,-0.1189452409744262,0.0,0.0,-0.2664613723754883,-0.808484673500061
-0.4081411957740783,1.083832621574402,0.0105819115415215,-0.0392874255776405,-0.9347957968711852,-0.0880756303668022,0.0,0.0,-0.4747018218040466,-0.2044523358345031
-0.4080122113227844,1.0827826261520386,0.0155580891296267,-0.0490804724395275,-0.9392341375350952,-0.088767185807228,0.0,0.0,-0.7341502904891968,-0.1980457305908203
