x_pos,y_pos,x_vel,y_vel,angle,ang_vel,leg_1,leg_2,main_booster,lat_booster
-0.0016366004711017,1.4030877351760864,-0.1656633764505386,-0.3481009304523468,0.0017991670174524,0.0354927368462085,0.0,0.0,-0.1374924339330629,-0.708913671478654
-0.0034399987198412,1.3947384357452393,-0.1833711713552475,-0.3710851073265075,0.0047968327999114,0.0599593892693519,0.0,0.0,0.6145433354642886,-0.8178759378018896
-0.0052827834151685,1.386439085006714,-0.1891776621341705,-0.3688839972019195,0.0096537051722407,0.0971463322639465,0.0,0.0,0.1295695132231165,-0.516453155150474
-0.0073784827254712,1.3781120777130127,-0.2153125256299972,-0.3701354265213012,0.0153266945853829,0.1134702190756797,0.0,0.0,-0.9036595514226352,0.675412012209093
-0.0095312120392918,1.3692525625228882,-0.2193662226200103,-0.3938134014606476,0.0193733293563127,0.0809400901198387,0.0,0.0,0.4116875043993291,-0.7580694958560951
-0.0117446901276707,1.360553503036499,-0.2271841019392013,-0.3867100477218628,0.0251474659889936,0.1154932528734207,0.0,0.0,-0.9021988741877454,-0.918678105819274
-0.0141575811430811,1.3513154983520508,-0.2490490972995758,-0.4107261598110199,0.032824583351612,0.1535562723875045,0.0,0.0,-0.2762943795573824,-0.8610577938707984
-0.0167472846806049,1.3415420055389404,-0.2680551409721374,-0.4346069097518921,0.0418122634291648,0.1797700673341751,0.0,0.0,-0.2797702430901458,-0.9319975616249364
-0.0195390693843364,1.3312382698059082,-0.290203720331192,-0.4582756161689758,0.0527204312384128,0.2181836664676666,0.0,0.0,-0.8710668116502529,0.8252281510970085
-0.0223945621401071,1.320409893989563,-0.2949508726596832,-0.4816208183765411,0.0620420798659324,0.1864500939846038,0.0,0.0,-0.7363227231696885,0.8415833106641535
-0.0253033638000488,1.3090534210205078,-0.2984302639961242,-0.5050589442253113,0.0695165321230888,0.1495023667812347,0.0,0.0,0.1006825247056855,-0.5986013622657093
-0.0283610336482524,1.2976871728897097,-0.314666748046875,-0.5055986046791077,0.0783337280154228,0.176360473036766,0.0,0.0,-0.545754662733225,0.5006025181792475
-0.031501866877079,1.2857933044433594,-0.3218347430229187,-0.5290329456329346,0.086020603775978,0.1537515819072723,0.0,0.0,0.1063922683088831,-0.7341473583553831
-0.034799288958311,1.273712158203125,-0.3390974998474121,-0.5375097393989563,0.0953105688095092,0.1858163774013519,0.0,0.0,-0.8984499005139848,-0.559479057521416
-0.0382629409432411,1.261096477508545,-0.3566767573356628,-0.5613850355148315,0.1055494099855423,0.2047954052686691,0.0,0.0,-0.199374172673473,0.8030865923877135
-0.0417844764888286,1.2479476928710938,-0.3606601059436798,-0.5850018262863159,0.1140123233199119,0.1692735254764557,0.0,0.0,0.5778675896811643,0.6100995747622437
-0.0453433021903038,1.2355207204818726,-0.3636277019977569,-0.5529197454452515,0.121717095375061,0.1541095077991485,0.0,0.0,-0.1439117553619322,0.6879107944192888
-0.0489689819514751,1.2225642204284668,-0.3687252998352051,-0.5763632655143738,0.127856969833374,0.1228084713220596,0.0,0.0,-0.8251712962720046,-0.6142520567426204
-0.0527697578072547,1.2090697288513184,-0.3873974084854126,-0.6003934144973755,0.1351586431264877,0.1460463106632232,0.0,0.0,-0.4298682575566024,-0.8566357415814638
-0.0567811951041221,1.195023775100708,-0.4105435013771057,-0.6251350045204163,0.1445424556732177,0.1876930445432663,0.0,0.0,-0.6996859550428405,-0.6667173949503138
-0.0609694495797157,1.1804388761520386,-0.4294074475765228,-0.6492831707000732,0.1551250964403152,0.2116720229387283,0.0,0.0,0.3033195995699542,0.9518772210308672
-0.0652617439627647,1.1658506393432615,-0.4380659162998199,-0.6493116617202759,0.1639733612537384,0.1769813001155853,0.0,0.0,-0.6452316873163717,-0.9466180610907752
-0.069747544825077,1.1507115364074707,-0.4590531289577484,-0.67403644323349,0.1744772344827652,0.2100965976715088,0.0,0.0,-0.435885096078157,-0.9976617197051568
-0.0744368582963943,1.1350088119506836,-0.4813148379325866,-0.6993989944458008,0.1869286298751831,0.2490500211715698,0.0,0.0,0.0612323114571486,-0.9012118187303008
-0.0795158371329307,1.1193339824676514,-0.52223801612854,-0.6985278725624084,0.2013706266880035,0.2888654470443725,0.0,0.0,-0.2813285648295589,-0.9780675329273328
-0.0848234146833419,1.1030817031860352,-0.5476701259613037,-0.7247238755226135,0.2184385806322097,0.3413592278957367,0.0,0.0,0.1409749416577768,-0.7228817690497393
-0.0904299765825271,1.087018966674805,-0.5791327953338623,-0.716746985912323,0.2371553778648376,0.3743359744548797,0.0,0.0,0.4251971376208798,-0.9132384768207964
-0.096537210047245,1.0714017152786257,-0.6310022473335266,-0.6974965333938599,0.2577838599681854,0.4125699996948242,0.0,0.0,-0.9719577329758612,0.9478435293397646
-0.1027267426252365,1.055283546447754,-0.6378377676010132,-0.719793975353241,0.2771064043045044,0.3864511847496032,0.0,0.0,-0.0736013209406545,-0.6099214593338365
-0.1091011986136436,1.0386122465133667,-0.6576751470565796,-0.7449195981025696,0.2979182302951813,0.4162369668483734,0.0,0.0,0.0268020030114337,-0.9158311611533648
-0.1158258467912674,1.0221500396728516,-0.694541335105896,-0.736343502998352,0.3207887411117553,0.4574102759361267,0.0,0.0,-0.8564835786819458,0.9913325309753418
-0.1226227730512619,1.0051848888397217,-0.7001358866691589,-0.758680522441864,0.3421174883842468,0.4265753626823425,0.0,0.0,-0.8544814586639404,0.9975645542144777
-0.1294961869716644,0.9877322912216188,-0.7061462998390198,-0.7802656292915344,0.3618898391723633,0.3954469561576843,0.0,0.0,-0.9553574323654176,0.9944978952407836
-0.1364398896694183,0.9697772264480592,-0.711532473564148,-0.8024416565895081,0.3800661563873291,0.3635265827178955,0.0,0.0,-0.9535265564918518,0.9943077564239502
-0.1434472054243087,0.9513369202613832,-0.7160214781761169,-0.8237273693084717,0.3963580429553985,0.3258379101753235,0.0,0.0,-0.9304779767990112,0.9766745567321776
-0.1505211889743805,0.932416558265686,-0.7208441495895386,-0.8447295427322388,0.4107860028743744,0.2885594666004181,0.0,0.0,-0.8403217196464539,0.9399025440216064
-0.1576664894819259,0.913000762462616,-0.7263808250427246,-0.8664193749427795,0.423584908246994,0.2559782564640045,0.0,0.0,-0.9086856842041016,0.9796998500823976
-0.1648763716220855,0.8931085467338562,-0.7309952974319458,-0.8871451020240784,0.4344392716884613,0.2170874625444412,0.0,0.0,-0.8414285778999329,0.9210166931152344
-0.1721647232770919,0.872734010219574,-0.7373561859130859,-0.9081964492797852,0.4437189400196075,0.185593843460083,0.0,0.0,-0.9168412685394288,0.9400107860565186
-0.1795204132795334,0.851875901222229,-0.7423786520957947,-0.9292117357254028,0.4511777758598327,0.1491773128509521,0.0,0.0,-0.8818787336349487,0.8611264228820801
-0.1869645118713379,0.8305256366729736,-0.7500583529472351,-0.9507349729537964,0.4573814868927002,0.1240741610527038,0.0,0.0,-0.8798962235450745,0.851069450378418
-0.1944718360900879,0.8086919188499451,-0.7546429634094238,-0.971670389175415,0.4616797268390655,0.0859640091657638,0.0,0.0,-0.7669461369514465,0.7587652206420898
-0.2020505368709564,0.7863617539405823,-0.7603177428245544,-0.9932617545127868,0.4643832445144653,0.0540702417492866,0.0,0.0,-0.8070038557052612,0.8124479055404663
-0.2096977680921554,0.7635447978973389,-0.7655954360961914,-1.014376521110535,0.4653458297252655,0.0192519389092922,0.0,0.0,-0.7213994860649109,0.8583778142929077
-0.2174208164215088,0.7402259111404419,-0.7718912363052368,-1.0362582206726074,0.4648861885070801,-0.0091929221525788,0.0,0.0,-0.679234504699707,0.5942994356155396
-0.2252319306135177,0.716400146484375,-0.779704213142395,-1.0584560632705688,0.4633360207080841,-0.0310031715780496,0.0,0.0,-0.6466253995895386,0.39087975025177
-0.2331772744655609,0.6920392513275146,-0.7933457493782043,-1.0823140144348145,0.4620268046855926,-0.0261842310428619,0.0,0.0,-0.8070064783096313,-0.568954348564148
-0.2413055896759033,0.6671133041381836,-0.8131362795829773,-1.107923150062561,0.4623632431030273,0.0067287236452102,0.0,0.0,-0.8738383054733276,-0.549395740032196
-0.2496156692504882,0.6416212916374207,-0.832802951335907,-1.1335699558258057,0.4643375873565674,0.0394869744777679,0.0,0.0,-0.950985550880432,-0.8528095483779907
-0.2581197321414947,0.615545928478241,-0.8540867567062378,-1.1601463556289673,0.4684054851531982,0.0813580304384231,0.0,0.0,-0.9358217120170592,-0.948229730129242
-0.2668066024780273,0.5888971090316772,-0.8739438056945801,-1.186177134513855,0.4742287099361419,0.1164644733071327,0.0,0.0,-0.9780153036117554,-0.9589846134185792
-0.2757006585597992,0.5616630911827087,-0.8968297839164734,-1.2129647731781006,0.4824874997138977,0.165175512433052,0.0,0.0,-0.9826200008392334,-0.8160020709037781
-0.284771054983139,0.5338546633720398,-0.9159072637557985,-1.2390613555908203,0.4923962354660034,0.1981748342514038,0.0,0.0,-0.9866699576377868,-0.6124024391174316
-0.2940162122249603,0.5054836869239807,-0.9346880912780762,-1.2646141052246094,0.503817617893219,0.2284280359745025,0.0,0.0,-0.9893903136253356,-0.5489554405212402
-0.3034195005893707,0.4765540957450866,-0.9514119029045104,-1.2898848056793213,0.5163511633872986,0.2506707906723022,0.0,0.0,-0.9954447746276855,-0.3283979892730713
-0.3129526078701019,0.4470913410186767,-0.9645246267318726,-1.3137547969818115,0.5291197896003723,0.2553727626800537,0.0,0.0,-0.9964657425880432,-0.2220918536186218
-0.3226148188114166,0.4170955419540405,-0.9775532484054564,-1.3376251459121704,0.5421216487884521,0.2600368857383728,0.0,0.0,-0.9965399503707886,0.1820645332336425
-0.3324052393436432,0.3865666389465332,-0.9904915690422058,-1.3614959716796875,0.5553545951843262,0.2646591961383819,0.0,0.0,-0.9985202550888062,0.2519451379776001
-0.3423231244087219,0.3555047214031219,-1.0033330917358398,-1.3853672742843628,0.5688163638114929,0.2692358195781708,0.0,0.0,-0.9978225231170654,0.4115228652954101
-0.3523674607276916,0.3239099979400635,-1.0160706043243408,-1.4092390537261963,0.5825045108795166,0.273762434720993,0.0,0.0,-0.9978590607643129,0.5477497577667236
-0.3624967038631439,0.2918164134025574,-1.0235849618911743,-1.431119441986084,0.5951477289199829,0.2528637945652008,0.0,0.0,-0.9962269067764282,0.6717464923858643
-0.3727153837680816,0.2592288553714752,-1.0316106081008911,-1.4527785778045654,0.6067999005317688,0.2330428808927536,0.0,0.0,-0.9979366064071656,0.6820664405822754
-0.3830037713050842,0.2261608690023422,-1.037210464477539,-1.4736006259918213,0.616897702217102,0.2019563615322113,0.0,0.0,-0.998468577861786,0.7224507331848145
-0.3933663368225097,0.1926102936267852,-1.04340922832489,-1.4945462942123413,0.6255834698677063,0.1737158596515655,0.0,0.0,-0.9977031946182252,0.8034878969192505
-0.4037950038909912,0.1585762053728103,-1.0487210750579834,-1.5154629945755005,0.6327258348464966,0.1428471058607101,0.0,1.0,-0.2957847118377685,0.9991250038146972
-0.4140543937683105,0.1247588470578193,-1.0370476245880127,-1.5187476873397827,0.6416856050491333,0.1554590910673141,0.0,1.0,-0.1736376285552978,0.998361587524414
-0.4189779758453369,0.1166140139102935,-0.5214789509773254,-0.0939915105700492,0.8521428108215332,4.541671752929688,0.0,1.0,-0.1736376285552978,0.998361587524414
