x_pos,y_pos,x_vel,y_vel,angle,ang_vel,leg_1,leg_2,main_booster,lat_booster
-0.0015179633628576,1.403478980064392,-0.1540138721466064,-0.3307214081287384,0.0019957753829658,0.0393855944275856,0.0,0.0,-0.3880852460861206,0.776228666305542
-0.0029632567893713,1.395911693572998,-0.1450429111719131,-0.3363217413425445,0.0025022635236382,0.0101311644539237,0.0,0.0,-0.1495083570480346,0.8664779663085938
-0.0043182373046875,1.3881924152374268,-0.1341204345226287,-0.3430785536766052,0.0011443040566518,-0.0271617714315652,0.0,0.0,0.191368818283081,0.1179674863815307
-0.005751609802246,1.3808677196502686,-0.1417768001556396,-0.3255397379398346,-0.0003964596253354,-0.0308180693536996,0.0,0.0,-0.0846643447875976,0.5192818641662598
-0.0071268081665039,1.373399019241333,-0.1349284052848816,-0.3319446444511413,-0.0029549705795943,-0.0511748418211936,0.0,0.0,-0.3061327338218689,0.3041785955429077
-0.0084925647825002,1.3657848834991455,-0.1342234462499618,-0.3384136259555816,-0.0052832486107945,-0.0465701632201671,0.0,0.0,-0.1897194385528564,-0.2624315023422241
-0.0098483087494969,1.3580251932144165,-0.1334457993507385,-0.3448838591575622,-0.0073816771619021,-0.0419725999236106,0.0,0.0,-0.4236199855804443,-0.0398299098014831
-0.0111931804567575,1.3501198291778564,-0.1325927674770355,-0.3513548672199249,-0.0092498091980814,-0.037365972995758,0.0,0.0,-0.1079894304275512,0.6746129989624023
-0.0124742509797215,1.3420758247375488,-0.1251271069049835,-0.3575404286384582,-0.0121966702863574,-0.0589428730309009,0.0,0.0,-0.2964164614677429,0.3028385639190674
-0.0137428287416696,1.3338861465454102,-0.1241140216588974,-0.3640116453170776,-0.0149123184382915,-0.0543176904320716,0.0,0.0,-0.1128377914428711,0.7106895446777344
-0.0149341579526662,1.3255499601364136,-0.1149923801422119,-0.3705402910709381,-0.0190071184188127,-0.0819039344787597,0.0,0.0,-0.3888702988624573,0.6205655336380005
-0.0160566326230764,1.3170655965805054,-0.1069593206048011,-0.3771560490131378,-0.0242448803037405,-0.104764424264431,0.0,0.0,-0.8144382238388062,-0.1050333380699157
-0.0171642303466796,1.3084359169006348,-0.1056921929121017,-0.3836287260055542,-0.0292515847831964,-0.1001433506608009,0.0,0.0,-0.6751779317855835,-0.2214806675910949
-0.0182559005916118,1.2996609210968018,-0.1043410673737526,-0.3901013731956482,-0.0340280495584011,-0.0955381244421005,0.0,0.0,-0.204991340637207,0.0291354656219482
-0.019330883398652,1.2907404899597168,-0.1029048115015029,-0.3965737223625183,-0.0385743156075477,-0.0909333527088165,0.0,0.0,-0.9189372062683104,-0.1934500932693481
-0.0203883163630962,1.2816745042800903,-0.1013825684785842,-0.4030459225177765,-0.0428907312452793,-0.0863360986113548,0.0,0.0,-0.6995930671691895,-0.2877786159515381
-0.0214273445308208,1.272463083267212,-0.0997739806771278,-0.4095179438591003,-0.0469777286052703,-0.0817474573850631,0.0,0.0,-0.8666083812713623,-0.3075045347213745
-0.0224470142275095,1.263106107711792,-0.0980785936117172,-0.4159898161888122,-0.0508358068764209,-0.0771682560443878,0.0,0.0,-0.8613117933273315,-0.1822014451026916
-0.0234465599060058,1.25360369682312,-0.0962961986660957,-0.4224615097045898,-0.0544654726982116,-0.0725995972752571,0.0,0.0,-0.7999833822250366,0.1474947929382324
-0.0244251247495412,1.2439557313919067,-0.0944267809391021,-0.4289330840110779,-0.0578673034906387,-0.0680424496531486,0.0,0.0,-0.812527596950531,0.1594572067260742
-0.0253817550837993,1.2341620922088623,-0.092470534145832,-0.4354044795036316,-0.0610419027507305,-0.0634975656867027,0.0,0.0,-0.9025935530662536,-0.1328275203704834
-0.0263157840818166,1.2242225408554075,-0.090427815914154,-0.4418757557868957,-0.0639899224042892,-0.0589657835662364,0.0,0.0,-0.9856305718421936,0.2431707382202148
-0.0272262580692768,1.2141374349594116,-0.0882991552352905,-0.448346883058548,-0.0667120739817619,-0.0544480085372924,0.0,0.0,-0.8367252349853516,-0.2841781377792358
-0.0281124114990234,1.203906536102295,-0.0860852301120758,-0.4548178613185882,-0.0692090988159179,-0.0499451570212841,0.0,0.0,-0.9804592728614808,-0.3468940258026123
-0.0289732925593853,1.1935300827026367,-0.0837869122624397,-0.461288720369339,-0.0714817717671394,-0.0454576648771762,0.0,0.0,-0.9398706555366516,-0.5024499893188477
-0.029858112335205,1.1829942464828491,-0.087675079703331,-0.4682976007461548,-0.0722877532243728,-0.0161194745451211,0.0,0.0,-0.9391340017318726,0.249058723449707
-0.0307162292301654,1.1723127365112305,-0.0852165073156356,-0.4747655093669891,-0.0728710293769836,-0.0116658564656972,0.0,0.0,-0.8995376825332642,-0.0158600807189941
-0.0315465927124023,1.1614853143692017,-0.0826760753989219,-0.4812333285808563,-0.0732322558760643,-0.0072242668829858,0.0,0.0,-0.9082496762275696,0.4319183826446533
-0.0323485359549522,1.1505123376846311,-0.0800552517175674,-0.4877011477947235,-0.0733720138669014,-0.0027950734365731,0.0,0.0,-0.8549737334251404,0.1377663612365722
-0.0331212989985942,1.139393329620361,-0.0773555934429168,-0.4941689372062683,-0.0732909440994262,0.0016213167691603,0.0,0.0,-0.9482521414756776,-0.1187666654586792
-0.0338640213012695,1.1281287670135498,-0.0745787769556045,-0.5006367564201355,-0.0729897171258926,0.0060244826599955,0.0,0.0,-0.9708247780799866,-0.139764666557312
-0.0345760360360145,1.116718292236328,-0.0717265978455543,-0.5071045756340027,-0.0724690183997154,0.010414064861834,0.0,0.0,-0.88370680809021,-0.1820476651191711
-0.0352564826607704,1.1051621437072754,-0.0688008964061737,-0.5135725140571594,-0.0717295482754707,0.0147895347326993,0.0,0.0,-0.9527302384376526,0.5659209489822388
-0.0358652099967002,1.093450665473938,-0.060816217213869,-0.5205084085464478,-0.0717809572815895,-0.0010283563751727,0.0,0.0,-0.9251887202262878,-0.4979673624038696
-0.0364409461617469,1.0815935134887695,-0.0577494278550148,-0.5269762277603149,-0.0716150850057601,0.0033178036101162,0.0,0.0,-0.8957157731056213,0.3571093082427978
-0.0369833000004291,1.0695905685424805,-0.054615169763565,-0.5334441065788269,-0.0712326094508171,0.0076495530083775,0.0,0.0,-0.8700745105743408,0.4305278062820434
-0.0374913215637207,1.0574419498443604,-0.051415592432022,-0.5399119853973389,-0.0706344023346901,0.0119643108919262,0.0,0.0,-0.9055772423744202,0.3879141807556152
-0.0379646308720111,1.0451475381851196,-0.0481528751552104,-0.5463798642158508,-0.0698212757706642,0.016262574121356,0.0,0.0,-0.9850510358810424,-0.3067299127578735
-0.0384025573730468,1.032707452774048,-0.0448292270302772,-0.5528477430343628,-0.0687940791249275,0.0205436870455741,0.0,0.0,-0.9679734110832214,-0.0224062204360961
-0.0388045310974121,1.020121455192566,-0.0414468720555305,-0.5593157410621643,-0.0675537288188934,0.0248069055378437,0.0,0.0,-0.967227041721344,0.385820984840393
-0.0391698852181434,1.0073899030685425,-0.0380080714821815,-0.5657838582992554,-0.0661011785268783,0.0290514566004276,0.0,0.0,-0.9762865900993348,0.1600946187973022
-0.0394981391727924,0.9945126175880432,-0.0345150791108608,-0.5722520351409912,-0.0644373521208763,0.0332764908671379,0.0,0.0,-0.990744650363922,0.0510449409484863
-0.0397889129817485,0.9814896583557128,-0.0309701710939407,-0.5787203311920166,-0.062563307583332,0.0374810174107551,0.0,0.0,-0.9379234910011292,0.6196937561035156
-0.039984606206417,0.9683142304420472,-0.0202267877757549,-0.5855438113212585,-0.0619173645973205,0.0129189249128103,0.0,0.0,-0.9945417046546936,0.5445668697357178
-0.0401020050048828,0.9549829959869384,-0.0115783829241991,-0.5925063490867615,-0.0620756819844245,-0.0031663873232901,0.0,0.0,-0.9870426654815674,-0.3506567478179931
-0.0401803962886333,0.941506028175354,-0.007891203276813,-0.5989744067192078,-0.0620272010564804,0.0009699303773231,0.0,0.0,-0.9425992965698242,-0.8894113898277283
-0.0402827262878418,0.9278843998908995,-0.0121025275439023,-0.6053304076194763,-0.0601832270622253,0.0368794873356819,0.0,0.0,-0.955480933189392,-0.3107661604881286
-0.0403453819453716,0.9141170382499696,-0.0083316965028643,-0.6117989420890808,-0.0581350624561309,0.0409632213413715,0.0,0.0,-0.9653018116950988,0.1303805112838745
-0.0403677932918071,0.9002041220664978,-0.0045223180204629,-0.6182674765586853,-0.0558841601014137,0.0450180396437644,0.0,0.0,-0.9771137833595276,0.0595326423645019
-0.0403497703373432,0.8861453533172607,-0.0006765552680008,-0.6247361898422241,-0.0534320697188377,0.0490419454872608,0.0,0.0,-0.965237021446228,0.6745336055755615
-0.0402249321341514,0.8719356656074524,0.0114845111966133,-0.6315082311630249,-0.0524425879120826,0.0197895523160696,0.0,0.0,-0.9821293354034424,-0.1706119179725647
-0.0400589928030967,0.8575801849365234,0.0153967123478651,-0.6379766464233398,-0.0512553378939628,0.0237448271363973,0.0,0.0,-0.9205334782600404,-0.2980122566223144
-0.0398516654968261,0.8430792689323425,0.0193389784544706,-0.6444450616836548,-0.0498722493648529,0.0276618357747793,0.0,0.0,-0.9122772216796876,-0.3603461980819702
-0.0396025665104389,0.8284325003623962,0.0233092587441205,-0.6509135365486145,-0.0482953563332557,0.0315376557409763,0.0,0.0,-0.7438592910766602,0.0952556133270263
-0.039311695843935,0.8136401772499084,0.0273055229336023,-0.6573821902275085,-0.0465269088745117,0.0353690013289451,0.0,0.0,-0.9198366403579712,-0.2562937140464782
-0.0389785766601562,0.7987020611763,0.031325776129961,-0.6638509035110474,-0.0445692911744117,0.0391521826386451,0.0,0.0,-0.636101245880127,0.6041281223297119
-0.0385478027164936,0.783620297908783,0.042313102632761,-0.6702789068222046,-0.0438138842582702,0.0151080964133143,0.0,0.0,-0.8511888384819031,-0.4808205366134643
-0.0380744934082031,0.76839280128479,0.0463754422962665,-0.6767475008964539,-0.0428747534751892,0.0187828876078128,0.0,0.0,-0.8514423370361328,-0.2801636457443237
-0.0375585556030273,0.7530196905136108,0.0504559054970741,-0.6832160353660583,-0.0417549312114715,0.0223965942859649,0.0,0.0,-0.8032253980636597,-0.5986700654029846
-0.037053108215332,0.7375096678733826,0.0478767603635787,-0.6892663240432739,-0.0391153395175933,0.0527916736900806,0.0,0.0,-0.8540412783622742,0.5070600509643555
-0.0364613533020019,0.7218469977378845,0.0574351325631141,-0.6960733532905579,-0.0373970977962017,0.034365139901638,0.0,0.0,-0.8939849138259888,0.028243064880371
-0.0358265861868858,0.7060388326644897,0.0615585036575794,-0.7025421857833862,-0.0355089642107486,0.0377626530826091,0.0,0.0,-0.7559025287628174,-0.2340943813323974
-0.0351489074528217,0.6900848746299744,0.0656923949718475,-0.7090111374855042,-0.0334551818668842,0.0410755798220634,0.0,0.0,-0.6799497008323669,0.1898360252380371
-0.0344281196594238,0.6739856600761414,0.0698349252343177,-0.7154802680015564,-0.0312403384596109,0.0442969277501106,0.0,0.0,-0.7125802040100098,-0.1870285272598266
-0.0336642265319824,0.657740592956543,0.07398422062397,-0.7219495177268982,-0.0288693904876709,0.0474191345274448,0.0,0.0,-0.8254543542861938,-0.1466987133026123
-0.0328574180603027,0.6413502097129822,0.0781383663415908,-0.72841876745224,-0.0263476707041263,0.0504340752959251,0.0,0.0,-0.6703809499740601,-0.3510369062423706
-0.0320074073970317,0.6248140931129456,0.0822954922914505,-0.7348880767822266,-0.0236810091882944,0.0533332712948322,0.0,0.0,-0.7934767007827759,0.0497695207595825
-0.0311144832521677,0.6081327795982361,0.0864536613225936,-0.7413575649261475,-0.0208756197243928,0.0561076402664184,0.0,0.0,-0.802531361579895,-0.5071205496788025
-0.030216883867979,0.5913128852844238,0.0858109071850776,-0.747499406337738,-0.0169745739549398,0.0780210345983505,0.0,0.0,-0.7364664077758789,0.0895748138427734
-0.0292763710021972,0.5743476748466492,0.0899652987718582,-0.7539695501327515,-0.0129487141966819,0.0805171579122543,0.0,0.0,-0.6366337537765503,-0.1802610158920288
-0.028293227776885,0.5572370886802673,0.0941148251295089,-0.7604399919509888,-0.0088057555258274,0.0828591808676719,0.0,0.0,-0.482610285282135,0.1258515119552612
-0.0272676460444927,0.5399811863899231,0.0982574224472045,-0.7669104933738708,-0.0045539229176938,0.0850367546081543,0.0,0.0,-0.2918137311935425,-0.1329128742218017
-0.0261996276676654,0.5225798487663269,0.1023910045623779,-0.7733811140060425,-0.0002019518142333,0.0870395526289939,0.0,0.0,0.2980697154998779,-0.3076876997947693
-0.0250316616147756,0.5057139992713928,0.1120266914367675,-0.7496049404144287,0.0045079439878463,0.0941979140043258,0.0,0.0,-0.2470650672912597,-0.2130306959152221
-0.0238217357546091,0.4887027740478515,0.1161356717348098,-0.7560759782791138,0.009298950433731,0.0958202257752418,0.0,0.0,0.268865704536438,-0.042481243610382
-0.0225202552974224,0.4719215333461761,0.1249753609299659,-0.745873212814331,0.0144023858010768,0.1020688414573669,0.0,0.0,0.2727906703948974,-0.4829309582710266
-0.0212056152522563,0.4553868174552917,0.1263546496629715,-0.7349357604980469,0.0194533113390207,0.1010186523199081,0.0,0.0,0.6501579284667969,-0.3892161250114441
-0.0198735240846872,0.4398947358131408,0.1280742585659027,-0.6886110901832581,0.0245144534856081,0.1012229546904563,0.0,0.0,-0.3899065256118774,-0.6455545425415039
-0.0185452457517385,0.4242624044418335,0.1265390217304229,-0.6948869824409485,0.0307256262749433,0.1242236718535423,0.0,0.0,0.1364862918853759,0.477038025856018
-0.0172709468752145,0.4093243479728699,0.1214649528264999,-0.6640453934669495,0.0366051830351352,0.1175911203026771,0.0,0.0,-0.6706283688545227,0.1297113895416259
-0.0159568786621093,0.3942411839962005,0.1254416704177856,-0.6705175638198853,0.0424980670213699,0.1178578734397888,0.0,0.0,-0.2201983332633972,0.0678417682647705
-0.0146033288910985,0.3790129423141479,0.1293866634368896,-0.6769896149635315,0.048391904681921,0.1178768649697303,0.0,0.0,0.5135376453399658,0.0618966817855834
-0.0133291240781545,0.3644227981567383,0.121910773217678,-0.6486393213272095,0.0538447424769401,0.1090563982725143,0.0,0.0,0.1226780414581298,0.4127000570297241
-0.0120782852172851,0.3503743410110473,0.1197599917650222,-0.6245761513710022,0.0591010488569736,0.1051259189844131,0.0,0.0,-0.0693628191947937,0.0898979902267456
-0.0107896802946925,0.336180716753006,0.1235903725028038,-0.6310474276542664,0.0643205791711807,0.1043906062841415,0.0,0.0,0.4325612783432007,0.1324608325958252
-0.0094205858185887,0.322604238986969,0.1313264071941375,-0.6036473512649536,0.0698405653238296,0.1103996783494949,0.0,0.0,0.2406622171401977,0.6451711654663086
-0.0079617500305175,0.3092682361602783,0.1416338384151458,-0.5929168462753296,0.0740476921200752,0.084142729640007,0.0,0.0,0.0375105142593383,-0.2990869283676147
-0.0064274789765477,0.2961714565753937,0.1489844620227813,-0.582302451133728,0.0784506201744079,0.0880584046244621,0.0,0.0,0.0003738403320312,-0.4118123054504394
-0.004796028137207,0.2834569215774536,0.1583666056394577,-0.5653485655784607,0.083180159330368,0.0945907682180404,0.0,0.0,0.0223894119262695,-0.1881053447723388
-0.0030643462669104,0.2709725797176361,0.1680977046489715,-0.5551490187644958,0.0882118791341781,0.100634180009365,0.0,0.0,0.3306881189346313,-0.5299925208091736
-0.0013988495338708,0.2592447996139526,0.1605192720890045,-0.5216032862663269,0.0941792726516723,0.1193481683731079,0.0,0.0,0.186659574508667,0.2532312870025635
0.0002704620419535,0.2481885254383087,0.1609329730272293,-0.4917801916599273,0.1001310721039772,0.1190361604094505,0.0,0.0,-0.268739104270935,-0.142412781715393
0.001971912337467,0.2369869798421859,0.1642833352088928,-0.4982511699199676,0.1059545204043388,0.1164688840508461,0.0,0.0,-0.0324500799179077,-0.5090073347091675
0.0036717415787279,0.2256295084953308,0.1634052097797393,-0.5052552819252014,0.1124873161315918,0.1306559741497039,0.0,0.0,-0.3557751178741455,0.2151474952697754
0.0054018972441554,0.2141268998384475,0.1665869206190109,-0.5117266178131104,0.1188733950257301,0.1277213990688324,0.0,0.0,0.612654447555542,0.541205644607544
0.0071914670988917,0.2037629932165146,0.173545703291893,-0.4610564112663269,0.1242516785860061,0.1075655370950698,0.0,0.0,0.3133561611175537,-0.4891704320907593
0.0089347837492823,0.1939236521720886,0.1691768616437912,-0.4377426207065582,0.1293813586235046,0.102593757212162,0.0,0.0,0.5251972675323486,-0.8098084926605225
0.0104192737489938,0.185001403093338,0.1420455425977707,-0.3971124291419983,0.1357577592134475,0.1275280267000198,0.0,0.0,0.8170779943466187,-0.9003616571426392
0.0118598937988281,0.1770863085985183,0.1358557045459747,-0.3525524735450744,0.1439370661973953,0.1635860502719879,0.0,0.0,0.3560972213745117,0.6214871406555176
0.0132371904328465,0.1699448376893997,0.1310578286647796,-0.3180585503578186,0.150595873594284,0.1331758201122284,0.0,0.0,0.3431059122085571,-0.8542001247406006
0.0144034381955862,0.1635345816612243,0.1085207611322403,-0.2857425808906555,0.1586953848600387,0.1619900912046432,0.0,0.0,-0.1859766244888305,0.2387890815734863
0.0155917163938283,0.1569791883230209,0.1109211221337318,-0.292214572429657,0.1666016429662704,0.1581252813339233,0.0,0.0,0.6175198554992676,0.2985725402832031
0.0165903083980083,0.1511210948228836,0.0926850140094757,-0.2611795663833618,0.1737817376852035,0.1436019390821457,0.0,0.0,0.3625028133392334,-0.3371424674987793
0.0174109451472759,0.1457236409187317,0.0756846815347671,-0.2406514585018158,0.1801859587430954,0.1280842274427414,0.0,0.0,0.4120073318481445,0.0167174339294433
0.018228244036436,0.1411113142967224,0.075134053826332,-0.205808013677597,0.1868034750223159,0.1323502659797668,0.0,0.0,-0.3887351155281067,0.1896073818206787
0.0190613754093647,0.1363534331321716,0.0769403949379921,-0.2122775465250015,0.1932123899459839,0.1281782388687133,0.0,0.0,0.2188291549682617,-0.6528062224388123
0.019866656512022,0.1323031485080719,0.0728914216160774,-0.181025743484497,0.2008964121341705,0.1536801755428314,0.0,0.0,-0.691234827041626,-0.5629847049713135
0.0206384658813476,0.1280983835458755,0.0686120614409446,-0.1880642920732498,0.2095374912023544,0.1728214770555496,0.0,0.0,-0.7619211077690125,0.5837488174438477
0.0214757919311523,0.1237727254629135,0.0768259540200233,-0.1932465583086013,0.2165052592754364,0.1393555700778961,0.0,0.0,-0.4810150265693664,0.0568838119506835
0.0223218910396099,0.1193015202879905,0.077933445572853,-0.1997157782316208,0.2232553213834762,0.1350011974573135,0.0,0.0,-0.6849431395530701,-0.2515392899513244
0.0231748577207326,0.1146846860647201,0.078851468861103,-0.2061846107244491,0.2297861576080322,0.1306170523166656,0.0,0.0,-0.4842720031738281,-0.24500572681427
0.0240327827632427,0.1099220812320709,0.0795749649405479,-0.2126530855894088,0.2360965758562088,0.1262083649635315,0.0,0.0,-0.271172285079956,-0.3534051775932312
0.0248936656862497,0.1050137877464294,0.0800994709134101,-0.2191211581230163,0.242185577750206,0.1217800751328468,0.0,0.0,-0.1808083057403564,-0.361648678779602
0.0257555954158306,0.0999596416950225,0.0804210677742958,-0.2255888730287552,0.2480524033308029,0.117336593568325,0.0,0.0,-0.2918561697006225,-0.641124963760376
0.0265570636838674,0.0947356298565864,0.0730744749307632,-0.2333934903144836,0.2552692294120788,0.1443366706371307,0.0,0.0,-0.5692756175994873,0.215651273727417
0.027355384081602,0.0893659219145774,0.0729819238185882,-0.2398621737957,0.2622629106044769,0.139874130487442,0.0,0.0,-0.2248264551162719,0.4074563980102539
0.0281483642756938,0.083850510418415,0.0726789683103561,-0.2463304549455642,0.269033282995224,0.1354071795940399,0.0,0.0,-0.5291319489479065,0.5569677352905273
0.0289863590151071,0.0782055705785751,0.0787450224161148,-0.251823216676712,0.2742120027542114,0.1035741195082664,0.0,0.0,-0.1048046946525573,-0.0651969313621521
0.0298149101436138,0.072414644062519,0.078018695116043,-0.258289486169815,0.2791673541069031,0.0991067960858345,0.0,0.0,-0.1667175889015197,0.5686376094818115
0.0306756012141704,0.0665020570158958,0.0826385766267776,-0.2634410262107849,0.2826927304267883,0.0705072730779647,0.0,0.0,0.2299787998199463,0.7660496234893799
0.0315691009163856,0.0608173459768295,0.0875912457704544,-0.2529956102371216,0.2845035791397095,0.0362173840403556,0.0,0.0,0.533179759979248,0.7592464685440063
