x_pos,y_pos,x_vel,y_vel,angle,ang_vel,leg_1,leg_2,main_booster,lat_booster
-0.0015049934154376,1.4035353660583496,-0.1526826471090316,-0.3282138705253601,0.0019552237354218,0.0385827086865901,0.0,0.0,-0.7161676850296113,0.7178320543437009
-0.0029293061234056,1.3960812091827393,-0.1429881155490875,-0.3312953412532806,0.0025068630930036,0.0110346749424934,0.0,0.0,0.1913531176084371,-0.9073063230532806
-0.0042931558564305,1.388967990875244,-0.1390011310577392,-0.3161502182483673,0.0050972513854503,0.0518127866089344,0.0,0.0,0.5932472377365299,-0.928215135419016
-0.0058404924347996,1.382483959197998,-0.1591957956552505,-0.2882089912891388,0.0095036793500185,0.0881367698311805,0.0,0.0,-0.1052192485586582,0.8467476774447515
-0.0072851181030273,1.3759143352508545,-0.1470325887203216,-0.2919962108135223,0.0120383845642209,0.0506988652050495,0.0,0.0,-0.4416774152397114,-0.6839427151182884
-0.0087487222626805,1.3692541122436523,-0.1501325666904449,-0.2960428893566131,0.0157739277929067,0.0747177302837371,0.0,0.0,-0.3470530939487148,-0.6709720032487136
-0.0102437017485499,1.3625037670135498,-0.1548115909099578,-0.300079733133316,0.0210317485034465,0.1051662936806678,0.0,0.0,-0.4860790141463051,-0.7895281110910213
-0.0117613794282078,1.355665683746338,-0.1584136635065078,-0.304025650024414,0.0276020895689725,0.131418764591217,0.0,0.0,0.4249736787078377,-0.7050646346748743
-0.0133414268493652,1.3498262166976929,-0.1661706119775772,-0.2597018778324127,0.0356744602322578,0.1614626348018646,0.0,0.0,-0.6579489162636283,-0.8101267149351558
-0.0149602890014648,1.343900203704834,-0.1717821806669235,-0.2636457085609436,0.0454728230834007,0.1959849298000335,0.0,0.0,0.2127387865678114,0.8027378760228119
-0.0164376255124807,1.3385498523712158,-0.156209647655487,-0.2380688041448593,0.0538625381886959,0.1678096652030944,0.0,0.0,0.3414603521615871,0.8127636839349947
-0.0177825931459665,1.3337624073028564,-0.1415330022573471,-0.2130467295646667,0.0608268082141876,0.1392980217933654,0.0,0.0,0.2888794597064656,-0.8502628847781087
-0.0190847404301166,1.3297123908996582,-0.1391617953777313,-0.1803878843784332,0.0696882233023643,0.1772448420524597,0.0,0.0,0.7440828666486776,0.9802511050411338
-0.0202261917293071,1.3261425495147705,-0.1213386058807373,-0.1590100973844528,0.0768116191029548,0.1424809992313385,0.0,0.0,-0.2044939553858675,0.7582541485789118
-0.0212663654237985,1.322500467300415,-0.1093968898057937,-0.1621587723493576,0.0821534767746925,0.1068470627069473,0.0,0.0,0.9352482976717044,-0.7815848189782052
-0.0222279541194438,1.3192907571792605,-0.1035124808549881,-0.1430722177028656,0.0894439667463302,0.1458230912685394,0.0,0.0,0.4388232656040289,-0.646707664611029
-0.0231471061706542,1.3171241283416748,-0.1008846312761306,-0.0968575030565261,0.0983484387397766,0.1781054884195327,0.0,0.0,-0.1086202583742697,0.9262728447174744
-0.0239461902529001,1.314874529838562,-0.0866358429193496,-0.1004419028759002,0.1050307527184486,0.1336586624383926,0.0,0.0,-0.1843335064156765,0.9828024539050944
-0.024626350030303,1.3125596046447754,-0.0724923461675643,-0.1032058075070381,0.1094856336712837,0.0891058668494224,0.0,0.0,0.4705639852594723,-0.9100922568438944
-0.0254833213984966,1.310881495475769,-0.0919468626379966,-0.0750511512160301,0.115701213479042,0.1243231147527694,0.0,0.0,0.3617961145285233,0.8242198401304351
-0.026198673993349,1.310075759887695,-0.0763066112995147,-0.0361856259405612,0.1204453855752945,0.0948917418718338,0.0,0.0,0.4422547135511361,0.845488774068249
-0.0268510822206735,1.3097655773162842,-0.068362608551979,-0.0140410028398036,0.1235463991761207,0.0620256550610065,0.0,0.0,-0.1478058114403155,-0.8760064386544146
-0.0275259967893362,1.3093551397323608,-0.0719902068376541,-0.0186212044209241,0.1280386745929718,0.0898533016443252,0.0,0.0,0.8360065800621697,0.8432879323658762
-0.0280617717653512,1.3093916177749634,-0.0565834119915962,0.0013636307558044,0.1310281604528427,0.0597954764962196,0.0,0.0,-0.7092505525533781,0.9702369218440704
-0.0285077095031738,1.3093531131744385,-0.0461229681968688,-0.0018463076557964,0.1325423717498779,0.0302871726453304,0.0,0.0,0.1790379028820865,-0.7289101995559453
-0.0291604995727539,1.3099205493927002,-0.0681338161230087,0.0249546151608228,0.1353825777769088,0.0568040013313293,0.0,0.0,0.0554382872748151,0.7621466092451846
-0.0297816284000873,1.3111059665679932,-0.0634271726012229,0.0525638461112976,0.1366940438747406,0.0262292977422475,0.0,0.0,0.223482288223934,-0.7365817712620328
-0.0306204799562692,1.3130836486816406,-0.0865311920642852,0.0876566171646118,0.1393349170684814,0.0528175644576549,0.0,0.0,-0.8923395639091543,0.7348380394001791
-0.0313823707401752,1.3149877786636353,-0.0776674598455429,0.0844908729195594,0.1408068835735321,0.0294396430253982,0.0,0.0,0.8958110761162827,-0.7722558622997385
-0.0322764404118061,1.3176125288009644,-0.0923584252595901,0.1163741126656532,0.1437462121248245,0.0587866306304931,0.0,0.0,0.4588566176578985,0.9301529875658706
-0.0331547744572162,1.3212882280349731,-0.088913507759571,0.1632588356733322,0.1448145806789398,0.0213673468679189,0.0,0.0,-0.7371888106826108,-0.8882491068677414
-0.0340787880122661,1.324852466583252,-0.0954561084508895,0.1581109464168548,0.1478626579046249,0.0609619207680225,0.0,0.0,0.2483993681003229,-0.9612328089745564
-0.0352078452706337,1.3292025327682495,-0.1178264766931533,0.1928368955850601,0.1527711898088455,0.0981706008315086,0.0,0.0,0.7259818966224749,-0.7171251444958469
-0.0364892967045307,1.3339862823486328,-0.1343045234680175,0.2119714766740799,0.1589264124631881,0.1231043934822082,0.0,0.0,0.4138694240524552,0.935729590491604
-0.0377352721989154,1.339499592781067,-0.1288531720638275,0.2445733249187469,0.1631828099489212,0.0851283892989158,0.0,0.0,-0.8060505829344828,0.9860012237656536
-0.0388711914420127,1.3449506759643557,-0.1157682910561561,0.2420273423194885,0.1653599292039871,0.0435423180460929,0.0,0.0,-0.0138442773002367,0.95866490276955
-0.039903737604618,1.350325584411621,-0.1035481467843055,0.2388498485088348,0.1656604260206222,0.0060095302760601,0.0,0.0,0.5423096319293552,0.867606094162345
-0.0409160628914833,1.3566958904266355,-0.099805399775505,0.2832860052585602,0.1642286628484726,-0.0286351628601551,0.0,0.0,0.8325079225431722,0.8754517834484723
-0.0420308113098144,1.3643748760223389,-0.1081543937325477,0.3416516184806824,0.1609040349721908,-0.0664922520518302,0.0,0.0,-0.1176983351086518,-0.9893689815425798
-0.043188951909542,1.371948003768921,-0.1143304109573364,0.3367445766925812,0.159418836236,-0.0297039356082677,0.0,0.0,-0.2939899112680397,-0.6565827283234474
-0.0443781837821006,1.379422903060913,-0.1189321428537368,0.3322136104106903,0.159429520368576,0.0002138088748324,0.0,0.0,-0.967251479625702,-0.645980715751648
-0.0455779060721397,1.3867974281311035,-0.1209668144583702,0.3276484906673431,0.1604204922914505,0.0198197085410356,0.0,0.0,-0.9409652352333068,-0.5936803221702576
-0.0467869751155376,1.3940668106079102,-0.1228480786085128,0.3228726387023926,0.162363514304161,0.0388601310551166,0.0,0.0,-0.9698559045791626,-0.6347295641899109
-0.0480090156197547,1.4012354612350464,-0.1251591742038726,0.3182868063449859,0.1653206497430801,0.0591425895690918,0.0,0.0,-0.9332293272018432,-0.6688723564147949
-0.0492582321166992,1.4082934856414795,-0.1292629987001419,0.3131990730762481,0.1696654111146927,0.0868952944874763,0.0,0.0,-0.9769359827041626,-0.1640141010284423
-0.0504806526005268,1.4152624607086182,-0.1265303343534469,0.3092363774776459,0.1739645004272461,0.0859816819429397,0.0,0.0,-0.8671737313270569,-0.5367645025253296
-0.0517141334712505,1.4221298694610596,-0.1285595297813415,0.3045921623706817,0.1791882961988449,0.1044761687517166,0.0,0.0,-0.9683794975280762,-0.4110473394393921
-0.0529223456978797,1.428908109664917,-0.1259866803884506,0.3006286919116974,0.1843703687191009,0.1036415100097656,0.0,0.0,-0.922163188457489,-0.3517571687698364
-0.0541062355041503,1.4355976581573486,-0.1235025376081466,0.2966652512550354,0.1895133107900619,0.1028589159250259,0.0,0.0,-0.9803640842437744,0.2292354106903076
-0.0552665702998638,1.4421981573104858,-0.1211130023002624,0.292701780796051,0.1946201473474502,0.1021367907524108,0.0,0.0,-0.9853526949882508,-0.184438407421112
-0.0564044937491416,1.4487099647521973,-0.1188239827752113,0.288738340139389,0.1996943354606628,0.1014835089445114,0.0,0.0,-0.9486202597618104,0.2790423631668091
-0.0575207695364952,1.4551327228546145,-0.1166415065526962,0.284774899482727,0.2047396898269653,0.1009074077010154,0.0,0.0,-0.940005362033844,-0.2617132663726806
-0.0586168281733989,1.4614667892456057,-0.1145716309547424,0.2808113992214203,0.2097605466842651,0.1004168391227722,0.0,0.0,-0.9697315096855164,-0.2610749006271362
-0.0596934333443641,1.4677118062973022,-0.112620435655117,0.2768478691577911,0.2147615551948547,0.100020095705986,0.0,0.0,-0.9737977385520936,-0.4940820932388305
-0.0607521049678325,1.4738680124282837,-0.1107940226793289,0.2728842794895172,0.219747856259346,0.0997256562113761,0.0,0.0,-0.9871631264686584,-0.3345977067947387
-0.0617939010262489,1.4799355268478394,-0.1090984940528869,0.2689205706119537,0.2247249186038971,0.0995412617921829,0.0,0.0,-0.9907377362251282,-0.3112872838973999
-0.0628202408552169,1.4859139919281006,-0.1075399667024612,0.2649567723274231,0.2296986579895019,0.0994752198457717,0.0,0.0,-0.9696956276893616,-0.1102028489112854
-0.0638323798775672,1.491803765296936,-0.106124423444271,0.2609928846359253,0.2346754372119903,0.099535547196865,0.0,0.0,-0.9881129860877992,-0.0712115764617919
-0.064831830561161,1.4976047277450562,-0.1048578843474388,0.2570288479328155,0.2396619468927383,0.0997300967574119,0.0,0.0,-0.9185439944267272,-0.0390238761901855
-0.0658201202750206,1.503316879272461,-0.103746198117733,0.2530646622180938,0.2446652799844741,0.100066602230072,0.0,0.0,-0.9785763025283812,0.0239262580871582
-0.0667986869812011,1.5089404582977295,-0.1027950793504715,0.2491002976894378,0.2496929168701172,0.1005526334047317,0.0,0.0,-0.9732780456542968,-0.6287345290184021
-0.0678257942199707,1.5144569873809814,-0.1091228947043418,0.2440762519836425,0.256231814622879,0.130777969956398,0.0,0.0,-0.9849303960800172,-0.0497518181800842
-0.0688464194536209,1.5198850631713867,-0.1085089668631553,0.2401100844144821,0.2628110647201538,0.1315847337245941,0.0,0.0,-0.9781440496444702,0.6123299598693848
-0.0698141083121299,1.525245189666748,-0.1019833236932754,0.2372775822877884,0.2681504487991333,0.1067874431610107,0.0,0.0,-0.9970725178718568,-0.447052001953125
-0.0707787498831749,1.5305166244506836,-0.1017281636595726,0.2333121597766876,0.2735475897789001,0.1079429164528846,0.0,0.0,-0.975808084011078,-0.605104386806488
-0.0717974677681922,1.5356768369674685,-0.1086427122354507,0.2280559688806533,0.280489981174469,0.1388476192951202,0.0,0.0,-0.9774146676063538,-0.3497304320335388
-0.0728168487548828,1.5407487154006958,-0.1087636202573776,0.2240884751081466,0.2875088155269623,0.140376791357994,0.0,0.0,-0.941969394683838,-0.5112442970275879
-0.0738709419965744,1.5457119941711426,-0.1131708174943924,0.2190309166908264,0.2955166697502136,0.1601563692092895,0.0,0.0,-0.9936269521713256,-0.4300093650817871
-0.0749293342232704,1.550587177276611,-0.1136834621429443,0.215061604976654,0.3036207854747772,0.1620820462703704,0.0,0.0,-0.9870015978813172,-0.2333282232284546
-0.0759940147399902,1.5553745031356812,-0.1143969893455505,0.2110918313264846,0.3118314743041992,0.164213627576828,0.0,0.0,-0.9515938758850098,-0.6120076179504395
-0.077120304107666,1.560051202774048,-0.1220357567071914,0.205796405673027,0.3215939998626709,0.1952506601810455,0.0,0.0,-0.9786885380744934,-0.5487119555473328
-0.0782961845397949,1.564621925354004,-0.1280871629714965,0.2007769644260406,0.3325459361076355,0.2190386801958084,0.0,0.0,-0.9494922757148744,0.1999255418777465
-0.0794842690229415,1.569105625152588,-0.1294151395559311,0.1968018114566803,0.34363654255867,0.221812218427658,0.0,0.0,-0.9708890318870544,-0.0049538016319274
-0.0806867629289627,1.573502540588379,-0.1309513598680496,0.1928260177373886,0.3548768758773803,0.2248068302869796,0.0,0.0,-0.962556540966034,-0.295573353767395
-0.081905648112297,1.5778125524520874,-0.1326963752508163,0.188849538564682,0.3662781417369842,0.228025197982788,0.0,0.0,-0.9620088338851928,0.7204300165176392
-0.0830821990966796,1.582062602043152,-0.1270296573638916,0.1864583939313888,0.376212328672409,0.1986839175224304,0.0,0.0,-0.9773526787757874,-0.1160716414451599
-0.0842789635062217,1.586225509643555,-0.1291933357715606,0.1824832111597061,0.3863301575183868,0.202356606721878,0.0,0.0,-0.9868844151496888,0.0823675394058227
-0.0854980498552322,1.5903016328811646,-0.1315642893314361,0.1785072684288025,0.3966430723667145,0.206258088350296,0.0,0.0,-0.978129744529724,0.3071546554565429
-999.0,1.594290852546692,-0.1341408342123031,0.1745305061340332,0.4071625173091888,0.2103890627622604,0.0,0.0,-0.9638373255729676,-0.2422950267791748
-0.0880109816789627,1.598193645477295,-0.1369208991527557,0.1705528795719146,0.4178999960422516,0.2147496044635772,0.0,0.0,-0.9770272970199584,-0.4122407436370849
-0.0893087387084961,1.602009892463684,-0.1399018317461013,0.1665743738412857,0.4288669526576996,0.219339370727539,0.0,0.0,-0.9543378353118896,0.4545273780822754
-0.0906365364789962,1.6057398319244385,-0.143080472946167,0.1625949442386627,0.4400748312473297,0.224157452583313,0.0,0.0,-0.9428170323371888,0.1479197740554809
-0.0919963866472244,1.6093835830688477,-0.146453246474266,0.1586145460605621,0.4515349864959717,0.2292024195194244,0.0,0.0,-0.9273374676704408,0.0925263166427612
-0.0933898910880088,1.6129415035247805,-0.1500161737203598,0.1546331346035003,0.4632586240768432,0.2344724833965301,0.0,0.0,-0.8918061852455139,0.4737727642059326
-0.0948190689086914,1.6164133548736572,-0.153764858841896,0.1506506949663162,0.4752568900585174,0.2399653196334839,0.0,0.0,-0.9577380418777466,-0.0920091867446899
-0.0962857231497764,1.6197997331619265,-0.1576945483684539,0.1466671526432037,0.4875407814979553,0.24567811191082,0.0,0.0,-0.964375138282776,-0.1221999526023864
-0.0977914780378341,1.623100519180298,-0.1618002355098724,0.1426824629306793,0.5001212358474731,0.2516076266765594,0.0,0.0,-0.972588062286377,0.2121727466583252
-0.0993380546569824,1.6263160705566406,-0.1660765707492828,0.1386965960264206,0.5130087733268738,0.2577502131462097,0.0,0.0,-0.9425631165504456,0.6237380504608154
-0.1008741408586502,1.629490613937378,-0.1637871414422989,0.1372287273406982,0.5245723724365234,0.231271743774414,0.0,0.0,-0.979976236820221,0.1146764755249023
-0.1024541854858398,1.6325799226760864,-0.1683906316757202,0.1332433968782425,0.5364638566970825,0.2378297746181488,0.0,0.0,-0.975306749343872,0.5710611343383789
-0.1040431037545204,1.6356210708618164,-0.1684523522853851,0.1313333362340927,0.5474839806556702,0.2204022407531738,0.0,0.0,-0.966344952583313,0.1711664199829101
-0.1056786552071571,1.6385771036148071,-0.1733593046665191,0.1273476183414459,0.5588518977165222,0.2273578345775604,0.0,0.0,-0.9759892821311952,0.0504307746887207
-0.1073623672127723,1.6414477825164795,-0.1784082055091858,0.1233606785535812,0.5705771446228027,0.2345045357942581,0.0,0.0,-0.9559733271598816,0.7501189708709717
-0.1090352088212966,1.6442822217941284,-0.1759776771068573,0.12221410125494,0.5808060765266418,0.2045787274837494,0.0,0.0,-0.991664707660675,-0.1913485527038574
-0.1107584983110427,1.6470314264297483,-0.1812952756881714,0.1182276308536529,0.5914106965065002,0.2120928764343261,0.0,0.0,-0.9926303029060364,0.2984914779663086
-0.112533763051033,1.6496953964233398,-0.186736986041069,0.1142399832606315,0.6023998260498047,0.2197820842266082,0.0,0.0,-0.9961863160133362,0.4704766273498535
-0.1143620461225509,1.6522748470306396,-0.1922968924045562,0.1102511137723922,0.6137818694114685,0.2276405394077301,0.0,0.0,-0.9939967393875122,0.1899936199188232
-0.1162445992231369,1.6547694206237793,-0.1979691386222839,0.1062610000371933,0.6255649924278259,0.2356621474027633,0.0,0.0,-0.9968871474266052,0.7272100448608398
-0.1181313544511795,1.6572390794754028,-0.1971755176782608,0.1056358367204666,0.6359453797340393,0.2076081782579422,0.0,0.0,-0.9652315974235536,0.4866847991943359
-0.1200741752982139,1.6596242189407349,-0.203058511018753,0.1016459688544273,0.6467423439025879,0.2159394025802612,0.0,0.0,-0.9801167845726012,0.8234555721282959
-0.1220325455069542,1.661979079246521,-0.2036309242248535,0.1007056087255477,0.6564045548439026,0.1932438015937805,0.0,0.0,-0.9969332814216614,0.7206978797912598
-0.1240053176879882,1.6642963886260986,-0.2041568309068679,0.0994290336966514,0.6649924516677856,0.171757623553276,0.0,0.0,-0.743933379650116,0.3295578956604004
-0.1260367333889007,1.6665287017822266,-0.210316389799118,0.0954396873712539,0.6740179657936096,0.1805100739002227,0.0,0.0,-0.9984204173088074,0.8191021680831909
-0.1280896216630935,1.6687195301055908,-0.2117009609937667,0.0939303115010261,0.682142972946167,0.162500113248825,0.0,0.0,-0.9898685216903688,0.5356142520904541
-0.1301660537719726,1.670873999595642,-0.2132843732833862,0.092685580253601,0.6893283724784851,0.1437077075242996,0.0,0.0,-0.9927387833595276,0.15073823928833
-0.132303237915039,1.672943949699402,-0.219675987958908,0.0886960849165916,0.6969698667526245,0.1528296768665313,0.0,0.0,-0.9936193823814392,0.5771341323852539
-0.1344614028930664,1.6749857664108276,-0.2208583354949951,0.0879104435443878,0.7034856081008911,0.1303149461746215,0.0,0.0,-0.9989111423492432,0.5941250324249268
-0.1366499960422516,1.6769893169403076,-0.2232546061277389,0.0865430310368537,0.7091970443725586,0.1142290383577346,0.0,0.0,-0.9892930388450624,0.3871842622756958
-0.1389008462429046,1.6789082288742063,-0.2298393696546554,0.0825533419847488,0.7153804898262024,0.1236703246831893,0.0,0.0,-0.8541474342346191,0.76177978515625
-0.1411648690700531,1.6808075904846191,-0.2300309836864471,0.0823025852441787,0.7201395630836487,0.0951827093958854,0.0,0.0,-0.9865818619728088,-0.0229489207267761
-0.1434922218322754,1.6826224327087402,-0.23672516644001,0.07831272482872,0.7253800630569458,0.1048100367188453,0.0,0.0,-0.9982811212539672,0.2802810668945312
-0.145883560180664,1.6843526363372805,-0.2434680163860321,0.0743221715092659,0.731106162071228,0.1145222410559654,0.0,0.0,-0.9950829148292542,0.1942095756530761
-0.1483393609523773,1.6859982013702393,-0.2502561211585998,0.0703308805823326,0.7373218536376953,0.1243136376142501,0.0,0.0,-0.9961906671524048,0.6508278846740723
-0.150830939412117,1.6876007318496704,-0.2533121407032013,0.0686908438801765,0.742874026298523,0.1110439524054527,0.0,0.0,-0.9965989589691162,0.6827483177185059
-0.1533563584089279,1.6891595125198364,-0.2561610341072082,0.0670528933405876,0.7477284669876099,0.0970898419618606,0.0,0.0,-0.99959397315979,0.4010244607925415
-0.1559474021196365,1.69063401222229,-0.2630689740180969,0.0630611106753349,0.7530828714370728,0.1070881932973861,0.0,0.0,-0.9762393832206726,0.6797740459442139
-0.1585638970136642,1.6920790672302246,-0.2648006081581116,0.0622481703758239,0.7573578357696533,0.0854988917708396,0.0,0.0,-0.9991989135742188,0.4512757062911987
-0.161246582865715,1.6934399604797363,-0.2717747688293457,0.0582561008632183,0.7621383666992188,0.0956109315156936,0.0,0.0,-0.987618088722229,0.3359769582748413
-0.1639956533908844,1.694716453552246,-0.2787776589393616,0.0542634688317775,0.7674269676208496,0.1057724207639694,0.0,0.0,-0.9996702075004578,0.8788137435913086
-0.1667648255825042,1.6959879398345947,-0.2796332240104675,0.0547618828713893,0.7711580395698547,0.0746216848492622,0.0,0.0,-0.9995577931404114,0.6650125980377197
-0.1695569008588791,1.6972291469573977,-0.2810928523540497,0.0539363175630569,0.7737646698951721,0.0521326251327991,0.0,0.0,-0.9999043941497804,0.2014524936676025
-0.172416016459465,1.6983861923217771,-0.288171112537384,0.0499439500272274,0.776885449886322,0.0624159984290599,0.0,0.0,-0.9990862607955932,-0.0286632180213928
