x_pos,y_pos,x_vel,y_vel,angle,ang_vel,leg_1,leg_2,main_booster,lat_booster
-0.0015617370372638,1.4034754037857056,-0.1578501611948013,-0.3308749794960022,0.0014992416836321,0.029554471373558,0.0,0.0,-0.3402808666556352,-0.622844221744169
-0.0032079697120934,1.3959015607833862,-0.1669332534074783,-0.3366121649742126,0.003788971574977,0.0457995124161243,0.0,0.0,-0.4492941753263106,0.8126841399426101
-0.0048167230561375,1.3881727457046509,-0.1609173268079757,-0.3434980809688568,0.0038196330424398,0.0006133474525995,0.0,0.0,0.91674799413494,-0.9489474888293196
-0.0066970824263989,1.3811601400375366,-0.1893751323223114,-0.311681866645813,0.0051415860652923,0.0264419112354517,0.0,0.0,0.67852137186122,-0.6253568908381529
-0.0085313795134425,1.3749946355819702,-0.1860897541046142,-0.2740320563316345,0.0077696563675999,0.0525661706924438,0.0,0.0,0.5258626372927033,0.843718154157779
-0.0102052688598632,1.3694336414337158,-0.1682975143194198,-0.2471612393856048,0.0086610056459903,0.0178288929164409,0.0,0.0,0.0778227411771856,-0.6985101764024038
-0.0119991302490234,1.3642876148223877,-0.1813819110393524,-0.2287221997976303,0.0106261353939771,0.0393063500523567,0.0,0.0,-0.8050892128125853,-0.69400065608755
-0.0138802528381347,1.3589938879013062,-0.1908481419086456,-0.2352950423955917,0.0133341876789927,0.0541660487651824,0.0,0.0,-0.527549303205624,-0.7063742066126957
-0.0158651359379291,1.353557825088501,-0.20237997174263,-0.2416397780179977,0.0171795096248388,0.0769135057926178,0.0,0.0,0.0865402033066224,-0.8067913512227262
-0.0179704669862985,1.348692774772644,-0.2157441079616546,-0.2162904441356659,0.0223339274525642,0.1030980348587036,0.0,0.0,0.3363178425190705,-0.7746429245755887
-0.0201180465519428,1.344401240348816,-0.2213439494371414,-0.1908493191003799,0.0288472883403301,0.1302789747714996,0.0,0.0,-0.1687115392907561,0.8022217096152525
-0.0222449302673339,1.3399622440338137,-0.2171771824359893,-0.1973828226327896,0.0332975052297115,0.0890123769640922,0.0,0.0,0.9243978578660652,0.8031371065086201
-0.0242208484560251,1.3366111516952517,-0.2005712687969207,-0.1490010768175125,0.0362446047365665,0.0589474216103553,0.0,0.0,-0.6879028621557024,0.6236551930479892
-0.0261931419372558,1.3331080675125122,-0.1985365897417068,-0.1557276844978332,0.0375308543443679,0.0257274750620126,0.0,0.0,0.0523966729927363,0.9619696784017704
-0.0280542373657226,1.3302632570266724,-0.1851638853549957,-0.1264127790927887,0.0366032347083091,-0.0185541473329067,0.0,0.0,0.9442705556383616,-0.8467515081574637
-0.0299061778932809,1.3277876377105713,-0.1859876066446304,-0.1100460514426231,0.0373798571527004,0.0155338542535901,0.0,0.0,0.8789868033802235,-0.991416052442391
-0.0317520126700401,1.3266379833221436,-0.1873718053102493,-0.0511597767472267,0.0401297397911548,0.05500278621912,0.0,0.0,-0.8972797794271721,-0.8786896187289738
-0.0337049476802349,1.325328707695007,-0.1991403847932815,-0.0583036094903945,0.0439359880983829,0.0761322900652885,0.0,0.0,0.8937215827986902,0.8483527289843581
-0.0355645194649696,1.32526957988739,-0.1880696564912796,-0.0026887017302215,0.0460303239524364,0.0418900772929191,0.0,0.0,-0.6429206933726821,0.9940982543585464
-0.0374114997684955,1.3250653743743896,-0.1848141551017761,-0.0090834693983197,0.0461414568126201,0.0022228923626244,0.0,0.0,0.1985778380900171,0.6588421337696228
-0.0391843803226947,1.3255447149276731,-0.1759528368711471,0.0213524792343378,0.0448265187442302,-0.0263008624315261,0.0,0.0,-0.9815012563892992,-0.895299554102859
-0.0410828590393066,1.3258651494979858,-0.1900135725736618,0.0142370071262121,0.0449887700378894,0.0032453560270369,0.0,0.0,0.8090532129124506,-0.874085441777808
-0.0429773330688476,1.326934576034546,-0.1913899332284927,0.0474703349173069,0.0469078905880451,0.038385696709156,0.0,0.0,-0.6300868948823186,-0.7779975571919353
-0.0449834838509559,1.327842116355896,-0.2036716639995575,0.0402414873242378,0.0499305911362171,0.0604592747986316,0.0,0.0,0.1372586723113205,0.7498614666007973
-0.0471221916377544,1.3292624950408936,-0.2150565385818481,0.0630892664194107,0.0510966815054416,0.0233239326626062,0.0,0.0,-0.1786218798546657,-0.7719802937434426
-0.0493946075439453,1.3305106163024902,-0.23008494079113,0.0553677231073379,0.053910493850708,0.0562765076756477,0.0,0.0,0.5215410616975278,0.9805766249386114
-0.051680564880371,1.3326243162155151,-0.2292096316814422,0.093918390572071,0.0545174442231655,0.0121391536667943,0.0,0.0,-0.6634299327277255,-0.9262343521210816
-0.054115105420351,1.3345911502838137,-0.2460787743330001,0.0873169228434562,0.057109847664833,0.0518479831516742,0.0,0.0,-0.8646272617714448,0.8819311332599519
-0.0565548911690712,1.3364207744598389,-0.2449523955583572,0.0812790691852569,0.0580722726881504,0.0192484650760889,0.0,0.0,0.1482407619022518,-0.9584092159601644
-0.0591669082641601,1.3385968208312988,-0.2638536989688873,0.0966155230998992,0.0606909543275833,0.0523737668991088,0.0,0.0,-0.9128164994619334,0.8987514690511718
-0.0617662444710731,1.3406407833099363,-0.2604692876338959,0.0908152237534523,0.0612146370112896,0.0104735540226101,0.0,0.0,0.1987518391618348,0.6843209811216178
-0.0644545555114746,1.3430064916610718,-0.2676499187946319,0.1051970422267913,0.0600466877222061,-0.0233592353761196,0.0,0.0,0.1915547520518201,0.7872790273771473
-0.0672442466020584,1.3460956811904907,-0.2758938670158386,0.13741996884346,0.0570074506103992,-0.0607847571372985,0.0,0.0,-0.1978229483848441,0.682451554706007
-0.0700463280081749,1.3490339517593384,-0.2756596207618713,0.1307525932788849,0.0525165498256683,-0.0898180231451988,0.0,0.0,0.5361082221524236,-0.8084830185816618
-0.0729870796203613,1.3526946306228638,-0.2909454107284546,0.1628057658672332,0.0494259968400001,-0.0618112199008464,0.0,0.0,0.0451926380126055,0.8723358436333595
-0.0759302154183387,1.356935977935791,-0.2892001867294311,0.1886636167764663,0.0443686991930007,-0.1011461392045021,0.0,0.0,0.8640832511617376,-0.8511847014672391
-0.0790571197867393,1.3617873191833496,-0.3089905977249145,0.2157156467437744,0.040716353803873,-0.0730469152331352,0.0,0.0,0.0508778029270884,0.6138988569375291
-0.0821893662214279,1.3672246932983398,-0.3081008195877075,0.2417927235364914,0.0356556214392185,-0.1012146696448326,0.0,0.0,0.1654738993145641,-0.6240579341889076
-0.0854846984148025,1.3734068870544434,-0.3253974318504333,0.2748580873012543,0.0315721444785594,-0.0816694200038909,0.0,0.0,-0.269097629692141,0.8125446613661798
-0.0887741073966026,1.3794444799423218,-0.3228885233402252,0.2684581875801086,0.0255863368511199,-0.1197162047028541,0.0,0.0,0.686721175046562,-0.6855762488053339
-0.0923183411359787,1.386524677276611,-0.3492670059204101,0.3147531449794769,0.0204970464110374,-0.1017855033278465,0.0,0.0,-0.7946286201477051,-0.0532956719398498
-0.0959239974617958,1.3934561014175415,-0.3552114367485046,0.3081284761428833,0.015210585668683,-0.1057292968034744,0.0,0.0,-0.7132308483123779,-0.673369824886322
-0.0996356979012489,1.4002302885055542,-0.3667579889297485,0.3011158108711242,0.0108576165512204,-0.0870590582489967,0.0,0.0,-0.7819290161132812,0.0566245317459106
-0.1034086197614669,1.406855821609497,-0.37270587682724,0.2944916188716888,0.0063225664198398,-0.0907009094953537,0.0,0.0,-0.750234842300415,0.4069797992706299
-0.107242964208126,1.4133325815200806,-0.3786519467830658,0.2878671884536743,0.0016138723585754,-0.0941739603877067,0.0,0.0,-0.7940055727958679,0.1044659614562988
-0.1111382469534874,1.419660568237305,-0.3845938444137573,0.2812425494194031,-0.0032593999058008,-0.0974655300378799,0.0,0.0,-0.6086039543151855,0.3750109672546386
-0.1150944679975509,1.4258400201797483,-0.3905291259288788,0.2746177315711975,-0.0082875257357954,-0.1005626320838928,0.0,0.0,-0.6776684522628784,0.303083062171936
-0.1191114410758018,1.431870698928833,-0.3964553475379944,0.26799276471138,-0.0134601332247257,-0.1034519523382186,0.0,0.0,-0.7362396717071533,-0.3712158203125
-0.1231888756155967,1.4377528429031372,-0.4023698270320892,0.2613675594329834,-0.0187661349773406,-0.1061200052499771,0.0,0.0,-0.7176041603088379,-0.3021306991577148
-0.1273265779018402,1.4434863328933716,-0.4082700610160827,0.2547422051429748,-0.0241937935352325,-0.1085530892014503,0.0,0.0,-0.8764618635177612,0.0441504716873168
-0.1315241754055023,1.449071168899536,-0.4141532778739929,0.2481167167425155,-0.0297306962311267,-0.1107377856969833,0.0,0.0,-0.8317083120346069,0.2561583518981933
-0.1357813775539398,1.4545074701309204,-0.4200167059898376,0.2414911091327667,-0.0353637486696243,-0.1126609593629837,0.0,0.0,-0.8322840332984924,0.3134093284606933
-0.1400978118181228,1.4597952365875244,-0.4258573949337005,0.2348653972148895,-0.0410792492330074,-0.1143100410699844,0.0,0.0,-0.5654064416885376,-0.1937440037727356
-0.144472986459732,1.464934468269348,-0.4316721856594085,0.2282396256923675,-0.0468629151582717,-0.1156731843948364,0.0,0.0,-0.790056049823761,-0.4902719259262085
-0.1489067077636718,1.4699251651763916,-0.4374578893184662,0.2216138243675232,-0.0526998825371265,-0.1167396306991577,0.0,0.0,-0.6125905513763428,0.0295937061309814
-0.1533982306718826,1.4747674465179443,-0.4432112276554107,0.2149879932403564,-0.0585748776793479,-0.117499753832817,0.0,0.0,-0.6178536415100098,0.0141048431396484
-0.157947152853012,1.4794611930847168,-0.4489285349845886,0.208362191915512,-0.0644721463322639,-0.1179454773664474,0.0,0.0,-0.932614266872406,-0.1420397758483886
-0.162552922964096,1.4840062856674194,-0.454606145620346,0.2017364501953125,-0.0703756660223007,-0.1180703490972518,0.0,0.0,-0.7985035181045532,0.3402832746505737
-0.1672148704528808,1.4884028434753418,-0.4602400362491607,0.1951107829809188,-0.0762691497802734,-0.1178696751594543,0.0,0.0,-0.7909529805183411,-0.0715048909187316
-0.1719323098659515,1.4926507472991943,-0.4658261239528656,0.188485249876976,-0.082136183977127,-0.1173407435417175,0.0,0.0,-0.8352348208427429,-0.4757425785064697
-0.1767047941684723,1.496749997138977,-0.4713598787784576,0.1818598806858062,-0.0879603326320648,-0.1164828762412071,0.0,0.0,-0.8839440941810608,-0.0358734130859375
-0.1815313398838043,1.500700831413269,-0.4768367409706116,0.1752346605062484,-0.0937252044677734,-0.1152973994612693,0.0,0.0,-0.8148677349090576,-0.4024387001991272
-0.1864111870527267,1.504502773284912,-0.4822517335414886,0.1686096787452697,-0.0994145944714546,-0.1137877479195594,0.0,0.0,-0.8809133172035217,-0.1867878437042236
-0.1913436949253082,1.508156180381775,-0.4875996708869934,0.1619849354028701,-0.1050125434994697,-0.1119593158364296,0.0,0.0,-0.942106068134308,-0.390561580657959
-0.1963277757167816,1.5116608142852783,-0.4928750097751617,0.155360460281372,-0.1105035096406936,-0.1098193675279617,0.0,0.0,-0.8311635255813599,-0.6546865701675415
-0.2014245092868805,1.5150270462036133,-0.5058587789535522,0.1493288576602935,-0.1142977103590965,-0.075884073972702,0.0,0.0,-0.888999342918396,-0.6877896189689636
-0.2066225111484527,0.0,-0.5174534320831299,0.1435610949993133,-0.1166284829378128,-0.0466155111789703,0.0,0.0,-0.9270092248916626,-0.6434411406517029
-0.2119134962558746,1.5213463306427002,-0.5280145406723022,0.1370281130075454,-0.1177026703953743,-0.021483851596713,0.0,0.0,-0.97830331325531,-0.852992594242096
-0.2173151969909668,1.5243031978607178,-0.5408946871757507,0.131475880742073,-0.1169826686382293,0.0144000397995114,0.0,0.0,-0.9641640186309814,-0.6782711744308472
-0.222825139760971,1.5271189212799072,-0.5534700155258179,0.1253300458192825,-0.1145219281315803,0.0492147766053676,0.0,0.0,-0.9579496383666992,0.0076972246170043
-0.2283802032470703,1.5297852754592896,-0.5581752061843872,0.1187085211277008,-0.1118723526597023,0.0529916994273662,0.0,0.0,-0.9946116209030152,0.3246570825576782
-0.2339791357517242,1.5323023796081543,-0.5627598166465759,0.112086996436119,-0.1090226769447326,0.0569936819374561,0.0,0.0,-0.9809583425521852,-0.1533641219139099
-0.2396204471588134,1.5346704721450806,-0.5672157406806946,0.1054654270410537,-0.1059623956680297,0.06120565533638,0.0,0.0,-0.9375836849212646,0.0672827959060669
-0.2453027218580246,1.5368891954421997,-0.5715342164039612,0.0988437980413436,-0.1026817709207534,0.0656125769019126,0.0,0.0,-0.960938572883606,0.6019464731216431
-0.2509800493717193,1.5389472246170044,-0.5701251029968262,0.0916285961866378,-0.1003066748380661,0.0475019738078117,0.0,0.0,-0.9188507199287416,0.8201823234558105
-0.2566238939762115,1.5408363342285156,-0.5651804208755493,0.0840185582637786,-0.0995170772075653,0.015791930258274,0.0,0.0,-0.9966779351234436,0.5799560546875
-0.2622609138488769,1.5425641536712646,-0.5636399984359741,0.0767804384231567,-0.0995800346136093,-0.0012591582490131,0.0,0.0,-0.9628674387931824,0.7121962308883667
-0.2678764760494232,1.5441405773162842,-0.5603345036506653,0.0699822232127189,-0.1007889509201049,-0.0241784118115901,0.0,0.0,-0.9792196750640868,0.5168793201446533
-0.2734778523445129,1.545565843582153,-0.5580064058303833,0.0631996467709541,-0.1029054522514343,-0.0423298999667167,0.0,0.0,-0.9867476224899292,0.6873776912689209
-0.2790650427341461,0.0,-0.5557317733764648,0.0565038360655307,-0.1058710291981697,-0.0593113526701927,0.0,0.0,-0.950886070728302,0.5587823390960693
-0.2846463620662689,1.5479573011398315,-0.5545318126678467,0.0493208952248096,-0.1094451695680618,-0.0714829415082931,0.0,0.0,-0.9897798895835876,0.7459323406219482
-0.2901906073093414,1.5489200353622437,-0.5495039224624634,0.0424181781709194,-0.1143314465880394,-0.0977255851030349,0.0,0.0,-0.994985282421112,0.9432724714279176
-0.295696884393692,1.5497230291366575,-0.5444158911705017,0.0352000370621681,-0.120506502687931,-0.1235010772943496,0.0,0.0,-0.9662262797355652,0.1887731552124023
-0.3012244701385498,1.5503770112991333,-0.5468326210975647,0.0285768751055002,-0.1264014393091201,-0.1178987175226211,0.0,0.0,-0.9905135035514832,0.8744091987609863
-0.3067032694816589,0.0,-0.5405237674713135,0.0214356426149606,-0.1337228864431381,-0.146429032087326,0.0,0.0,-0.9822365045547484,0.4281181097030639
-0.3121983110904693,1.55122172832489,-0.5424415469169617,0.0148115642368793,-0.1407589763402938,-0.1407219022512436,0.0,0.0,-0.9409935474395752,0.6987036466598511
-0.317650705575943,1.551401972770691,-0.5370198488235474,0.007210471201688,-0.1489628106355667,-0.1640768051147461,0.0,0.0,-0.9426282644271852,0.9434468746185304
-0.3230295777320862,1.551407814025879,-0.527778685092926,-0.0007879797485657,-0.1590590924024582,-0.2019255608320236,0.0,0.0,-0.8967446088790894,0.4807068109512329
-0.3284164071083069,1.5512653589248655,-0.5288848280906677,-0.0074153798632323,-0.1688651144504547,-0.1961201280355453,0.0,0.0,-0.8752260804176331,0.6723394393920898
-0.333744466304779,1.5509531497955322,-0.5216570496559143,-0.0151893915608525,-0.1800417900085449,-0.2235334366559982,0.0,0.0,-0.5090230107307434,0.4490599632263183
-0.3390747904777527,1.5504926443099976,-0.5221877098083496,-0.0218181312084198,-0.1909265369176864,-0.2176948338747024,0.0,0.0,-0.7662359476089478,0.0734399557113647
-0.3444043099880218,1.5498839616775513,-0.5224227905273438,-0.0284460522234439,-0.2015189379453659,-0.2118479311466217,0.0,0.0,-0.9134788513183594,0.4346767663955688
-0.3497300744056701,1.5491268634796145,-0.5223588347434998,-0.0350731797516346,-0.2118187844753265,-0.2059971839189529,0.0,0.0,-0.843930184841156,0.7661563158035278
-0.3549810945987701,1.5481913089752195,-0.5134198665618896,-0.0432950481772422,-0.2236316353082656,-0.2362568825483322,0.0,0.0,-0.839897871017456,0.0146012306213378
-0.3602222502231598,1.5471076965332031,-0.5127530097961426,-0.0499238446354866,-0.2351520806550979,-0.2304089814424514,0.0,0.0,-0.6567758917808533,0.8014487028121948
-0.3653787970542907,0.0,-0.5028058290481567,-0.0575478710234165,-0.2482164800167083,-0.261288046836853,0.0,0.0,-0.2343370914459228,0.4413416385650635
-0.3705194592475891,1.544465184211731,-0.5015371441841125,-0.0641785711050033,-0.2609892189502716,-0.2554546892642975,0.0,0.0,-0.2556209564208984,-0.517071545124054
-0.375687837600708,1.5429452657699585,-0.5058774352073669,-0.0695392563939094,-0.2722041010856628,-0.224297285079956,0.0,0.0,0.5047080516815186,0.7699251174926758
-0.3805195391178131,1.542139172554016,-0.4711466431617737,-0.0381115302443504,-0.2845441102981567,-0.2467999160289764,0.0,0.0,-0.8315826654434204,0.4959696531295776
-0.385326474905014,1.541184902191162,-0.4689967632293701,-0.044739793986082,-0.2965943515300751,-0.2410046309232711,0.0,0.0,-0.3662945032119751,-0.2114794850349426
-0.3901058733463287,1.5400822162628174,-0.4665639400482178,-0.0513671897351741,-0.3083555698394775,-0.2352244853973388,0.0,0.0,-0.2280125617980957,-0.0126277208328247
-0.3948550224304199,1.538831114768982,-0.4638553559780121,-0.0579937435686588,-0.3198285400867462,-0.2294601500034332,0.0,0.0,-0.6602035760879517,0.3724645376205444
-0.3995712399482727,1.537431240081787,-0.4608791768550873,-0.0646194741129875,-0.3310141563415527,-0.2237121164798736,0.0,0.0,-0.8280947804450989,-0.5938082337379456
-0.4043074548244476,1.5359100103378296,-0.4646472930908203,-0.0697028562426567,-0.3403975963592529,-0.1876686811447143,0.0,0.0,-0.2306969165802002,-0.8325223922729492
-0.4090555608272552,0.0,-0.4674789011478424,-0.074600912630558,-0.3480852246284485,-0.1537528187036514,0.0,0.0,-0.1719040870666504,0.3093464374542236
-0.4137634634971618,1.532482028007507,-0.4637530446052551,-0.0812202468514442,-0.3554880321025848,-0.1480558961629867,0.0,0.0,-0.4811123609542846,0.1453911066055297
-0.4184289872646332,1.5305436849594116,-0.4597982466220855,-0.0878390967845916,-0.3626068234443664,-0.1423756778240203,0.0,0.0,-0.5695803165435791,0.1400456428527832
-0.4230499863624573,1.52845561504364,-0.4556252360343933,-0.0944574773311615,-0.3694424033164978,-0.136711835861206,0.0,0.0,-0.2562037110328674,0.5115364789962769
-0.4275763928890228,1.5261963605880735,-0.4452385902404785,-0.1023428961634635,-0.3772900402545929,-0.1569529324769973,0.0,0.0,-0.5455130338668823,0.2846235036849975
-0.432054191827774,1.523787498474121,-0.4406627118587494,-0.1089618206024169,-0.3848560452461242,-0.1513201296329498,0.0,0.0,0.4387869834899902,-0.2202023267745971
-0.4362203478813171,1.5222209692001345,-0.4097594618797302,-0.0714957863092422,-0.3921702206134796,-0.1462833136320114,0.0,0.0,-0.1544768214225769,0.1365774869918823
-0.4403343796730041,1.5205047130584717,-0.4048230648040771,-0.0781137719750404,-0.3992041945457458,-0.1406796872615814,0.0,0.0,-0.1859889030456543,-0.8183600902557373
-0.4444468915462494,1.5186669826507568,-0.4063190519809723,-0.0830729529261589,-0.4044980704784393,-0.1058777570724487,0.0,0.0,0.2663757801055908,0.5523748397827148
-0.4483718276023865,1.5173686742782593,-0.3865775763988495,-0.059407752007246,-0.4108568429946899,-0.1271754950284958,0.0,0.0,-0.2117208242416381,-0.1681604981422424
-0.4522400796413421,1.5159202814102173,-0.3811782598495483,-0.066024363040924,-0.4169374704360962,-0.1216124892234802,0.0,0.0,-0.3953410983085632,0.063313603401184
-0.4560502171516418,1.5143218040466309,-0.3756441473960876,-0.0726405903697013,-0.4227405786514282,-0.1160620898008346,0.0,0.0,-0.7914130687713623,0.2477654218673706
-0.4598010182380676,1.5125733613967896,-0.369984358549118,-0.0792564675211906,-0.4282667636871338,-0.1105239018797874,0.0,0.0,-0.3275536894798279,-0.8105422854423523
-0.46353879570961,1.510698676109314,-0.3701515793800354,-0.084424577653408,-0.4322069585323334,-0.0788037106394767,0.0,0.0,-0.4902211427688598,0.1175571680068969
-0.4672151207923889,1.5086737871170044,-0.3642655611038208,-0.0910389050841331,-0.435871422290802,-0.0732895731925964,0.0,0.0,-0.9387786388397216,-0.3431305885314941
-0.4708290100097656,1.5064983367919922,-0.358278751373291,-0.0976529940962791,-0.4392608106136322,-0.0677873492240905,0.0,0.0,-0.4885212182998657,-0.1849937438964843
-0.4743794798851013,1.504172682762146,-0.3521984815597534,-0.1042668893933296,-0.4423756599426269,-0.0622969977557659,0.0,0.0,-0.522129476070404,0.6396358013153076
