x_pos,y_pos,x_vel,y_vel,angle,ang_vel,leg_1,leg_2,main_booster,lat_booster
-0.0015447617042809,1.4033048152923584,-0.156091421842575,-0.3384563624858856,0.0014399288920685,0.0283799581229686,0.0,0.0,-0.0489892069828219,0.6594701218756579
-0.0030532837845385,1.3953900337219238,-0.1504773795604705,-0.3517705798149109,0.0010763880563899,-0.007270828820765,0.0,0.0,0.7113286990658112,0.86107514883584
-0.0043592453002929,1.3877768516540527,-0.1284367144107818,-0.3383626937866211,-0.0010566000128164,-0.0426641479134559,0.0,0.0,0.5858761354796977,0.6984663599389178
-0.0057512284256517,1.380561113357544,-0.1350025832653045,-0.3207018971443176,-0.0052060363814234,-0.0829965621232986,0.0,0.0,0.5136713407730238,0.9432450681266624
-0.0069463727995753,1.373923897743225,-0.1132253408432006,-0.295029729604721,-0.0114167174324393,-0.1242250055074691,0.0,0.0,-0.9221679844741844,-0.6111467052020454
-0.0081911087036132,1.366966962814331,-0.1187691465020179,-0.3092464208602905,-0.0170593298971653,-0.1128625720739364,0.0,0.0,0.3877660799048479,0.8198943480019112
-0.0093951225280761,1.360417723655701,-0.1126457825303077,-0.2911857068538666,-0.0247261859476566,-0.1533515304327011,0.0,0.0,0.1076307845993964,-0.8472235370057483
-0.0105469701811671,1.3542006015777588,-0.1088155284523963,-0.2764387130737304,-0.0310258530080318,-0.1260048449039459,0.0,0.0,-0.3117936717037366,-0.6588700324116995
-0.0117583274841308,1.3476738929748535,-0.1157237663865089,-0.2901954054832458,-0.0363721512258052,-0.1069357618689537,0.0,0.0,0.1083576133035102,-0.6968151766858965
-0.0130118373781442,1.34156596660614,-0.1209620982408523,-0.2715748846530914,-0.0407187081873416,-0.0869392901659011,0.0,0.0,0.1877149764929353,0.6177443525514235
-0.014133071526885,1.3357727527618408,-0.1062227934598922,-0.257652223110199,-0.0465552844107151,-0.1167418137192726,0.0,0.0,0.5942240969149757,0.7603880998660071
-0.0150959016755223,1.3304133415222168,-0.0886224582791328,-0.2384512275457382,-0.0541398487985134,-0.151705265045166,0.0,0.0,-0.2016899683900237,-0.6158557132063014
-0.0160947795957326,1.3247414827346802,-0.0928062126040458,-0.2523550987243652,-0.0611547492444515,-0.1403105556964874,0.0,0.0,0.4779474854255283,0.9494012811621332
-0.0169257167726755,1.319204807281494,-0.0737836062908172,-0.2464821487665176,-0.0703728124499321,-0.1843783557415008,0.0,0.0,0.2676665179630724,-0.8516390906290726
-0.0176487918943166,1.3142988681793213,-0.0644255578517913,-0.2184257507324218,-0.0781759694218635,-0.1560776382684707,0.0,0.0,-0.104875906619601,-0.8678270168098223
-0.0184196475893259,1.3090709447860718,-0.0702415257692337,-0.2327309399843216,-0.0849686414003372,-0.1358656883239746,0.0,0.0,0.034995246370322,-0.7166477459067311
-0.0190913192927837,1.3043280839920044,-0.0614361763000488,-0.2111282646656036,-0.0906529203057289,-0.1136962324380874,0.0,0.0,0.1229088775453088,0.6911067163589057
-0.0195636749267578,1.2996187210083008,-0.0398578867316246,-0.2097664922475814,-0.0979860797524452,-0.1466761827468872,0.0,0.0,0.5156383018020325,-0.927068735651993
-0.0199206359684467,1.2956949472427368,-0.0298900995403528,-0.1747858971357345,-0.1037527173757553,-0.1153429597616195,0.0,0.0,0.323454623939996,-0.808177356502408
-0.0203494075685739,1.2921494245529177,-0.0382088311016559,-0.1579085141420364,-0.1084017604589462,-0.0929890722036361,0.0,0.0,0.335542954766358,-0.6447359165405724
-0.0206298828125,1.2891860008239746,-0.0244707874953746,-0.1319767087697982,-0.1119608879089355,-0.0711890310049057,0.0,0.0,0.2089336013846729,-0.8655929954070696
-0.0209109298884868,1.286391019821167,-0.0258578304201364,-0.1243933588266372,-0.1141979768872261,-0.0447454936802387,0.0,0.0,0.968205601755466,0.8067580111753949
-0.0208635330200195,1.2842028141021729,0.0086344573646783,-0.0975516363978385,-0.1180807501077652,-0.0776626169681549,0.0,0.0,-0.1866357329630341,-0.6635237687623665
-0.0208368301391601,1.2816966772079468,0.0058163357898592,-0.1116381660103797,-0.1212052032351493,-0.0624945573508739,0.0,0.0,0.7002460056281381,0.6345611969496274
-0.0208086017519235,1.2798793315887451,0.008019077591598,-0.081202283501625,-0.1263851821422577,-0.1036088690161705,0.0,0.0,0.4701543154517131,0.664913574744535
-0.020761776715517,1.2786749601364136,0.011911398731172,-0.0541570819914341,-0.1335802972316742,-0.1439020335674286,0.0,0.0,-0.0863027728375005,0.8974457401657061
-0.0206113811582326,1.2771440744400024,0.0244795549660921,-0.068919651210308,-0.1429887413978576,-0.1881687939167022,0.0,0.0,-0.2137788885424223,-0.7184261494370366
-0.0204944610595703,1.2753173112869265,0.0197811610996723,-0.0819830149412155,-0.1510570794343948,-0.1613668501377105,0.0,0.0,-0.3072044092660373,-0.6870322988317228
-0.0204060561954975,1.2731932401657104,0.0156470797955989,-0.0951156243681907,-0.1578616946935653,-0.1360922455787658,0.0,0.0,-0.9068913795054444,-0.9237567390827884
-0.0203547477722167,1.2707650661468506,0.0104360952973365,-0.1084868386387825,-0.1631659567356109,-0.1060855984687805,0.0,0.0,-0.2612636366385168,0.6683351777206139
-0.0202091224491596,1.2680131196975708,0.021649794653058,-0.1231094151735305,-0.1702562570571899,-0.1418060064315796,0.0,0.0,-0.1580701444430061,0.6283683975282187
-0.0199797637760639,1.2649284601211548,0.0315156653523445,-0.1380980014801025,-0.1788547784090042,-0.1719705760478973,0.0,0.0,-0.9884930581760768,0.6832158214675863
-0.0196605678647756,1.2615203857421875,0.0420690923929214,-0.1527280509471893,-0.1890399008989334,-0.2037030756473541,0.0,0.0,0.4774319242731419,0.8367659759068933
-0.0192346572875976,1.2582626342773438,0.0548722147941589,-0.1464102268218994,-0.2014027237892151,-0.2472562491893768,0.0,0.0,-0.7941912437973404,0.7465802845238073
-0.0187026970088481,1.2546718120574951,0.0673789083957672,-0.1615815609693527,-0.2157108187675476,-0.2861620187759399,0.0,0.0,0.6749497257110086,-0.7378782361325353
-0.0179947856813669,1.251906156539917,0.0838137418031692,-0.1248720586299896,-0.2288928776979446,-0.2636407613754272,0.0,0.0,-0.6604230745499153,-0.8973461196761692
-0.0173101425170898,1.248844861984253,0.0799925923347473,-0.1378899961709976,-0.2405926585197448,-0.2339958697557449,0.0,0.0,-0.3454776835929278,-0.6133096360540333
-0.0166179649531841,1.2454875707626345,0.0799639821052551,-0.1510028541088104,-0.2515281736850738,-0.218710258603096,0.0,0.0,-0.8343633503957975,0.8379889348465608
-0.0158121101558208,1.2417998313903809,0.0932181775569915,-0.1661150455474853,-0.2644353806972503,-0.2581442892551422,0.0,0.0,-0.321131922304404,0.6395157987138851
-0.0149019239470362,1.237776517868042,0.1053342968225479,-0.1814652532339096,-0.2790911793708801,-0.2931162714958191,0.0,0.0,-0.8395669706124935,0.9477704701376172
-0.0138761522248387,1.2334206104278564,0.1187193170189857,-0.1967769712209701,-0.2957116961479187,-0.3324111700057983,0.0,0.0,-0.8700593113899231,-0.9964720606803894
-0.0128546711057424,1.2287747859954834,0.117042638361454,-0.2095795422792434,-0.3111109733581543,-0.3079856038093567,0.0,0.0,-0.680330753326416,-0.9977875351905824
-0.0118412971496582,1.223833441734314,0.114901028573513,-0.2225829064846038,-0.3252002596855163,-0.281786173582077,0.0,0.0,-0.9680810570716858,-0.9996268153190612
-0.0108326915651559,1.2186061143875122,0.1130905598402023,-0.2351325452327728,-0.3379667997360229,-0.255330353975296,0.0,0.0,-0.6441645622253418,-0.998572587966919
-0.0098471641540527,1.2130930423736572,0.1090203076601028,-0.2475156188011169,-0.3489411175251007,-0.2194863855838775,0.0,0.0,-0.90167236328125,-0.9994670152664183
-0.0088727949187159,1.2072911262512207,0.1064363718032836,-0.2600748240947723,-0.358406126499176,-0.1893001347780227,0.0,0.0,-0.9488943219184875,-0.9997581243515016
-0.0079055782407522,1.2012042999267578,0.1042959317564964,-0.2724367380142212,-0.366399735212326,-0.1598720848560333,0.0,0.0,-0.904447615146637,-0.9998732209205629
-0.0069617270492017,1.194860339164734,0.0999653860926628,-0.2833947539329529,-0.3723030090332031,-0.1180652752518653,0.0,0.0,-0.985548198223114,-0.998862087726593
-0.0060431482270359,1.1882591247558594,0.0953873842954635,-0.2943095266819,-0.3760438561439514,-0.0748171582818031,0.0,0.0,-0.9860591888427734,-0.9988200664520264
-0.0051384926773607,1.181382179260254,0.0923187285661697,-0.3061291873455047,-0.3780107796192169,-0.0393393374979496,0.0,0.0,-0.99099862575531,-0.9993883967399596
-0.0042264936491847,1.174220323562622,0.0918998047709465,-0.3184939324855804,-0.378756046295166,-0.0149051621556282,0.0,0.0,-0.9693914651870728,-0.9960137009620668
-0.0033288956619799,1.1667940616607666,0.0886626690626144,-0.3297606706619262,-0.3775853514671325,0.0234137456864118,0.0,0.0,-0.9416672587394714,-0.9998701810836792
-0.0024281502701342,1.1590805053710938,0.0876955837011337,-0.3422066271305084,-0.3750706315040588,0.0502942986786365,0.0,0.0,-0.978967308998108,-0.9880664348602296
-0.0015322684776037,1.151099681854248,0.0856066867709159,-0.3536585867404938,-0.3708498179912567,0.0844171643257141,0.0,0.0,-0.9910634756088256,-0.9949017763137816
-0.0006268501165322,1.1428297758102417,0.0854048877954483,-0.3662316501140594,-0.3654155433177948,0.108685478568077,0.0,0.0,-0.7259317636489868,-0.9985648989677428
0.0002583503664936,1.1342869997024536,0.0814258307218551,-0.3778932988643646,-0.3579243719577789,0.1498240679502487,0.0,0.0,-0.9951826333999634,-0.995451807975769
0.0011502265697345,1.1254700422286987,0.08072330057621,-0.3897798955440521,-0.3490071892738342,0.178343266248703,0.0,0.0,-0.9496604800224304,-0.9992495775222778
0.0020531653426587,1.1163710355758667,0.0805619657039642,-0.4020844101905823,-0.338809072971344,0.2039622515439987,0.0,0.0,-0.9945087432861328,-0.965017020702362
0.002962875412777,1.10699725151062,0.0798313617706298,,-0.3271656036376953,0.2328694313764572,0.0,0.0,-0.9452871680259703,-0.9504663944244384
0.0038625716697424,1.0973559617996216,0.0769361332058906,-0.4256210923194885,-0.3136146068572998,0.2710201144218445,0.0,0.0,-0.9568065404891968,-0.9339224696159364
0.0047645568847656,1.0874221324920654,0.0757233574986457,-0.4384440183639526,-0.2986118197441101,0.3000560402870178,0.0,0.0,-0.9883397817611694,-0.9396729469299316
0.0056538581848144,1.0772157907485962,0.0724646300077438,-0.4503296315670013,-0.281648725271225,0.3392611145973205,0.0,0.0,-0.963071882724762,-0.8564531803131104
0.0065602301619946,1.066715121269226,0.0730047672986984,-0.4634023606777191,-0.2635732293128967,0.3615096509456634,0.0,0.0,-0.9824181199073792,-0.8595480918884277
0.0074732778593897,1.0559269189834597,0.0722039714455604,-0.4761587083339691,-0.2440841495990753,0.3897819221019745,0.0,0.0,-0.979508340358734,-0.2636901140213012
0.0084559442475438,1.0448248386383057,0.0793213695287704,-0.4903987348079681,-0.2248467653989792,0.3847473561763763,0.0,0.0,-0.9666954874992372,-0.4957985877990722
0.0095084188506007,1.0334086418151855,0.0864581540226936,-0.5046375393867493,-0.2058532685041427,0.3798698186874389,0.0,0.0,-0.9762932062149048,-0.1745203733444214
0.0106308935210108,1.0216779708862305,0.0936124250292778,-0.5188753008842468,-0.1870957165956497,0.3751510977745056,0.0,0.0,-0.9423452615737916,-0.0699537396430969
0.0118234632536768,1.0096328258514404,0.1007823720574379,-0.5331119298934937,-0.1685660928487777,0.37059286236763,0.0,0.0,-0.9165371656417848,0.1994918584823608
0.0130863189697265,0.9972732067108154,0.1079662218689918,-0.5473476052284241,-0.1502562761306762,0.3661961853504181,0.0,0.0,-0.9337627291679382,-0.701230525970459
0.0143557544797658,0.9846103191375732,0.1071705967187881,-0.5609130859375,-0.1305379569530487,0.394366443157196,0.0,0.0,-0.9097631573677064,0.0027327537536621
0.015695571899414,0.9716334342956544,0.1143762692809104,-0.5751517415046692,-0.1110233217477798,0.3902924656867981,0.0,0.0,-0.9185612201690674,-0.1851549744606018
0.0171061512082815,0.9583421349525452,0.1215912550687789,-0.589389443397522,-0.0917042568325996,0.3863812685012817,0.0,0.0,-0.7095804810523987,-0.5819751024246216
0.0185322761535644,0.9447511434555054,0.1218678727746009,-0.6029096841812134,-0.0711625516414642,0.4108339846134186,0.0,0.0,-0.4909628629684448,0.511022686958313
0.0200742725282907,0.9308408498764038,0.1347757279872894,-0.6174200177192688,-0.0519420616328716,0.3844100534915924,0.0,0.0,-0.3821029663085937,0.7056171894073486
0.0217395778745412,0.9166061282157898,0.1485962122678756,-0.6321293115615845,-0.0342194586992263,0.3544519543647766,0.0,0.0,-0.5471835136413574,-0.6806005835533142
0.0234277732670307,0.9020515084266664,0.1498259752988815,-0.6465433239936829,-0.0154600292444229,0.3751886487007141,0.0,0.0,-0.3709359169006347,0.6075947284698486
0.0252323150634765,0.8871746063232422,0.1627750396728515,-0.6611053347587585,0.0019987567793577,0.3491756021976471,0.0,0.0,-0.1779183149337768,0.1652225255966186
0.027107810601592,0.8719821572303772,0.170014813542366,-0.6753349304199219,0.0193100478500127,0.346225768327713,0.0,0.0,-0.7245197296142578,0.0166736841201782
0.0290542598813772,0.8564738631248474,0.1772535890340805,-0.6895639300346375,0.0364815481007099,0.3434298634529114,0.0,0.0,-0.6187394857406616,-0.7518121004104614
0.0310008041560649,0.8406540751457214,0.1756214946508407,-0.7036721706390381,0.0552939996123313,0.3762486577033996,0.0,0.0,-0.0389631986618042,-0.7957270741462708
0.0329421982169151,0.8245053291320801,0.1733000874519348,-0.7186233997344971,0.0759069994091987,0.4122601151466369,0.0,0.0,-0.4399298429489136,0.6053287982940674
0.0350051894783973,0.808053195476532,0.1868968904018402,-0.7322986721992493,0.0951143205165863,0.3841465711593628,0.0,0.0,-0.2853782176971435,-0.9855551719665528
0.0370479598641395,0.7912737131118774,0.1827373802661895,-0.7472602725028992,0.1165060773491859,0.4278352260589599,0.0,0.0,0.5788171291351318,0.4728329181671142
0.0390341766178607,0.7751362323760986,0.1774655878543853,-0.7189986705780029,0.1375517100095749,0.4209125936031341,0.0,0.0,-0.3506579399108886,0.3117392063140869
0.0410907752811908,0.7586849331855774,0.1846709102392196,-0.7332385182380676,0.1585002541542053,0.4189706444740295,0.0,0.0,0.4426155090332031,0.4787490367889404
0.0432127006351947,0.7426900863647461,0.1910147070884704,-0.7132705450057983,0.1797104030847549,0.424203097820282,0.0,0.0,-0.6199190020561218,0.7370599508285522
0.0454653725028038,0.7263901233673096,0.2057686746120453,-0.7269216775894165,0.1993046551942825,0.3918847739696502,0.0,0.0,0.753065824508667,0.8572878837585449
0.0478775016963481,0.7104495167732239,0.223387986421585,-0.7109752297401428,0.2172927260398864,0.3597613871097564,0.0,0.0,0.6174852848052979,0.4722435474395752
0.0503799431025981,0.6950589418411255,0.2318909168243408,-0.6868361830711365,0.2358749359846115,0.3716441988945007,0.0,0.0,0.8933745622634888,0.806252121925354
0.0530790314078331,0.6800894737243652,0.2529504001140594,-0.6681278347969055,0.2531316578388214,0.3451344072818756,0.0,0.0,0.675606369972229,0.562329888343811
0.0556935295462608,0.6659284234046936,0.245737224817276,-0.632168710231781,0.2691710293292999,0.3207873702049255,0.0,0.0,0.2747876644134521,0.7475167512893677
0.0583035461604595,0.6523365378379822,0.2468772381544113,-0.6067465543746948,0.283667504787445,0.2899295687675476,0.0,0.0,0.0873795747756958,0.6198477745056152
0.0609950050711631,0.6391210556030273,0.2562379539012909,-0.5899226069450378,0.2969714701175689,0.2660784125328064,0.0,0.0,0.4502028226852417,0.7862759828567505
0.0638274177908897,0.6260614991188049,0.2718292772769928,-0.5827996730804443,0.3087799847126007,0.2361703217029571,0.0,0.0,-0.1886335015296936,0.9054031372070312
0.0667915344238281,0.6127108335494995,0.2866965234279632,-0.5954599380493164,0.3188655078411102,0.2017107456922531,0.0,0.0,-0.2333403825759887,0.7709617614746094
0.0698883980512619,0.5990828275680542,0.3017582595348358,-0.6074557900428772,0.3271088302135467,0.164866492152214,0.0,0.0,0.203895092010498,0.522944450378418
0.0729419738054275,0.5857356786727905,0.2985517382621765,-0.5947664380073547,0.3342123627662658,0.1420704126358032,0.0,0.0,-0.579487144947052,0.7541053295135498
0.0761066451668739,0.5720987915992737,0.3108929991722107,-0.6073841452598572,0.3400534093379974,0.1168204993009567,0.0,0.0,-0.4462160468101501,0.1935760974884033
0.0793394073843956,0.5581428408622742,0.3177216053009033,-0.621590256690979,0.3458663821220398,0.1162600144743919,0.0,0.0,-0.2974358797073364,0.516537070274353
0.0826734527945518,0.5438897013664246,0.3288167417049408,-0.6345827579498291,0.3506854474544525,0.096381276845932,0.0,0.0,0.3934894800186157,0.5057486295700073
0.0858233422040939,0.5301918983459473,0.311589628458023,-0.6096242070198059,0.3542601466178894,0.0714939162135124,0.0,0.0,0.4412863254547119,-0.1024445295333862
0.0888686180114746,0.5167744755744934,0.3012469410896301,-0.5971438884735107,0.3577139377593994,0.0690758377313613,0.0,0.0,0.2500907182693481,-0.5642921924591064
0.091687873005867,0.5036033391952515,0.2777526974678039,-0.586434543132782,0.3621231317520141,0.088183507323265,0.0,0.0,0.5853841304779053,0.7508782148361206
0.094301126897335,0.490762859582901,0.2588860988616943,-0.5713050365447998,0.3646922409534454,0.0513819977641105,0.0,0.0,0.1112582683563232,0.9743808507919312
0.0969554930925369,0.4783717095851898,0.2649513483047485,-0.5508426427841187,0.3652130961418152,0.0104168485850095,0.0,0.0,0.8314683437347412,0.921046495437622
0.0996675491333007,0.4663057029247284,0.2723846137523651,-0.535965621471405,0.3639573752880096,-0.0251143518835306,0.0,0.0,0.9204325675964355,0.3976931571960449
0.1022841483354568,0.4552531242370605,0.2621222734451294,-0.4911065399646759,0.3634677827358246,-0.0097919562831521,0.0,0.0,0.7482309341430664,0.6755928993225098
0.1046943664550781,0.4450517892837524,0.2428678572177887,-0.4529243111610412,0.3615106046199798,-0.0391433462500572,0.0,0.0,0.8847734928131104,0.8963809013366699
0.1070515662431716,0.4360409379005432,0.2390519678592682,-0.3996502161026001,0.3580030798912048,-0.0701512321829795,0.0,0.0,0.9267410039901732,-0.7912358641624451
0.1092639937996864,0.4276783764362335,0.2228486537933349,-0.3712682723999023,0.3563128411769867,-0.0338050574064254,0.0,0.0,0.7406052350997925,0.2327511310577392
0.1112276092171669,0.4202015399932861,0.1980142742395401,-0.3318955302238464,0.3545745015144348,-0.034765925258398,0.0,0.0,0.8027353286743164,0.4301338195800781
0.1130120307207107,0.4136484265327453,0.1798113882541656,-0.2909115254878998,0.3531290292739868,-0.0289092026650905,0.0,0.0,0.7905499935150146,0.3173480033874511
0.1147620230913162,0.4075203239917755,0.1760082989931106,-0.2721138894557953,0.3520735502243042,-0.0211097095161676,0.0,0.0,0.4220335483551025,0.115818977355957
0.1162837967276573,0.4017674624919891,0.1536532193422317,-0.2553209662437439,0.3505164086818695,-0.0311420299112796,0.0,0.0,0.8499023914337158,0.7044610977172852
0.1175663024187088,0.3964536786079407,0.1314599514007568,-0.2353878617286682,0.3471443653106689,-0.0674409046769142,0.0,0.0,0.6009352207183838,0.9101245403289796
0.1187588721513748,0.3916151225566864,0.1242878437042236,-0.2138423770666122,0.3418608605861664,-0.1056695953011512,0.0,0.0,0.7354104518890381,0.784906268119812
0.1198986992239952,0.3872939646244049,0.1205277666449546,-0.1905149817466735,0.3350103199481964,-0.1370109170675277,0.0,0.0,0.1742767095565796,0.9171593189239502
0.1211732849478721,0.3830970525741577,0.135807067155838,-0.1846118122339248,0.326295793056488,-0.1742906272411346,0.0,0.0,-0.0918368697166442,0.6661721467971802
0.1225488632917404,0.3786138296127319,0.1474795043468475,-0.1970528215169906,0.3159754276275635,-0.2064075171947479,0.0,0.0,-0.0171753764152526,0.3236095905303955
0.1239660233259201,0.3738122582435608,0.1516952216625213,-0.2112648338079452,0.3056316673755646,-0.2068753540515899,0.0,0.0,-0.2540977001190185,0.178425908088684
0.1254221946001052,0.3686923086643219,0.1556604653596878,-0.2254768759012222,0.2952624857425689,-0.2073833644390106,0.0,0.0,0.2159068584442138,0.1542679071426391
