x_pos,y_pos,x_vel,y_vel,angle,ang_vel,leg_1,leg_2,main_booster,lat_booster
-0.001528263092041,1.4035139083862305,-0.1553441435098648,-0.3291608989238739,0.002259817905724,0.0446136817336082,0.0,0.0,-0.4280128479003906,0.8826446533203125
-0.002985858824104,1.3960163593292236,-0.1465641409158706,-0.3332208395004272,0.0030478651169687,0.0157630629837512,0.0,0.0,-0.212364375591278,0.5956921577453613
-0.0043910024687647,1.3884038925170898,-0.1403308659791946,-0.3383328318595886,0.0028729152400046,-0.0034991069696843,0.0,0.0,-0.1676183938980102,-0.2777121067047119
-0.0058006285689771,1.3806809186935425,-0.1412697285413742,-0.3432468175888061,0.0031699556857347,0.0059415302239358,0.0,0.0,-0.1641102433204651,0.1040650606155395
-0.0072150230407714,1.3728474378585815,-0.1422116011381149,-0.3481580018997192,0.0039343079552054,0.0152884302660822,0.0,0.0,-0.2002546191215515,0.7990620136260986
-0.0085570337250828,1.3649026155471802,-0.1334760934114456,-0.3530943095684051,0.0032211118377745,-0.014265445061028,0.0,0.0,-0.0257974863052368,0.6605467796325684
-0.0098536489531397,1.356847882270813,-0.128138393163681,-0.3579915761947632,0.0017089877510443,-0.0302451699972152,0.0,0.0,-0.1655356884002685,0.5292613506317139
-0.0111032482236623,1.3486841917037964,-0.1225565671920776,-0.3628263771533966,-0.0006561818299815,-0.047307975590229,0.0,0.0,-0.5475563406944275,0.5397400856018066
-0.0123157501220703,1.3404159545898438,-0.1182669997215271,-0.3674789369106293,-0.0036195290740579,-0.0592722967267036,0.0,0.0,0.0942704677581787,0.6022882461547852
-0.0134846689179539,1.3327627182006836,-0.1131318360567092,-0.3401630818843841,-0.0073330728337168,-0.0742778927087783,0.0,0.0,-0.7517052888870239,0.1740628480911255
-0.0146584510803222,1.32499897480011,-0.1140645369887352,-0.3450800776481628,-0.0106083583086729,-0.065511405467987,0.0,0.0,-0.3645437359809875,0.1203558444976806
-0.0158370975404977,1.317124605178833,-0.1149985194206237,-0.3499889969825744,-0.0134522384032607,-0.0568827502429485,0.0,0.0,-0.6159628033638,0.7101798057556152
-0.0169528014957904,1.3091421127319336,-0.1073887795209884,-0.3548151552677154,-0.0175831113010644,-0.0826250314712524,0.0,0.0,-0.7545760273933411,0.1702978610992431
-0.0180734638124704,1.3010494709014893,-0.1083184629678726,-0.3597269356250763,-0.0212950855493545,-0.0742461308836937,0.0,0.0,-0.8254314064979553,0.7374610900878906
-0.0191273689270019,1.292851805686951,-0.100234068930149,-0.3644268810749054,-0.0264013148844242,-0.1021335497498512,0.0,0.0,-0.0119217038154602,-0.0920889377593994
-0.0201865192502737,1.2845436334609983,-0.1011588349938392,-0.3693390488624573,-0.0311036929488182,-0.0940559431910514,0.0,0.0,-0.8909144997596741,0.2297871112823486
-0.021250819787383,1.2761250734329224,-0.1020839437842369,-0.3742508590221405,-0.0354116931557655,-0.0861675515770912,0.0,0.0,-0.897500216960907,0.3230016231536865
-0.0223204605281353,1.2675962448120115,-0.1030084639787674,-0.3791623413562774,-0.0393336825072765,-0.0784467905759811,0.0,0.0,-0.6935198307037354,0.5186852216720581
-0.0233478546142578,1.25895893573761,-0.0979556590318679,-0.3840126097202301,-0.0440744534134864,-0.0948236212134361,0.0,0.0,-0.5671035051345825,0.7123737335205078
-0.0243321415036916,1.250207781791687,-0.092764988541603,-0.3891196250915527,-0.0496734306216239,-0.1119899302721023,0.0,0.0,-0.9505932927131652,-0.017837107181549
-0.0253218654543161,0.0,-0.0936787128448486,-0.394032210111618,-0.054914753884077,-0.1048359274864196,0.0,0.0,-0.9737016558647156,-0.2073984146118164
-0.0263172145932912,1.2323741912841797,-0.0945910066366195,-0.3989444077014923,-0.0598094910383224,-0.0979035273194313,0.0,0.0,-0.767534613609314,-0.2929760217666626
-0.0273181907832622,1.2232917547225952,-0.095500998198986,-0.4038562476634979,-0.0643684118986129,-0.0911863967776298,0.0,0.0,-0.9461361765861512,0.4657057523727417
-0.0283249858766794,1.2140986919403076,-0.0964084416627883,-0.408767819404602,-0.0686029717326164,-0.08469869941473,0.0,0.0,-0.907194197177887,-0.7708191275596619
-0.0294127464294433,1.2048048973083496,-0.1067369431257247,-0.4131523966789245,-0.0706281960010528,-0.04050799831748,0.0,0.0,-0.9672679901123048,-0.1135717034339904
-0.0305076595395803,1.1953790187835691,-0.1077437996864318,-0.4190136194229126,-0.0723540931940078,-0.0345181003212928,0.0,0.0,-0.8283525705337524,-0.0558791756629943
-0.0316087715327739,1.1858423948287964,-0.1086507216095924,-0.42392098903656,-0.0737931951880455,-0.0287821441888809,0.0,0.0,-0.844851016998291,-0.0166522860527038
-0.0327159874141216,1.1761950254440308,-0.109552301466465,-0.4288283288478851,-0.0749586671590805,-0.023309264332056,0.0,0.0,-0.944629967212677,-0.1613407731056213
-0.0338295921683311,1.1664369106292725,-0.1104481965303421,-0.4337356686592102,-0.0758640244603157,-0.0181072186678648,0.0,0.0,-0.9192175269126892,0.3097496032714844
-0.0349496826529502,1.1565682888031006,-0.1113380342721939,-0.4386430084705353,-0.0765231773257255,-0.0131832109764218,0.0,0.0,-0.8596131205558777,0.5500011444091797
-0.0360311493277549,1.1465898752212524,-0.1065751686692237,-0.4435624182224273,-0.0780781432986259,-0.0310991294682025,0.0,0.0,-0.915819525718689,0.9020917415618896
-0.0370574966073036,1.136488437652588,-0.0997020527720451,-0.4491088092327118,-0.0809818059206008,-0.0580735579133033,0.0,0.0,-0.9134467244148254,-0.6371951699256897
-0.0381472595036029,1.1262893676757812,-0.1077103614807128,-0.4533638954162597,-0.082237884402275,-0.0251216441392898,0.0,0.0,-0.8203896284103394,0.6797299385070801
-0.0391962043941021,1.1159675121307373,-0.1025907024741172,-0.4588755965232849,-0.0845190435647964,-0.0456229746341705,0.0,0.0,-0.9218050241470336,-0.4250631928443908
-0.0402519218623638,1.1055350303649902,-0.1034442633390426,-0.4637836515903473,-0.0866279378533363,-0.0421775244176387,0.0,0.0,-0.957978904247284,0.577128529548645
-0.0412673950195312,1.0949902534484863,-0.0983824357390403,-0.4688406884670257,-0.0897632837295532,-0.0627069845795631,0.0,0.0,-0.8622197508811951,-0.3225476741790771
-0.0422897338867187,1.0843350887298584,-0.0992183610796928,-0.4737492799758911,-0.092757299542427,-0.0598805919289588,0.0,0.0,-0.6312829852104187,-0.7147163152694702
-0.0433714874088764,1.0735822916030884,-0.1066305860877037,-0.4780038893222809,-0.0942894294857978,-0.0306425876915454,0.0,0.0,-0.891398012638092,0.238355278968811
-0.0444603934884071,1.0627188682556152,-0.1074467152357101,-0.4829120337963104,-0.0957114994525909,-0.0284413937479257,0.0,0.0,-0.842180609703064,-0.351799726486206
-0.0455562584102153,1.051744818687439,-0.1082521453499794,-0.4878202378749847,-0.0970391482114791,-0.0265528913587331,0.0,0.0,-0.9453622698783876,-0.1854660511016845
-0.0466592796146869,1.040660381317139,-0.1090462952852249,-0.4927285611629486,-0.0982879400253295,-0.0249760579317808,0.0,0.0,-0.9707583785057068,0.5237177610397339
-0.0477198585867881,1.0294568538665771,-0.1035999432206153,-0.4980992972850799,-0.1007319167256355,-0.0488792434334754,0.0,0.0,-0.985525906085968,0.34404456615448
-0.0487877838313579,1.0181429386138916,-0.1043698042631149,-0.503008246421814,-0.1031278669834137,-0.047919251024723,0.0,0.0,-0.8446047306060791,-0.1780780553817749
-0.049862764775753,1.006718635559082,-0.1051265224814415,-0.5079172849655151,-0.1054910272359848,-0.0472630187869071,0.0,0.0,-0.9343637228012084,-0.0750721096992492
-0.0509450919926166,0.9951838254928588,-0.1058694496750831,-0.5128264427185059,-0.1078363358974456,-0.0469061210751533,0.0,0.0,-0.5746931433677673,0.25731360912323
-0.0520346648991107,0.9835385680198668,-0.1065978780388832,-0.5177357196807861,-0.1101785153150558,-0.0468437410891056,0.0,0.0,-0.9610454440116882,-0.307826280593872
-0.0531314834952354,0.9717831015586852,-0.1073110923171043,-0.5226450562477112,-0.1125320270657539,-0.0470704585313797,0.0,0.0,-0.9802912473678588,0.3960170745849609
-0.0542354583740234,0.95991712808609,-0.108008362352848,-0.5275545716285706,-0.1149110347032547,-0.0475799366831779,0.0,0.0,-0.9979313015937804,0.2252521514892578
-0.0553466789424419,0.94794100522995,-0.1086889505386352,-0.5324642658233643,-0.1173293069005012,-0.0483656898140907,0.0,0.0,-0.9991122484207152,-0.5889800786972046
-0.0565131194889545,0.935861349105835,-0.1153777986764907,-0.5369765758514404,-0.1185842752456665,-0.0250994358211755,0.0,0.0,-0.9761974215507508,-0.4070761203765869
-0.0576866157352924,0.9236712455749512,-0.1160226464271545,-0.5418862104415894,-0.1199050769209861,-0.026415828615427,0.0,0.0,-0.8351764678955078,0.321861982345581
-0.0588670745491981,0.9113708734512328,-0.1166484728455543,-0.5467959642410278,-0.1213043853640556,-0.0279858764261007,0.0,0.0,-0.9975481629371644,-0.8525147438049316
-0.0601098053157329,0.89896559715271,-0.1241704002022743,-0.5513563752174377,-0.121403694152832,-0.0019861084874719,0.0,0.0,-0.9975510239601136,-0.4717303514480591
-0.0613594055175781,0.886449933052063,-0.1247557401657104,-0.556266188621521,-0.1216056272387504,-0.004038777668029,0.0,0.0,-0.715166449546814,0.4645681381225586
-0.0626157745718956,0.8738240599632263,-0.1253196597099304,-0.5611762404441833,-0.121921606361866,-0.0063196895644068,0.0,0.0,-0.9908328652381896,0.8525010347366333
-0.0638228431344032,0.861073911190033,-0.1188221350312233,-0.5668313503265381,-0.1237961426377296,-0.0374907627701759,0.0,0.0,-0.9981424808502196,-0.7337438464164734
-0.0650844573974609,0.8482292294502258,-0.1253872215747833,-0.5709380507469177,-0.1245670691132545,-0.0154186580330133,0.0,0.0,-0.9950169920921326,-0.3389151096343994
-0.0663525611162185,0.8352743983268738,-0.1258822381496429,-0.5758485198020935,-0.1254836618900299,-0.0183318555355072,0.0,0.0,-0.9676485061645508,0.3268855810165405
-0.0676268562674522,0.822209358215332,-0.1263528168201446,-0.5807590484619141,-0.1265555620193481,-0.0214378703385591,0.0,0.0,-0.9914066195487976,0.3079922199249267
-0.0689072608947753,0.8090342283248901,-0.1267982423305511,-0.5856696367263794,-0.127791941165924,-0.0247279293835163,0.0,0.0,-0.9779900908470154,0.0251035690307617
-0.0701936706900596,0.7957488894462585,-0.1272178590297699,-0.590580403804779,-0.1292015761137008,-0.0281929560005664,0.0,0.0,-0.9350740313529968,0.136102557182312
-0.0714857131242752,0.7823534607887268,-0.1276110708713531,-0.595491349697113,-0.1307927966117859,-0.0318242087960243,0.0,0.0,-0.8573383688926697,-0.8638697266578674
-0.0728374496102333,0.7688564658164978,-0.1347568929195404,-0.5999058485031128,-0.1312028616666793,-0.0082013774663209,0.0,0.0,-0.9940889477729796,-0.7715283036231995
-0.0742524117231369,0.7552618384361267,-0.1423840522766113,-0.6041242480278015,-0.1303284764289856,0.0174875855445861,0.0,0.0,-0.9925520420074464,-0.7181054353713989
-0.0757286995649337,0.7415628433227539,-0.1497193127870559,-0.6086598634719849,-0.1282447874546051,0.0416738837957382,0.0,0.0,-0.9418376088142396,0.1714279651641845
-0.0772099494934082,0.7277539968490601,-0.1500018388032913,-0.613571286201477,-0.1263715773820877,0.0374640300869941,0.0,0.0,-0.9954276084899902,-0.1395878791809082
-0.0786957740783691,0.7138349413871765,-0.1502557247877121,-0.6184827089309692,-0.1247150674462318,0.0331304147839546,0.0,0.0,-0.9658892154693604,-0.3136534094810486
-0.0801861733198165,0.6998059153556824,-0.1504807770252227,-0.6233941316604614,-0.1232810169458389,0.0286812148988246,0.0,0.0,-0.9543700814247132,-0.4901706576347351
-0.0816808715462684,0.6856667399406433,-0.150676816701889,-0.6283054947853088,-0.1220748052000999,0.0241242814809083,0.0,0.0,-0.9667199850082396,-0.467338502407074
-0.0831794738769531,0.6714177131652832,-0.1508437991142273,-0.6332167983055115,-0.1211014240980148,0.0194674618542194,0.0,0.0,-0.9742079377174376,-0.2517246603965759
-0.0846818909049034,0.6570584177970886,-0.1509817242622375,-0.6381280422210693,-0.1203655153512954,0.0147183192893862,0.0,0.0,-0.981965720653534,-0.4249752759933471
-0.0861878395080566,0.6425892114639282,-0.1510906815528869,-0.643039345741272,-0.1198712885379791,0.0098843136802315,0.0,0.0,-0.9563823342323304,0.2656258344650268
-0.0876970291137695,0.6280098557472229,-0.1511708348989486,-0.6479505896568298,-0.1196226552128791,0.0049727149307727,0.0,0.0,-0.9575268626213074,0.1386996507644653
-0.0892092734575271,0.613320529460907,-0.1512224674224853,-0.6528618931770325,-0.1196231245994567,-9.315424904343672e-06,0.0,0.0,-0.9692670702934264,0.4924973249435425
-0.0907242745161056,0.5985209941864014,-0.1512458622455597,-0.6577731966972351,-0.1198758631944656,-0.0050547029823064,0.0,0.0,-0.9781205654144288,-0.0396381020545959
-0.0922417640686035,0.5836114883422852,-0.1512414664030075,-0.6626845598220825,-0.1203836947679519,-0.0101566007360816,0.0,0.0,-0.7925215363502502,0.6030761003494263
-0.0937172919511795,0.5685778856277466,-0.1456239521503448,-0.6683157086372375,-0.1222923621535301,-0.0381735675036907,0.0,0.0,-0.7100403904914856,0.6109318733215332
-0.0951469391584396,0.5534312129020691,-0.1395826637744903,-0.6734703183174133,-0.1256611049175262,-0.0673749297857284,0.0,0.0,-0.1875612139701843,-0.7065985798835754
-0.096625804901123,0.5381906032562256,-0.1454754024744033,-0.6775634288787842,-0.1280649304389953,-0.0480763837695121,0.0,0.0,-0.2708461284637451,-0.5593156218528748
-999.0,0.5228557586669922,-0.1518525928258896,-0.6816666126251221,-0.1294041574001312,-0.0267846342176198,0.0,0.0,0.6334884166717529,-0.3023498058319092
-0.0997755974531173,0.5079227685928345,-0.1595814526081085,-0.6638795733451843,-0.1315995305776596,-0.0439070910215377,0.0,0.0,0.1117798089981079,-0.0512582063674926
-0.1012978553771972,0.4936655759811401,-0.1498747020959854,-0.6338613033294678,-0.1339345574378967,-0.0467007718980312,0.0,0.0,-0.6659901142120361,-0.0982137322425842
-0.102820873260498,0.4792985320091247,-0.1496916860342025,-0.638773500919342,-0.1365354061126709,-0.0520170256495475,0.0,0.0,0.1866366863250732,0.1310064792633056
-0.1043172851204872,0.4655531048774719,-0.1465759128332138,-0.6111916899681091,-0.1395845562219619,-0.0609833188354969,0.0,0.0,-0.535416841506958,0.4999171495437622
-0.105813980102539,0.451697826385498,-0.1463484466075897,-0.6161043047904968,-0.1428998559713363,-0.0663058832287788,0.0,0.0,-0.2047661542892456,0.4441144466400146
-0.1073109656572341,0.4377328157424927,-0.1460999995470047,-0.6210172772407532,-0.146480992436409,-0.0716229826211929,0.0,0.0,-0.168565571308136,0.3681933879852295
-0.1088078469038009,0.4236579239368438,-0.1458313763141632,-0.6259304285049438,-0.150327444076538,-0.0769289582967758,0.0,0.0,-0.2185664176940918,0.2812061309814453
-0.1103044524788856,0.4094734787940979,-0.1455435007810592,-0.6308437585830688,-0.1544383615255355,-0.0822182744741439,0.0,0.0,-0.0610983371734619,0.5590729713439941
-0.1117463111877441,0.3951665759086609,-0.1384121477603912,-0.6364724636077881,-0.1602047532796859,-0.1153278797864914,0.0,0.0,0.1442008018493652,-0.829967200756073
-0.1130990013480186,0.3811372518539428,-0.1309667825698852,-0.623995840549469,-0.1645133346319198,-0.0861712917685508,0.0,0.0,0.5247178077697754,-0.247934877872467
-0.1143424957990646,0.368025541305542,-0.1197610646486282,-0.5832580327987671,-0.1691064983606338,-0.0918634757399559,0.0,0.0,-0.5067033171653748,-0.3427202701568603
-0.115584947168827,0.3548042774200439,-0.1194046586751937,-0.5881723165512085,-0.1739581078290939,-0.0970320031046867,0.0,0.0,-0.3729671835899353,0.3809031248092651
-0.1168262511491775,0.3414734005928039,-0.1190332919359207,-0.593086838722229,-0.1790659725666046,-0.1021571978926658,0.0,0.0,0.5825245380401611,-0.7282134294509888
-0.117963507771492,0.3284739851951599,-0.1100319847464561,-0.578203022480011,-0.1827700436115265,-0.0740812867879867,0.0,0.0,-0.6528885364532471,-0.4185466766357422
-0.119099237024784,0.3153648376464844,-0.1096328496932983,-0.5831167697906494,-0.1867252886295318,-0.079104796051979,0.0,0.0,0.4814656972885132,-0.7990540266036987
-0.1200671195983886,0.3032896816730499,-0.0943325906991958,-0.5369844436645508,-0.1891935318708419,-0.0493645966053009,0.0,0.0,0.0538843870162963,-0.5794369578361511
-0.1210262328386306,0.2916570603847503,-0.0943458005785942,-0.5172082185745239,-0.1907678246498108,-0.031486228108406,0.0,0.0,0.2308374643325805,0.1585525274276733
-0.1219620704650878,0.2808138430118561,-0.0913477092981338,-0.4822109937667846,-0.1930127292871475,-0.0448984764516353,0.0,0.0,-0.2952886819839477,-0.3851913213729858
-0.1228958144783973,0.2698607742786407,-0.0909028649330139,-0.4871240556240082,-0.1954957395792007,-0.0496602542698383,0.0,0.0,-0.186498761177063,0.0757882595062255
-0.123827263712883,0.2587980628013611,-0.0904485881328582,-0.4920371770858764,-0.19821298122406,-0.0543449744582176,0.0,0.0,0.1809349060058593,-0.3376256823539734
-0.1247090324759483,0.2484301477670669,-0.0849702358245849,-0.461227148771286,-0.2014339864253997,-0.0644202977418899,0.0,0.0,-0.3839589357376098,-0.6562188267707825
-0.1256414353847503,0.2379665970802307,-0.0911777764558792,-0.4653306603431701,-0.2035092562437057,-0.0415054932236671,0.0,0.0,0.2112866640090942,0.0047260522842407
-0.1265658438205719,0.2280668765306472,-0.0897708609700203,-0.4403568208217621,-0.2062016129493713,-0.0538471937179565,0.0,0.0,-0.7635225057601929,-0.7422158718109131
-0.1275593787431717,0.2180782705545425,-0.0983271598815918,-0.4440851509571075,-0.2072467356920242,-0.0209020804613828,0.0,0.0,0.3014587163925171,0.3421478271484375
-0.1283520758152008,0.2087849527597427,-0.0784030929207801,-0.4131575524806976,-0.208117663860321,-0.0174186751246452,0.0,0.0,0.3256139755249023,0.215717077255249
-0.1290324181318283,0.1998009830713272,-0.0671982914209365,-0.3994054794311523,-0.2089676260948181,-0.01699885353446,0.0,0.0,0.4500365257263183,-0.0013680458068847
-0.1294463127851486,0.1916501373052597,-0.0409337952733039,-0.3623276352882385,-0.2094301134347915,-0.0092498790472745,0.0,0.0,-0.0570042133331298,-0.7330984473228455
-0.1299150437116623,0.1834139674901962,-0.0477371998131275,-0.3659272491931915,-0.208553671836853,0.0175289809703826,0.0,0.0,-0.294956624507904,-0.7373635172843933
-0.1304226815700531,0.1750901043415069,-0.0525781735777854,-0.3696958720684051,-0.2067298293113708,0.0364767871797084,0.0,0.0,-0.2334879636764526,-0.5859163403511047
-0.1309666633605957,0.1666689068078994,-0.0570397973060607,-0.373910516500473,-0.20406174659729,0.0533617623150348,0.0,0.0,0.0274966955184936,-0.5647823810577393
-0.1314520835876464,0.1589042246341705,-0.0521356165409088,-0.3446025550365448,-0.2004402428865432,0.0724299997091293,0.0,0.0,-0.4292253255844116,-0.3034713864326477
-0.1319340765476226,0.1510297656059265,-0.0516202859580516,-0.3495153486728668,-0.1969913989305496,0.0689767748117446,0.0,0.0,0.1926400661468505,-0.5271557569503784
-0.1323263198137283,0.1435233652591705,-0.0436695851385593,-0.3330364823341369,-0.1925246864557266,0.0893343314528465,0.0,0.0,-0.1954994797706604,-0.8128989934921265
-0.1327906548976898,0.1359307914972305,-0.0526686534285545,-0.3366499245166778,-0.1862536668777465,0.1254199892282486,0.0,0.0,0.4816324710845947,0.2501647472381592
-0.1332789361476898,0.1289410144090652,-0.0543844327330589,-0.3099663853645324,-0.1806690990924835,0.1116911992430687,0.0,0.0,-0.0621739029884338,-0.0804117918014526
-0.133763313293457,0.1218416094779968,-0.0538677871227264,-0.3148799538612366,-0.1752319782972335,0.1087425798177719,0.0,0.0,0.0775666236877441,0.3081393241882324
-0.1341667175292968,0.1151419505476951,-0.0456955954432487,-0.2971410155296325,-0.1698574274778366,0.107490599155426,0.0,0.0,0.1050057411193847,0.975312352180481
-0.1343481093645095,0.1086332648992538,-0.0213913396000862,-0.2889074981212616,-0.1665965020656585,0.0652188211679458,0.0,0.0,0.1394730806350708,-0.594029426574707
-0.1344195306301117,0.1027078032493591,-0.011584660038352,-0.2628603279590606,-0.1621535718441009,0.0888586342334747,0.0,0.0,0.3016226291656494,-0.108955979347229
-0.1343648880720138,0.0976084545254707,0.0010449007386341,-0.2261640876531601,-0.1577404290437698,0.0882631763815879,0.0,0.0,-0.0296151041984558,0.523651123046875
