x_pos,y_pos,x_vel,y_vel,angle,ang_vel,leg_1,leg_2,main_booster,lat_booster
-0.0016111374134197,1.4034318923950195,-0.1629919558763504,-0.3328127264976501,0.0016750661889091,0.0330359451472759,0.0,0.0,-0.0694564580917358,0.7929863929748535
-0.0032424926757812,1.3957703113555908,-0.1628965139389038,-0.3405095338821411,0.0014385712565854,-0.0047298781573772,0.0,0.0,-0.116963505744934,0.5305910110473633
-0.0049100876785814,1.387912034988403,-0.1650386899709701,-0.3492604196071625,-0.0002566103357821,-0.0339071676135063,0.0,0.0,-0.4414021372795105,-0.1716920137405395
-0.0066641806624829,1.3798608779907229,-0.173501968383789,-0.3578261435031891,-0.0021404044236987,-0.0376794897019863,0.0,0.0,-0.3230853676795959,0.8715466260910034
-0.0084210392087697,1.3716199398040771,-0.1714600622653961,-0.3662824034690857,-0.0063175088725984,-0.0835500210523605,0.0,0.0,0.2465347051620483,0.1570272445678711
-0.0101570133119821,1.363800048828125,-0.1696602404117584,-0.3475697338581085,-0.0102102011442184,-0.0778608322143554,0.0,0.0,-0.5827001929283142,0.697333574295044
-0.0119247436523437,1.3557870388031006,-0.1712716817855835,-0.356183111667633,-0.0156555734574794,-0.1089172214269638,0.0,0.0,-0.2193717360496521,0.5189510583877563
-0.0137253757566213,1.3475821018218994,-0.1730274409055709,-0.364745557308197,-0.0226162746548652,-0.1392269432544708,0.0,0.0,-0.2952110767364502,0.6621158123016357
-0.0155579568818211,1.3391910791397097,-0.17466601729393,-0.3730880320072174,-0.0311067719012498,-0.1698256134986877,0.0,0.0,-0.8546876311302185,0.2165801525115966
-0.0174726489931345,1.330608367919922,-0.1826259791851043,-0.3816561996936798,-0.0398533642292022,-0.1749482005834579,0.0,0.0,-0.3829317688941955,0.7008938789367676
-0.0194055549800395,1.321831226348877,-0.1825725734233856,-0.3904132843017578,-0.0504556931555271,-0.2120660841464996,0.0,0.0,-0.766043484210968,-0.2497793436050415
-0.0214185714721679,1.3128631114959717,-0.1903214007616043,-0.3989854156970978,-0.0613356493413448,-0.2176192551851272,0.0,0.0,-0.695103108882904,0.5775973796844482
-0.0234555248171091,1.303702473640442,-0.1910120397806167,-0.4077115654945373,-0.0738984122872352,-0.2512781620025635,0.0,0.0,-0.7553548812866211,-0.6718024611473083
-0.0256175994873046,1.2943501472473145,-0.2044258117675781,-0.4162764251232147,-0.0855806842446327,-0.2336669415235519,0.0,0.0,-0.761271059513092,0.4093971252441406
-0.0278566367924213,1.2848074436187744,-0.2118179351091385,-0.4248524010181427,-0.0975743904709816,-0.2398961335420608,0.0,0.0,-0.6428890824317932,0.0358912944793701
-0.0301712993532419,1.2750743627548218,-0.2190768718719482,-0.4334299266338348,-0.1098889857530593,-0.2463143169879913,0.0,0.0,-0.4322164058685303,0.4613070487976074
-0.0325602516531944,1.2651513814926147,-0.2261954545974731,-0.4420081675052643,-0.1225349530577659,-0.25294229388237,0.0,0.0,-0.8136591911315918,0.0355302095413208
-0.0350221619009971,1.255038499832153,-0.2331669330596923,-0.4505881369113922,-0.1355224102735519,-0.2597724795341491,0.0,0.0,-0.6811532378196716,0.2504212856292724
-0.0375555977225303,1.244735836982727,-0.2399837225675583,-0.4591697156429291,-0.1488612443208694,-0.2668006718158722,0.0,0.0,-0.7450631260871887,-0.5412766337394714
-0.0402068123221397,1.2342536449432373,-0.2526571750640869,-0.4671639502048492,-0.1613353937864303,-0.2495060712099075,0.0,0.0,-0.148370087146759,-0.6447504758834839
-0.0429655089974403,1.2235958576202393,-0.2640697360038757,-0.475000649690628,-0.1731617897748947,-0.236548826098442,0.0,0.0,-0.0116682648658752,-0.4164649248123169
-0.0457908622920513,1.2127482891082764,-0.2703827023506164,-0.4835833609104156,-0.1853685975074768,-0.2441581040620803,0.0,0.0,-0.3354852199554443,-0.0581888556480407
-0.0486809723079204,1.2017107009887695,-0.2765095233917236,-0.4921671450138092,-0.1979644894599914,-0.25194051861763,0.0,0.0,-0.7240748405456543,-0.9020267128944396
-0.0516972541809082,1.1904922723770142,-0.2903342843055725,-0.500153124332428,-0.2093642503023147,-0.2280153781175613,0.0,0.0,0.3435310125350952,-0.7029315829277039
-0.0548457130789756,1.1799108982086182,-0.3043714761734009,-0.4718028008937835,-0.2199587374925613,-0.2119088172912597,0.0,0.0,-0.6734943389892578,-0.7685774564743042
-0.0581295974552631,1.16914701461792,-0.3194090723991394,-0.4797644019126892,-0.2290443480014801,-0.1817114949226379,0.0,0.0,-0.6895337700843811,0.0266278982162475
-0.0614708885550498,1.1581928730010986,-0.3247533440589905,-0.4883398413658142,-0.2385557889938354,-0.1902293711900711,0.0,0.0,-0.4872074127197265,-0.0160596966743469
-0.0648673996329307,1.1470487117767334,-0.3298761248588562,-0.4969163537025451,-0.2485015988349914,-0.1989158242940902,0.0,0.0,-0.8031930923461914,-0.6793011426925659
-0.0683793053030967,1.1357438564300537,-0.3426368534564972,-0.5039061903953552,-0.2572152614593506,-0.1742729842662811,0.0,0.0,-0.5118693709373474,-0.4390295743942261
-0.0719421356916427,1.12424898147583,-0.3472955822944641,-0.5124825239181519,-0.2663792669773102,-0.1832807958126068,0.0,0.0,-0.8466405272483826,-0.6916166543960571
-0.0756027251482009,1.1125925779342651,-0.3579994440078735,-0.5195571780204773,-0.2746371924877167,-0.165158674120903,0.0,0.0,-0.3668397665023803,-0.5836018919944763
-0.0793600082397461,1.1007636785507202,-0.3685324192047119,-0.5270960330963135,-0.2820278108119964,-0.1478126943111419,0.0,0.0,-0.5112995505332947,-0.6769828796386719
-0.083217903971672,1.0887761116027832,-0.3796786665916443,-0.5339816212654114,-0.2883227467536926,-0.1258979886770248,0.0,0.0,0.2667387723922729,0.3859498500823974
-0.0870853438973426,1.077016830444336,-0.3799419403076172,-0.523999035358429,-0.2953231036663055,-0.1400068998336792,0.0,0.0,-0.7309375405311584,0.4345126152038574
-0.0909912139177322,1.0650672912597656,-0.3833427429199219,-0.5325753688812256,-0.3028093874454498,-0.1497254222631454,0.0,0.0,-0.7493529915809631,-0.3981201648712158
-0.0949330329895019,1.0529279708862305,-0.386479914188385,-0.5411527752876282,-0.3107879161834717,-0.1595701873302459,0.0,0.0,-0.7984034419059753,0.2366410493850708
-0.0989082306623458,1.04059898853302,-0.3893508017063141,-0.5497312545776367,-0.3192647099494934,-0.1695361286401748,0.0,0.0,-0.8227478265762329,-0.3337345123291015
-0.1029140502214431,1.0280802249908447,-0.3919534087181091,-0.5583107471466064,-0.3282455503940582,-0.1796176135540008,0.0,0.0,-0.0765562057495117,-0.2488870620727539
-0.1069478988647461,1.0153725147247314,-0.3942864835262298,-0.5668914914131165,-0.337736040353775,-0.1898095905780792,0.0,0.0,-0.437092661857605,-0.4512990713119507
-0.1110068336129188,1.002475380897522,-0.3963494896888733,-0.5754734873771667,-0.3477413654327392,-0.2001067399978637,0.0,0.0,-0.5158720016479492,0.1788281202316284
-0.1150882691144943,0.9893893599510192,-0.398142546415329,-0.5840568542480469,-0.3582665622234344,-0.2105038464069366,0.0,0.0,-0.0056312084197998,0.4229021072387695
-0.1191895455121994,0.9761145114898682,-0.3996666073799133,-0.5926415920257568,-0.3693163394927978,-0.2209954559803009,0.0,0.0,-0.5958693623542786,0.5499706268310547
-0.1232625991106033,0.96261864900589,-0.3951491117477417,-0.6030076146125793,-0.3822164535522461,-0.2580024302005768,0.0,0.0,-0.3092654943466186,-0.5868692398071289
-0.1273860037326812,0.948955237865448,-0.400691419839859,-0.6104363799095154,-0.3946408033370971,-0.2484874278306961,0.0,0.0,0.6656771898269653,-0.2293909192085266
-0.1314447373151779,0.9355387687683104,-0.3936105668544769,-0.5997531414031982,-0.4077918529510498,-0.2630209326744079,0.0,0.0,-0.5561028122901917,0.3606836795806885
-0.1355126351118087,0.9219346046447754,-0.3940821588039398,-0.6083450317382812,-0.4214836359024048,-0.2738359570503235,0.0,0.0,0.7039890289306641,-0.1462932229042053
-0.1393407881259918,0.9087355732917786,-0.3699692785739898,-0.5905362963676453,-0.4354285001754761,-0.2788975834846496,0.0,0.0,0.3040146827697754,-0.6500112414360046
-0.1430284529924392,0.896344780921936,-0.3566000163555145,-0.5545371174812317,-0.4487152993679046,-0.265735387802124,0.0,0.0,-0.1485292911529541,-0.7356032133102417
-0.1467790603637695,0.8838177919387817,-0.3641754686832428,-0.5602899193763733,-0.4606690108776092,-0.2390741109848022,0.0,0.0,-0.4215664863586426,-0.4038082361221313
-0.1505287140607834,0.8711034059524536,-0.3636553883552551,-0.5688818097114563,-0.4731752574443817,-0.2501252293586731,0.0,0.0,0.6733752489089966,-0.781531810760498
-0.1539237946271896,0.8589059710502625,-0.3294918835163116,-0.5455703139305115,-0.4843156933784485,-0.2228078544139862,0.0,0.0,0.4377455711364746,-0.7044070959091187
-0.1571113616228103,0.8474528789520264,-0.309531420469284,-0.5122883915901184,-0.4946149289608001,-0.2059849798679351,0.0,0.0,0.4763140678405761,-0.8062149882316589
-0.160063549876213,0.8362997770309448,-0.2871909737586975,-0.4986154735088348,-0.5036371946334839,-0.1804451197385788,0.0,0.0,0.5358953475952148,-0.9141765832901
-0.1627050340175628,0.8259890675544739,-0.2573835253715515,-0.460759162902832,-0.5112730264663696,-0.1527161300182342,0.0,0.0,0.7027386426925659,-0.8981847763061523
-0.1650023460388183,0.8160704970359802,-0.2243762761354446,-0.4428443312644958,-0.5173352956771851,-0.121247112751007,0.0,0.0,0.91304349899292,-0.98003488779068
-0.1671909391880035,0.8068184852600098,-0.2146892100572586,-0.4127856194972992,-0.5220737457275391,-0.0947693809866905,0.0,0.0,0.9499828815460204,-0.8156999945640564
-0.1688427925109863,0.7985644340515137,-0.1622770130634308,-0.3679656684398651,-0.5253905653953552,-0.0663366466760635,0.0,0.0,0.906203269958496,-0.944924294948578
-0.1699972152709961,0.7910577058792114,-0.114053189754486,-0.3341755867004394,-0.5269824862480164,-0.0318385399878025,0.0,0.0,0.947096586227417,-0.9410145878791808
-0.1706209182739257,0.784610390663147,-0.0623787827789783,-0.2865415811538696,-0.5269654393196106,0.0003405297466088,0.0,0.0,0.0442270040512084,-0.7792593836784363
-0.1710725724697113,0.7787117958068848,-0.0461379028856754,-0.2617806792259216,-0.5258599519729614,0.0221102591603994,0.0,0.0,0.3887795209884643,-0.7495362162590027
-0.1713571548461914,0.7730305194854736,-0.0303734354674816,-0.2517573833465576,-0.5236721038818359,0.0437566824257373,0.0,0.0,-0.4634761214256286,-0.8894528150558472
-0.1716864556074142,0.7672252058982849,-0.0362973436713218,-0.2567235231399536,-0.519837498664856,0.0766925886273384,0.0,0.0,-0.2465528845787048,-0.8648117184638977
-0.1720377951860427,0.7612692713737488,-0.0392999127507209,-0.2631288170814514,-0.5151088833808899,0.0945728495717048,0.0,0.0,0.23820161819458,-0.9354130625724792
-0.1721814125776291,0.7557644248008728,-0.0197974238544702,-0.2426267117261886,-0.5089515447616577,0.1231484860181808,0.0,0.0,-0.7102990746498108,-0.9651075005531312
-0.1723643243312835,0.750119149684906,-0.0250332746654748,-0.2484131455421447,-0.501347005367279,0.1520908027887344,0.0,0.0,-0.3640992641448974,-0.9221858382225036
-0.1725939810276031,0.7443486452102661,-0.0313239768147468,-0.2534374892711639,-0.4919484853744507,0.1879696995019912,0.0,0.0,-0.0005009770393371,-0.8583500981330872
-0.1728466004133224,0.7384446263313293,-0.0347651168704032,-0.2590416967868805,-0.4813417494297027,0.2121346443891525,0.0,0.0,-0.092025339603424,-0.9198506474494934
-0.1731261312961578,0.7323862910270691,-0.0384990945458412,-0.2656270861625671,-0.4696288108825683,0.234259083867073,0.0,0.0,-0.3908505439758301,-0.7406015992164612
-0.1734194755554199,0.7261855602264404,-0.0408099107444286,-0.2717564702033996,-0.4569638669490814,0.253298670053482,0.0,0.0,-0.2434096336364746,-0.7964556217193604
-0.1737446784973144,0.719842255115509,-0.0453335456550121,-0.2777945697307586,-0.4429177045822143,0.2809229493141174,0.0,0.0,0.1863062381744384,-0.581863522529602
-0.1739331185817718,0.7140489816665649,-0.0322491042315959,-0.2533059120178222,-0.4283099174499511,0.2921562790870666,0.0,0.0,-0.0681515336036682,-0.6688604950904846
-0.1741308271884918,0.7081009149551392,-0.0339982695877552,-0.2601033449172973,-0.4129108190536499,0.3079813122749328,0.0,0.0,-0.3386160135269165,0.0291799306869506
-0.1742921769618988,0.701965868473053,-0.0299722254276275,-0.2686997056007385,-0.3980365097522735,0.2974853813648224,0.0,0.0,-0.3887568712234497,0.0114152431488037
-0.1744165420532226,0.695643424987793,-0.0258803721517324,-0.2772941589355469,-0.3836810886859894,0.2871083319187164,0.0,0.0,-0.9047967195510864,0.6084742546081543
-0.1744629889726638,0.6891035437583923,-0.0165533050894737,-0.287507563829422,-0.3710286319255829,0.2530494034290313,0.0,0.0,-0.7707076072692871,0.2126946449279785
-0.1744714677333831,0.6823753118515015,-0.0123483967036008,-0.2960959672927856,-0.358881413936615,0.2429452240467071,0.0,0.0,-0.9282791614532472,0.6923007965087891
-0.1743951737880706,0.6754248738288879,-0.0021545339841395,-0.3064967691898346,-0.3485869169235229,0.2058897316455841,0.0,0.0,-0.8581146597862244,-0.0296705365180969
-0.174280360341072,0.6682853102684021,0.0021372160408645,-0.3150796890258789,-0.3387815356254577,0.1961075514554977,0.0,0.0,-0.898129403591156,0.372589111328125
-0.174126535654068,0.6609563827514648,0.0064622848294675,-0.3236612379550934,-0.3294562697410583,0.1865058988332748,0.0,0.0,-0.7940190434455872,0.1734189987182617
-0.1739334166049957,0.6534379124641418,0.0108146155253052,-0.3322414457798004,-0.3206013143062591,0.1770987808704376,0.0,0.0,-0.9554124474525452,0.5389828681945801
-0.1736703813076019,0.6457087397575378,0.0190627817064523,-0.3419385254383087,-0.3130759298801422,0.150507241487503,0.0,0.0,-0.9694398045539856,-0.6447159647941589
-0.1734113693237304,0.637816846370697,0.0178839210420846,-0.3490446805953979,-0.304766982793808,0.1661787182092666,0.0,0.0,-0.8728594779968262,-0.1649819612503051
-0.1731123924255371,0.6297349333763123,0.0222825445234775,-0.3576217293739319,-0.2968946993350982,0.1574451923370361,0.0,0.0,-0.913569986820221,-0.438319444656372
-0.1727733612060547,0.6214628219604492,0.0266852974891662,-0.3661976754665375,-0.2894462943077087,0.1489681750535965,0.0,0.0,-0.9081152081489564,-0.430607795715332
-0.1723940819501876,0.613000214099884,0.0310866292566061,-0.3747725486755371,-0.2824080884456634,0.1407645642757415,0.0,0.0,-0.9388082027435304,-0.3007005453109741
-0.1719745695590973,0.6043471097946167,0.0354810878634452,-0.3833463788032532,-0.2757654786109924,0.1328519135713577,0.0,0.0,-0.9513335227966307,-0.622546911239624
-0.1715613305568695,0.5955168008804321,0.0340359210968017,-0.3911032974720001,-0.268296331167221,0.1493825018405914,0.0,0.0,-0.9824413061141968,-0.0050029158592224
-0.1711077690124511,0.5864958167076111,0.0384000651538372,-0.3996764719486236,-0.2611910700798034,0.1421054899692535,0.0,0.0,-0.6588622331619263,-0.1574846506118774
-0.1706141531467437,0.577284038066864,0.0427415519952774,-0.4082486927509308,-0.25443235039711,0.1351742595434188,0.0,0.0,-0.9895716309547424,0.0334202051162719
-0.1700805723667144,0.5678814053535461,0.0470552593469619,-0.4168199002742767,-0.2480019629001617,0.1286077052354812,0.0,0.0,-0.9771788120269777,-0.005900502204895
-0.1695070266723632,0.558287501335144,0.0513361580669879,-0.425390213727951,-0.241880714893341,0.1224248632788658,0.0,0.0,-0.9235387444496156,0.1946923732757568
-0.168893814086914,0.5485024452209473,0.055579274892807,-0.4339596331119537,-0.236048474907875,0.11664479970932,0.0,0.0,-0.962134599685669,-0.3746016025543213
-0.1682412177324295,0.5385260581970215,0.0597797445952892,-0.4425282478332519,-0.2304841578006744,0.111286424100399,0.0,0.0,-0.9520035982131958,-0.640424370765686
-0.1675913780927658,0.5283660888671875,0.0586749836802482,-0.4505811631679535,-0.2240963280200958,0.1277567148208618,0.0,0.0,-0.9258637428283693,-0.1421363353729248
-0.1669027358293533,0.518014669418335,0.0627755746245384,-0.4591492414474487,-0.2179314792156219,0.1232965737581253,0.0,0.0,-0.9499823451042176,0.1208317279815673
-0.1661754548549652,0.5074716806411743,0.0668194815516471,-0.4677165150642395,-0.2119658887386322,0.119312010705471,0.0,0.0,-0.9893712997436525,0.0845817327499389
-0.165410041809082,0.4967370331287384,0.0708021745085716,-0.4762830436229706,-0.2061749100685119,0.115819551050663,0.0,0.0,-0.6666693091392517,0.045674443244934
-0.1646068543195724,0.48581063747406,0.0747192651033401,-0.4848489165306091,-0.2005331665277481,0.1128346472978591,0.0,0.0,-0.8263239860534668,-0.4309179782867431
-0.1637663841247558,0.4746923446655273,0.0785664394497871,-0.4934141337871551,-0.1950145959854126,0.1103714928030967,0.0,0.0,-0.9646940231323242,-0.2150125503540039
-0.1628890931606292,0.4633820056915283,0.0823395326733589,-0.5019787549972534,-0.1895924657583236,0.1084426641464233,0.0,0.0,-0.8592185378074646,-0.0949856638908386
-0.161975473165512,0.4518797099590301,0.0860344544053077,-0.5105428695678711,-0.1842394918203354,0.1070591956377029,0.0,0.0,-0.9485840797424316,0.1105650663375854
-0.1610260903835296,0.4401851892471313,0.0896472781896591,-0.5191064476966858,-0.1789279580116272,0.1062303185462951,0.0,0.0,-0.3205463290214538,-0.1464446783065796
-0.1600415259599685,0.4282985925674438,0.0931742265820503,-0.5276696085929871,-0.1736297756433487,0.1059632077813148,0.0,0.0,-0.5223527550697327,-0.2017384767532348
-0.1590224206447601,0.4162196218967438,0.0966116115450859,-0.5362322926521301,-0.1683165729045868,0.1062637940049171,0.0,0.0,0.1613820791244506,-0.4375438094139099
-0.1578112542629242,0.404676616191864,0.1154170781373977,-0.5123862028121948,-0.1626155078411102,0.1140210479497909,0.0,0.0,-0.5483217835426331,-0.5908827185630798
-0.1566088646650314,0.3929464817047119,0.1134087890386581,-0.5206062197685242,-0.1557828783988952,0.1366526186466217,0.0,0.0,-0.6142363548278809,0.3189713954925537
-0.1553738564252853,0.3810242414474487,0.1165568679571151,-0.5291693210601807,-0.1488498896360397,0.1386601030826568,0.0,0.0,-0.2749766111373901,-0.3192833662033081
-0.1541070938110351,0.3689096868038177,0.1196024268865585,-0.5377323627471924,-0.1417882442474365,0.1412328332662582,0.0,0.0,0.2109111547470092,0.1268118619918823
-0.1526170670986175,0.3575108647346496,0.1412632316350937,-0.5059004426002502,-0.1340864151716232,0.1540364921092987,0.0,0.0,-0.8186237215995789,0.0406557321548461
-0.1510970145463943,0.3459199368953705,0.1440954208374023,-0.5144638419151306,-0.1262006014585495,0.1577160060405731,0.0,0.0,-0.8893312811851501,0.2638150453567505
-0.1495473831892013,0.334136813879013,0.1468172967433929,-0.5230273604393005,-0.1181038543581962,0.161934807896614,0.0,0.0,-0.6345932483673096,-0.2260990738868713
-0.1479691565036773,0.3221616446971893,0.1494266986846923,-0.5315911173820496,-0.1097698211669921,0.1666808277368545,0.0,0.0,0.1874339580535888,-0.1525902152061462
-0.1462697088718414,0.310476154088974,0.1610191911458969,-0.5187222957611084,-0.100904956459999,0.1772973537445068,0.0,0.0,-0.1587657928466797,-0.0332717299461364
-0.1445433646440506,0.2985987663269043,0.1633979678153991,-0.5272870659828186,-0.0917522460222244,0.1830543577671051,0.0,0.0,0.5957406759262085,0.2890810966491699
-0.142869085073471,0.2872891426086426,0.1584485173225402,-0.5021237730979919,-0.0828610882163047,0.1778233498334884,0.0,0.0,-0.4976447820663452,0.3305670022964477
-0.1411700248718261,0.2757875919342041,0.1605909168720245,-0.5106886625289917,-0.0736348181962966,0.1845253705978393,0.0,0.0,0.0343042612075805,0.3156089782714844
-0.1394062042236328,0.2645921409130096,0.1666166931390762,-0.4971265196800232,-0.0639760047197341,0.1931760609149933,0.0,0.0,0.6069943904876709,0.439537763595581
-0.1374704390764236,0.2537164688110351,0.1828387677669525,-0.4829386174678802,-0.0533509999513626,0.212500125169754,0.0,0.0,0.0763434171676635,0.6834080219268799
-0.1353626251220703,0.2433094084262848,0.2009245902299881,-0.4622114896774292,-0.0436129495501518,0.1947610080242157,0.0,0.0,-0.1369726061820984,0.4527041912078857
-0.1332339346408844,0.2327108234167099,0.2025842666625976,-0.4707784652709961,-0.0334565825760364,0.2031275779008865,0.0,0.0,0.2814726829528808,0.5535533428192139
