x_pos,y_pos,x_vel,y_vel,angle,ang_vel,leg_1,leg_2,main_booster,lat_booster
-0.0015478134155273,1.403228998184204,-0.1564088761806488,-0.3418215811252594,0.0014610112411901,0.0287975035607814,0.0,0.0,-0.2174370884895324,0.481629729270935
-0.0031208037398755,1.3951658010482788,-0.1584194749593734,-0.3583646714687347,0.0025641145184636,0.0220649056136608,0.0,0.0,-0.2956855297088623,0.4114893674850464
-0.0047196387313306,1.386706829071045,-0.1606880724430084,-0.3759589493274688,0.0033529864158481,0.0157791636884212,0.0,0.0,0.541898250579834,0.901540756225586
-0.0064008710905909,1.3785486221313477,-0.1666301786899566,-0.3625856339931488,0.0018703769892454,-0.0296549294143915,0.0,0.0,0.0974162817001342,0.6291897296905518
-0.0079642292112112,1.3706469535827637,-0.153430700302124,-0.3511780798435211,-0.0010106405243277,-0.0576256513595581,0.0,0.0,-0.0505556464195251,0.1947522163391113
-0.0095552448183298,1.3623502254486084,-0.1558998525142669,-0.3687520921230316,-0.0041825328953564,-0.0634432882070541,0.0,0.0,-0.3052504062652588,-0.270296573638916
-0.0111743928864598,1.3536581993103027,-0.1584284007549286,-0.3863218128681183,-0.0076366583816707,-0.0690884739160537,0.0,0.0,-0.6780393123626709,0.7497260570526123
-0.0127486232668161,1.34457266330719,-0.1517733484506607,-0.4038437008857727,-0.0132155194878578,-0.1115873605012893,0.0,0.0,-0.1659333705902099,0.0885376930236816
-0.0143516538664698,1.3350921869277954,-0.154400885105133,-0.4214172661304474,-0.0190561562776565,-0.1168238073587417,0.0,0.0,-0.271935224533081,0.1792609691619873
-0.0159840583801269,1.3252170085906982,-0.1570750474929809,-0.4389912188053131,-0.0251492001116275,-0.1218721494078636,0.0,0.0,0.473042368888855,0.7272787094116211
-0.0174903869628906,1.3157371282577517,-0.1429268419742584,-0.4214791059494018,-0.0327657498419284,-0.1523450165987014,0.0,0.0,0.0318661928176879,0.5911459922790527
-0.018919562920928,1.3063511848449707,-0.1338691711425781,-0.4173668622970581,-0.0417107604444026,-0.1789166182279586,0.0,0.0,0.2938475608825683,0.4973025321960449
-0.0202538482844829,1.297385811805725,-0.1246596798300743,-0.3987282216548919,-0.0503888055682182,-0.1735771000385284,0.0,0.0,-0.5411319732666016,-0.4722425937652588
-0.021618366241455,1.288025975227356,-0.127479687333107,-0.4163109064102173,-0.0592694766819477,-0.1776296198368072,0.0,0.0,-0.5118233561515808,0.5894947052001953
-0.0229557044804096,1.278273344039917,-0.1231187582015991,-0.4339001476764679,-0.0697805359959602,-0.2102403938770294,0.0,0.0,-0.5917618274688721,-0.5631713271141052
-0.0243599899113178,1.2681241035461426,-0.1305737644433975,-0.4515632092952728,-0.0795497745275497,-0.1954026967287063,0.0,0.0,-0.5351440906524658,0.3475208282470703
-0.0257946960628032,1.2575809955596924,-0.1334769427776336,-0.4691438674926758,-0.0894765630364418,-0.1985536813735962,0.0,0.0,-0.5829745531082153,-0.1788069605827331
-0.0272601135075092,1.2466440200805664,-0.1364032924175262,-0.4867251813411712,-0.0995435193181037,-0.2013570964336395,0.0,0.0,-0.6031923890113831,-0.6884220242500305
-0.0288011543452739,1.235326051712036,-0.1450032144784927,-0.50364089012146,-0.1085819453001022,-0.1807848513126373,0.0,0.0,-0.6463936567306519,-0.2073946595191955
-0.0303728096187114,1.22361421585083,-0.1479761749505996,-0.5212213397026062,-0.117726631462574,-0.1829099953174591,0.0,0.0,-0.5062868595123291,0.2089290618896484
-0.0319751724600791,1.2115081548690796,-0.1509674489498138,-0.5388021469116211,-0.1269585788249969,-0.1846557408571243,0.0,0.0,0.5134081840515137,0.2473407983779907
-0.0335463508963584,1.1996090412139893,-0.1478291004896164,-0.5296659469604492,-0.1362093836069107,-0.1850331276655197,0.0,0.0,0.0598325729370117,-0.0057486891746521
-0.0350181572139263,1.1878174543380735,-0.1382499486207962,-0.5249012112617493,-0.1451228111982345,-0.1782846748828888,0.0,0.0,-0.1149752736091613,-0.633668839931488
-0.036565113812685,1.175634264945984,-0.1468613743782043,-0.5422576069831848,-0.1529510915279388,-0.1565796732902526,0.0,0.0,-0.204120397567749,-0.5489026308059692
-0.0381956100463867,1.1630700826644895,-0.1565609276294708,-0.5590837597846985,-0.159432977437973,-0.1296494305133819,0.0,0.0,0.2050679922103881,0.1882110834121704
-0.0398823730647563,1.1508758068084717,-0.1617140471935272,-0.5427266955375671,-0.1663990765810012,-0.1393217146396637,0.0,0.0,0.7681020498275757,-0.4254488945007324
-0.0414669997990131,1.139435887336731,-0.1515567898750305,-0.509229302406311,-0.1733196377754211,-0.138411208987236,0.0,0.0,0.0240489244461059,-0.4447402954101562
-0.0430738441646099,1.1283780336380005,-0.1534557193517685,-0.4923225343227386,-0.1805690228939056,-0.144987553358078,0.0,0.0,0.2368651628494262,-0.6381044387817383
-0.0447628982365131,1.1178289651870728,-0.1628502607345581,-0.4695956408977508,-0.1866450905799865,-0.1215214282274246,0.0,0.0,0.0750037431716919,0.8697974681854248
-0.0463722236454486,1.1073347330093384,-0.1532267928123474,-0.4673972725868225,-0.1943875700235366,-0.1548495888710022,0.0,0.0,-0.7117176055908203,0.1287120580673217
-0.0480117797851562,1.0964457988739014,-0.1563732624053955,-0.4849699437618255,-0.2020282298326492,-0.1528129875659942,0.0,0.0,-0.4093456268310547,-0.4535208344459533
-0.0496817603707313,1.0851619243621826,-0.1595277935266494,-0.5025420784950256,-0.2095492482185363,-0.1504205167293548,0.0,0.0,-0.6681931614875793,-0.5133334398269653
-0.0514261238276958,1.0735023021697998,-0.1682938635349273,-0.5191000699996948,-0.2157558798789978,-0.1241327300667762,0.0,0.0,0.8886067867279053,-0.2924227714538574
-0.0531835556030273,1.0620746612548828,-0.1694185435771942,-0.508829653263092,-0.2221461236476898,-0.1278048306703567,0.0,0.0,0.3500596284866333,-0.6928735971450806
-0.0548966415226459,1.0510162115097046,-0.1665732860565185,-0.4922095537185669,-0.2269465625286102,-0.0960089117288589,0.0,0.0,0.1436567306518554,-0.0071693658828735
-0.0565095916390419,1.0403231382369995,-0.1568015217781067,-0.4759483933448791,-0.2315040677785873,-0.091149978339672,0.0,0.0,-0.5054866075515747,0.4173269271850586
-0.0581524856388568,1.0292344093322754,-0.1599855720996856,-0.49351567029953,-0.2358622699975967,-0.0871642604470253,0.0,0.0,0.0413719415664672,-0.094269573688507
-0.0596895217895507,1.0184412002563477,-0.1497367918491363,-0.4803379476070404,-0.2398963868618011,-0.0806823968887329,0.0,0.0,0.0288054943084716,0.4023828506469726
-0.0611553192138671,1.0080255270004272,-0.1427289694547653,-0.4635562896728515,-0.2438176572322845,-0.078425295650959,0.0,0.0,-0.2114032506942749,-0.1380711793899536
-0.0626507773995399,0.9972138404846193,-0.1459242701530456,-0.481122076511383,-0.2475003749132156,-0.0736546963453292,0.0,0.0,0.1034049987792968,-0.3118925094604492
-0.064117431640625,0.98678857088089,-0.1429711282253265,-0.4639662504196167,-0.2512628436088562,-0.0752492994070053,0.0,0.0,-0.7320262789726257,-0.066776692867279
-0.0656134635210037,0.9759674668312072,-0.1461714208126068,-0.4815313518047333,-0.2547642886638641,-0.070028968155384,0.0,0.0,-0.7063974142074585,-0.6319546103477478
-0.0671805366873741,0.9647594094276428,-0.1545848995447158,-0.4985121786594391,-0.2569290995597839,-0.0432963594794273,0.0,0.0,-0.6997495889663696,0.1439878940582275
-0.0687768012285232,0.953154981136322,-0.1577880084514618,-0.5160759091377258,-0.2588132321834564,-0.037682082504034,0.0,0.0,-0.4660993814468384,-0.0089492201805114
-0.0704023391008377,0.9411542415618896,-0.1609919667243957,-0.5336393713951111,-0.2604077458381653,-0.0318905040621757,0.0,0.0,-0.7722863554954529,-0.3878173828125
-0.0720569640398025,0.9287573099136353,-0.1641962975263595,-0.5512025356292725,-0.2617044448852539,-0.0259339306503534,0.0,0.0,0.2608933448791504,-0.5951915383338928
-0.0736487358808517,0.916453182697296,-0.1594772338867187,-0.5467911958694458,-0.2614007592201233,0.0060739214532077,0.0,0.0,0.6084530353546143,-0.7890931963920593
-0.0752351731061935,0.9050082564353944,-0.1606161296367645,-0.5083135962486267,-0.2593880891799927,0.040252536535263,0.0,0.0,-0.2037861347198486,-0.2872689962387085
-0.0768506079912185,0.8931670188903809,-0.1638190746307373,-0.5258764624595642,-0.2570562660694122,0.0466364175081253,0.0,0.0,-0.8361982703208923,-0.3795809149742126
-0.0784947425127029,0.8809294104576111,-0.1670206487178802,-0.5434393286705017,-0.2543991506099701,0.0531422719359397,0.0,0.0,-0.958059549331665,-0.4361574649810791
-0.0801676735281944,0.868295431137085,-0.1702204197645187,-0.5610023736953735,-0.251411110162735,0.0597609169781208,0.0,0.0,-0.9734647274017334,-0.1024169325828552
-0.0818691253662109,0.8552653193473816,-0.1734178960323333,-0.5785655379295349,-0.248086929321289,0.0664836689829826,0.0,0.0,-0.7618168592453003,-0.282339334487915
-0.0835992842912674,0.8418388366699219,-0.1766125708818435,-0.5961287617683411,-0.2444218099117279,0.0733024924993515,0.0,0.0,-0.8575626611709595,-0.5988739132881165
-0.0854025855660438,0.8280385732650757,-0.1854564696550369,-0.6124991774559021,-0.2392037659883499,0.1043609380722045,0.0,0.0,-0.7947021722793579,0.0306850671768188
-0.0872342139482498,0.8138424754142761,-0.1886443197727203,-0.6300638318061829,-0.233636274933815,0.111349806189537,0.0,0.0,-0.6037080883979797,0.294305682182312
-0.0890940651297569,0.7992502450942993,-0.1918277740478515,-0.6476287841796875,-0.2277155816555023,0.1184136271476745,0.0,0.0,-0.0690030455589294,-0.2869464159011841
-0.0909821540117263,0.7842621803283691,-0.195006251335144,-0.6651942133903503,-0.2214382588863372,0.1255464851856231,0.0,0.0,-0.2735804319381714,-0.526384711265564
-0.0929292663931846,0.768890917301178,-0.2020796239376068,-0.6820772886276245,-0.2139823585748672,0.149117887020111,0.0,0.0,-0.2479655742645263,0.1606489419937133
-0.094904325902462,0.7531241178512573,-0.2052465230226516,-0.6996447443962097,-0.2061637341976165,0.1563720852136612,0.0,0.0,0.4782506227493286,0.3778183460235595
-0.0968298912048339,0.7380150556564331,-0.2003692686557769,-0.6704468131065369,-0.1982949823141098,0.1573749184608459,0.0,0.0,-0.2242603302001953,0.4547207355499267
-0.0987832099199295,0.7225107550621033,-0.2035212516784668,-0.6880152225494385,-0.1900584101676941,0.1647310107946396,0.0,0.0,0.3213653564453125,0.4855972528457641
-0.1007369011640548,0.7074598670005798,-0.2035711705684662,-0.6678954362869263,-0.1818227916955948,0.1647124290466308,0.0,0.0,-0.1233884692192077,0.7748444080352783
-0.1026459708809852,0.6919916272163391,-0.1976072341203689,-0.686668336391449,-0.1750892996788025,0.1346697062253952,0.0,0.0,0.3278639316558838,0.7168525457382202
-0.1044197082519531,0.6768360733985901,-0.1830715388059616,-0.6729177236557007,-0.1693868488073349,0.1140492185950279,0.0,0.0,-0.0278767347335815,0.4017338752746582
-0.106220819056034,0.661284863948822,-0.18618243932724,-0.6904845833778381,-0.1633087992668151,0.1215607374906539,0.0,0.0,0.155701994895935,0.692279577255249
-0.1080244034528732,0.6459607481956482,-0.1853080242872238,-0.680536687374115,-0.1583553403615951,0.0990690812468528,0.0,0.0,-0.0767040252685546,0.5257208347320557
-0.109811782836914,0.6302367448806763,-0.1829885989427566,-0.6984024047851562,-0.1541098654270172,0.0849094539880752,0.0,0.0,0.4026343822479248,0.8530933856964111
-0.1114444732666015,0.6144408583641052,-0.166272759437561,-0.7017250061035156,-0.1511076986789703,0.0600432977080345,0.0,0.0,0.0880402326583862,0.6237711906433105
-0.1129498481750488,0.5990743041038513,-0.1527117937803268,-0.6827396750450134,-0.1489425003528595,0.0433038398623466,0.0,0.0,0.3406100273132324,0.621451735496521
-0.1144596114754676,0.5838865637779236,-0.1521203368902206,-0.6748960018157959,-0.1477991640567779,0.0228669755160808,0.0,0.0,-0.0972329974174499,0.1200318336486816
-0.1159956902265548,0.5683028101921082,-0.1551354825496673,-0.6924607753753662,-0.1462734341621399,0.0305146630853414,0.0,0.0,0.6381757259368896,0.5420100688934326
-0.1173930168151855,0.5532233119010925,-0.1406496167182922,-0.6701129078865051,-0.1453622430562973,0.0182237289845943,0.0,0.0,0.2435441017150879,0.588629961013794
-0.1187831908464431,0.5387107729911804,-0.1389450877904892,-0.6450084447860718,-0.1454377919435501,-0.0015110111562535,0.0,0.0,-0.413000226020813,0.2691575288772583
-0.1201990097761154,0.5238021612167358,-0.1418911516666412,-0.6625731587409973,-0.1451292634010315,0.0061706155538558,0.0,0.0,0.1840807199478149,-0.0381903052330017
-0.1216235160827636,0.5089187622070312,-0.1430346816778183,-0.6614260077476501,-0.144548088312149,0.0116233779117465,0.0,0.0,0.8396066427230835,0.4089703559875488
-0.1229459792375564,0.4941602647304535,-0.1335676908493042,-0.6558055281639099,-0.143231987953186,0.026321705430746,0.0,0.0,0.4812018871307373,0.292459487915039
-0.1242777854204177,0.4794636070728302,-0.1347535103559494,-0.6530338525772095,-0.1416621059179306,0.0313972309231758,0.0,0.0,0.9789190292358398,0.0245760679244995
-0.1255097389221191,0.4657839238643646,-0.1251057088375091,-0.6078048348426819,-0.1397537440061569,0.0381673090159893,0.0,0.0,0.5347375869750977,0.7783541679382324
-0.1265166252851486,0.4528114795684814,-0.1015721186995506,-0.5764716267585754,-0.1388753205537796,0.0175681430846452,0.0,0.0,0.2989082336425781,0.8104612827301025
-0.1274930983781814,0.44041308760643,-0.097188614308834,-0.5510799288749695,-0.139334350824356,-0.00918058026582,0.0,0.0,-0.5247417092323303,0.9889461994171144
-0.1284330338239669,0.4275959134101867,-0.0923491865396499,-0.5698080062866211,-0.1409660130739212,-0.0326336286962032,0.0,0.0,0.2602772712707519,-0.4257746934890747
-0.1292803734540939,0.4152716994285583,-0.0836274623870849,-0.5478464961051941,-0.1420713067054748,-0.0221061687916517,0.0,0.0,0.5329396724700928,0.0767525434494018
-0.1301673948764801,0.4033644199371338,-0.0875419452786445,-0.5293251276016235,-0.1432279497385025,-0.0231325663626194,0.0,0.0,0.1398000717163086,0.0254988670349121
-0.1310467720031738,0.3917634487152099,-0.0869857668876648,-0.5156914591789246,-0.1441765278577804,-0.018971437588334,0.0,0.0,-0.1649588942527771,0.9275882244110109
-0.131875604391098,0.3797556757926941,-0.0804997384548187,-0.5339128971099854,-0.1465581953525543,-0.0476332865655422,0.0,0.0,-0.0358011722564697,-0.1032823920249939
-0.1327249556779861,0.3673519194126129,-0.0829323753714561,-0.5514781475067139,-0.1485583186149597,-0.0400023236870765,0.0,0.0,0.1052079200744628,0.535891056060791
-0.1335016191005706,0.3548732995986938,-0.0749952793121337,-0.5548727512359619,-0.1512212455272674,-0.05325847864151,0.0,0.0,-0.8592900037765503,-0.6012905240058899
-0.1343376189470291,0.3420034050941467,-0.0823288261890411,-0.572124183177948,-0.1524893194437027,-0.0253617577254772,0.0,0.0,-0.2302716970443725,0.1153825521469116
-0.1351920068264007,0.3287374973297119,-0.0845494195818901,-0.5896888375282288,-0.1533788293600082,-0.017790462821722,0.0,0.0,0.8559210300445557,-0.3448542356491089
-0.1358416527509689,0.3156962990760803,-0.0651693493127822,-0.5795846581459045,-0.1531666219234466,0.0042441696859896,0.0,0.0,0.6903949975967407,-0.9144947528839112
-0.136467844247818,0.3034231662750244,-0.0650345012545585,-0.545224130153656,-0.1507547497749328,0.0482376217842102,0.0,0.0,0.072495698928833,-0.3801553845405578
-0.1370161026716232,0.2914798259735107,-0.0577119663357734,-0.5305255651473999,-0.1478753834962844,0.0575869306921958,0.0,0.0,0.7908228635787964,-0.5071932077407837
-0.1373705863952636,0.280192494392395,-0.040135845541954,-0.5012006163597107,-0.1431930363178253,0.0936469212174415,0.0,0.0,0.7789120674133301,0.4236385822296142
-0.1375813484191894,0.2690081298351288,-0.0266491826623678,-0.4965596497058868,-0.1376370936632156,0.1111187487840652,0.0,0.0,0.7884122133255005,0.8036214113235474
-0.1377284973859787,0.258244514465332,-0.0189315993338823,-0.4779971241950989,-0.1334418803453445,0.0839044153690338,0.0,0.0,0.7151768207550049,0.625208854675293
-0.1376248300075531,0.2483954578638076,0.0068094967864453,-0.4374229609966278,-0.1298938691616058,0.0709601789712905,0.0,0.0,0.4596420526504516,0.7187857627868652
-0.1374330520629882,0.2388915568590164,0.0167272202670574,-0.422184407711029,-0.1274560689926147,0.0487559959292411,0.0,0.0,-0.433932363986969,0.2965052127838135
-0.1372509896755218,0.2289917767047882,0.0153913302347064,-0.4397504031658172,-0.1246552243828773,0.0560170635581016,0.0,0.0,0.2117438316345214,0.0167150497436523
-0.1369504034519195,0.2194461226463318,0.026578027755022,-0.4239639341831207,-0.1211984232068061,0.0691359937191009,0.0,0.0,0.2057809829711914,0.517216682434082
-0.1365924775600433,0.2103240340948104,0.0330853052437305,-0.4052055478096008,-0.1185033917427063,0.0539004914462566,0.0,0.0,0.1989328861236572,-0.244956374168396
-0.1362359076738357,0.2016263157129287,0.032861728221178,-0.3863491415977478,-0.115730732679367,0.0554532222449779,0.0,0.0,-0.2651312351226806,0.4831490516662597
-0.1358842849731445,0.1925327628850937,0.0320225842297077,-0.4039157629013061,-0.1126056239008903,0.0625020787119865,0.0,0.0,0.3238213062286377,-0.4305237531661987
-0.1355748176574707,0.1837775260210037,0.0278766751289367,-0.3888926804065704,-0.1095635592937469,0.0608414597809314,0.0,0.0,0.5498420000076294,-0.0524085164070129
-0.1353543251752853,0.1753823608160019,0.0192995872348546,-0.3729204833507538,-0.1068283021450042,0.0547054335474967,0.0,0.0,-0.3251867890357971,0.0369026660919189
-0.1351346969604492,0.1665914356708526,0.0188553892076015,-0.390487402677536,-0.1037502586841583,0.0615606382489204,0.0,0.0,0.4449574947357178,0.228623628616333
-0.1348280906677246,0.1578780561685562,0.0269740428775548,-0.387009710073471,-0.1000848412513732,0.0733083859086036,0.0,0.0,0.5021754503250122,0.6860241889953613
-0.1342518776655197,0.1497797816991806,0.054683644324541,-0.3597287535667419,-0.097169317305088,0.0583105310797691,0.0,0.0,0.3824656009674072,-0.4437469244003296
-0.1336287558078766,0.1422581523656845,0.0591238848865032,-0.3340919613838196,-0.094010904431343,0.063168466091156,0.0,0.0,0.1937276124954223,0.0414505004882812
-0.1328409165143966,0.1352484375238418,0.0747904852032661,-0.3112958073616028,-0.0900482684373855,0.0792522728443145,0.0,0.0,-0.2328143119812011,-0.5070784687995911
-0.132082462310791,0.1278481036424636,0.0706262588500976,-0.3285984098911285,-0.0848802626132965,0.1033602729439735,0.0,0.0,-0.0364004969596862,0.308130145072937
-0.1313173323869705,0.1200525388121604,0.0709683448076248,-0.3461677432060241,-0.0793938860297203,0.1097276210784912,0.0,0.0,0.7502613067626953,0.8237607479095459
-0.1303422003984451,0.1131001785397529,0.0931755900382995,-0.3087683618068695,-0.0751007422804832,0.0858630090951919,0.0,0.0,-0.0728325843811035,-0.654121458530426
-0.1294029206037521,0.1057543605566024,0.0881377905607223,-0.3262004852294922,-0.0693715438246727,0.1145838648080825,0.0,0.0,0.6286025047302246,0.0634322166442871
-0.1285315454006195,0.0989379733800888,0.0816068574786186,-0.3027041852474212,-0.0638967305421829,0.1094962209463119,0.0,0.0,0.0563682317733764,0.847425103187561
-0.1276572197675705,0.0922196507453918,0.0833227485418319,-0.2984244227409363,-0.0598316453397274,0.0813016220927238,0.0,0.0,0.2747447490692138,0.3994591236114502
-0.1267611533403396,0.0857586711645126,0.0852770283818245,-0.2869854867458343,-0.0555512830615043,0.0856073498725891,0.0,0.0,0.4926313161849975,0.8591867685317993
-0.1257307976484298,0.0796147659420967,0.1001071333885192,-0.2729574143886566,-0.0526602640748024,0.0578204877674579,0.0,0.0,0.333817720413208,0.5604157447814941
-0.1245119124650955,0.0734926089644432,0.1195588931441307,-0.2720162570476532,-0.050359658896923,0.0460122600197792,0.0,0.0,0.5476946830749512,0.3231832981109619
-0.1231543570756912,0.0679277777671814,0.1327185332775116,-0.2472278624773025,-0.0473632551729679,0.0599284656345844,0.0,0.0,0.0654486417770385,0.5263880491256714
-0.1216965690255165,0.0627477467060089,0.1435116529464721,-0.230152353644371,-0.0451155453920364,0.0449541732668876,0.0,0.0,-0.0874059796333313,-0.3464392423629761
