x_pos,y_pos,x_vel,y_vel,angle,ang_vel,leg_1,leg_2,main_booster,lat_booster
-0.0016111374134197,1.4033560752868652,-0.1629532277584076,-0.3361841142177582,0.0016431097174063,0.0324031002819538,0.0,0.0,-0.2729840292697942,-0.8386373897125569
-0.0033719062339514,1.3955425024032593,-0.179032564163208,-0.3472801446914673,0.004573356360197,0.0586111731827259,0.0,0.0,0.3285508852768455,-0.8566677955091031
-0.0051692961715161,1.3879414796829224,-0.1843636333942413,-0.3378453552722931,0.0091515555977821,0.0915721803903579,0.0,0.0,0.2880180692037752,0.581759779540892
-0.0071174623444676,1.3806536197662354,-0.1978661566972732,-0.3239309191703796,0.0121737224981188,0.0604488439857959,0.0,0.0,0.4021421522980377,0.5117939379949483
-0.0090056415647268,1.3739317655563354,-0.1909867525100708,-0.2987695336341858,0.0143068023025989,0.0426654629409313,0.0,0.0,-0.7420018675352074,-0.7076250510413491
-0.0110295293852686,1.3669394254684448,-0.2054453343153,-0.310804545879364,0.0173371750861406,0.0606129765510559,0.0,0.0,-0.0409918357993188,-0.7745252013051543
-0.0132098197937011,1.3596770763397217,-0.2225112617015838,-0.3228269517421722,0.0217734258621931,0.0887327715754509,0.0,0.0,0.3355759495816059,0.7351800013725757
-0.0153023721650242,1.3529391288757324,-0.2123016119003296,-0.2995094358921051,0.0247844494879245,0.0602261051535606,0.0,0.0,-0.0149634748320992,0.7058436888934068
-0.017435073852539,1.3459423780441284,-0.2147363424301147,-0.3109963536262512,0.0262423064559698,0.0291596688330173,0.0,0.0,-0.6801369806583735,0.7192121243322203
-0.0196060184389352,1.338683843612671,-0.2169505059719085,-0.3226040601730346,0.0260949842631816,-0.0029467777349054,0.0,0.0,-0.8848960168240361,0.717943604511639
-0.0218077655881643,1.3311597108840942,-0.2181888818740844,-0.3343736529350281,0.0241407770663499,-0.039087988436222,0.0,0.0,-0.189565444722801,-0.7769093874647597
-0.0241590496152639,1.3233634233474731,-0.2343492805957794,-0.3464877903461456,0.0233666878193616,-0.0154829695820808,0.0,0.0,-0.1269636602209474,-0.7580355085405955
-0.0266533847898244,1.3153008222579956,-0.249659389257431,-0.3583407402038574,0.0235904213041067,0.0044748424552381,0.0,0.0,-0.0369556039164966,0.9988503372722182
-0.0291563030332326,1.3069634437561035,-0.2480994760990142,-0.3705147802829742,0.0214283596724271,-0.0432452820241451,0.0,0.0,-0.8222037811006788,-0.8085938320572947
-0.0318048484623432,1.298364520072937,-0.2637304663658142,-0.3821646273136139,0.020318254828453,-0.0222042743116617,0.0,0.0,0.9343512766715044,0.9622993220493798
-0.034339141100645,1.2900142669677734,-0.2504656612873077,-0.3710846602916717,0.0173786021769046,-0.0587983541190624,0.0,0.0,-0.8260592449394273,0.6023207907726668
-0.0369123443961143,1.2814040184020996,-0.2526897192001343,-0.382626473903656,0.0127952611073851,-0.0916750654578208,0.0,0.0,-0.3348776398623825,0.5666037265798451
-0.0395276062190532,1.2725220918655396,-0.255309134721756,-0.3947152197360992,0.0066479477100074,-0.1229570135474205,0.0,0.0,0.1688316437297654,-0.9071160172542392
-0.0422355644404888,0.0,-0.266259491443634,-0.3684157729148865,0.0021601989865303,-0.089763306081295,0.0,0.0,0.3672476335593795,0.8452717794232907
-0.045051097869873,1.2563767433166504,-0.2750630974769592,-0.3491491973400116,-0.0042667421512305,-0.1285502612590789,0.0,0.0,0.3074884371157469,-0.6694455271376853
-0.0479027740657329,1.2491497993469238,-0.280026227235794,-0.3212149441242218,-0.0093437321484088,-0.1015491336584091,0.0,0.0,-0.6849283337020415,0.843192898825433
-0.0507843978703022,1.241649150848389,-0.2811315357685089,-0.3334207236766815,-0.0162998922169208,-0.1391355991363525,0.0,0.0,-0.993769031293283,-0.5112490071727575
-0.0537958145141601,1.2338807582855225,-0.2947409152984619,-0.3453440070152282,-0.0226262491196393,-0.1265385895967483,0.0,0.0,-0.1548882846356867,-0.8161862806939405
-0.0569625869393348,1.225837230682373,-0.3115535080432892,-0.357577383518219,-0.0276869181543588,-0.1012227088212966,0.0,0.0,-0.8998609263692239,0.5059993081255574
-0.0601967796683311,1.2175257205963137,-0.3173650503158569,-0.3695228397846222,-0.0336831733584404,-0.1199356764554977,0.0,0.0,0.3770260975367274,-0.5241463049417332
-0.0636829361319542,1.2098162174224854,-0.3431131243705749,-0.3427847921848297,-0.03911117836833,-0.1085600480437278,0.0,0.0,0.5833491039742109,-0.6460613122967063
-0.0672871619462966,1.2028887271881104,-0.356069266796112,-0.3080054223537445,-0.043409988284111,-0.0859766826033592,0.0,0.0,-0.0883680708414424,-0.7738191411318459
-0.0710639953613281,1.1957060098648071,-0.3750578761100769,-0.3193122446537018,-0.045998815447092,-0.0517765767872333,0.0,0.0,-0.3911655253978854,0.9644833322004308
-0.0748790726065635,1.1882588863372805,-0.3772065937519073,-0.3311216235160827,-0.050253752619028,-0.0850986912846565,0.0,0.0,-0.2548564825690835,0.8089956013567068
-0.0787308663129806,1.180536150932312,-0.3791359364986419,-0.3434507250785827,-0.0562265068292617,-0.1194549947977066,0.0,0.0,-0.5552618780168534,0.5280069905944714
-0.0826375037431716,1.1725478172302246,-0.3833721280097961,-0.3553246855735779,-0.0634444802999496,-0.144359290599823,0.0,0.0,-0.6818290948867798,-0.103363811969757
-0.0866422653198242,1.1642919778823853,-0.3930193185806274,-0.3672618567943573,-0.0708246156573295,-0.1476027965545654,0.0,0.0,-0.5738683938980103,0.9509594440460204
-0.0906798392534256,1.155770778656006,-0.3944856524467468,-0.3791877329349518,-0.0799978375434875,-0.1834645569324493,0.0,0.0,-0.7815871834754944,0.9061603546142578
-0.094751738011837,1.146966814994812,-0.3961326479911804,-0.3919211328029632,-0.0909479409456253,-0.2190020084381103,0.0,0.0,-0.6338356137275696,0.9544790983200072
-0.0988437682390213,1.137887716293335,-0.3960351347923279,-0.4043656289577484,-0.104010634124279,-0.2612539231777191,0.0,0.0,-0.6720549464225769,-0.0364667773246765
-0.1030331626534462,1.1285427808761597,-0.4056268632411957,-0.4163131713867187,-0.117232009768486,-0.2644274234771728,0.0,0.0,-0.7797269821166992,0.734205961227417
-0.1072648987174034,1.118918776512146,-0.4083025455474853,-0.4289708733558655,-0.1320140957832336,-0.2956421673297882,0.0,0.0,-0.6967014670372009,0.9217851161956788
-0.1115158051252365,1.1090216636657717,-0.4081431925296783,-0.4414641261100769,-0.1489073038101196,-0.3378646969795227,0.0,0.0,-0.7472893595695496,-0.2294350862503051
-0.1158630400896072,1.0988601446151731,-0.4176705777645111,-0.4534217119216919,-0.1659559607505798,-0.3409732282161712,0.0,0.0,-0.789675235748291,0.95051908493042
-0.1202287673950195,1.088416337966919,-0.4174104332923889,-0.4664151966571808,-0.1851513832807541,-0.3839083611965179,0.0,0.0,-0.7666809558868408,-0.092179000377655
-0.1246900558471679,1.077709436416626,-0.4268831312656402,-0.4783799052238464,-0.2044997364282608,-0.3869673013687134,0.0,0.0,-0.7753457427024841,0.3567715883255005
-0.1292464286088943,1.0667394399642944,-0.4363238215446472,-0.4903452694416046,-0.2239997833967209,-0.3900008201599121,0.0,0.0,-0.7459078431129456,-0.6254767179489136
-0.1339387893676757,1.0555130243301392,-0.4509114623069763,-0.5018394589424133,-0.2425988614559173,-0.371981680393219,0.0,0.0,-0.7467983365058899,0.3562562465667724
-0.1387255638837814,1.0440232753753662,-0.4602778851985931,-0.5138026475906372,-0.2613469064235687,-0.3749609887599945,0.0,0.0,-0.1160588264465332,-0.7234906554222107
-0.1436665505170822,1.0322850942611694,-0.4771613180637359,-0.5248132944107056,-0.2786872386932373,-0.3468068838119507,0.0,0.0,-0.5935617089271545,0.443108320236206
-0.1487008035182953,1.0202829837799072,-0.4864394664764404,-0.5367729067802429,-0.2961734533309936,-0.3497244715690613,0.0,0.0,-0.5177786946296692,-0.2341681122779846
-0.1538278609514236,1.00801682472229,-0.4956690371036529,-0.5487329959869385,-0.3138037919998169,-0.3526068031787872,0.0,0.0,-0.3469138145446777,0.2404108047485351
-0.1590471267700195,0.9954866766929626,-0.5048462748527527,-0.5606935620307922,-0.3315763771533966,-0.3554516434669494,0.0,0.0,-0.3136323690414428,-0.0245545506477355
-0.1643577516078949,0.9826924204826356,-0.5139671564102173,-0.5726545453071594,-0.3494892418384552,-0.3582566380500793,0.0,0.0,0.4680739641189575,-0.0672175884246826
-0.1696222275495529,0.9702813029289246,-0.5092339515686035,-0.5558972954750061,-0.367627203464508,-0.3627591133117676,0.0,0.0,-0.5473918318748474,0.068782091140747
-0.1749766319990158,0.9576062560081482,-0.5182297229766846,-0.5678591132164001,-0.3859010934829712,-0.3654769659042358,0.0,0.0,0.4413429498672485,-0.0919917225837707
-0.180224984884262,0.9455891251564026,-0.507398784160614,-0.538924515247345,-0.4045408368110657,-0.3727946281433105,0.0,0.0,-0.0015891790390014,-0.4193654060363769
-0.1855617463588714,0.9333086013793944,-0.5162511467933655,-0.5508877635002136,-0.4233115613460541,-0.3754144310951233,0.0,0.0,0.6137187480926514,0.1606415510177612
-0.1906629502773285,0.9218282103538512,-0.4927448332309723,-0.5155754685401917,-0.4421962201595306,-0.377693235874176,0.0,0.0,-0.2058649659156799,-0.795817494392395
-0.1958939582109451,0.9101114273071288,-0.5068996548652649,-0.52596116065979,-0.4599620103836059,-0.3553154766559601,0.0,0.0,0.6152220964431763,-0.703275203704834
-0.2011480778455734,0.8988515734672546,-0.5103746652603149,-0.5054947137832642,-0.4765821993350982,-0.3324036002159118,0.0,0.0,0.4971427917480469,0.0722259283065795
-0.2060799151659011,0.8882312178611755,-0.478522390127182,-0.4771532714366913,-0.4929278492927551,-0.3269128501415252,0.0,0.0,0.2238355875015258,0.4074916839599609
-0.2107689827680587,0.8779338002204895,-0.4546894431114197,-0.4628425240516662,-0.5089168548583984,-0.3197798132896423,0.0,0.0,-0.690968930721283,-0.3834186792373657
-0.2155406028032302,0.8673716187477112,-0.4629736840724945,-0.4747979044914245,-0.5250185132026672,-0.3220332264900207,0.0,0.0,0.6851891279220581,-0.3192923069000244
-0.2200590074062347,0.8576434254646301,-0.4373734891414642,-0.4380427300930023,-0.5415884852409363,-0.3313993811607361,0.0,0.0,0.3743561506271362,-0.841298520565033
-0.2245161086320877,0.8480535745620728,-0.432873010635376,-0.4314438998699188,-0.5564399361610413,-0.2970289587974548,0.0,0.0,-0.4219765663146972,-0.6010568141937256
-0.2290974110364914,0.8382441401481628,-0.4466007649898529,-0.4408222138881683,-0.5698903203010559,-0.2690072655677795,0.0,0.0,0.6138532161712646,-0.3051720261573791
-0.2333821356296539,0.8287091851234436,-0.4174351692199707,-0.4285516440868377,-0.5828795433044434,-0.2597845792770386,0.0,0.0,0.4698402881622314,-0.7751644253730774
-0.2374732941389084,0.819622278213501,-0.3995242416858673,-0.4081200361251831,-0.5942625403404236,-0.2276599109172821,0.0,0.0,0.8882491588592529,0.0510114431381225
-0.2413752973079681,0.8108310699462891,-0.3806409239768982,-0.3950772881507873,-0.6056920886039734,-0.2285904437303543,0.0,0.0,0.8674538135528564,-0.237021803855896
-0.2450850456953048,0.8027167916297913,-0.3608846366405487,-0.3653471171855926,-0.6178518533706665,-0.2431958168745041,0.0,0.0,0.9378094673156738,-0.9040783047676086
-0.2483150511980056,0.7956085801124573,-0.3145932853221893,-0.3199404776096344,-0.6280677318572998,-0.2043172866106033,0.0,0.0,0.6490442752838135,-0.9036330580711364
-0.2514303624629974,0.7885603308677673,-0.3047977983951568,-0.316542774438858,-0.6363025903701782,-0.1646963208913803,0.0,0.0,0.9259932041168212,-0.944266676902771
-0.2540487647056579,0.7824880480766296,-0.256814181804657,-0.2723645865917206,-0.642479658126831,-0.123541735112667,0.0,0.0,0.9052581787109376,-0.5814869403839111
-0.2565358579158783,0.7769462466239929,-0.2444334924221038,-0.2484524250030517,-0.6477615237236023,-0.1056369990110397,0.0,0.0,0.9989097118377686,-0.6908386945724487
-0.2587293684482574,0.7722750902175903,-0.216033861041069,-0.2092870026826858,-0.6518733501434326,-0.0822368413209915,0.0,0.0,0.9203698635101318,-0.8406585454940796
-0.2605661451816559,0.7682234644889832,-0.1818629056215286,-0.180997297167778,-0.6541275382041931,-0.0450833216309547,0.0,0.0,0.5151851177215576,-0.9037418365478516
-0.2621485292911529,0.7650189399719238,-0.157888725399971,-0.1426014006137848,-0.6545606851577759,-0.0086630396544933,0.0,0.0,0.6457102298736572,-0.8179998993873596
-0.2634243965148926,0.7622148394584656,-0.1287411898374557,-0.1240437775850296,-0.6531267166137695,0.0286793410778045,0.0,0.0,0.0195276737213134,-0.7562515139579773
-0.2646769881248474,0.7595006227493286,-0.1277078688144683,-0.1193852573633194,-0.6500898599624634,0.0607379153370857,0.0,0.0,0.0900484323501586,-0.8210738301277161
-0.2658653855323791,0.7567781805992126,-0.1227109655737876,-0.1190460473299026,-0.6452996134757996,0.095804676413536,0.0,0.0,-0.0963890552520752,-0.3075286746025085
-0.2671040892601013,0.7537876963615417,-0.127735823392868,-0.1309806406497955,-0.6405311226844788,0.0953681617975235,0.0,0.0,0.0781331062316894,-0.8371577262878418
-0.2681351602077484,0.7512216567993164,-0.1084647327661514,-0.1114047765731811,-0.633943498134613,0.1317523866891861,0.0,0.0,0.4692434072494507,-0.377599835395813
-0.268724113702774,0.749201238155365,-0.0645430386066436,-0.0870530605316162,-0.6270368099212646,0.1381339877843856,0.0,0.0,-0.1363782286643982,-0.638945460319519
-0.2694002985954284,0.7469696402549744,-0.07465710490942,-0.0958059951663017,-0.6184788346290588,0.171159952878952,0.0,0.0,-0.5697187781333923,-0.4982914924621582
-0.270115852355957,0.7444705367088318,-0.0786468610167503,-0.1077428758144378,-0.609919548034668,0.1711860597133636,0.0,0.0,-0.3095448017120361,0.0445801019668579
-0.2708681523799896,0.7417036294937134,-0.0823649019002914,-0.1196795329451561,-0.6013534069061279,0.1713233143091201,0.0,0.0,-0.3740432262420654,-0.6969051957130432
-0.2717064917087555,0.7387227416038513,-0.0924900919198989,-0.1285624802112579,-0.5910189747810364,0.2066888809204101,0.0,0.0,0.0245485305786132,-0.267467737197876
-0.2723697125911712,0.7360262274742126,-0.074924886226654,-0.1160286664962768,-0.5808242559432983,0.2038948088884353,0.0,0.0,-0.3556005954742431,-0.1736627221107483
-0.2730609774589538,0.7330623269081116,-0.0778112709522247,-0.1279668509960174,-0.5706068277359009,0.2043482363224029,0.0,0.0,0.2427384853363037,-0.3050715923309326
-0.2734859585762024,0.7303303480148315,-0.051514945924282,-0.1176033392548561,-0.5600584149360657,0.2109678536653518,0.0,0.0,-0.1674097776412964,-0.7470039129257202
-0.2739831507205963,0.7273693084716797,-0.0601451694965362,-0.1272912323474884,-0.547956109046936,0.2420459687709808,0.0,0.0,0.2348657846450805,0.1860173940658569
-0.2742837369441986,0.7244725227355957,-0.0408676005899906,-0.1244016140699386,-0.535496175289154,0.2491986751556396,0.0,0.0,-0.4228705763816833,-0.601700484752655
-0.2746312022209167,0.7213358283042908,-0.0465238168835639,-0.1348106861114502,-0.5220286846160889,0.2693492174148559,0.0,0.0,-0.59752357006073,0.2328773736953735
-0.2749922275543213,0.7179326415061951,-0.0480063371360302,-0.1467538774013519,-0.5085157155990601,0.2702594995498657,0.0,0.0,-0.3094896674156189,0.2147084474563598
-0.2753639221191406,0.7142626643180847,-0.0492107942700386,-0.1586971282958984,-0.4949532449245453,0.2712498307228088,0.0,0.0,0.150705337524414,-0.0896652340888977
-0.2754735946655273,0.7110081315040588,-0.0232359059154987,-0.1402966082096099,-0.4812377989292145,0.2743091583251953,0.0,0.0,-0.3305279016494751,0.1980112791061401
-0.2755884528160095,0.7074870467185974,-0.0238937400281429,-0.1522402912378311,-0.4674654304981231,0.2754471600055694,0.0,0.0,0.1531476974487304,0.2593073844909668
-0.2755402624607086,0.7039568424224854,-0.0080265393480658,-0.1526399999856948,-0.4533072113990783,0.2831644415855407,0.0,0.0,-0.3881090879440307,0.2484984397888183
-0.2754918932914734,0.7001602649688721,-0.0081547442823648,-0.1645846664905548,-0.4390855133533478,0.2844338715076446,0.0,0.0,0.1004951000213623,-0.0692697763442993
-0.2751453816890716,0.6968417763710022,0.0212713591754436,-0.1433737725019455,-0.4245366156101227,0.2909778356552124,0.0,0.0,-0.2880163192749023,-0.1235692501068115
-0.2747934758663177,0.6932567954063416,0.0216518212109804,-0.1553194671869278,-0.4099184870719909,0.2923628687858581,0.0,0.0,0.1141719818115234,0.2351318597793579
-0.2742969989776611,0.6901938915252686,0.0363237895071506,-0.1323386281728744,-0.3956166207790375,0.2860370874404907,0.0,0.0,-0.6727673411369324,0.1071765422821044
-0.2737903594970703,0.6868645548820496,0.0371890254318714,-0.1442839652299881,-0.3812404572963714,0.2875232398509979,0.0,0.0,-0.5350950956344604,0.0680916309356689
-0.2732712626457214,0.6832690834999084,0.0382860675454139,-0.156229555606842,-0.3667877316474914,0.2890543639659881,0.0,0.0,-0.3517003655433655,0.424914002418518
-0.272737443447113,0.6794071197509766,0.0396076403558254,-0.168175458908081,-0.3522563874721527,0.2906270027160644,0.0,0.0,-0.5956311225891113,0.391721248626709
-0.2721867561340332,0.6752792596817017,0.0411462076008319,-0.1801216602325439,-0.3376444876194,0.2922378182411194,0.0,0.0,-0.0968524813652038,0.4120657444000244
-0.2716169953346252,0.6708850264549255,0.0428940281271934,-0.1920681744813919,-0.3229503035545349,0.2938836216926574,0.0,0.0,-0.5687798261642456,0.647559404373169
-0.2709904313087463,0.666205108165741,0.0493898019194603,-0.2050977498292923,-0.3091655671596527,0.2756950259208679,0.0,0.0,-0.2493239641189575,0.5881037712097168
-0.2702883780002594,0.6612369418144226,0.0581491105258464,-0.2182891368865966,-0.2967007458209991,0.2492969036102295,0.0,0.0,-0.6213080883026123,0.4981689453125
-0.269561767578125,0.6560019850730896,0.0604791715741157,-0.2302313894033432,-0.284149169921875,0.2510316967964172,0.0,0.0,-0.5362361669540405,0.0923501253128051
-0.2688087821006775,0.6505002379417419,0.0629860758781433,-0.2421739399433136,-0.2715096771717071,0.2527900338172912,0.0,0.0,-0.6576905250549316,0.8678419589996338
-0.2679630815982818,0.6447119116783142,0.0737804993987083,-0.2552904486656189,-0.2604663372039795,0.2208669185638427,0.0,0.0,-0.6817433834075928,0.5511751174926758
-0.2670347094535827,0.6386418342590332,0.083271600306034,-0.2681182622909546,-0.2507068514823913,0.1951889097690582,0.0,0.0,-0.586822509765625,-0.0276983380317688
-0.2660753130912781,0.6323041319847107,0.0862619504332542,-0.2800560593605041,-0.240856647491455,0.197004422545433,0.0,0.0,-0.8571380972862244,0.6708635091781616
-0.2650315761566162,0.6256865859031677,0.0958969518542289,-0.2927510440349579,-0.2322473227977752,0.1721866428852081,0.0,0.0,-0.6506133675575256,0.3628244400024414
-0.2639540135860443,0.6188012361526489,0.0991679280996322,-0.3046872913837433,-0.2235458940267563,0.1740281730890274,0.0,0.0,-0.9246410727500916,0.5403438806533813
-0.2627946734428406,0.6116293668746948,0.1084613353013992,-0.3176398575305938,-0.2159881889820099,0.1511538922786712,0.0,0.0,-0.8154223561286926,-0.1041852235794067
-0.2615991234779358,0.604189395904541,0.1119807362556457,-0.3295748829841614,-0.2083375453948974,0.1530127823352813,0.0,0.0,-0.9063979387283324,0.5070946216583252
-0.2603355348110199,0.5964703559875488,0.1194716691970825,-0.3421144783496856,-0.2013971358537674,0.1388082802295684,0.0,0.0,-0.949903130531311,0.1753351688385009
-0.259033590555191,0.5884832739830017,0.1232080683112144,-0.3540488183498382,-0.1943633258342743,0.140676200389862,0.0,0.0,-0.9334734082221984,-0.5100442171096802
-0.2577301859855652,0.5802383422851562,0.1222733706235885,-0.3654002845287323,-0.1862566173076629,0.1621341556310653,0.0,0.0,-0.9752926230430604,0.1208492517471313
-0.2563865780830383,0.571725606918335,0.1261959373950958,-0.377336174249649,-0.1780564785003662,0.1640027463436126,0.0,0.0,-0.9182750582695008,0.7377426624298096
-0.2549347877502441,0.5629302263259888,0.1386181265115738,-0.3901337683200836,-0.1714796721935272,0.1315361559391021,0.0,0.0,-0.9648776650428772,-0.1526797413825988
-0.25344118475914,0.5538667440414429,0.1426986455917358,-0.4020679891109466,-0.1648097336292266,0.1333986520767212,0.0,0.0,-0.9423657059669496,0.7729048728942871
