x_pos,y_pos,x_vel,y_vel,angle,ang_vel,leg_1,leg_2,main_booster,lat_booster
-0.0014687537914142,1.403468132019043,-0.1485648900270462,-0.3312073647975921,0.0015020018909126,0.0296092387288808,0.0,0.0,-0.437247633934021,0.7829965353012085
-0.002816867781803,1.3958789110183716,-0.1343567371368408,-0.337297648191452,0.0010531727457419,-0.0089765833690762,0.0,0.0,0.0940816402435302,0.4712026119232178
-0.0040237428620457,1.3885340690612793,-0.1204300373792648,-0.3264360725879669,0.0008007789147086,-0.0050485474057495,0.0,0.0,-0.2779995203018188,0.5826683044433594
-0.005141925998032,1.381030797958374,-0.1103948801755905,-0.3334817588329315,-0.0006035705446265,-0.0280897431075572,0.0,0.0,-0.1450077295303344,0.4428718090057373
-0.006209373474121,1.3733710050582886,-0.1050957292318344,-0.3404368758201599,-0.0022305843885987,-0.0325433388352394,0.0,0.0,-0.0651301145553588,0.3189384937286377
-0.0072274208068847,1.3655548095703125,-0.0999310463666915,-0.3473930358886719,-0.0040779658593237,-0.0369515009224414,0.0,0.0,-0.6417474746704102,-0.2301200628280639
-0.0081974025815725,1.3575820922851562,-0.0949094891548156,-0.3543500602245331,-0.0061422009021043,-0.0412884429097175,0.0,0.0,-0.6995595097541809,0.2530801296234131
-0.0091208461672067,1.3494528532028198,-0.0900402516126632,-0.3613071739673614,-0.0084195556119084,-0.0455514565110206,0.0,0.0,-0.5561026930809021,-0.9066759347915648
-0.0100721362978219,1.341178059577942,-0.0944632589817047,-0.3677754998207092,-0.0090741338208317,-0.0130925830453634,0.0,0.0,-0.2648286819458008,0.7121025323867798
-0.0109241483733057,1.33275043964386,-0.0829028934240341,-0.3745779991149902,-0.0113432221114635,-0.0453861430287361,0.0,0.0,-0.8951576948165894,0.3187873363494873
-0.0117346765473485,1.3241664171218872,-0.0785494893789291,-0.3815354108810425,-0.0138112483546137,-0.0493651553988456,0.0,0.0,-0.8140169382095337,-0.875741720199585
-0.0125664714723825,1.3154253959655762,-0.082033134996891,-0.3885031938552856,-0.0149420266970992,-0.0226179733872413,0.0,0.0,-0.434527575969696,-0.2545865774154663
-0.0133605953305959,1.3065277338027954,-0.078077495098114,-0.3954604864120483,-0.0162626784294843,-0.0264155119657516,0.0,0.0,-0.9430338740348816,0.3564574718475342
-0.0141191482543945,1.297473669052124,-0.0743324011564254,-0.4024178683757782,-0.0177660249173641,-0.0300696846097707,0.0,0.0,-0.697705864906311,-0.0849859118461608
-0.0148443225771188,1.2882633209228516,-0.0708076357841491,-0.40937539935112,-0.0194457303732633,-0.0335972756147384,0.0,0.0,-0.9200047254562378,-0.0815011858940124
-0.0155381206423044,1.2788963317871094,-0.0675125643610954,-0.4163330793380737,-0.0212946031242609,-0.0369808599352836,0.0,0.0,-0.913419246673584,0.1277549266815185
-0.0162030216306448,1.2693729400634766,-0.0644557625055313,-0.4232908189296722,-0.0233049355447292,-0.040210410952568,0.0,0.0,-0.941824197769165,-0.6466318368911743
-0.0168805122375488,1.2596889734268188,-0.066544234752655,-0.4304170608520508,-0.0244886633008718,-0.0236768778413534,0.0,0.0,-0.9678705334663392,-0.2938705682754516
-0.0175338741391897,0.0,-0.0639908760786056,-0.4373747110366821,-0.0258174743503332,-0.026578789576888,0.0,0.0,-0.9863728880882264,0.1008834838867187
-0.0181657783687114,1.2398515939712524,-0.0616980791091918,-0.444332480430603,-0.0272814631462097,-0.0292826984077692,0.0,0.0,-0.7968119382858276,-0.306109070777893
-0.0187785141170024,1.2296983003616333,-0.0596718899905681,-0.4512903392314911,-0.0288710687309503,-0.0317950807511806,0.0,0.0,-0.9652146100997924,-0.9560688734054564
-0.019449234008789,1.219386100769043,-0.067221388220787,-0.4583095014095306,-0.0287135560065507,0.0031503960490226,0.0,0.0,-0.9373814463615416,-0.172677993774414
-0.0201061256229877,1.2089176177978516,-0.0657485350966453,-0.4652670919895172,-0.0286615900695323,0.0010393093107268,0.0,0.0,-0.953797161579132,-0.371163547039032
-0.0207521431148052,1.1982924938201904,-0.0645539462566375,-0.4722246825695038,-0.0287027787417173,-0.0008237654110416,0.0,0.0,-0.9845390915870668,-0.2316042184829712
-0.0213897712528705,1.1875110864639282,-0.0636399388313293,-0.4791823625564575,-0.0288258399814367,-0.0024612999986857,0.0,0.0,-0.858094334602356,0.0359283685684204
-0.0220221523195505,1.1765514612197876,-0.0630482658743858,-0.4870932400226593,-0.0290187131613492,-0.0038575157523155,0.0,0.0,-0.9926668405532836,0.675499439239502
-0.0225977897644042,1.1654375791549685,-0.0559419803321361,-0.4939917325973511,-0.0306207221001386,-0.0320401974022388,0.0,0.0,-0.9845545887947084,-0.6866198778152466
-0.0232392307370901,1.154176950454712,-0.0641496628522872,-0.5004611611366272,-0.030604775995016,0.0003187761758454,0.0,0.0,-0.9047268629074096,-0.8191270232200623
-0.0239616390317678,1.142770528793335,-0.0742333754897117,-0.5069140195846558,-0.0286379065364599,0.0393375158309936,0.0,0.0,-0.9011317491531372,0.2813245058059692
-0.0246890075504779,1.1312077045440674,-0.0747134834527969,-0.5138695240020752,-0.0266901850700378,0.0389546491205692,0.0,0.0,-0.9149667024612428,0.455181360244751
-0.0254240036010742,1.11948823928833,-0.0754628255963325,-0.5208250284194946,-0.0247486438602209,0.0388308316469192,0.0,0.0,-0.8518768548965454,0.6163265705108643
-0.0261265747249126,1.1076072454452517,-0.0711541697382927,-0.5280281901359558,-0.023868141695857,0.0176101010292768,0.0,0.0,-0.8813306093215942,-0.1565156579017639
-0.0268417354673147,1.0955698490142822,-0.0724249929189682,-0.5349833965301514,-0.0229680463671684,0.018001765012741,0.0,0.0,-0.9054677486419678,-0.3752866983413696
-0.0275717731565237,1.0833756923675537,-0.0739466026425361,-0.5419385433197021,-0.0220356751233339,0.018647339195013,0.0,0.0,-0.6090279221534729,-0.1005222797393798
-0.028318976983428,1.071025252342224,-0.075711503624916,-0.5488937497138977,-0.0210585501044988,0.0195425413548946,0.0,0.0,-0.7614426016807556,0.6190223693847656
-0.0290350914001464,1.058521389961243,-0.0713742077350616,-0.5557316541671753,-0.0212924089282751,-0.0046771303750574,0.0,0.0,-0.9322025179862976,0.4860608577728271
-0.0297727584838867,1.045861005783081,-0.0736013278365135,-0.5626866221427917,-0.0214573983103036,-0.0032998514361679,0.0,0.0,-0.9044789671897888,-0.0117014646530151
-0.0305340774357318,1.0330439805984497,-0.0760466530919075,-0.569641649723053,-0.0215419940650463,-0.0016920154448598,0.0,0.0,-0.8828845024108887,0.0025749206542968
-0.0313209518790245,1.0200705528259275,-0.0787012502551078,-0.5765965580940247,-0.0215350724756717,0.0001384053903166,0.0,0.0,-0.8842582702636719,0.6130664348602295
-0.0320846550166606,1.0069397687911987,-0.0751831084489822,-0.5836083292961121,-0.0227023810148239,-0.0233462527394294,0.0,0.0,-0.972036600112915,-0.6974643468856812
-0.0329425819218158,0.9936606287956238,-0.0863711684942245,-0.5901788473129272,-0.0221237652003765,0.0115721439942717,0.0,0.0,-0.8637866973876953,-0.2753040790557861
-0.0338314995169639,0.9802247881889344,-0.089598998427391,-0.5971338748931885,-0.0214229561388492,0.0140161793678998,0.0,0.0,-0.9960272908210754,-0.6952229142189026
-0.034799288958311,0.9666263461112976,-0.0987986326217651,-0.6043477654457092,-0.0194317381829023,0.039824616163969,0.0,0.0,-0.9980252981185912,0.5306249856948853
-0.0357523933053016,0.9528688788414,-0.096228189766407,-0.611430823802948,-0.0185296051204204,0.0180425886064767,0.0,0.0,-0.7999632954597473,0.521668553352356
-0.0367028228938579,0.9389476776123048,-0.0951260849833488,-0.618720293045044,-0.0184467658400535,0.0016564496327191,0.0,0.0,-0.98308664560318,-0.0608669519424438
-0.0376903526484966,0.9248698949813844,-0.0989925563335418,-0.6256751418113708,-0.0182075873017311,0.0047835269942879,0.0,0.0,-0.7020643353462219,0.2443920373916626
-0.0387162193655967,0.9106357097625732,-0.102997325360775,-0.6326300501823425,-0.0178047306835651,0.0080571323633193,0.0,0.0,-0.8410101532936096,0.1994049549102783
-0.0397817604243755,0.8962447643280029,-0.1071323305368423,-0.6395849585533142,-0.0172313153743743,0.0114681888371706,0.0,0.0,-0.9715203046798706,-0.5470581650733948
-0.0409408584237098,0.881703794002533,-0.1180117577314376,-0.6462491750717163,-0.0151530830189585,0.041564755141735,0.0,0.0,-0.9774463772773744,0.6749012470245361
-0.0420902259647846,0.8670029640197754,-0.1159207373857498,-0.6533562541007996,-0.0141870100051164,0.0193216167390346,0.0,0.0,-0.8858165740966797,0.7090718746185303
-0.0432130806148052,0.8521441221237183,-0.1116838678717613,-0.6604021787643433,-0.0147784035652875,-0.0118279224261641,0.0,0.0,-0.8476754426956177,-0.4963328242301941
-0.044379711151123,0.837128758430481,-0.1162647977471351,-0.6673571467399597,-0.0151760783046484,-0.0079535897821187,0.0,0.0,-0.9583386778831482,-0.58981853723526
-0.0456293113529682,0.8219544291496277,-0.1257359832525253,-0.6744095683097839,-0.0144154308363795,0.0152130145579576,0.0,0.0,-0.9643399119377136,-0.423158586025238
-0.0469245910644531,0.8066235184669495,-0.1304990649223327,-0.6813645958900452,-0.0134517736732959,0.0192728675901889,0.0,0.0,-0.8582460880279541,-0.4460852742195129
-0.0482662208378315,0.7911362051963806,-0.1353440582752227,-0.6883195638656616,-0.0122810220345854,0.0234152786433696,0.0,0.0,-0.9009798169136048,-0.0269323587417602
-0.0496548637747764,0.7754923105239868,-0.1402652114629745,-0.6952746510505676,-0.0108993193134665,0.027634110301733,0.0,0.0,-0.3091462850570678,0.2807921171188354
-0.051091194152832,0.7596918940544128,-0.1452570855617523,-0.7022297978401184,-0.0093031404539942,0.0319235362112522,0.0,0.0,-0.8388029336929321,0.8658528327941895
-0.0524916648864746,0.7437373995780945,-0.1397446990013122,-0.7090940475463867,-0.0096055893227458,-0.0060485922731459,0.0,0.0,-0.6468768119812012,0.5285987854003906
-0.0538941398262977,0.7276309728622437,-0.1389592140913009,-0.7158446907997131,-0.0108687123283743,-0.0252628233283758,0.0,0.0,-0.6585838794708252,-0.2633206248283386
-0.0553459152579307,0.7113680243492126,-0.1441329717636108,-0.7227997183799744,-0.0119083644822239,-0.020792881026864,0.0,0.0,-0.7982496023178101,-0.0139219760894775
-0.0568476691842079,0.6949486136436462,-0.1493580639362335,-0.7297547459602356,-0.0127219706773757,-0.0162720270454883,0.0,0.0,0.3575968742370605,0.7819938659667969
-0.0584234222769737,0.6792420744895935,-0.1552731692790985,-0.6980953216552734,-0.0149843553081154,-0.0452479645609855,0.0,0.0,-0.7752823829650879,0.5690157413482666
-0.0599955543875694,0.6633762717247009,-0.1537815034389495,-0.7051824927330017,-0.0183799844235181,-0.0679126232862472,0.0,0.0,-0.9733593463897704,0.2572916746139526
-0.0616189949214458,0.6473539471626282,-0.1591357439756393,-0.7121382355690002,-0.0215431079268455,-0.0632625967264175,0.0,0.0,-0.8763869404792786,-0.1368639469146728
-0.0632939338684082,0.6311754584312439,-0.1645253449678421,-0.7190937399864197,-0.0244719199836254,-0.0585765168070793,0.0,0.0,-0.7600231170654297,0.5703598260879517
-0.0649847984313964,0.6148394346237183,-0.1654480993747711,-0.7261082530021667,-0.0280659887939691,-0.0718810781836509,0.0,0.0,-0.8263385891914368,0.9278285503387452
-0.0666515380144119,0.598354697227478,-0.161339670419693,-0.7327616214752197,-0.0333327464759349,-0.1053353771567344,0.0,0.0,-0.4264392256736755,0.8533565998077393
-0.0682941451668739,0.5816999673843384,-0.1572137176990509,-0.740385115146637,-0.0402907244861125,-0.1391596794128418,0.0,0.0,-0.4175934791564941,0.5309571027755737
-0.0699452385306358,0.5648927688598633,-0.1571894735097885,-0.7472184300422668,-0.0481114611029624,-0.1564148962497711,0.0,0.0,0.1587693691253662,0.7418171167373657
-0.0716494545340538,0.5484251976013184,-0.161193773150444,-0.732211172580719,-0.0572422854602336,-0.1826166659593582,0.0,0.0,-0.8152979612350464,0.0578792095184326
-0.0734065994620323,0.531802237033844,-0.1667254418134689,-0.7391721606254578,-0.0661308839917182,-0.1777719557285308,0.0,0.0,-0.7090311646461487,-0.1949642300605774
-0.0752166733145713,0.5150234699249268,-0.1722701042890548,-0.7461326122283936,-0.0747763514518737,-0.1729094386100769,0.0,0.0,0.3093512058258056,-0.0846771001815795
-0.0771315544843673,0.4991015195846557,-0.1825262904167175,-0.7081120610237122,-0.083650141954422,-0.1774761229753494,0.0,0.0,-0.5673155784606934,0.5829421281814575
-0.0790479630231857,0.4830175638198852,-0.1816162168979644,-0.7154338955879211,-0.0935823991894722,-0.1986451148986816,0.0,0.0,-0.7493206858634949,0.5784752368927002
-0.0809746757149696,0.46676766872406,-0.1818124055862426,-0.7229331135749817,-0.1043593659996986,-0.2155393362045288,0.0,0.0,-0.8868860006332397,0.3939229249954223
-0.082954503595829,0.4503625035285949,-0.1873820722103119,-0.7298957705497742,-0.1148905456066131,-0.2106234282255172,0.0,0.0,-0.8482779860496521,-0.4421811103820801
-0.0849873572587966,0.4338018894195556,-0.1929512619972229,-0.7368578314781189,-0.1251754909753799,-0.2056989222764969,0.0,0.0,0.0297647714614868,0.1734141111373901
-0.0870167762041091,0.4178224503993988,-0.1928365975618362,-0.7110764384269714,-0.1352379918098449,-0.201249673962593,0.0,0.0,-0.8430395126342773,0.1451760530471801
-0.0890992134809494,0.4016874134540558,-0.1983971446752548,-0.7180372476577759,-0.1450536102056503,-0.1963124573230743,0.0,0.0,0.1211742162704467,0.5067102909088135
-0.0911969169974327,0.3862345218658447,-0.1990123689174652,-0.6878796815872192,-0.1557962149381637,-0.2148521393537521,0.0,0.0,-0.937291145324707,0.6987266540527344
-0.093305304646492,0.3706090450286865,-0.1992463320493698,-0.6957213878631592,-0.1673935055732727,-0.2319453656673431,0.0,0.0,-0.4763658046722412,0.3772293329238891
-0.0954663306474685,0.3548282980918884,-0.2047758847475052,-0.702684223651886,-0.1787434369325637,-0.2269990444183349,0.0,0.0,0.4858516454696655,-0.4690344929695129
-0.0976774245500564,0.3396804630756378,-0.2096333503723144,-0.6746609807014465,-0.1902676373720169,-0.230484053492546,0.0,0.0,0.2010866403579712,0.246292233467102
-0.0998867005109787,0.3251144289970398,-0.209538459777832,-0.6488861441612244,-0.2017289251089096,-0.2292262017726898,0.0,0.0,0.2386062145233154,-0.2494610548019409
-0.1020517349243164,0.3111659288406372,-0.2053456753492355,-0.6214933395385742,-0.2129846066236496,-0.2251135557889938,0.0,0.0,-0.5002395510673523,0.5091476440429688
-0.1042235344648361,0.2970475852489471,-0.2051378190517425,-0.6292663812637329,-0.2251661270856857,-0.2436300218105316,0.0,0.0,0.5970444679260254,-0.4750216007232666
-0.1063507050275802,0.2832500040531158,-0.2010474503040313,-0.615051805973053,-0.236994981765747,-0.2365768849849701,0.0,0.0,0.3143218755722046,-0.4006226062774658
-0.1083821281790733,0.269737958908081,-0.1920871585607528,-0.6023572087287903,-0.248236134648323,-0.2248231172561645,0.0,0.0,0.9407135248184204,-0.6393323540687561
-0.1101692169904708,0.2569954693317413,-0.1696582436561584,-0.5678888559341431,-0.2574560940265655,-0.1843986511230468,0.0,0.0,0.9504349231719972,-0.6297411322593689
-0.1117670089006424,0.2447189688682556,-0.1526955813169479,-0.5468834042549133,-0.2646947503089905,-0.1447733640670776,0.0,0.0,0.9958879947662354,-0.8483930826187134
-0.1132483482360839,0.2336346507072448,-0.1429779827594757,-0.4935774207115173,-0.269980788230896,-0.1057207211852073,0.0,0.0,0.9179919958114624,-0.7567573189735413
-0.1145638450980186,0.2236801534891128,-0.1282151937484741,-0.4430436193943023,-0.2733965814113617,-0.0683158487081527,0.0,0.0,0.6443291902542114,-0.8882848620414734
-0.1156832724809646,0.2145026326179504,-0.1108042448759079,-0.4081013798713684,-0.2745639979839325,-0.0233481954783201,0.0,0.0,0.8945896625518799,-0.810447633266449
-0.1166919693350792,0.2056746631860733,-0.1018159836530685,-0.3921758830547333,-0.2735935151576996,0.0194099117070436,0.0,0.0,0.8398920297622681,-0.6035672426223755
-0.117702767252922,0.1975515037775039,-0.1032897680997848,-0.3606198132038116,-0.271322637796402,0.045417170971632,0.0,0.0,0.0354619026184082,-0.8004514575004578
-0.1186162009835243,0.1900621950626373,-0.0954096168279647,-0.3321119844913482,-0.2671616971492767,0.0832194462418556,0.0,0.0,-0.6887485980987549,-0.6774316430091858
-0.1196309104561805,0.1824375689029693,-0.1071739792823791,-0.3378432095050812,-0.2613348066806793,0.1165374889969825,0.0,0.0,-0.0365247130393981,-0.0684477090835571
-0.1206928268074989,0.1746561676263809,-0.1121366620063781,-0.3447959125041961,-0.2552676498889923,0.121343195438385,0.0,0.0,-0.8067275881767273,0.6846435070037842
-0.1217410117387771,0.1666977256536483,-0.1094506010413169,-0.3529107272624969,-0.2505425810813904,0.0945011526346206,0.0,0.0,-0.8657025694847107,0.0407586097717285
-0.1228351593017578,0.1585822850465774,-0.1142919510602951,-0.3598627746105194,-0.245579108595848,0.0992697477340698,0.0,0.0,-0.6230332851409912,0.4343698024749756
-0.1239747032523155,0.1503099352121353,-0.119068406522274,-0.3668150901794433,-0.2403782308101654,0.1040172353386879,0.0,0.0,0.5397515296936035,0.6488263607025146
-0.1250236481428146,0.1425454020500183,-0.1089055091142654,-0.3444409370422363,-0.2363056987524032,0.0814506784081459,0.0,0.0,0.579810619354248,0.5315921306610107
-0.1260575354099273,0.1354902535676956,-0.1062675714492797,-0.313102126121521,-0.2333784252405166,0.0585453920066356,0.0,0.0,-0.0237196683883667,0.2244107723236084
-0.1271346062421798,0.1282780468463897,-0.1108305230736732,-0.3200534284114837,-0.2302174866199493,0.0632191821932792,0.0,0.0,0.7241604328155518,-0.1467000246047973
-0.1279754638671875,0.1219661310315132,-0.0879427194595336,-0.279930979013443,-0.2263129204511642,0.0780911967158317,0.0,0.0,-0.2043457627296447,0.8439229726791382
-0.1287878006696701,0.1154653131961822,-0.0834571868181228,-0.2885842025279999,-0.2240572422742843,0.045113556087017,0.0,0.0,0.7961173057556152,0.7188031673431396
-0.1292334496974945,0.1099498346447944,-0.0459734350442886,-0.2449206560850143,-0.2226354926824569,0.0284350328147411,0.0,0.0,0.077267050743103,-0.5070979595184326
-0.1296619474887848,0.105040319263935,-0.0454599745571613,-0.2178093045949936,-0.2199918925762176,0.0528720431029796,0.0,0.0,-0.2821327447891235,-0.2374199032783508
-0.130129724740982,0.0999737381935119,-0.049607940018177,-0.2247609198093414,-0.2171227037906646,0.0573838464915752,0.0,0.0,-0.2731280326843261,0.8626880645751953
-0.1305607855319976,0.0947253331542015,-0.0442352592945098,-0.2330958545207977,-0.2159864157438278,0.0227257926017045,0.0,0.0,0.1556774377822876,-0.5282771587371826
-0.1309521645307541,0.090176947414875,-0.041536059230566,-0.2017998099327087,-0.2135719358921051,0.0482898987829685,0.0,0.0,-0.0115560293197631,0.3875207901000976
-0.1313801705837249,0.0854716375470161,-0.0454008392989635,-0.2087515443563461,-0.2109380215406417,0.0526780672371387,0.0,0.0,0.0779149532318115,0.0495879650115966
-0.1317295134067535,0.0810315459966659,-0.038002323359251,-0.1969029605388641,-0.2078438550233841,0.0618835613131523,0.0,0.0,0.3503262996673584,-0.1677889823913574
-0.1321068704128265,0.0772071480751037,-0.0405594184994697,-0.1695792078971862,-0.2049974352121353,0.0569283477962017,0.0,0.0,-0.0658672451972961,-0.6663293838500977
-0.1325804740190506,0.0732436999678611,-0.0520023927092552,-0.1755180954933166,-0.2003151327371597,0.0936459824442863,0.0,0.0,0.1223946809768676,0.8634762763977051
-0.1329602301120758,0.0696706399321556,-0.0411022640764713,-0.1583844125270843,-0.1971645057201385,0.0630121827125549,0.0,0.0,-0.1137117743492126,0.7140622138977051
-0.133313849568367,0.0659219846129417,-0.0372082814574241,-0.1663605570793151,-0.1953044980764389,0.037199717015028,0.0,0.0,0.3326082229614258,0.8058223724365234
-0.1334631890058517,0.0623827539384365,-0.0155026912689208,-0.1572236120700836,-0.1947281658649444,0.0115267690271139,0.0,0.0,0.0281027555465698,0.3228070735931396
-0.1334999054670334,0.0592950694262981,-0.0047169877216219,-0.1370906233787536,-0.1936709135770797,0.0211450792849063,0.0,0.0,0.0288789272308349,0.2015024423599243
-0.1334526985883712,0.0567853786051273,0.0034049754031002,-0.1113706156611442,-0.1923444420099258,0.0265294518321752,0.0,0.0,-0.0701261162757873,0.3008720874786377
