x_pos,y_pos,x_vel,y_vel,angle,ang_vel,leg_1,leg_2,main_booster,lat_booster
-0.0015149116516113,1.4035232067108154,-0.1533057391643524,-0.3287580907344818,0.0016198782250285,0.0319430008530616,0.0,0.0,-0.0023724616431888,-0.9443755245970804
-0.0030887604225426,1.3960431814193726,-0.1605628430843353,-0.3324518203735351,0.0047586858272552,0.0627830177545547,0.0,0.0,0.0759575189551373,-0.9612721375899648
-0.0046264650300145,1.3888493776321411,-0.1587095409631729,-0.3197508454322815,0.0096480576321482,0.0977964550256729,0.0,0.0,0.744451761981912,-0.8232235162601127
-0.0063628195784986,1.3823399543762207,-0.1797963678836822,-0.2893567085266113,0.0157361682504415,0.1217734068632125,0.0,0.0,-0.9826186524696968,0.9133060601076114
-0.0080021861940622,1.3757343292236328,-0.1677220314741134,-0.2936298549175262,0.0194837730377912,0.0749590992927551,0.0,0.0,0.0900470430430071,-0.7551397369061467
-0.0095934867858886,1.3695651292800903,-0.1643790304660797,-0.2742621600627899,0.0246733762323856,0.1038021445274353,0.0,0.0,-0.420571763686149,0.8562276861445957
-0.011109447106719,1.3632969856262207,-0.1550371795892715,-0.2786419093608856,0.0280827023088932,0.0681925863027572,0.0,0.0,0.4357216896788773,0.7455853524985795
-0.0124272350221872,1.3577812910079956,-0.1338376998901367,-0.2451813966035843,0.0301227010786533,0.0408037938177585,0.0,0.0,-0.4183932140729627,0.7139811689448827
-0.0136787416413426,1.3521742820739746,-0.1256682425737381,-0.2492125481367111,0.0306291859596967,0.0101308459416031,0.0,0.0,0.4509091861213719,-0.6179367838037872
-0.0149876596406102,1.347423791885376,-0.1324984580278396,-0.2111636698246002,0.0322122722864151,0.031664777547121,0.0,0.0,-0.7349233826707566,-0.890770669833289
-0.0163450241088867,1.3425694704055786,-0.1387112587690353,-0.2158129811286926,0.0351617373526096,0.0589943751692771,0.0,0.0,-0.0486161434354466,-0.886883529321063
-0.0177518837153911,1.337609052658081,-0.1450899243354797,-0.2205803990364074,0.0395172350108623,0.0871177911758422,0.0,0.0,-0.3727293949487573,0.6487232422016805
-0.0190844535827636,1.3325541019439695,-0.1359265893697738,-0.2247365862131118,0.0421614162623882,0.0528883934020996,0.0,0.0,0.6018425006933317,-0.8767539722330437
-0.0204129219055175,1.3279061317443848,-0.1372528821229934,-0.2067087143659591,0.0465186759829521,0.0871533006429672,0.0,0.0,-0.1907445479092626,-0.9702694579850952
-0.0217876434326171,1.3231627941131592,-0.1432091891765594,-0.2110043466091156,0.0522029623389244,0.1136959046125412,0.0,0.0,-0.951635478188224,-0.708456858863467
-0.023194694891572,1.318306565284729,-0.1474695652723312,-0.2160815596580505,0.0588945895433425,0.1338448822498321,0.0,0.0,0.7405377890567448,-0.823353158067771
-0.0245471950620412,1.3147170543670654,-0.143822580575943,-0.1598941534757614,0.0673827603459358,0.1697788387537002,0.0,0.0,0.7106457381311764,0.9128372875260006
-0.0256762504577636,1.311623215675354,-0.1197495460510253,-0.1378249675035476,0.0741765275597572,0.1358875930309295,0.0,0.0,-0.3721045407196748,-0.675260762732394
-0.0268364902585744,1.308429718017578,-0.1238770261406898,-0.1423305571079254,0.0819525569677352,0.1555347442626953,0.0,0.0,0.3558564949990528,0.8782603905959199
-0.0280272476375103,1.3058289289474487,-0.124930128455162,-0.1159310340881347,0.0877628996968269,0.1162170767784118,0.0,0.0,0.4080881919078902,-0.8779829405246047
-0.029206657782197,1.3040977716445925,-0.1255554854869842,-0.0774015113711357,0.0953158289194107,0.1510723233222961,0.0,0.0,0.0570191106294808,-0.709586512452447
-0.0304459575563669,1.3026775121688845,-0.1328299641609192,-0.0637025311589241,0.1041487902402877,0.1766752302646637,0.0,0.0,0.5832236082825617,-0.7051218610032977
-0.0316452011466026,1.3019472360610962,-0.130349189043045,-0.0332228206098079,0.1145233511924743,0.2075099050998687,0.0,0.0,-0.3546162489971409,-0.864338703996707
-0.0328893661499023,1.301096796989441,-0.1362332850694656,-0.0387470237910747,0.1262866854667663,0.235287457704544,0.0,0.0,-0.0544173293729055,-0.7017350414650179
-0.0341875068843364,1.300135850906372,-0.1432035267353058,-0.0439019836485385,0.1396430283784866,0.2671507000923157,0.0,0.0,0.6284391455486482,-0.89371878127318
-0.0357952117919921,1.300041675567627,-0.1755845844745636,-0.0056402385234832,0.1544158607721328,0.2954565584659576,0.0,0.0,-0.5187519157867013,-0.9375245005207932
-0.0374615676701068,1.299837946891785,-0.1831381767988205,-0.0108540570363402,0.1709167957305908,0.33001908659935,0.0,0.0,0.4107183105877923,0.6964464138699112
-0.0393012054264545,1.3005669116973877,-0.1986869275569915,0.0306398775428533,0.1856736242771148,0.2951365113258362,0.0,0.0,-0.2319607815747184,-0.7937184623165534
-0.0412018783390522,1.301182746887207,-0.2065233886241912,0.0252240523695945,0.2022350877523422,0.3312293887138366,0.0,0.0,-0.3559966517942257,0.6195193379826186
-0.0430407524108886,1.3017122745513916,-0.1989934891462326,0.0213913731276989,0.217470034956932,0.3046993613243103,0.0,0.0,0.5594362509295601,0.7570342122276879
-0.0449607856571674,1.303346872329712,-0.2054512947797775,0.0706176608800888,0.231084868311882,0.27229705452919,0.0,0.0,-0.1220462668388302,-0.972693275919497
-0.0469489097595214,1.3048474788665771,-0.2142882347106933,0.064187504351139,0.2467974871397018,0.314251959323883,0.0,0.0,0.5187601637527461,-0.6529435751821585
-0.0492333397269248,1.307278394699097,-0.244848683476448,0.1051879748702049,0.2635349631309509,0.3347492814064026,0.0,0.0,-0.9482778274448178,-0.6085018878770996
-0.0515527725219726,1.3095853328704834,-0.2494930475950241,0.0992636606097221,0.2815242111682892,0.3597851395606994,0.0,0.0,0.735785430701253,0.7521760352063241
-0.0539652816951274,1.3127776384353638,-0.2571685314178467,0.138727381825447,0.2979113161563873,0.3277423977851867,0.0,0.0,0.4567666398779781,-0.7149916250991564
-0.0565962791442871,1.3168164491653442,-0.2802448570728302,0.1758836805820465,0.3156690001487732,0.3551534712314605,0.0,0.0,0.9296069802034844,0.6237055112547892
-0.0593606941401958,1.3215196132659912,-0.2920972108840942,0.2055425494909286,0.3319671750068664,0.3259642720222473,0.0,0.0,-0.3370688414717397,0.6639461717181098
-0.0620580688118934,1.3261562585830688,-0.2838417887687683,0.2027573436498642,0.346716046333313,0.294977605342865,0.0,0.0,0.7889448348333314,-0.8282483556566849
-0.065157413482666,1.3319326639175415,-0.3253801465034485,0.2529217004776001,0.3629694283008575,0.3250674605369568,0.0,0.0,0.322967523223991,0.8314562098425431
-0.0683291405439376,1.3383420705795288,-0.3308427035808563,0.2813368737697601,0.3774461448192596,0.2895344197750091,0.0,0.0,0.0072412087372264,0.960201851091976
-0.071664810180664,1.3453196287155151,-0.3452640473842621,0.3069757223129272,0.3898980915546417,0.2490391284227371,0.0,0.0,-0.9977487921714784,0.9934120178222656
-0.0748968124389648,1.3522487878799438,-0.332465797662735,0.3053826987743377,0.3998006880283355,0.1980517506599426,0.0,0.0,-0.9959705471992492,0.5014899969100952
-0.0780689269304275,1.3590986728668213,-0.3252561390399933,0.3021466135978699,0.4084306359291076,0.1725989878177642,0.0,0.0,-0.9926429986953736,0.9136949777603148
-0.0811475738883018,1.3658955097198486,-0.3137652277946472,0.3003622889518738,0.4147886931896209,0.1271619498729705,0.0,0.0,-0.997998595237732,0.1848076581954956
-0.0842096358537674,1.3725910186767578,-0.3120365738868713,0.2958554923534393,0.4210834503173828,0.1258948892354965,0.0,0.0,-0.9975269436836244,0.7886394262313843
-0.0871921554207801,1.379218816757202,-0.3023919463157654,0.2933213412761688,0.4255695044994354,0.0897212177515029,0.0,0.0,-0.9902968406677246,0.6940523386001587
-0.0901022925972938,1.3857786655426023,-0.2936455309391022,0.2907530963420868,0.4284217357635498,0.0570447370409965,0.0,0.0,-0.9996768236160278,-0.2876849174499511
-0.0929957404732704,1.3922371864318848,-0.2919287085533142,0.2862481474876404,0.4312303066253662,0.0561712607741355,0.0,0.0,-0.999889314174652,0.8043520450592041
-0.0958297699689865,1.3986310958862305,-0.2847495973110199,0.2837674021720886,0.4326875507831573,0.0291451457887887,0.0,0.0,-0.9989050030708312,-0.4283357262611389
-0.0986471176147461,1.404923677444458,-0.2830440402030945,0.2792624235153198,0.4341152310371399,0.0285536758601665,0.0,0.0,-0.9965533018112184,-0.5823613405227661
-0.1014790534973144,1.411092758178711,-0.2853420376777649,0.2735141813755035,0.4364442825317383,0.0465813353657722,0.0,0.0,-0.989546537399292,0.0596272945404052
-0.1042943969368934,1.4171602725982666,-0.2836508154869079,0.2690084874629974,0.4387584328651428,0.0462826043367385,0.0,0.0,-0.9987735152244568,0.1096792221069336
-0.1070929542183876,1.423126459121704,-0.2819682359695434,0.2645024955272674,0.4410650730133056,0.0461325719952583,0.0,0.0,-0.9996850490570068,-0.0140609741210937
-0.1098747253417968,1.428991436958313,-0.2802953124046325,0.259996235370636,0.4433716535568237,0.0461317300796508,0.0,0.0,-0.9946141242980956,-0.0376340746879577
-0.1126399040222168,1.4347550868988037,-0.2786330282688141,0.255489706993103,0.4456856846809387,0.0462798476219177,0.0,0.0,-0.9969164729118348,-0.6282095909118652
-0.1154391318559646,1.440378189086914,-0.2834319472312927,0.2487908899784088,0.4495369791984558,0.0770261511206626,0.0,0.0,-0.9985390901565552,-0.4406914710998535
-0.1182216629385948,1.4459000825881958,-0.2817936241626739,0.2442830502986908,0.4534103870391845,0.0774682909250259,0.0,0.0,-0.9931779503822328,0.001885175704956
-0.1209878921508789,1.451321005821228,-0.2801691889762878,0.2397749722003936,0.4573130905628204,0.0780540332198143,0.0,0.0,-0.9766989946365356,-0.1938927173614502
-0.1237377151846885,1.4566410779953003,-0.2785598635673523,0.2352666109800338,0.4612520933151245,0.078780248761177,0.0,0.0,-0.9930288791656494,-0.4486262798309326
-0.1264713257551193,1.461860179901123,-0.2769669890403747,0.2307579517364502,0.4652342498302459,0.0796431675553321,0.0,0.0,-0.9943007826805116,-0.2606878280639648
-0.1291887313127517,1.4669783115386963,-0.2753917872905731,0.2262490093708038,0.4692661762237549,0.0806384235620498,0.0,0.0,-0.9079784750938416,-0.3560629487037658
-0.131890207529068,1.4719957113265991,-0.273835688829422,0.2217397987842559,0.4733542501926422,0.081761285662651,0.0,0.0,-0.9513578414916992,-0.168047547340393
-0.1345758438110351,1.476912260055542,-0.2723001539707184,0.2172303050756454,0.4775045812129974,0.0830066353082656,0.0,0.0,-0.991846203804016,-0.1753868460655212
-0.1372458487749099,1.4817280769348145,-0.270786702632904,0.2127204984426498,0.4817230701446533,0.0843691378831863,0.0,0.0,-0.9600045084953308,-0.0273584127426147
-0.1399002969264984,1.4864431619644165,-0.2692970335483551,0.2082104533910751,0.4860152304172516,0.0858431607484817,0.0,0.0,-0.9937061667442322,-0.0285420417785644
-0.1425395011901855,1.4910576343536377,-0.2678327858448028,0.2037001103162765,0.4903863966464996,0.0874231457710266,0.0,0.0,-0.9791435599327089,-0.0455895066261291
-0.1451637297868728,1.495571255683899,-0.2663957774639129,0.1991894990205764,0.4948415756225586,0.0891033336520195,0.0,0.0,-0.991903841495514,-0.2159749269485473
-0.1477731764316558,1.4999845027923584,-0.2649879455566406,0.1946786195039749,0.4993854761123657,0.0908781141042709,0.0,0.0,-0.9539749622344972,-0.0933039188385009
-0.1503681242465973,1.5042972564697266,-0.2636112570762634,0.1901674717664718,0.5040226578712463,0.0927419364452362,0.0,0.0,-0.9712684154510498,0.2517908811569214
-0.1529488563537597,1.5085092782974243,-0.2622677981853485,0.1856560707092285,0.5087571144104004,0.0946894139051437,0.0,0.0,-0.953733503818512,0.2213766574859619
-0.1555157601833343,1.5126211643218994,-0.2609597742557525,0.181144431233406,0.5135929584503174,0.0967152789235115,0.0,0.0,-0.9531974792480468,0.1602497100830078
-0.1580690443515777,1.5166324377059937,-0.259689450263977,0.1766325384378433,0.5185337066650391,0.0988145768642425,0.0,0.0,-0.9618112444877625,-0.1404662132263183
-0.1606092453002929,1.520543336868286,-0.2584592401981354,0.1721203774213791,0.5235828161239624,0.1009825468063354,0.0,0.0,-0.9869409203529358,-0.2061891555786132
-0.1631367653608322,1.5243537425994873,-0.2572715878486633,0.1676079928874969,0.52874356508255,0.103214718401432,0.0,0.0,-0.9082865715026855,-0.0318768620491027
-0.1656519919633865,1.5280640125274658,-0.2561290860176086,0.1630953252315521,0.5340189337730408,0.1055068001151084,0.0,0.0,-0.9891212582588196,-0.2123237252235412
-0.1681553870439529,1.5316741466522217,-0.2550343573093414,0.1585824489593505,0.5394116640090942,0.1078549027442932,0.0,0.0,-0.976521611213684,-0.1053611636161804
-0.1706474274396896,1.5351839065551758,-0.253990113735199,0.1540693342685699,0.5449244379997253,0.1102552786469459,0.0,0.0,-0.9916160702705384,-0.2166751027107238
-0.1731286942958831,1.5385935306549072,-0.2529991567134857,0.1495559364557266,0.5505596399307251,0.1127045601606369,0.0,0.0,-0.9728289246559144,-0.0358694195747375
-0.1755997687578201,1.541902780532837,-0.2520642876625061,0.1450423151254654,0.5563195943832397,0.1151995658874511,0.0,0.0,-0.9881433844566344,-0.1679957509040832
-0.1780610978603363,1.545112133026123,-0.2511883378028869,0.140528455376625,0.5622064471244812,0.1177373677492141,0.0,0.0,-0.9315018653869628,0.1859806776046753
-0.1805133819580078,1.5482215881347656,-0.2503741383552551,0.1360143721103668,0.5682222247123718,0.1203153505921363,0.0,0.0,-0.9919849634170532,-0.3360246419906616
-0.182957261800766,1.551230788230896,-0.2496245205402374,0.1315000355243683,0.5743688344955444,0.1229309886693954,0.0,0.0,-0.9640234708786012,0.0443665981292724
-0.1853933334350586,1.5541399717330933,-0.2489423006772995,0.1269854754209518,0.5806479454040527,0.1255820542573928,0.0,0.0,-0.992163360118866,-0.6270797848701477
-0.1878679245710373,1.5569078922271729,-0.2541173696517944,0.1200794875621795,0.588525652885437,0.1575541198253631,0.0,0.0,-0.989251971244812,0.1854176521301269
-0.1903363168239593,1.5595759153366089,-0.2535764873027801,0.1155629605054855,0.5965391397476196,0.1602697372436523,0.0,0.0,-0.9664634466171264,0.1516926288604736
-0.1927992850542068,1.56214439868927,-0.2531107366085052,0.1110461726784706,0.60468989610672,0.1630150973796844,0.0,0.0,-0.9886007905006408,0.0008052587509155
-0.1952576637268066,1.5646134614944458,-0.2527225017547607,0.1065290942788124,0.6129793524742126,0.1657885611057281,0.0,0.0,-0.965070903301239,0.3702770471572876
-0.1977121382951736,1.5669828653335571,-0.252413809299469,0.1020117476582527,0.6214087605476379,0.1685886085033416,0.0,0.0,-0.9994927644729614,0.4281859397888183
-0.200163647532463,1.5692527294158936,-0.2521866261959076,0.0974941253662109,0.6299794316291809,0.1714138984680175,0.0,0.0,-0.9981149435043336,0.1796448230743408
-0.202612966299057,1.5714232921600342,-0.2520425915718078,0.0929762348532676,0.6386925578117371,0.1742630898952484,0.0,0.0,-0.9808342456817628,0.3713393211364746
-0.2050610035657882,1.5734941959381104,-0.251983106136322,0.0884580686688423,0.6475493311882019,0.1771349310874939,0.0,0.0,-0.9815405607223512,0.3661829233169555
-0.2075086086988449,1.5754657983779907,-0.2520092129707336,0.0839396193623542,0.6565507650375366,0.1800282895565033,0.0,0.0,-0.9967899322509766,0.4338023662567138
-0.2099566906690597,1.5773379802703855,-0.25212162733078,0.0794209018349647,0.6656979322433472,0.1829420626163482,0.0,0.0,-0.9830864071846008,0.6004290580749512
-0.2123606652021408,1.5791561603546145,-0.2465734481811523,0.0775537937879562,0.6734681725502014,0.1554043292999267,0.0,0.0,-0.9671131372451782,0.737307071685791
-0.214725062251091,1.5809218883514404,-0.2415370047092437,0.0757486373186111,0.6799136996269226,0.1289101541042328,0.0,0.0,-0.993191421031952,0.3935614824295044
-0.217092365026474,1.5825878381729126,-0.24191315472126,0.0712322145700454,0.6865077018737793,0.1318797171115875,0.0,0.0,-0.9855766892433168,0.3998477458953857
-0.2194633930921554,1.5841541290283203,-0.2423752099275589,0.0667155906558036,0.6932510137557983,0.1348657459020614,0.0,0.0,-0.9954967498779296,0.2227699756622314
-0.2218389511108398,1.5856208801269531,-0.2429222166538238,0.0621987469494342,0.7001444101333618,0.1378673613071441,0.0,0.0,-0.9915792346000672,-0.3430787324905395
-0.2242200374603271,1.5869879722595217,-0.2435527741909027,0.0576816797256469,0.707188606262207,0.140883594751358,0.0,0.0,-0.9941630959510804,0.3210848569869995
-0.2266074120998382,1.588255524635315,-0.2442652732133865,0.0531643889844417,0.7143843173980713,0.1439136564731598,0.0,0.0,-0.9776701331138612,0.4886519908905029
-0.2290018498897552,1.589423418045044,-0.2450577467679977,0.0486468747258186,0.7217321395874023,0.146956592798233,0.0,0.0,-0.9987103939056396,0.3192098140716553
-0.2314042598009109,1.5904920101165771,-0.2459279745817184,0.0441291369497776,0.7292327284812927,0.1500115841627121,0.0,0.0,-0.9967646598815918,0.5105162858963013
-0.2337918281555175,1.5914931297302246,-0.2438392341136932,0.0414491631090641,0.7359709739685059,0.1347651928663253,0.0,0.0,-0.9994186758995056,-0.0856422185897827
-0.2361887991428375,0.0,-0.2448585927486419,0.0369318127632141,0.7428630590438843,0.1378419995307922,0.0,0.0,-0.9809626936912536,0.1262116432189941
-0.2385958135128021,1.5931965112686155,-0.2459479123353958,0.0324142538011074,0.7499094605445862,0.1409284770488739,0.0,0.0,-0.9994853734970092,0.3143991231918335
-0.2410136759281158,1.5938992500305176,-0.2471041977405548,0.0278964880853891,0.757110595703125,0.1440237909555435,0.0,0.0,-0.9989786148071288,-0.3058526515960693
-0.2434428632259369,1.594502329826355,-0.2483244687318802,0.0233785174787044,0.7644669413566589,0.1471271216869354,0.0,0.0,-0.9715362191200256,-0.0376880764961242
-0.2458841353654861,1.5950058698654177,-0.249605655670166,0.018860338255763,0.7719787955284119,0.1502376496791839,0.0,0.0,-0.9781228303909302,0.153882622718811
-0.2483380734920501,1.5954101085662842,-0.2509446442127228,0.0143419532105326,0.7796465158462524,0.153354674577713,0.0,0.0,-0.9985952973365784,0.3135340213775635
-0.2508052885532379,1.595715045928955,-0.2523383200168609,0.0098233642056584,0.7874704003334045,0.1564775109291076,0.0,0.0,-0.9878944754600524,0.3596739768981933
-0.253286212682724,1.5959206819534302,-0.253783643245697,0.0053045703098177,0.7954506874084473,0.1596053540706634,0.0,0.0,-0.9996159672737122,0.267332911491394
-0.2557815015316009,1.596027135848999,-0.2552775144577026,0.0007855739677324,0.8035875558853149,0.1627375036478042,0.0,0.0,-0.9857468605041504,0.7847194671630859
-0.2582421898841858,1.5961050987243652,-0.2504763007164001,0.0003996880841441,0.8098764419555664,0.1257775723934173,0.0,0.0,-0.9999449849128724,0.2579851150512695
-0.2607178092002868,1.596083641052246,-0.2520611882209778,-0.0041180038824677,0.8163222670555115,0.1289170086383819,0.0,0.0,-0.9986467957496644,-0.2782466411590576
-0.2632090151309967,1.5959625244140625,-0.2536861896514892,-0.0086358627304434,0.8229252099990845,0.1320590525865554,0.0,0.0,-0.9464969038963318,0.483555793762207
-0.265716016292572,1.595742106437683,-0.2553485929965973,-0.0131538864225149,0.829685389995575,0.1352030485868454,0.0,0.0,-0.9999083280563354,0.3126579523086548
-0.2682392597198486,1.5954222679138184,-0.2570458054542541,-0.017672074958682,0.8366028070449829,0.1383484154939651,0.0,0.0,-0.9691818356513976,0.6404681205749512
-0.2707361578941345,1.5950655937194824,-0.2532829046249389,-0.0185210313647985,0.8419122695922852,0.1061886548995971,0.0,0.0,-0.9996415376663208,0.0084923505783081
-0.273249864578247,1.594609260559082,-0.2550446391105652,-0.0230383109301328,0.8473790287971497,0.1093354225158691,0.0,0.0,-0.9963193535804749,0.0789066553115844
-0.275780588388443,1.5940535068511963,-0.2568343877792358,-0.0275557283312082,0.8530031442642212,0.112481988966465,0.0,0.0,-0.996459424495697,-0.1137050986289978
-0.2783287167549133,1.5933982133865356,-0.258650004863739,-0.0320732742547988,0.858784556388855,0.1156278029084205,0.0,0.0,-0.990539848804474,0.2578976154327392
