x_pos,y_pos,x_vel,y_vel,angle,ang_vel,leg_1,leg_2,main_booster,lat_booster
-0.0016132354503497,1.4033734798431396,-0.1634389460086822,-0.335408866405487,0.0018923013703897,0.0373371802270412,0.0,0.0,0.2181799411773681,0.7727733850479126
-0.0032131194602698,1.3961056470870972,-0.160424992442131,-0.3230170011520386,0.0023223818279802,0.008602812886238,0.0,0.0,-0.4747596383094787,0.646655797958374
-0.004840946290642,1.38858163356781,-0.1616938263177871,-0.3343998193740845,0.0012512244284152,-0.0214252490550279,0.0,0.0,-0.2059609293937683,0.454782485961914
-0.0065585137344896,1.3808064460754397,-0.1707324981689453,-0.3455594480037689,0.0002411218592897,-0.0202040858566761,0.0,0.0,-0.1444681882858276,0.5396836996078491
-0.0083142276853322,1.3727819919586182,-0.1732927858829498,-0.3566415905952453,-0.0020045824348926,-0.0449184030294418,0.0,0.0,0.332193374633789,0.3883068561553955
-0.0100477216765284,1.3651630878448486,-0.1716696321964264,-0.3386187255382538,-0.0036600003950297,-0.0331113710999488,0.0,0.0,0.3793751001358032,0.0363647937774658
-0.0118874553591012,1.3580164909362793,-0.1822621673345565,-0.31763556599617,-0.00534556992352,-0.0337148159742355,0.0,0.0,-0.2487108707427978,0.3317213058471679
-0.0138159748166799,1.3506187200546265,-0.1912074983119964,-0.3287969827651977,-0.006970474962145,-0.0325013548135757,0.0,0.0,-0.119997501373291,0.8079214096069336
-0.0157705303281545,1.3429782390594482,-0.1922931969165802,-0.3395985662937164,-0.0101032815873622,-0.0626619905233383,0.0,0.0,-0.5412356853485107,0.5493617057800293
-0.0177700035274028,1.3350896835327148,-0.1957372575998306,-0.3506417572498321,-0.0142622161656618,-0.083186462521553,0.0,0.0,-0.5316489934921265,0.6736031770706177
-0.0197963714599609,1.3269494771957395,-0.1969494819641113,-0.3618522882461548,-0.0198868419975042,-0.1125027984380722,0.0,0.0,-0.4165195226669311,-0.0523726940155029
-0.0219098087400198,1.3185584545135498,-0.2057178914546966,-0.3730129897594452,-0.0254515875130891,-0.1113050580024719,0.0,0.0,-0.5038756132125854,0.4949525594711303
-0.0241098403930664,1.3099170923233032,-0.2144326269626617,-0.3841738104820251,-0.0309577751904726,-0.1101337522268295,0.0,0.0,-0.8149236440658569,0.8335909843444824
-0.0263227466493845,1.301013708114624,-0.2139167785644531,-0.3958693146705627,-0.0382493697106838,-0.1458453685045242,0.0,0.0,-0.1789731979370117,0.6449844837188721
-0.0285579673945903,1.291863203048706,-0.2146126925945282,-0.4069363176822662,-0.0470607355237007,-0.1762436330318451,0.0,0.0,-0.7577638030052185,0.853412389755249
-0.0307984352111816,1.2824472188949585,-0.2131790816783905,-0.4188593924045563,-0.0578185580670833,-0.215175986289978,0.0,0.0,-0.3694897890090942,0.811293363571167
-0.0330435745418071,1.2727848291397097,-0.2117132693529129,-0.429987758398056,-0.0704970806837081,-0.2535934746265411,0.0,0.0,-0.5928817987442017,0.683678150177002
-0.0353050231933593,1.262860655784607,-0.2117222994565963,-0.441810667514801,-0.0848006904125213,-0.2860987782478332,0.0,0.0,-0.5847868919372559,0.7233695983886719
-0.037581730633974,1.2526869773864746,-0.211628720164299,-0.4531535804271698,-0.1007177233695983,-0.3183694779872894,0.0,0.0,-0.7845211625099182,0.6882495880126953
-0.0398920997977256,1.2422583103179932,-0.2138856202363968,-0.4647451341152191,-0.1177673637866973,-0.341024249792099,0.0,0.0,-0.4911866784095764,-0.9135710597038268
-0.0423377975821495,1.2315982580184937,-0.2289485186338424,-0.4750756025314331,-0.133325308561325,-0.3111869692802429,0.0,0.0,-0.3422314524650574,0.3689985275268554
-0.0448617935180664,1.220690369606018,-0.2368611097335815,-0.4862567186355591,-0.1488326340913772,-0.3101747632026672,0.0,0.0,-0.4189432263374328,0.1334621906280517
-0.0474627502262592,1.2095344066619873,-0.2446478307247162,-0.4974374771118164,-0.1642896980047226,-0.3091688752174377,0.0,0.0,-0.6721711754798889,-0.8923710584640503
-0.0502020828425884,1.198135495185852,-0.2601317167282104,-0.5082009434700012,-0.1781249344348907,-0.2767294049263,0.0,0.0,0.3241323232650757,-0.3271437883377075
-0.0530364029109478,1.1872797012329102,-0.2691820561885834,-0.4842533767223358,-0.1924419850111007,-0.2863667905330658,0.0,0.0,-0.266927421092987,-0.7895066738128662
-0.0560217872262001,1.1761800050735474,-0.2863175272941589,-0.4949479401111603,-0.2047431170940399,-0.2460225373506546,0.0,0.0,-0.8461337089538574,-0.2981199026107788
-0.0590785965323448,1.164831280708313,-0.2935453057289123,-0.5061162710189819,-0.2170036882162094,-0.2452113926410675,0.0,0.0,-0.401993989944458,-0.4681031703948974
-0.0622054114937782,1.153233289718628,-0.3005951344966888,-0.5172845125198364,-0.2292259931564331,-0.2444464266300201,0.0,0.0,-0.286026120185852,-0.5416020750999451
-0.06544990837574,1.141408085823059,-0.3137616813182831,-0.5272675156593323,-0.2400806099176406,-0.2170919626951217,0.0,0.0,-0.1501625776290893,0.5288774967193604
-0.0687215775251388,1.1293171644210815,-0.3155245780944824,-0.5393227934837341,-0.251933604478836,-0.2370597869157791,0.0,0.0,-0.5630344152450562,-0.3948996067047119
-0.0720571503043174,1.1169767379760742,-0.321966141462326,-0.550490140914917,-0.2637555301189422,-0.2364383041858673,0.0,0.0,-0.0808573961257934,-0.2636294364929199
-0.0754540413618087,1.1043870449066162,-0.3281786441802978,-0.5616573691368103,-0.2755488455295563,-0.2358658760786056,0.0,0.0,-0.2393180131912231,-0.6460421085357666
-0.0789647102355957,1.091577410697937,-0.3410611748695373,-0.5712413191795349,-0.2858209311962127,-0.2054418623447418,0.0,0.0,-0.2606075406074524,0.3564989566802978
-0.0825318321585655,1.0785179138183594,-0.3467721045017242,-0.5824058651924133,-0.2960695028305053,-0.2049713879823684,0.0,0.0,-0.280433714389801,-0.4951517581939697
-0.08615293353796,1.0652086734771729,-0.3522107601165771,-0.593570351600647,-0.3062971234321594,-0.2045523226261139,0.0,0.0,-0.0301382541656494,-0.4963170289993286
-0.0898249596357345,1.051649570465088,-0.3573622405529022,-0.6047349572181702,-0.316506415605545,-0.2041858434677124,0.0,0.0,-0.100521981716156,-0.2500001192092895
-0.0935451537370681,1.0378406047821045,-0.3622114062309265,-0.6158994436264038,-0.3267000615596771,-0.2038728445768356,0.0,0.0,0.220945119857788,-0.5990082621574402
-0.0971438437700271,1.0245932340621948,-0.351331502199173,-0.5907322764396667,-0.3355993926525116,-0.177986666560173,0.0,0.0,-0.649796724319458,-0.4599496126174927
-0.1007841080427169,1.011095643043518,-0.355529248714447,-0.6018947958946228,-0.3444885611534118,-0.1777837574481964,0.0,0.0,-0.0852627754211425,-0.2291791439056396
-0.1044626235961914,0.997347891330719,-0.3593791127204895,-0.6130574941635132,-0.3533703684806824,-0.1776368767023086,0.0,0.0,0.4602563381195068,0.2883424758911133
-0.1080259308218956,0.9843677282333374,-0.3474877476692199,-0.5791006088256836,-0.3626842796802521,-0.1862785816192627,0.0,0.0,-0.74755859375,-0.4736979007720947
-0.111620046198368,0.9711376428604126,-0.3505982756614685,-0.5902639627456665,-0.3719965815544128,-0.1862464249134063,0.0,0.0,0.3645782470703125,-0.0291781425476074
-0.1150722503662109,0.9579758048057556,-0.3367766737937927,-0.5871934294700623,-0.3809390068054199,-0.1788491904735565,0.0,0.0,-0.14597088098526,-0.1734747290611267
-0.1185472458600997,0.9445638656616212,-0.3390926122665405,-0.5983564257621765,-0.3898857831954956,-0.178935244679451,0.0,0.0,0.4817348718643188,0.3750510215759277
-0.1219742745161056,0.9312891364097596,-0.3341672122478485,-0.5923528075218201,-0.3990084826946258,-0.1824540346860885,0.0,0.0,0.8020925521850586,0.4348304271697998
-0.1252281218767166,0.918239176273346,-0.317078948020935,-0.5823635458946228,-0.4079096913337707,-0.1780247390270233,0.0,0.0,-0.1743072867393493,0.0461281538009643
-0.128492072224617,0.9049389958381652,-0.3181171417236328,-0.5935267210006714,-0.4168242514133453,-0.1782918572425842,0.0,0.0,0.913690447807312,-0.2697243690490722
-0.1314898431301117,0.8927926421165466,-0.2909546196460724,-0.5424692034721375,-0.4263574481010437,-0.1906642764806747,0.0,0.0,0.6969796419143677,-0.6721168160438538
-0.1343350410461425,0.8816317915916443,-0.2767044901847839,-0.4984272122383117,-0.4348276257514953,-0.1694039553403854,0.0,0.0,0.4812779426574707,-0.5195603370666504
-0.1370406150817871,0.8708785176277161,-0.2637119889259338,-0.480068564414978,-0.4422904849052429,-0.1492574661970138,0.0,0.0,0.5532277822494507,-0.7048600316047668
-0.1394248902797699,0.8605426549911499,-0.233174592256546,-0.461036205291748,-0.4480358958244324,-0.1149081438779831,0.0,0.0,0.8912516832351685,-0.9687631130218506
-0.1415639817714691,0.8511990904808044,-0.2103960216045379,-0.4164039194583893,-0.4518902599811554,-0.0770872011780738,0.0,0.0,0.98209547996521,-0.8582965731620789
-0.1433864533901214,0.8422703146934509,-0.1805894672870636,-0.3973725438117981,-0.4537089467048645,-0.0363729819655418,0.0,0.0,0.9584245681762696,-0.9345881342887878
-0.1448327004909515,0.8344186544418335,-0.1447274684906005,-0.3489311337471008,-0.4535897374153137,0.0023840335197746,0.0,0.0,0.8510369062423706,-0.7766429781913757
-0.1459057778120041,0.8269702792167664,-0.109196126461029,-0.3304222226142883,-0.4515185952186584,0.0414225943386554,0.0,0.0,0.888870358467102,-0.7481033205986023
-0.1468740403652191,0.8201112151145935,-0.099866047501564,-0.3038636445999145,-0.4481872618198395,0.0666267499327659,0.0,0.0,0.901888370513916,-0.8809500336647034
-0.1473627090454101,0.814216673374176,-0.0537590198218822,-0.2604198753833771,-0.4428352117538452,0.1070407852530479,0.0,0.0,0.4867094755172729,-0.8012041449546814
-0.1474829614162445,0.8088486790657043,-0.0186068136245012,-0.2365195751190185,-0.4356622695922851,0.1434589326381683,0.0,0.0,-0.4387836456298828,-0.8916022777557373
-0.1476131379604339,0.8032776713371277,-0.021069973707199,-0.2451271116733551,-0.4268990457057953,0.1752643883228302,0.0,0.0,-0.333904504776001,-0.6527785062789917
-0.1477469503879547,0.7974979877471924,-0.0228472389280796,-0.2540428936481476,-0.4166508018970489,0.2049649059772491,0.0,0.0,0.1574486494064331,-0.8842004537582397
-0.147751897573471,0.7918345928192139,-0.0116730984300374,-0.2484586238861084,-0.4046224355697632,0.2405671328306198,0.0,0.0,-0.9069462418556212,-0.7622639536857605
-0.147764965891838,0.785967230796814,-0.0142131820321083,-0.2571467757225036,-0.3908048570156097,0.276352196931839,0.0,0.0,-0.9197518825531006,-0.548360288143158
-0.1477515250444412,0.7798700928688049,-0.0124151241034269,-0.267276793718338,-0.3761481940746307,0.2931340932846069,0.0,0.0,-0.9580347537994384,0.4143682718276977
-0.1476760804653167,0.7735247611999512,-0.0062334444373846,-0.2784519791603088,-0.3615531623363495,0.2919006645679474,0.0,0.0,-0.9287530779838562,0.5119689702987671
-0.1474981307983398,0.7669060826301575,0.0050083314999938,-0.2910001873970032,-0.3480921685695648,0.2692197859287262,0.0,0.0,-0.9955666065216064,0.5527245998382568
-0.1472194641828537,0.7600213289260864,0.0159400664269924,-0.3031520843505859,-0.3355971574783325,0.2499003112316131,0.0,0.0,-0.9947224259376526,0.6415804624557495
-0.1468187272548675,0.7528687715530396,0.0294565800577402,-0.3154582977294922,-0.3245213627815246,0.2215164601802826,0.0,0.0,-0.9990525245666504,0.6264214515686035
-0.1462930738925933,0.7454332709312439,0.0434009060263633,-0.3284453451633453,-0.314977616071701,0.1908749788999557,0.0,0.0,-0.9995937943458556,0.5575852394104004
-0.145646184682846,0.7377326488494873,0.0567000098526477,-0.3405337333679199,-0.3066871762275696,0.165808618068695,0.0,0.0,-0.990751564502716,0.2374048233032226
-0.1449205428361892,0.7297822833061218,0.0646097734570503,-0.351697713136673,-0.298470675945282,0.1643301993608474,0.0,0.0,-0.9870362281799316,0.4841763973236084
-0.1441142112016677,0.7215820550918579,0.0727507546544075,-0.3628615438938141,-0.2903297543525696,0.1628184467554092,0.0,0.0,-0.9962458610534668,0.4838138818740845
-0.1432247161865234,0.7131320238113403,0.0811081007122993,-0.3740252554416656,-0.2822659909725189,0.1612752825021743,0.0,0.0,-0.9920557737350464,0.2429953813552856
-0.1422502547502517,0.7044317722320557,0.0896675139665603,-0.3851889371871948,-0.2742808163166046,0.1597026139497757,0.0,0.0,-0.9976201057434082,0.4149351119995117
-0.1411889046430587,0.6954817771911621,0.0984153151512146,-0.3963524997234344,-0.2663756906986236,0.1581022590398788,0.0,0.0,-0.9994193911552428,-0.4515453577041626
-0.1400390565395355,0.6862818598747253,0.107338473200798,-0.4075159132480621,-0.2585518956184387,0.1564760357141494,0.0,0.0,-0.9993117451667786,-0.5061597228050232
-0.1388341933488845,0.6768404841423035,0.1120219007134437,-0.4181491136550903,-0.2499071210622787,0.1728955209255218,0.0,0.0,-0.9879023432731628,-0.0665247440338134
-0.1375375688076019,0.6671493649482727,0.1212588399648666,-0.4293134808540344,-0.2413460165262222,0.1712219268083572,0.0,0.0,-0.9996914267539978,0.0318536758422851
-0.1361476927995681,0.6572083234786987,0.1306360512971878,-0.4404777288436889,-0.2328696697950363,0.1695270091295242,0.0,0.0,-0.9962918758392334,-0.0204070210456848
-0.1346635818481445,0.6470174789428711,0.1401431560516357,,-0.2244790643453598,0.1678122133016586,0.0,0.0,-0.9920432567596436,-0.4498153328895569
-0.1330837309360504,0.636576771736145,0.1497704237699508,-0.4628057479858398,-0.2161751240491867,0.1660788804292678,0.0,0.0,-0.9754600524902344,-0.4779355525970459
-0.1314072608947754,0.6258861422538757,0.1595087796449661,-0.4739695191383362,-0.2079587131738662,0.1643283665180206,0.0,0.0,-0.9940046072006226,-0.9424231648445128
-0.1296997964382171,0.61497563123703,0.1609197705984115,-0.4835652709007263,-0.1980563104152679,0.1980479657649994,0.0,0.0,-0.9921979308128356,-0.3312439918518066
-0.1278937309980392,0.6038155555725098,0.1708545833826065,-0.4947313666343689,-0.18824303150177,0.1962656378746032,0.0,0.0,-0.9990473985671996,-0.6114682555198669
-0.1260395050048828,0.5924233198165894,0.1744000017642974,-0.50495845079422,-0.1771789938211441,0.2212809026241302,0.0,0.0,-0.999872088432312,0.1721177101135254
-0.1240850463509559,0.5807819366455078,0.1845020949840545,-0.5161264538764954,-0.1662054657936096,0.2194705456495285,0.0,0.0,-0.9986993074417114,0.2061120271682739
-0.1220293045043945,0.5688913464546204,0.1946784704923629,-0.5272942781448364,-0.1553230732679367,0.217647835612297,0.0,0.0,-0.9994865655899048,-0.7226234674453735
-0.1199269294738769,0.5567572116851807,0.1980393230915069,-0.5380635857582092,-0.143147200345993,0.2435175627470016,0.0,0.0,-0.9997848868370056,0.0788459777832031
-0.1177222281694412,0.5443742871284485,0.2083464115858078,-0.549233615398407,-0.1310636103153228,0.241672083735466,0.0,0.0,-0.998034656047821,-0.2946869134902954
-0.115414522588253,0.5317422747612,0.2187114506959915,-0.5604034066200256,-0.1190727725625038,0.2398169338703155,0.0,0.0,-0.9973891973495485,0.0493953227996826
-0.1130034476518631,0.5188613533973694,0.229129746556282,-0.5715728402137756,-0.107175126671791,0.2379529923200607,0.0,0.0,-0.9954068064689636,0.2603951692581177
-0.110488511621952,0.5057314038276672,0.2395970076322555,-0.5827419757843018,-0.0953710749745369,0.2360810786485672,0.0,0.0,-0.9932034015655518,-0.1336872577667236
-0.1078692451119422,0.4923523068428039,0.2501091957092285,-0.5939109325408936,-0.0836609899997711,0.2342018783092498,0.0,0.0,-0.9788957834243774,-0.5104570388793945
-0.1051771193742752,0.4787302613258362,0.2566668689250946,-0.6047707796096802,-0.071237988770008,0.2484598159790039,0.0,0.0,-0.9858915209770204,-0.0212841033935546
-0.1023798957467079,0.4648593068122864,0.2672578692436218,-0.6159408688545227,-0.0589095801115036,0.2465680390596389,0.0,0.0,-0.9157431721687316,-0.0164815783500671
-0.0994773879647255,0.4507393836975097,0.2778835296630859,-0.6271106600761414,-0.0466760247945785,0.2446711808443069,0.0,0.0,-0.8809669017791748,-0.7357849478721619
-0.0965187102556228,0.4363829791545868,0.2822958827018738,-0.6376942992210388,-0.0332778729498386,0.2679629921913147,0.0,0.0,-0.6866481900215149,-0.5070449709892273
-0.0934959426522255,0.4217800199985504,0.2877548336982727,-0.6487581133842468,-0.0189274251461029,0.2870089113712311,0.0,0.0,-0.5272666215896606,0.2081446647644043
-0.090366743505001,0.4069288969039917,0.298467218875885,-0.6599321365356445,-0.0046724663116037,0.2850993275642395,0.0,0.0,-0.3028031587600708,-0.0735754966735839
-0.0871313065290451,0.3918293416500091,0.3092037737369537,-0.6711057424545288,0.0094869127497076,0.2831875383853912,0.0,0.0,0.0208045244216918,0.0623103380203247
-0.0838267356157302,0.3771763145923614,0.316371202468872,-0.6513956785202026,0.023397609591484,0.2782139778137207,0.0,0.0,0.0188382863998413,-0.3769196271896362
-0.0804771408438682,0.3629653453826904,0.3212091326713562,-0.6318681836128235,0.0369766056537628,0.2715798616409302,0.0,0.0,-0.4745317697525024,-0.701312243938446
-0.0770782455801963,0.3485004901885986,0.3247643113136291,-0.6433225274085999,0.0519128888845443,0.2987258434295654,0.0,0.0,0.4538002014160156,-0.3522365093231201
-0.073702335357666,0.3345721960067749,0.3230604529380798,-0.6196029782295227,0.0662785917520523,0.2873142063617706,0.0,0.0,0.0741662979125976,-0.2634207010269165
-0.070339486002922,0.3208953440189361,0.3223277032375335,-0.6085360050201416,0.0800961330533027,0.2763507962226867,0.0,0.0,-0.1119784116744995,-0.1633111834526062
-0.0668692588806152,0.3069698810577392,0.3331663012504577,-0.6197080016136169,0.0938181355595588,0.2744399905204773,0.0,0.0,0.4073643684387207,-0.2168786525726318
-0.0632692351937294,0.2932725250720978,0.3460314273834228,-0.6097065806388855,0.1076864153146743,0.2773656249046325,0.0,0.0,0.7824443578720093,0.1220502853393554
-0.0594945922493934,0.2805793881416321,0.362876296043396,-0.5652541518211365,0.1221832334995269,0.2899361848831177,0.0,0.0,0.6530261039733887,0.1189517974853515
-0.0557297691702842,0.268789678812027,0.3621172606945038,-0.525227427482605,0.1364790350198745,0.2859162986278534,0.0,0.0,0.6471586227416992,0.1938509941101074
-0.0518323890864849,0.2580465376377105,0.3748359382152557,-0.4789026975631714,0.1513379663228988,0.2971783578395843,0.0,0.0,0.4087046384811401,-0.1261578798294067
-0.0478376373648643,0.2478026449680328,0.3843955397605896,-0.4568822979927063,0.1664031445980072,0.3013040423393249,0.0,0.0,0.1258020401000976,-0.5707030296325684
-0.0438780784606933,0.2381268888711929,0.3798843622207641,-0.4319120645523071,0.1825047135353088,0.3220314383506775,0.0,0.0,-0.2376214265823364,-0.4775514006614685
-0.0398112311959266,0.2282032072544098,0.3907709717750549,-0.4430886805057525,0.1985123604536056,0.3201529085636139,0.0,0.0,0.0069694519042968,-0.5204868912696838
-0.0356782898306846,0.2184442579746246,0.3963818848133087,-0.4360874891281128,0.215561181306839,0.3409763872623443,0.0,0.0,-0.0601162910461425,-0.6202362179756165
-0.0314958579838275,0.2084202319383621,0.4000155329704284,-0.4482771158218384,0.234017938375473,0.3691354095935821,0.0,0.0,0.3579167127609253,-0.5502625107765198
-0.0274579040706157,0.1987105011940002,0.3848851323127746,-0.4346645772457123,0.253241628408432,0.3844740390777588,0.0,0.0,0.621991753578186,-0.3945638537406921
-0.0234721191227436,0.1895497888326645,0.3799575865268707,-0.4104663729667663,0.2722755074501037,0.3806778192520141,0.0,0.0,0.511157751083374,-0.007504403591156
-0.0194875709712505,0.1808570027351379,0.3799018859863281,-0.3899138867855072,0.2913278937339782,0.3810479044914245,0.0,0.0,0.740187406539917,-0.5042856335639954
-0.0154021261259913,0.1725034564733505,0.3887909948825836,-0.3753474056720733,0.3117329180240631,0.4081010818481445,0.0,0.0,0.7527327537536621,-0.1781924962997436
-0.0113342283293604,0.1649871915578842,0.3867994546890259,-0.3384894728660583,0.3325263261795044,0.4158686101436615,0.0,0.0,0.7666467428207397,-0.0571052432060241
-0.0074161528609693,0.1584610491991043,0.3719273507595062,-0.2947685122489929,0.3533546924591064,0.4165674746036529,0.0,0.0,0.582798957824707,0.1276159286499023
