x_pos,y_pos,x_vel,y_vel,angle,ang_vel,leg_1,leg_2,main_booster,lat_booster
-0.0016352653037756,1.4034900665283203,-0.1658207774162292,-0.3302167654037475,0.0020523788407444,0.0405067056417465,0.0,0.0,0.6320052246343901,-0.6417538564066106
-0.0033775330521166,1.3966295719146729,-0.1778787523508072,-0.3049184381961822,0.0056651812046766,0.072263665497303,0.0,0.0,-0.2291679077725359,0.8126653749360888
-0.0051515577360987,1.3896291255950928,-0.1792804449796676,-0.3111404776573181,0.0075187156908214,0.0370739549398422,0.0,0.0,0.0872316670320514,0.9548776270582008
-0.0070546148344874,1.382984280586243,-0.1904705613851547,-0.2953263819217682,0.0076858107931911,0.0033423688728362,0.0,0.0,-0.6563836599491402,0.7069708090915277
-0.0089969635009765,1.3762080669403076,-0.1928988993167877,-0.3011552989482879,0.0063605494797229,-0.0265079289674758,0.0,0.0,0.5982181572417193,0.8526701651202
-0.0108328815549612,1.370086669921875,-0.180999606847763,-0.2720522582530975,0.0038037979975342,-0.0511396937072277,0.0,0.0,0.2505418311332477,-0.7089958036734034
-0.012848949059844,1.3644862174987793,-0.2006164789199829,-0.248907521367073,0.002825987059623,-0.0195582546293735,0.0,0.0,0.6902710111273733,0.8896899086807177
-0.0147284511476755,1.359748125076294,-0.185681477189064,-0.2105863094329834,0.0005818314384669,-0.0448874868452549,0.0,0.0,-0.2047183595836468,0.6786425024344049
-0.0166555400937795,1.3548829555511477,-0.1893137991428375,-0.2162282317876815,-0.0027755186893045,-0.0671531409025192,0.0,0.0,-0.4862856174656349,-0.8196990011220009
-0.018745232373476,1.3498891592025757,-0.2074267566204071,-0.2219491451978683,-0.0043036807328462,-0.0305658672004938,0.0,0.0,0.3347454669616518,-0.6227398103372697
-0.0209012981504201,1.3454817533493042,-0.2156662046909332,-0.1958824098110199,-0.0042432788759469,0.001208271831274,0.0,0.0,0.0648710793484284,-0.9945163991257892
-0.0231733322143554,1.3414487838745115,-0.2294510900974273,-0.1792351305484771,-0.0020270233508199,0.0443290099501609,0.0,0.0,0.2707055550205155,0.9689662794740128
-0.025342846289277,1.3380930423736572,-0.2175079584121704,-0.1491452157497406,-0.0014746759552508,0.0110483011230826,0.0,0.0,0.1006709238339926,0.5326605334196302
-0.0275083538144826,1.3349525928497314,-0.2163383215665817,-0.1395732760429382,-0.0016834965208545,-0.0041768816299736,0.0,0.0,-0.298186418678956,-0.7936375289741684
-0.0298084262758493,1.33168625831604,-0.2312213480472564,-0.1451678425073623,-0.0004898438346572,0.023875268176198,0.0,0.0,-0.1544980181970372,0.8822784894640543
-0.0321104042232036,1.328275442123413,-0.2295072376728058,-0.1515970826148986,-0.0011707965750247,-0.0136205181479454,0.0,0.0,-0.8984041289489029,0.7998115990647954
-0.0344161018729209,1.3247393369674685,-0.2281026095151901,-0.1571568995714187,-0.0036074141971766,-0.0487365499138832,0.0,0.0,-0.9941213731350442,-0.7971831839813179
-0.0368482582271099,1.3210628032684326,-0.2421709299087524,-0.1634107679128646,-0.0046438267454504,-0.0207299441099166,0.0,0.0,-0.9749635692189144,0.819575106769774
-0.0392807945609092,1.3172591924667358,-0.2404825389385223,-0.1690628826618194,-0.0073813498020172,-0.054755263030529,0.0,0.0,0.8392148695771722,0.8934694469888321
-0.0418096557259559,1.3142662048339844,-0.2483302652835846,-0.1330414563417434,-0.0118873445317149,-0.0901283174753189,0.0,0.0,-0.8553915642478556,-0.5789868528923052
-0.04444370418787,1.3111441135406494,-0.2599579095840454,-0.1387932896614074,-0.015301140025258,-0.0682820528745651,0.0,0.0,-0.0840782970867011,-0.5491674187448434
-0.0471864715218544,1.307885766029358,-0.2720817923545837,-0.1448411047458648,-0.0174641441553831,-0.0432639196515083,0.0,0.0,0.4341139688466253,0.8446528726220913
-0.0497897155582904,1.3051958084106443,-0.2567821145057678,-0.1195999681949615,-0.020965164527297,-0.0700269341468811,0.0,0.0,0.8147882675714737,-0.518968595192975
-0.0524045005440712,1.3028786182403564,-0.2594040930271148,-0.1030134335160255,-0.0230217967182397,-0.0411359183490276,0.0,0.0,0.8895111693361339,0.9392775267265698
-0.0551636703312397,1.3015373945236206,-0.271803468465805,-0.0596799738705158,-0.0270870197564363,-0.0813118144869804,0.0,0.0,-0.1079109637789181,-0.9533368521869148
-0.0580688491463661,1.3000493049621582,-0.288958340883255,-0.066166803240776,-0.0286268442869186,-0.0307960361242294,0.0,0.0,0.1148247206681978,-0.5794188726018678
-0.0610513687133789,1.2991673946380615,-0.2980300784111023,-0.0392000488936901,-0.0288446582853794,-0.0043564029037952,0.0,0.0,0.9673541836050584,0.8177248353195549
-0.0641549080610275,1.2996376752853394,-0.3082849681377411,0.0208654161542654,-0.0308946035802364,-0.0409988649189472,0.0,0.0,0.8521765537805921,0.9632218489586118
-0.0673590674996376,1.3012878894805908,-0.3162887990474701,0.0732517167925834,-0.0349650867283344,-0.081409566104412,0.0,0.0,-0.7716118628665414,0.5621661518667297
-0.0705574005842208,1.3027998208999634,-0.3147804141044616,0.0670665130019187,-0.0399633757770061,-0.0999655202031135,0.0,0.0,0.7369347701155868,0.9518682866787368
-0.0736559852957725,1.3055167198181152,-0.3030642867088318,0.1205593720078468,-0.0466745123267173,-0.1342228949069976,0.0,0.0,-0.1134096980094909,-0.6940072774887085
-0.0768461227416992,1.3081002235412598,-0.3139420449733734,0.1146536841988563,-0.0516845770180225,-0.1002013832330703,0.0,0.0,-0.0062202811241149,-0.7933414578437805
-0.0801328644156456,1.3105624914169312,-0.3255632519721985,0.1093266978859901,-0.0547604635357856,-0.0615176074206829,0.0,0.0,0.0077975988388061,-0.7398056983947754
-0.0835330933332443,1.3132219314575195,-0.3385052978992462,0.1181404590606689,-0.0562566630542278,-0.0299241784960031,0.0,0.0,0.0731769800186157,-0.6089116334915161
-0.0869645103812217,1.316361665725708,-0.3429974913597107,0.1395339220762252,-0.0563969388604164,-0.002805471420288,0.0,0.0,-0.0538983345031738,-0.2696671485900879
-0.0904100388288497,1.3193670511245728,-0.3445315062999725,0.1335698068141937,-0.0564145930111408,-0.0003530419780872,0.0,0.0,0.1072489023208618,-0.1884207725524902
-0.093866154551506,1.322696566581726,-0.3456340730190277,0.1479790657758712,-0.0563962571322917,0.0003668580029625,0.0,0.0,-0.1521100997924804,-0.25344318151474
-0.0973288565874099,1.3258917331695557,-0.3464052677154541,0.1420149356126785,-0.0562658607959747,0.0026079991366714,0.0,0.0,-0.1396557688713073,-0.3676872253417969
-0.1007945090532302,1.3289525508880615,-0.3468025326728821,0.1360507756471634,-0.0560288317501544,0.004740732256323,0.0,0.0,-0.0722337365150451,-0.5370018482208252
-0.1042998284101486,1.3318833112716677,-0.3519034683704376,0.130306601524353,-0.0546719953417778,0.0271368809044361,0.0,0.0,-0.2022013068199157,-0.2886204719543457
-0.1078008636832237,1.3346798419952393,-0.3515723049640655,0.1243422180414199,-0.0532195977866649,0.0290477462112903,0.0,0.0,-0.3457719683647156,-0.187821626663208
-0.111294075846672,1.3373421430587769,-0.3508880734443664,0.1183777824044227,-0.0516773387789726,0.0308453887701034,0.0,0.0,-0.1149740815162658,0.2179762125015258
-0.1147762313485145,1.3398700952529907,-0.3498592972755432,0.1124132871627807,-0.0500509291887283,0.0325284600257873,0.0,0.0,-0.3627005815505981,0.1661500930786132
-0.1182438880205154,1.34226393699646,-0.3484948277473449,0.1064487397670745,-0.0483461320400238,0.0340957604348659,0.0,0.0,-0.2729415893554687,-0.0097777247428894
-0.1216938942670822,1.344523549079895,-0.3468042314052582,0.100484125316143,-0.0465688295662403,0.0355461873114109,0.0,0.0,-0.4680554866790771,0.3082484006881714
-0.1251232177019119,1.3466490507125854,-0.3447975814342499,0.0945194587111473,-0.044724877923727,0.0368788912892341,0.0,0.0,-0.6442117094993591,-0.2119267582893371
-0.1285287886857986,1.348640203475952,-0.3424851298332214,0.0885547325015068,-0.04282021895051,0.0380931049585342,0.0,0.0,-0.7281060814857483,0.145930528640747
-0.1319077461957931,1.350497126579285,-0.3398775458335876,0.0825899615883827,-0.0408608019351959,0.0391882583498954,0.0,0.0,-0.5231319069862366,-0.0688666105270385
-0.1352573335170745,1.352220058441162,-0.3369857668876648,0.0766251385211944,-0.0388525910675525,0.0401639863848686,0.0,0.0,-0.6885738372802734,0.0763822793960571
-0.138574793934822,1.3538087606430054,-0.3338209092617035,0.0706602856516838,-0.0368015691637992,0.0410201027989387,0.0,0.0,-0.451904833316803,0.2261760234832763
-0.141857624053955,1.3552632331848145,-0.3303942084312439,0.0646953806281089,-0.0347137562930583,0.0417566038668155,0.0,0.0,-0.6668362617492676,0.1733684539794922
-0.1451033651828766,1.356583595275879,-0.3267169594764709,0.0587304420769214,-0.0325950607657432,0.0423737354576587,0.0,0.0,-0.6864660978317261,-0.0482875108718872
-0.1483096182346344,1.3577698469161987,-0.3228004872798919,0.0527654737234115,-0.0304514672607183,0.0428719036281108,0.0,0.0,-0.4654837846755981,0.2594057321548462
-0.1514743864536285,1.3588218688964844,-0.318656176328659,0.0468004755675792,-0.0282888691872358,0.0432517006993293,0.0,0.0,-0.5883557796478271,0.089944839477539
-0.154595285654068,1.3597397804260254,-0.3142952620983124,0.0408354476094245,-0.0261131823062896,0.0435140505433082,0.0,0.0,-0.4072913527488708,0.6432960033416748
-0.157627671957016,1.3605189323425293,-0.3043614625930786,0.0346495918929576,-0.0250069126486778,0.0221253968775272,0.0,0.0,-0.5496628284454346,0.3571135997772217
-0.1606124937534332,1.3611639738082886,-0.2996008098125458,0.028684826567769,-0.0238991063088178,0.0221563335508108,0.0,0.0,-0.2676694393157959,0.4132543802261352
-0.1635477989912033,1.3616747856140137,-0.2946567833423614,0.0227200500667095,-0.0227954182773828,0.0220737401396036,0.0,0.0,-0.5121371150016785,0.5387320518493652
-0.1663841307163238,1.3620555400848389,-0.283519983291626,0.0169105287641286,-0.0229054186493158,-0.0022000158205628,0.0,0.0,-0.4399306178092956,-0.0691455602645874
-0.1691678017377853,1.3623018264770508,-0.2782413363456726,0.0109458370134234,-0.0230306331068277,-0.002504248637706,0.0,0.0,-0.2787684202194214,-0.1659014225006103
-0.1718974113464355,1.3624138832092283,-0.2728111445903778,0.0049811331555247,-0.0231764465570449,-0.0029162089340388,0.0,0.0,-0.6019808650016785,0.1068397760391235
-0.1745715141296386,1.3623918294906616,-0.2672396302223205,-0.0009835814125835,-0.0233481246978044,-0.0034335765521973,0.0,0.0,-0.7900038361549377,-0.3917965888977051
-0.1771889626979828,1.362235426902771,-0.2615368366241455,-0.0069483071565628,-0.0235508102923631,-0.0040537156164646,0.0,0.0,-0.8730481266975403,0.064704418182373
-0.1797484457492828,1.3619450330734253,-0.2557125687599182,-0.0129130445420742,-0.0237895175814628,-0.0047740368172526,0.0,0.0,-0.8758501410484314,-0.0431503057479858
-0.1822490692138672,1.361520290374756,-0.2497764527797699,-0.0188777931034564,-0.024069083854556,-0.0055915140546858,0.0,0.0,-0.8681823015213013,-0.2198436260223388
-0.1846897155046463,1.3609615564346311,-0.2437379360198974,-0.0248425528407096,-0.0243942569941282,-0.006503433920443,0.0,0.0,-0.968101680278778,0.0539414882659912
-0.1870696097612381,1.360268473625183,-0.2376062124967575,-0.0308073256164789,-0.0247695948928594,-0.0075067416764795,0.0,0.0,-0.9614642858505248,-0.0407854318618774
-0.1893878877162933,1.3594412803649902,-0.2313902825117111,-0.0367721132934093,-0.0251994915306568,-0.0085978563874959,0.0,0.0,-0.9853554368019104,0.1636650562286377
-0.1916438043117523,1.3584799766540527,-0.2250989973545074,-0.0427369102835655,-0.0256881732493639,-0.0097736399620771,0.0,0.0,-0.9793838262557985,-0.0206778049468994
-0.1938367784023285,1.3573843240737915,-0.2187409400939941,-0.0487017259001731,-0.0262397192418575,-0.0110308676958084,0.0,0.0,-0.9433104395866394,0.2416496276855468
-0.1959663331508636,1.3561546802520752,-0.2123246192932129,-0.0546665638685226,-0.0268580187112092,-0.0123659055680036,0.0,0.0,-0.9601886868476868,0.1452248096466064
-0.1980319023132324,1.3547908067703247,-0.2058582603931427,-0.0606314167380332,-0.0275467801839113,-0.0137753412127494,0.0,0.0,-0.9619988799095154,0.414104700088501
-0.2000330984592437,1.3532925844192505,-0.199349969625473,-0.0665962845087051,-0.0283095650374889,-0.0152555229142308,0.0,0.0,-0.9753090143203736,0.3738317489624023
-0.2019696682691574,1.3516603708267212,-0.1928077191114425,-0.0725611820816993,-0.0291497204452753,-0.0168029237538576,0.0,0.0,-0.968379020690918,0.1882823705673217
-0.2038414031267166,1.3498940467834473,-0.1862392723560333,-0.0785260945558548,-0.0300704184919595,-0.0184139106422662,0.0,0.0,-0.9801658987998962,-0.1323150396347046
-0.2056480944156646,1.3479933738708496,-0.1796522736549377,-0.084491029381752,-0.0310746654868125,-0.0200849436223506,0.0,0.0,-0.9904083013534546,-0.0311644077301025
-0.2073896825313568,1.3459588289260864,-0.1730542480945587,-0.0904560014605522,-0.0321652851998806,-0.0218123625963926,0.0,0.0,-0.9822430610656738,-0.0276799201965332
-0.2090661525726318,1.34378981590271,-0.1664525866508484,-0.0964210033416748,-0.0333449132740497,-0.0235925838351249,0.0,0.0,-0.9671045541763306,0.1706398725509643
-0.2106775790452957,1.3414866924285889,-0.1598545312881469,-0.1023860424757003,-0.0346160158514976,-0.0254220999777317,0.0,0.0,-0.9702157974243164,-0.3735693693161011
-0.2122240513563156,1.3390495777130127,-0.1532671898603439,-0.1083511114120483,-0.0359808914363384,-0.0272973328828811,0.0,0.0,-0.98847097158432,0.1399900913238525
-0.2137058228254318,1.336478352546692,-0.1466975957155227,-0.1143162176012992,-0.0374416299164295,-0.0292148143053054,0.0,0.0,-0.976806104183197,-0.0755194425582885
-0.2151231318712234,1.333772897720337,-0.1401526778936386,-0.1202813610434532,-0.0390001870691776,-0.0311710629612207,0.0,0.0,-0.9565383791923524,-0.1179351806640625
-0.2164762914180755,1.3309334516525269,-0.1336392313241958,-0.1262465566396713,-0.0406583175063133,-0.033162672072649,0.0,0.0,-0.9421526789665222,-0.3470164537429809
-0.2177657186985016,1.327959656715393,-0.1271639764308929,-0.1322117745876312,-0.0424176342785358,-0.0351862423121929,0.0,0.0,-0.9470068216323853,-0.1910555958747863
-0.2189919054508209,1.3248519897460938,-0.1207334622740745,-0.1381770670413971,-0.0442795641720294,-0.0372385010123252,0.0,0.0,-0.9368910193443298,-0.0980827212333679
-0.2201553881168365,1.3216100931167605,-0.1143542304635047,-0.1441423892974853,-0.0462453737854957,-0.0393162332475185,0.0,0.0,-0.953132152557373,-0.23001629114151
-0.2212566435337066,1.3182342052459717,-0.1080326661467552,-0.1501077860593795,-0.0483161732554435,-0.0414160825312137,0.0,0.0,-0.9766448736190796,-0.3327486515045166
-0.2222964316606521,1.3147242069244385,-0.101775087416172,-0.1560732275247573,-0.0504929237067699,-0.0435349680483341,0.0,0.0,-0.898718535900116,-0.0742762684822082
-0.2232753783464431,1.3110802173614502,-0.0955877006053924,-0.1620387434959411,-0.0527764149010181,-0.0456697903573513,0.0,0.0,-0.933418333530426,-0.4285803437232971
-0.2241943776607513,1.3073019981384275,-0.0894765928387641,-0.1680043190717697,-0.0551672838628292,-0.0478175282478332,0.0,0.0,-0.96107679605484,-0.4932452440261841
-0.2250541150569915,1.3033897876739502,-0.0834477394819259,-0.1739699691534042,-0.0576660484075546,-0.0499752052128315,0.0,0.0,-0.9591144323349,-0.2253254055976867
-0.2258555442094802,1.2993437051773071,-0.0775070041418075,-0.1799356937408447,-0.0602730438113212,-0.0521398559212684,0.0,0.0,-0.9680330753326416,-0.2162396907806396
-0.2265995442867279,1.29516339302063,-0.0716601461172103,-0.1859014630317688,-0.0629884749650955,-0.0543086640536785,0.0,0.0,-0.9144808650016784,-0.3580719232559204
-0.2272872477769851,1.290849208831787,-0.0659127831459045,-0.1918673068284988,-0.0658124089241027,-0.0564788058400154,0.0,0.0,-0.9687399864196776,-0.3638628721237182
-0.2279196232557296,1.2864010334014893,-0.0602703876793384,-0.197833240032196,-0.0687447860836982,-0.0586475431919097,0.0,0.0,-0.9319610595703124,-0.5305018424987793
-0.2285334169864654,1.2818286418914795,-0.0592258982360363,-0.2033107280731201,-0.0708760917186737,-0.0426260530948638,0.0,0.0,-0.890217125415802,-0.4304374456405639
-0.2290941774845123,1.2771226167678833,-0.0538092479109764,-0.209276407957077,-0.0731152817606926,-0.044784065335989,0.0,0.0,-0.9105265140533448,-0.3246728181838989
-0.2296030074357986,1.2722821235656738,-0.0485130846500396,-0.2152421474456787,-0.0754619315266609,-0.0469328239560127,0.0,0.0,-0.9257157444953918,-0.1582340598106384
-0.2300612479448318,1.2673078775405884,-0.0433422401547431,-0.2212079316377639,-0.0779154151678085,-0.0490698292851448,0.0,0.0,-0.909461498260498,-0.5876975059509277
-0.2305203378200531,1.26220965385437,-0.0446144603192806,-0.2266555279493332,-0.0791993290185928,-0.0256780590862035,0.0,0.0,-0.8551178574562073,-0.3382850885391235
-0.2309314310550689,1.2569773197174072,-0.03970792517066,-0.2326210290193557,-0.080588549375534,-0.0277844183146953,0.0,0.0,-0.793090283870697,-0.4653612375259399
-0.2312958687543869,1.2516109943389893,-0.0349399968981742,-0.2385865598917007,-0.0820821523666381,-0.0298719014972448,0.0,0.0,-0.9106080532073976,-0.666503369808197
-0.2316778600215912,1.2461190223693848,-0.0381847098469734,-0.244090735912323,-0.0820939764380455,-0.000236611769651,0.0,0.0,-0.8538866639137268,-0.2650209665298462
-0.2320160865783691,1.2404929399490356,-0.0337057039141655,-0.2500560879707336,-0.0822079703211784,-0.0022797775454819,0.0,0.0,-0.788735032081604,-0.6543205976486206
-0.2323543131351471,1.2347418069839478,-0.034691646695137,-0.255556970834732,-0.0813475772738456,0.0172079242765903,0.0,0.0,-0.7173574566841125,-0.6550542116165161
-0.2326984852552414,1.2288566827774048,-0.0363688766956329,-0.2614594995975494,-0.0794164612889289,0.0386221818625927,0.0,0.0,-0.7871856093406677,-0.3673954010009765
-0.2330034673213958,1.2228374481201172,-0.0323487743735313,-0.2674251198768616,-0.0775833800435066,0.0366616323590278,0.0,0.0,-0.7235069870948792,-0.5114715695381165
-0.2333124130964279,1.21669340133667,-0.0337211824953556,-0.2729297876358032,-0.0747882202267646,0.055903136730194,0.0,0.0,-0.8145272731781006,-0.4802402853965759
-0.2335853576660156,1.210415244102478,-0.0300206951797008,-0.2788956761360168,-0.072087861597538,0.0540070533752441,0.0,0.0,-0.7515915632247925,-0.3156822919845581
-0.2338238656520843,1.2040029764175415,-0.026483166962862,-0.2848614454269409,-0.0694805830717086,0.0521455109119415,0.0,0.0,-0.6438754796981812,-0.3330356478691101
-0.2340295314788818,1.1974568367004397,-0.0231102742254734,-0.2908271849155426,-0.0669645443558693,0.0503207221627235,0.0,0.0,-0.8916664123535156,-0.3537746667861938
-0.2342040538787841,1.1907765865325928,-0.019903365522623,-0.2967928647994995,-0.0645378157496452,0.0485343672335147,0.0,0.0,-0.7549750804901123,-0.4600038528442383
-0.2343490570783615,1.1839622259140017,-0.0168634373694658,-0.3027584850788116,-0.0621984042227268,0.0467880517244339,0.0,0.0,-0.7641043663024902,-0.7584929466247559
-0.2345382273197174,1.1770219802856443,-0.0230294130742549,-0.3082910478115082,-0.0581275150179863,0.0814178735017776,0.0,0.0,-0.871792733669281,-0.0250506997108459
-0.2347011119127273,1.169947862625122,-0.0203250907361507,-0.3142575323581695,-0.0541397146880626,0.0797560364007949,0.0,0.0,-0.9091106057167052,-0.4942538142204284
-0.2348394840955734,1.1627397537231443,-0.017788577824831,-0.320223867893219,-0.0502327792346477,0.0781385153532028,0.0,0.0,-0.8900948166847229,-0.2448872923851013
-0.2349549233913421,1.155397653579712,-0.0154194235801696,-0.326190173625946,-0.0464044399559497,0.0765666738152504,0.0,0.0,-0.9351298809051514,-0.7567151784896851
-0.2350962162017822,1.1479181051254272,-0.0191159471869468,-0.3322811722755432,-0.0414744466543197,0.0985997319221496,0.0,0.0,-0.9552279114723206,0.1812999248504638
-0.2352178543806076,1.1403045654296875,-0.0170787330716848,-0.3382481038570404,-0.0366183221340179,0.0971225425601005,0.0,0.0,-0.935716450214386,0.0383820533752441
-0.2353214770555496,1.132557392120361,-0.0152052985504269,-0.3442149460315704,-0.0318336002528667,0.0956943333148956,0.0,0.0,-0.943285882472992,-0.1608950495719909
