x_pos,y_pos,x_vel,y_vel,angle,ang_vel,leg_1,leg_2,main_booster,lat_booster
-0.0014711379772052,1.403368353843689,-0.1496765464544296,-0.3356386125087738,0.0022997921332716,0.0454056486487388,0.0,0.0,-0.6978409201140785,0.8395453125408179
-0.0028184889815747,1.3955796957015991,-0.1357665807008743,-0.346167117357254,0.003316945862025,0.0203459504991769,0.0,0.0,-0.8157633755977072,-0.9753192091207588
-0.0041740415617823,1.3875269889831543,-0.1386986523866653,-0.3579104542732239,0.0064282282255589,0.0622312799096107,0.0,0.0,-0.8106864573195609,-0.7015018073308731
-0.0055449483916163,1.3792153596878052,-0.1425249278545379,-0.3694400191307068,0.0118053816258907,0.1075526475906372,0.0,0.0,-0.3244058128440648,0.800596800852853
-0.0067896842956542,1.3706517219543457,-0.1285892874002456,-0.3806434869766235,0.0158778503537178,0.0814567655324935,0.0,0.0,-0.6954381478370799,-0.5993413673489691
-0.0080219265073537,1.3618305921554563,-0.1289076805114746,-0.3921200931072235,0.0214989073574543,0.1124312728643417,0.0,0.0,-0.8273545817765189,0.8524228128020608
-0.0091418270021677,1.3527559041976929,-0.1166721433401107,-0.4033951163291931,0.0261364728212356,0.0927597433328628,0.0,0.0,-0.015650581186609,0.6344639489106846
-0.0101526258513331,1.343429684638977,-0.1048363074660301,-0.4145676493644714,0.0298597924411296,0.0744732245802879,0.0,0.0,-0.6968780464537871,0.6244665733372534
-0.0110695837065577,1.3338567018508911,-0.0949005112051963,-0.4255363047122955,0.0330328419804573,0.0634667128324508,0.0,0.0,-0.3712448836438924,0.9538182508315276
-0.0118669513612985,1.3240375518798828,-0.0817239955067634,-0.4364553391933441,0.0349893346428871,0.0391337648034095,0.0,0.0,-0.6490511255914417,0.9872313034118522
-0.0125321391969919,1.3139677047729492,-0.0669261366128921,-0.4475543200969696,0.035390093922615,0.0080158151686191,0.0,0.0,-0.8418392540200226,-0.6447863847803165
-0.0131999971345067,1.3036384582519531,-0.0690274834632873,-0.4591358006000519,0.0376083888113498,0.0443699993193149,0.0,0.0,0.4403608683164719,-0.684364558285685
-0.0137788774445652,1.293974995613098,-0.0624491386115551,-0.4296066462993622,0.0421214140951633,0.0902687981724739,0.0,0.0,-0.4458658559181938,-0.6018281044094902
-0.0143603328615427,1.2840477228164673,-0.0644839406013488,-0.4414034783840179,0.0483936369419097,0.1254555881023407,0.0,0.0,0.8881685757361553,0.843607973545917
-0.0147068975493311,1.2753032445907593,-0.0403794161975383,-0.3888409733772278,0.054065465927124,0.1134470328688621,0.0,0.0,-0.3907499684432025,-0.636790151915504
-0.0150578496977686,1.2662924528121948,-0.0425985753536224,-0.400763988494873,0.0614874213933944,0.1484525948762893,0.0,0.0,-0.403343237694536,-0.940019573131267
-0.0154319759458303,1.257032871246338,-0.047075018286705,-0.4119635820388794,0.0710657313466072,0.1915836036205291,0.0,0.0,-0.8265549753038195,-0.6786487487134885
-0.0158138275146484,1.2475090026855469,-0.0496055819094181,-0.4238629043102264,0.0823989585041999,0.2266847193241119,0.0,0.0,-0.4740215966847834,0.5177102380940736
-0.0161173827946186,1.2377420663833618,-0.0413070693612098,-0.434724360704422,0.0932631120085716,0.2173028886318206,0.0,0.0,0.2952560627063885,0.8472067750370842
-0.0164381973445415,1.2283828258514404,-0.0419759973883628,-0.4166164994239807,0.1031047254800796,0.1968496441841125,0.0,0.0,-0.0715174703544334,-0.8038829800037264
-0.0167814251035451,1.218767762184143,-0.0462231710553169,-0.4281970262527466,0.1149441674351692,0.2368100583553314,0.0,0.0,-0.4236839720363343,-0.9016042589632712
-0.0171677581965923,1.2088828086853027,-0.05303955078125,-0.4404993057250976,0.1292882263660431,0.2869064211845398,0.0,0.0,0.7901682265992349,0.9796041329866744
-0.0173733718693256,1.1996670961380005,-0.0339572392404079,-0.4108047187328338,0.1426537632942199,0.2673346996307373,0.0,0.0,-0.9441374991146074,-0.801368198280804
-0.0176115036010742,1.1901782751083374,-0.039344098418951,-0.4232851266860962,0.158188059926033,0.3107137382030487,0.0,0.0,-0.4786333640328784,-0.6065051430949142
-0.0178881641477346,1.1804261207580566,-0.045413926243782,-0.4354121088981628,0.1759713441133499,0.3556976914405823,0.0,0.0,0.8883633479066348,-0.9401349642916066
-0.0185403823852539,1.1715283393859863,-0.0852509886026382,-0.3979484140872955,0.1960764676332473,0.4021023213863373,0.0,0.0,-0.5509038974815446,-0.6093594148936201
-0.0192237850278615,1.1623719930648804,-0.0902241915464401,-0.4099956452846527,0.2181538194417953,0.441547155380249,0.0,0.0,0.3021849728674339,-0.6598878660640591
-0.0201970096677541,1.1538739204406738,-0.120977982878685,-0.3813680112361908,0.2421275228261947,0.479474127292633,0.0,0.0,-0.8379058921258831,0.6335085997706609
-0.0211208350956439,1.145148754119873,-0.1156625151634216,-0.3918027579784393,0.2658588290214538,0.4746261537075043,0.0,0.0,-0.8274464461316673,-0.5739282654047835
-0.0220792777836322,1.1361572742462158,-0.1208858489990234,-0.4043779671192169,0.2915610671043396,0.5140447020530701,0.0,0.0,0.9774622356922902,0.51747249974951
-0.0232603065669536,1.1284101009368896,-0.1427439749240875,-0.3494566679000854,0.3170449733734131,0.5096781253814697,0.0,0.0,-0.6370381712913513,0.9864444732666016
-0.0243697166442871,1.1204439401626587,-0.1344348490238189,-0.3593842685222626,0.3415531516075134,0.4901636242866516,0.0,0.0,-0.5412883758544922,0.9473363161087036
-0.0254160873591899,1.11227285861969,-0.1270730197429657,-0.3686531186103821,0.365149438381195,0.4719257950782776,0.0,0.0,-0.5172516703605652,0.9885776042938232
-0.0263926498591899,1.1038848161697388,-0.1189218610525131,-0.3783882856369018,0.3877133429050445,0.4512782096862793,0.0,0.0,-0.6003910303115845,0.98736310005188
-0.0272950176149606,1.0952975749969482,-0.1100786179304122,-0.3872137069702148,0.4089571833610534,0.4248770177364349,0.0,0.0,-0.6568309664726257,0.996529221534729
-0.0281259529292583,1.0865180492401123,-0.1015137881040573,-0.3956504762172699,0.4288408160209656,0.397672563791275,0.0,0.0,-0.8062488436698914,0.9897241592407228
-0.0288902278989553,1.0775328874588013,-0.0935796648263931,-0.4046906232833862,0.4475406110286712,0.3739957213401794,0.0,0.0,-0.7727408409118652,0.9976911544799804
-0.0295852664858102,1.068360447883606,-0.0852133333683013,-0.4127809107303619,0.4647941291332245,0.3450708985328674,0.0,0.0,-0.7671230435371399,0.997361660003662
-0.0302236564457416,1.0589988231658936,-0.0783310756087303,-0.4210082292556762,0.4808585047721863,0.3212873935699463,0.0,0.0,-0.8258122801780701,0.9830322265625
-0.0307973865419626,1.0494455099105835,-0.0705180242657661,-0.429238885641098,0.4955382645130157,0.293595016002655,0.0,0.0,-0.7971219420433044,0.9938335418701172
-0.0313254371285438,1.0396959781646729,-0.064994178712368,-0.4377666413784027,0.5092620253562927,0.2744752466678619,0.0,0.0,-0.7188125252723694,0.978668451309204
-0.0317813865840435,1.0297627449035645,-0.0561850182712078,-0.4454727470874786,0.5212766528129578,0.2402922660112381,0.0,0.0,-0.6132063269615173,0.9794272184371948
-0.0321666710078716,1.019636869430542,-0.047652281820774,-0.4535643458366394,0.5316777229309082,0.2080208510160446,0.0,0.0,-0.8064702749252319,0.9764246940612792
-0.0324862487614154,1.0093268156051636,-0.0395962111651897,-0.461244523525238,0.5404456853866577,0.1753588914871215,0.0,0.0,-0.8129091262817383,0.9863691329956056
-0.0327526107430458,0.9988123178482056,-0.0332365334033966,-0.4699781537055969,0.5480539202690125,0.1521651595830917,0.0,0.0,-0.8761476874351501,0.964327335357666
-0.0329600349068641,0.9881021976470948,-0.0260850228369236,-0.4781899750232696,0.554243803024292,0.1237984076142311,0.0,0.0,-0.9533579349517822,0.9642550945281982
-0.0331097617745399,0.9772025942802428,-0.019029464572668,-0.4861063957214355,0.5589527487754822,0.0941785275936126,0.0,0.0,-0.9787110686302184,0.963861346244812
-0.0332272537052631,0.966109812259674,-0.0149977030232548,-0.4943805634975433,0.5627455115318298,0.0758548155426979,0.0,0.0,-0.9375032782554626,0.9493390321731568
-0.0333155617117881,0.9548195004463196,-0.0113816689699888,-0.5028676986694336,0.5657159090042114,0.0594090148806571,0.0,0.0,-0.9777591824531556,0.98858380317688
-0.033357810229063,0.943335771560669,-0.005678822286427,-0.5110054612159729,0.5674225687980652,0.0341331139206886,0.0,0.0,-0.9851466417312622,0.9569592475891112
-0.0333405509591102,0.931675374507904,0.0017729063984006,-0.5182124376296997,0.5673638582229614,-0.0011743961367756,0.0,0.0,-0.96806001663208,0.9948718547821044
-0.0332859978079795,0.9198266267776488,0.0065031708218157,-0.5261768698692322,0.5661366581916809,-0.0245441421866416,0.0,0.0,-0.9723138213157654,0.9981776475906372
-0.033172033727169,0.907796025276184,0.0139431562274694,-0.5336110591888428,0.56316077709198,-0.0595181509852409,0.0,0.0,-0.9759563207626344,0.9978463649749756
-0.0330163016915321,0.8955851793289185,0.0193221904337406,-0.541133463382721,0.5587877631187439,-0.0874601155519485,0.0,0.0,-0.9919670820236206,0.9986331462860109
-0.0327986702322959,0.8831977844238281,0.0271604806184768,-0.5483168363571167,0.5525197386741638,-0.1253603845834732,0.0,0.0,-0.9925253391265868,0.9909582138061525
-0.0325465202331543,0.8706074357032776,0.031509019434452,-0.5570045709609985,0.5452371835708618,-0.1456514000892639,0.0,0.0,-0.995123028755188,0.9795469045639038
-0.0322450622916221,0.857843279838562,0.0379073433578014,-0.5641891956329346,0.5362812876701355,-0.1791170835494995,0.0,0.0,-0.9923492074012756,0.9958131313323976
-0.0318869575858116,0.844905436038971,0.0452590622007846,-0.5713111758232117,0.5254664421081543,-0.2162967920303344,0.0,0.0,-0.9977831244468688,0.9791200160980223
-0.0314825996756553,0.8317911028862,0.0513677112758159,-0.5786879062652588,0.5130468606948853,-0.2483915835618972,0.0,0.0,-0.9951692819595336,0.8343832492828369
-0.0310560222715139,0.818475604057312,0.0543757453560829,-0.5874613523483276,0.4998151957988739,-0.2646331787109375,0.0,0.0,-0.9939814209938048,0.8201873302459717
-0.030591582879424,0.8049545288085938,0.0592571906745433,-0.5963405966758728,0.485453337430954,-0.2872374057769775,0.0,0.0,-0.9893829226493835,0.8601734638214111
-0.0301050189882516,0.7912275195121765,0.0622754916548728,-0.6053770780563354,0.4703077971935272,-0.302910715341568,0.0,0.0,-0.988825023174286,-0.7184010148048401
-0.0296839717775583,0.7772190570831299,0.0540855899453163,-0.6185954213142395,0.457087367773056,-0.2644083201885223,0.0,0.0,-0.9907127022743224,0.909586787223816
-0.0292233470827341,0.7630112171173096,0.0592620894312858,-0.6272023916244507,0.4426074922084808,-0.2895977199077606,0.0,0.0,-0.9711129069328308,0.6491453647613525
-0.0287415497004985,0.748582661151886,0.0620640106499195,-0.6369567513465881,0.4274755716323852,-0.3026381731033325,0.0,0.0,-0.9369562864303588,0.6918860673904419
-0.0282479282468557,0.7339317798614502,0.063761331140995,-0.646858811378479,0.4119056165218353,-0.3113989233970642,0.0,0.0,-0.8828420639038086,0.542815089225769
-0.0277429576963186,0.7190637588500977,0.0654305592179298,-0.6565374135971069,0.3958595693111419,-0.3209209740161896,0.0,0.0,-0.902564525604248,0.628387451171875
-0.0272119529545307,0.7039720416069031,0.0688715949654579,-0.6664496064186096,0.3790369629859924,-0.3364522159099579,0.0,0.0,-0.946447253227234,0.5293619632720947
-0.0266700740903615,0.6886606812477112,0.0705179050564765,-0.6762697100639343,0.3617478013038635,-0.3457831144332886,0.0,0.0,-0.8379172086715698,0.6956719160079956
-0.0261121746152639,0.6731217503547668,0.0727253556251525,-0.6864492297172546,0.3439280390739441,-0.3563953042030334,0.0,0.0,-0.8889222145080566,-0.5634217858314514
-0.0256307609379291,0.6573094725608826,0.063273474574089,-0.6992312669754028,0.3280974626541137,-0.3166115880012512,0.0,0.0,-0.7087566256523132,0.5692751407623291
-0.025132942944765,0.6412709951400757,0.0655489563941955,-0.7093327045440674,0.311694324016571,-0.3280625939369201,0.0,0.0,-0.7355663180351257,0.8008540868759155
-0.0246179588139057,0.6250137686729431,0.0679920837283134,-0.7190987467765808,0.2946387529373169,-0.3411116302013397,0.0,0.0,-0.8129904270172119,0.3456708192825317
-0.0241309162229299,0.6085065007209778,0.0646680146455764,-0.7305236458778381,0.2782115638256073,-0.3285436034202575,0.0,0.0,0.3064205646514892,0.8954317569732666
-0.0237170215696096,0.5922044515609741,0.058616854250431,-0.7213481664657593,0.260569155216217,-0.3528489470481872,0.0,0.0,-0.3356871604919433,-0.6729655861854553
-0.023375129327178,0.5756269693374634,0.0497021488845348,-0.7340971827507019,0.2447439134120941,-0.3165045082569122,0.0,0.0,-0.2106140255928039,-0.007648766040802
-0.0230609886348247,0.5587981939315796,0.0464074835181236,-0.7455158829689026,0.2295075953006744,-0.3047263026237488,0.0,0.0,0.5500764846801758,0.1133445501327514
-0.0229514129459857,0.5428022742271423,0.0254723038524389,-0.7087332010269165,0.214809238910675,-0.2939671277999878,0.0,0.0,-0.282218337059021,0.5635472536087036
-0.0228209495544433,0.5265763401985168,0.0283295400440692,-0.7190015912055969,0.1993807554244995,-0.3085696101188659,0.0,0.0,0.2177925109863281,0.5416972637176514
-0.0228851325809955,0.5109758377075195,0.0096549550071358,-0.6912736296653748,0.1832233071327209,-0.3231493830680847,0.0,0.0,-0.5061313509941101,-0.0911992788314819
-0.0229764934629201,0.4951236248016357,0.0064449184574186,-0.702689528465271,0.1675923019647598,-0.3126202225685119,0.0,0.0,0.4590660333633423,0.0917524099349975
-0.0231763832271099,0.4800608456134796,-0.0050318306311964,-0.66783607006073,0.1526350229978561,-0.2991455197334289,0.0,0.0,-0.4018394351005554,0.2994503974914551
-0.0234031677246093,0.4647457301616668,-0.0081828422844409,-0.679247260093689,0.1381686478853225,-0.2893271148204803,0.0,0.0,-0.3467761278152466,-0.1305717825889587
-0.0236567500978708,0.4491779804229736,-0.011299854144454,-0.6906565427780151,0.1241744309663772,-0.279884397983551,0.0,0.0,0.8051567077636719,0.6243257522583008
-0.0239965431392192,0.4345045089721679,-0.0190723147243261,-0.6509807109832764,0.109349101781845,-0.2965067028999328,0.0,0.0,-0.6290373206138611,-0.117270827293396
-0.0243627540767192,0.4195783138275146,-0.0221122447401285,-0.6623893976211548,0.0949564278125763,-0.2878533899784088,0.0,0.0,0.2625852823257446,0.0796271562576294
-0.0247617717832326,0.4047922790050506,-0.0258705131709575,-0.6563262343406677,0.0810595229268074,-0.2779385447502136,0.0,0.0,0.2431209087371826,-0.1528537273406982
-0.0251413341611623,0.3902143537998199,-0.0246440507471561,-0.6472409963607788,0.0678761079907417,-0.2636681795120239,0.0,0.0,0.1559300422668457,-0.1541659832000732
-0.0254707336425781,0.3759910762310028,-0.0204685553908348,-0.6316258311271667,0.0555376820266246,-0.2467681169509887,0.0,0.0,-0.5449512600898743,-0.7094596028327942
-0.0258681289851665,0.3615045547485351,-0.0287088751792907,-0.6434685587882996,0.0446321740746498,-0.218110129237175,0.0,0.0,0.5056143999099731,0.1164047718048095
-0.0263260845094919,0.3477891683578491,-0.0350551418960094,-0.6092835068702698,0.0340267457067966,-0.2121087312698364,0.0,0.0,-0.2376629710197448,-0.2901126146316528
-0.0268084518611431,0.3338192403316498,-0.0378017947077751,-0.6206802129745483,0.0237222984433174,-0.2060889899730682,0.0,0.0,-0.2781632542610168,0.0035797357559204
-0.0273149497807025,0.3195945024490356,-0.0404907688498497,-0.6320760250091553,0.0136954803019762,-0.2005362808704376,0.0,0.0,0.6556078195571899,0.5464251041412354
-0.0276980400085449,0.3056031167507171,-0.0275952573865652,-0.6217746138572693,0.0031216896604746,-0.2114759981632232,0.0,0.0,0.8955302238464355,-0.8027468323707581
-0.028235625475645,0.2922303974628448,-0.0447547510266304,-0.5943520665168762,-0.0057651363313198,-0.1777365505695343,0.0,0.0,0.2324376106262207,-0.2724016308784485
-0.028729248791933,0.2795673012733459,-0.0408666506409645,-0.5628615617752075,-0.0141537599265575,-0.1677723824977874,0.0,0.0,0.4513729810714721,-0.827395498752594
-0.0293269157409667,0.2674001455307007,-0.0530792661011219,-0.5408393144607544,-0.0207457821816205,-0.1318404674530029,0.0,0.0,-0.0631918311119079,0.2192718982696533
-0.0299465171992778,0.2549773752689361,-0.0554477795958519,-0.5522290468215942,-0.0271795075386762,-0.1286745518445968,0.0,0.0,0.7189099788665771,-0.4094336032867431
-0.0304774288088083,0.2433838695287704,-0.0471426285803318,-0.5153893232345581,-0.0330601260066032,-0.117612324655056,0.0,0.0,0.6024096012115479,-0.8656947612762451
-0.0311318393796682,0.2326377928256988,-0.0612498633563518,-0.4776985347270965,-0.0371945947408676,-0.0826897174119949,0.0,0.0,-0.295326292514801,-0.0945520997047424
-0.0318068489432334,0.2216358035802841,-0.0634041279554367,-0.4890860617160797,-0.0412421002984046,-0.0809499248862266,0.0,0.0,0.5245958566665649,-0.7155078053474426
-0.0325650200247764,0.2110691219568252,-0.0731722563505172,-0.4697067141532898,-0.043850265443325,-0.052163541316986,0.0,0.0,-0.7917568683624268,-0.2456041574478149
-0.0333427414298057,0.2002462297677993,-0.0751766040921211,-0.4810934960842132,-0.0464178286492824,-0.0513512007892131,0.0,0.0,0.377677321434021,-0.1245048642158508
-0.0342446342110633,0.1898304522037506,-0.0870234444737434,-0.4630254209041595,-0.049547828733921,-0.0625998601317405,0.0,0.0,-0.7005348205566406,-0.6178734302520752
-0.0352051742374897,0.1791651993989944,-0.0939113944768905,-0.4740834832191467,-0.0516683012247085,-0.0424093678593635,0.0,0.0,-0.2093509435653686,0.2190706729888916
-0.0361837372183799,0.1682438254356384,-0.0956830903887748,-0.4854702651500702,-0.0538148768246173,-0.0429315343499183,0.0,0.0,0.3095182180404663,0.5237586498260498
-0.0369808189570903,0.1579628139734268,-0.0767194405198097,-0.4570454955101013,-0.056769847869873,-0.059099655598402,0.0,0.0,-0.1736466884613037,-0.0420218706130981
-0.0377947799861431,0.1474257260560989,-0.0783326178789138,-0.4684329330921173,-0.059793010354042,-0.0604630783200264,0.0,0.0,0.7558786869049072,0.618173360824585
-0.0383584983646869,0.1379807144403457,-0.0523995943367481,-0.419944703578949,-0.0637238174676895,-0.078616052865982,0.0,0.0,0.1767634153366089,-0.2507033944129944
-0.0388572700321674,0.1288925260305404,-0.0460537075996398,-0.4040860831737518,-0.0675113201141357,-0.0757500529289245,0.0,0.0,0.4918088912963867,-0.6086992621421814
-0.0393761619925498,0.120663434267044,-0.0491458401083946,-0.3658636212348938,-0.0702281072735786,-0.0543356761336326,0.0,0.0,-0.4639985561370849,-0.6447246074676514
-0.039954949170351,0.1121888756752014,-0.0561558976769447,-0.3767305314540863,-0.0719343423843383,-0.0341248288750648,0.0,0.0,0.6470553874969482,-0.4228591322898865
-0.0404345504939556,0.1041334494948387,-0.0464469902217388,-0.3580923676490783,-0.0734321251511573,-0.0299552623182535,0.0,0.0,0.6086065769195557,-0.0911904573440551
-0.0410018935799598,0.0967357009649276,-0.0544840767979621,-0.3288984894752502,-0.0756607204675674,-0.0445718765258789,0.0,0.0,0.1675307750701904,-0.5594306588172913
-0.0416983589529991,0.0896410793066024,-0.0681390911340713,-0.3153943419456482,-0.0771539583802223,-0.0298647172749042,0.0,0.0,0.1620640754699707,0.7593178749084473
-0.0423335060477256,0.0828782618045806,-0.0602538995444774,-0.3007458746433258,-0.0803876519203186,-0.0646736770868301,0.0,0.0,0.0688763856887817,0.3023288249969482
-0.042935561388731,0.0763734430074691,-0.0567888133227825,-0.2892865538597107,-0.0837705060839653,-0.0676574930548667,0.0,0.0,0.2959636449813843,-0.4814997911453247
-0.0434226989746093,0.0700216889381408,-0.0455262139439582,-0.28248131275177,-0.0869207307696342,-0.063004657626152,0.0,0.0,0.015694260597229,-0.0144774317741394
-0.0438236221671104,0.064034566283226,-0.036940474063158,-0.266282171010971,-0.0900485590100288,-0.0625563934445381,0.0,0.0,-0.1721932291984558,-0.1940381526947021
-0.0442340858280658,0.0577916726469993,-0.0376228913664817,-0.2776713371276855,-0.0934439301490783,-0.0679071992635726,0.0,0.0,0.4100922346115112,-0.4056210517883301
-0.0445745475590229,0.05168317258358,-0.0305925961583852,-0.2717095017433166,-0.0968677550554275,-0.0684764981269836,0.0,0.0,0.4205167293548584,-0.5411056876182556
