x_pos,y_pos,x_vel,y_vel,angle,ang_vel,leg_1,leg_2,main_booster,lat_booster
-0.0016070365672931,1.403428316116333,-0.1628192514181137,-0.332969605922699,0.0018895418616011,0.0372822731733322,0.0,0.0,-0.6038707915679016,0.8204311563973303
-0.0032281875610351,1.3957595825195312,-0.1622591912746429,-0.3408275246620178,0.0020313260611146,0.0028367519844323,0.0,0.0,-0.4131982213465073,-0.8753182222017073
-0.0049866675399243,1.3878878355026243,-0.1774249076843261,-0.3498614430427551,0.0035826175007969,0.0310290995985269,0.0,0.0,-0.9930871250529985,0.924588541975606
-0.00677070626989,1.379817008972168,-0.1785457134246826,-0.3587007224559784,0.0037251997273415,0.0028517164755612,0.0,0.0,-0.7753518596274387,-0.8376302447214314
-0.0086902622133493,1.3715524673461914,-0.1934781968593597,-0.367319256067276,0.0052319332025945,0.0301373898983001,0.0,0.0,0.0487600172190134,0.8689462798001732
-0.0105242729187011,1.3636090755462646,-0.1832697093486786,-0.3530448675155639,0.0051025343127548,-0.0025880928151309,0.0,0.0,0.8702641283549484,0.771182479040023
-0.0124123571440577,1.356450080871582,-0.1871218830347061,-0.3181699812412262,0.0034406064078211,-0.0332417115569114,0.0,0.0,0.084593765869847,0.6246043110326853
-0.0142256738618016,1.349734663963318,-0.1786362826824188,-0.2984603345394134,0.0007608707528561,-0.0535997226834297,0.0,0.0,0.5947001645541146,-0.7009651982260093
-0.0161910057067871,1.344042181968689,-0.1952578574419021,-0.2529979944229126,-0.0005023382836952,-0.0252661202102899,0.0,0.0,-0.5444952959854661,-0.8750389757049228
-0.0183086395263671,1.3381589651107788,-0.2122968435287475,-0.2614789605140686,2.397202479187399e-05,0.0105272633954882,0.0,0.0,0.3752166987715448,-0.570210890605604
-0.0204762462526559,1.332822322845459,-0.2186679393053054,-0.237186461687088,0.0019110491266474,0.0377450361847877,0.0,0.0,0.3222725298062669,0.6162277513869057
-0.0226168632507324,1.3279224634170532,-0.2149114906787872,-0.2177673280239105,0.0027517862617969,0.0168163571506738,0.0,0.0,-0.5686161034314021,0.5088602316491633
-0.0247915275394916,1.322829246520996,-0.2171320468187332,-0.22636179625988,0.0024152947589755,-0.0067302822135388,0.0,0.0,0.0266546180464686,0.5130761455909243
-0.0269615165889263,1.3178666830062866,-0.21575827896595,-0.2205623686313629,0.0011946953600272,-0.0244144555181264,0.0,0.0,0.155939892478879,-0.9246301220292592
-0.0291717536747455,1.3135826587677002,-0.2217313945293426,-0.1904039531946182,0.0018887901678681,0.0138833867385983,0.0,0.0,0.2433197322443163,-0.7174032096897989
-0.0314286239445209,1.3094295263290403,-0.2280043065547943,-0.184587150812149,0.004176580812782,0.0457599982619285,0.0,0.0,0.9444312373294328,-0.621251794649625
-0.033647634088993,1.3065985441207886,-0.2259801179170608,-0.1258355230093002,0.0082159619778394,0.0807948261499404,0.0,0.0,0.1578118319746899,-0.9442669816471893
-0.0359078422188758,1.3039579391479492,-0.232061818242073,-0.1174058765172958,0.0141909606754779,0.1195109337568283,0.0,0.0,-0.4545412415892358,-0.5808833124166435
-0.0382883064448833,1.3011265993118286,-0.2451081275939941,-0.1259273439645767,0.0211662463843822,0.1395183056592941,0.0,0.0,0.0289366017856509,-0.7770998134238689
-0.040877629071474,1.298624038696289,-0.2675527930259704,-0.1113627254962921,0.0296874102205038,0.1704388856887817,0.0,0.0,0.9033157808760676,-0.9898669219004684
-0.0434888824820518,1.2972363233566284,-0.2720227837562561,-0.0619259253144264,0.0404707603156566,0.2156863212585449,0.0,0.0,-0.8149007194289131,-0.7407640604410661
-0.0462384223937988,1.2956463098526,-0.2873306274414062,-0.0710441097617149,0.0527214482426643,0.2450357377529144,0.0,0.0,0.1222746026708652,0.7143684277788305
-0.0489314086735248,1.294427514076233,-0.280364841222763,-0.0545949675142765,0.0636759772896766,0.2191102504730224,0.0,0.0,-0.6459916243873121,0.7053802254605173
-0.0516421310603618,1.2930119037628174,-0.280569463968277,-0.0633461624383926,0.0730839148163795,0.188175767660141,0.0,0.0,0.6765240187976911,-0.6297334019350898
-0.0546855926513671,1.2923576831817627,-0.3147319555282593,-0.0296162571758031,0.0833875611424446,0.2060912549495697,0.0,0.0,-0.986673268300542,0.8467219896505577
-0.0577566139400005,1.2914979457855225,-0.3162155747413635,-0.0387474261224269,0.0924226269125938,0.1807010471820831,0.0,0.0,-0.5016785583890744,-0.8857708396825823
-0.0609757415950298,1.290439248085022,-0.3327946960926056,-0.0477646179497242,0.1032180115580558,0.2159076929092407,0.0,0.0,0.0416971465125393,-0.840794207502007
-0.0644894614815712,1.2899459600448608,-0.3639120459556579,-0.0228369794785976,0.1156731694936752,0.2491031885147094,0.0,0.0,0.5546046673378269,-0.9213078879516888
-0.0683752074837684,1.2903157472610474,-0.4027731418609619,0.0152784753590822,0.1297933608293533,0.2824040949344635,0.0,0.0,-0.5495387273411638,-0.890028813980788
-0.0724095329642295,1.2904751300811768,-0.4194496572017669,0.005607636179775,0.1457497924566269,0.319128543138504,0.0,0.0,0.657804726746605,-0.647092207678417
-0.0766745582222938,1.291703224182129,-0.4437994360923767,0.0527964420616626,0.1630333811044693,0.3456719219684601,0.0,0.0,-0.5329054594039917,0.9985159635543824
-0.0809462517499923,1.2927497625350952,-0.4426819682121277,0.0447335802018642,0.1785650849342346,0.3106341361999511,0.0,0.0,-0.6018897891044617,0.9957437515258788
-0.0852267295122146,1.2936301231384275,-0.4417670667171478,0.0374163724482059,0.1923493593931198,0.2756857872009277,0.0,0.0,-0.562577486038208,0.9954655170440674
-0.0895101577043533,1.294327735900879,-0.4402476251125335,0.029415912926197,0.2043296247720718,0.2396051883697509,0.0,0.0,-0.8364967107772827,0.9877338409423828
-0.093787670135498,0.0,-0.4375733435153961,0.0221399944275617,0.2142415940761566,0.1982392817735672,0.0,0.0,-0.5917946696281433,0.9614481925964355
-0.0980608016252517,0.0,-0.4351086020469665,0.0151228141039609,0.222122773528099,0.1576237380504608,0.0,0.0,-0.8087627291679382,0.9828047752380372
-0.1023304015398025,1.2954134941101074,-0.4328488409519195,0.0075542614795267,0.2280779629945755,0.1191041693091392,0.0,0.0,-0.6723617911338806,0.959897756576538
-0.1065911278128624,1.2954421043395996,-0.4298695623874664,0.000683105434291,0.231929063796997,0.0770220011472702,0.0,0.0,-0.8097370862960815,0.9645552635192872
-0.1108510941267013,1.2953096628189087,-0.4279562532901764,-0.0061984746716916,0.2339078187942505,0.0395750403404235,0.0,0.0,-0.9264323711395264,0.8816744089126587
-0.1151059120893478,1.2950072288513184,-0.4255363047122955,-0.0134496632963418,0.2339736223220825,0.0013162172399461,0.0,0.0,-0.989496648311615,0.9762686491012572
-0.1193639785051345,1.2945386171340942,-0.4242154657840729,-0.0205767732113599,0.2323578745126724,-0.032314546406269,0.0,0.0,-0.9141051769256592,0.983562707901001
-0.123592659831047,1.2939040660858154,-0.4188593327999115,-0.0275820586830377,0.2282947301864624,-0.0812629461288452,0.0,0.0,-0.9974268674850464,0.9755964279174804
-0.1277926415205001,1.293093204498291,-0.4136770367622375,-0.0350685492157936,0.2218927145004272,-0.128039926290512,0.0,0.0,-0.9848318099975586,0.975592851638794
-0.1319628655910492,1.2921146154403689,-0.4083731174468994,-0.0422182716429233,0.2131350189447403,-0.1751534789800644,0.0,0.0,-0.9945448637008668,0.7713147401809692
-0.1361325234174728,1.290950059890747,-0.4067816138267517,-0.0503304712474346,0.2028641700744629,-0.2054165601730346,0.0,0.0,-0.9999010562896729,-0.1893062591552734
-0.1403559744358062,1.2895903587341309,-0.4120706021785736,-0.0590550564229488,0.1925161331892013,-0.2069603502750396,0.0,0.0,-0.9996944665908812,0.1437324285507202
-0.1446309983730316,1.288035869598389,-0.4171175956726074,-0.0677797868847847,0.1820865124464035,-0.2085925787687301,0.0,0.0,-0.9999068975448608,0.2712746858596802
-0.1489549577236175,1.2862863540649414,-0.4219098091125488,-0.0765046700835228,0.1715708523988723,-0.2103131264448166,0.0,0.0,-0.9904971718788148,0.1837207078933715
-0.1533252745866775,1.2843420505523682,-0.4264346957206726,-0.0852297395467758,0.1609647721052169,-0.2121214866638183,0.0,0.0,-0.996189296245575,-0.1413933038711547
-0.1577391624450683,1.282202959060669,-0.430679976940155,-0.0939549952745437,0.1502639055252075,-0.2140171974897384,0.0,0.0,-0.9986093044281006,0.6296701431274414
-0.1621328294277191,1.2798826694488523,-0.4269763827323913,-0.1019151508808136,0.1379044204950332,-0.2471901476383209,0.0,0.0,-0.9945366978645324,-0.2373493909835815
-0.1665641814470291,1.2773680686950684,-0.4306267201900482,-0.1106438636779785,0.1254415363073349,-0.2492576837539672,0.0,0.0,-0.987739086151123,0.2906012535095215
-0.1710302382707595,1.2746593952178955,-0.4339638352394104,-0.1193728744983673,0.1128710061311721,-0.2514101564884186,0.0,0.0,-0.988896906375885,0.8708837032318115
-0.1754596680402755,1.2717764377593994,-0.4283987581729889,-0.1270944029092788,0.098438523709774,-0.2886497378349304,0.0,0.0,-0.9980216026306152,0.1060917377471923
-0.1799172461032867,1.2687000036239624,-0.4310806691646576,-0.1358280628919601,0.0838901624083519,-0.2909672856330871,0.0,0.0,-0.9921284914016724,-0.0549023151397705
-0.1843996942043304,1.265430212020874,-0.4334235787391662,-0.1445621401071548,0.0692218765616417,-0.2933658063411712,0.0,0.0,-0.9129241704940796,0.1758968830108642
-0.1889034211635589,1.2619669437408447,-0.4354210793972015,-0.1532966345548629,0.0544296875596046,-0.2958436608314514,0.0,0.0,-0.9495388865470886,0.6680833101272583
-0.1933603286743164,1.2583186626434326,-0.4289356768131256,-0.1616153568029403,0.0378749333322048,-0.3310953974723816,0.0,0.0,-0.9740526080131532,0.6109285354614258
-0.1977774649858474,1.2544877529144287,-0.4234300553798675,-0.1699034124612808,0.0198217127472162,-0.3610644936561584,0.0,0.0,-0.9779168963432312,0.2317601442337036
-0.2022053301334381,1.250464916229248,-0.4243670403957367,-0.1786477267742157,0.0016335250111296,-0.363763689994812,0.0,0.0,-0.9681025743484496,-0.8445891737937927
-0.2067016065120697,1.2462424039840698,-0.4326203763484955,-0.1877269595861435,-0.0151563547551631,-0.3357976973056793,0.0,0.0,-0.9144442081451416,-0.3582222461700439
-0.2112015187740326,1.2418276071548462,-0.4328457713127136,-0.1964680105447769,-0.0320880971848964,-0.3386349678039551,0.0,0.0,-0.9650824069976808,-0.9116244316101074
-0.2157589495182037,1.2372207641601562,-0.4399143755435943,-0.2051581591367721,-0.0477237962186336,-0.3127139210700989,0.0,0.0,-0.9844965934753418,-0.3487731218338012
-0.2203130275011062,1.2324211597442627,-0.4394368231296539,-0.2138964831829071,-0.0635075569152832,-0.3156754374504089,0.0,0.0,-0.7075257897377014,0.2382893562316894
-0.2248601466417312,1.2274287939071655,-0.4386147558689117,-0.2226353734731674,-0.0794421806931495,-0.3186925053596496,0.0,0.0,-0.8660624623298645,0.7115883827209473
-0.2293524295091629,1.2222392559051514,-0.431856244802475,-0.2316539585590362,-0.0966561809182167,-0.3442801237106323,0.0,0.0,-0.8874086141586304,0.174149751663208
-0.2338310778141021,1.21685791015625,-0.4303656220436096,-0.2403971999883651,-0.1140258982777595,-0.3473943471908569,0.0,0.0,-0.7393904328346252,0.4256751537322998
-0.2382928431034088,1.2112843990325928,-0.4285528063774109,-0.2491410821676254,-0.1315534263849258,-0.3505507707595825,0.0,0.0,-0.8269572854042053,0.4265599250793457
-0.2427345216274261,1.2055193185806274,-0.4264271259307861,-0.2578856348991394,-0.1492406576871872,-0.3537445664405823,0.0,0.0,-0.9660229086875916,-0.6662604212760925
-0.2472136914730072,1.199573040008545,-0.4315928816795349,-0.266000360250473,-0.1655498743057251,-0.3261842727661133,0.0,0.0,-0.4203909635543823,0.097770094871521
-0.2516668438911438,1.193434476852417,-0.4288713932037353,-0.274741917848587,-0.182021826505661,-0.3294393122196197,0.0,0.0,-0.2147147059440612,0.5861883163452148
-0.2560428977012634,1.1870919466018677,-0.4198371767997741,-0.2841743528842926,-0.1998927891254425,-0.3574195504188537,0.0,0.0,-0.9264079928398132,0.6011641025543213
-0.260349839925766,1.180553674697876,-0.4118773341178894,-0.2932488620281219,-0.2188731729984283,-0.3796078264713287,0.0,0.0,-0.3393285274505615,-0.4092070460319519
-0.2646222710609436,1.1738243103027344,-0.4083496928215027,-0.3019986748695373,-0.238018587231636,-0.382908284664154,0.0,0.0,-0.2643753886222839,0.3265881538391113
-0.2688577771186828,1.1669039726257324,-0.4045765995979309,-0.3107491135597229,-0.2573292553424835,-0.3862132132053375,0.0,0.0,-0.5144160389900208,-0.8305135369300842
-0.2731116414070129,1.1598066091537476,-0.4077955186367035,-0.3186363279819488,-0.275322824716568,-0.3598711192607879,0.0,0.0,-0.6613076329231262,-0.2430086135864257
-0.2773239016532898,1.152517795562744,-0.4035652577877044,-0.3273835182189941,-0.2934812903404236,-0.3631694614887237,0.0,0.0,-0.6786847710609436,0.0033953189849853
-0.2814924120903015,1.1450374126434326,-0.3991247117519378,-0.3361312747001648,-0.3118039965629577,-0.3664545118808746,0.0,0.0,-0.0635924935340881,-0.5140470862388611
-0.2856473922729492,1.137386918067932,-0.3985961079597473,-0.3437566757202148,-0.3293761909008026,-0.3514440655708313,0.0,0.0,-0.3961784243583679,-0.0514951944351196
-0.2897546291351318,1.129544734954834,-0.3937680125236511,-0.3525028824806213,-0.3471104800701141,-0.3546856045722961,0.0,0.0,0.0303659439086914,0.5781850814819336
-0.2937855720520019,1.1218202114105225,-0.3848601281642914,-0.3478280007839203,-0.3663158118724823,-0.3841063678264618,0.0,0.0,-0.2473546266555786,-0.1266360878944397
-0.2977650165557861,1.1139049530029297,-0.3796913921833038,-0.3565790355205536,-0.3856796324253082,-0.3872763514518738,0.0,0.0,-0.1558903455734253,-0.3306850790977478
-0.3016912341117859,1.1057989597320557,-0.3743669390678406,-0.3653304874897003,-0.4051997363567352,-0.3904018104076385,0.0,0.0,0.4446473121643066,-0.7454681992530823
-0.3054309785366058,1.0983879566192627,-0.3570772111415863,-0.3343162536621094,-0.4234074056148529,-0.3641532063484192,0.0,0.0,0.2248983383178711,-0.5893645882606506
-0.3089517652988434,1.0915316343307495,-0.3363007605075836,-0.3095639646053314,-0.4405544400215149,-0.3429406583309173,0.0,0.0,0.6191097497940063,-0.7917361855506897
-0.3121428489685058,1.0852361917495728,-0.3049617409706116,-0.2843237221240997,-0.4560428559780121,-0.3097681403160095,0.0,0.0,0.8800804615020752,-0.7101615071296692
-0.3151299059391022,1.0792839527130127,-0.2859290242195129,-0.2687930762767792,-0.4701349437236786,-0.281842291355133,0.0,0.0,0.7921544313430786,-0.7368432879447937
-0.317815214395523,1.073682427406311,-0.2573021054267883,-0.2528112530708313,-0.4826037287712097,-0.2493757903575897,0.0,0.0,0.9339463710784912,-0.4002081155776977
-0.3199774622917175,1.0686556100845337,-0.205654427409172,-0.2271509915590286,-0.4944130778312683,-0.2361871302127838,0.0,0.0,0.9379321336746216,-0.2070611715316772
-0.3217149674892425,1.0639294385910034,-0.1638012528419494,-0.2136669307947158,-0.5055990219116211,-0.2237186431884765,0.0,0.0,0.8130233287811279,-0.581007182598114
-0.3230350613594055,1.060132622718811,-0.1230832561850547,-0.172075018286705,-0.5156969428062439,-0.2019586265087127,0.0,0.0,0.7088795900344849,-0.9094860553741456
-0.3239336609840393,1.057197332382202,-0.0826176702976226,-0.1332160681486129,-0.5239336490631104,-0.1647339761257171,0.0,0.0,0.2141479253768921,-0.8063620924949646
-0.3244863152503967,1.0546754598617554,-0.0495094135403633,-0.1143171787261962,-0.530504584312439,-0.1314192116260528,0.0,0.0,-0.2132470607757568,-0.9161503314971924
-0.3250293135643005,1.0519953966140747,-0.0498681515455246,-0.1208535283803939,-0.5355843305587769,-0.1015948802232742,0.0,0.0,0.2409911155700683,-0.9660302996635436
-0.3254174590110779,1.0497041940689087,-0.0360839441418647,-0.1029191985726356,-0.5387258529663086,-0.0628309249877929,0.0,0.0,-0.2509307861328125,-0.8835110664367676
-0.325787216424942,1.0472718477249146,-0.0355712883174419,-0.1086546033620834,-0.5403369665145874,-0.0322221219539642,0.0,0.0,-0.3163226842880249,-0.9121442437171936
-0.3261542916297912,1.044701099395752,-0.0369719825685024,-0.1141562834382057,-0.5400279760360718,0.0061793969944119,0.0,0.0,-0.2192002534866333,-0.978252410888672
-0.3265303671360016,1.042013168334961,-0.039995189756155,-0.1185115277767181,-0.5372822880744934,0.0549126043915748,0.0,0.0,-0.0263279676437377,-0.8476219773292542
-0.326886236667633,1.0391769409179688,-0.0392585285007953,-0.1246084719896316,-0.5330705046653748,0.0842353254556655,0.0,0.0,0.3270715475082397,-0.7427316308021545
-0.3269575238227844,1.0370092391967771,-0.0120797026902437,-0.0944085121154785,-0.5274067521095276,0.1132749766111373,0.0,0.0,0.5031297206878662,-0.7473633289337158
-0.326738178730011,1.0356407165527344,0.0157484840601682,-0.0584356300532817,-0.5203478932380676,0.1411774009466171,0.0,0.0,-0.1874223947525024,-0.8684735298156738
-0.3265121877193451,1.0341274738311768,0.0147458044812083,-0.0642896145582199,-0.5114392042160034,0.1781743466854095,0.0,0.0,-0.1250843405723571,-0.6865718364715576
-0.326272577047348,1.0324667692184448,0.0145844519138336,-0.0703286305069923,-0.5008504986763,0.2117723673582077,0.0,0.0,0.3839994668960571,-0.5026654005050659
-0.3259066045284271,1.0313143730163574,0.0265454407781362,-0.0475971437990665,-0.4895678162574768,0.225653737783432,0.0,0.0,-0.4284201860427856,-0.3876835703849792
-0.3254706263542175,1.0299674272537231,0.0335148572921752,-0.0563253164291381,-0.478324145078659,0.2248736172914505,0.0,0.0,-0.3115148544311523,-0.2973306179046631
-0.3249645233154297,1.0284260511398315,0.0405031219124794,-0.065053142607212,-0.467111587524414,0.2242514640092849,0.0,0.0,-0.1268155574798584,-0.5845915079116821
-0.3244175314903259,1.0267176628112793,0.0437028184533119,-0.0722755417227745,-0.454985648393631,0.242518663406372,0.0,0.0,0.0631277561187744,-0.1230878829956054
-0.3235936760902405,1.0254974365234375,0.0714030638337135,-0.0506897829473018,-0.44294273853302,0.2408581972122192,0.0,0.0,-0.7833350300788879,-0.4015645980834961
-0.3226989805698395,1.0240830183029177,0.0784271210432052,-0.0594182200729846,-0.4309064149856567,0.2407265156507492,0.0,0.0,-0.4181721210479736,-0.6910874247550964
-0.3217762112617492,1.0225040912628174,0.0800076425075531,-0.0664732679724693,-0.4176126420497894,0.2658752202987671,0.0,0.0,-0.5078141689300537,-0.3406118750572204
-0.320782333612442,1.020730972290039,0.0870391651988029,-0.0752036720514297,-0.4043086469173431,0.266079843044281,0.0,0.0,-0.3243192434310913,-0.0237195491790771
-0.3197172284126282,1.0187638998031616,0.0940708518028259,-0.0839339047670364,-0.390985906124115,0.2664547264575958,0.0,0.0,-0.5892964005470276,-0.2001247406005859
-0.3185809254646301,1.016602873802185,0.1010997742414474,-0.0926639959216117,-0.3776358962059021,0.2670003771781921,0.0,0.0,-0.5054042935371399,-0.3869701623916626
-0.3173733353614807,1.0142475366592407,0.1081230193376541,-0.1013939827680587,-0.3642500638961792,0.2677169442176819,0.0,0.0,-0.3580827713012695,-0.2084332704544067
-0.3160945475101471,1.0116982460021973,0.1151377111673355,-0.1101239100098609,-0.350819855928421,0.2686040997505188,0.0,0.0,-0.236578106880188,0.2153582572937011
-0.314744621515274,1.0089547634124756,0.1221410259604454,-0.1188538074493408,-0.3373368084430694,0.2696609795093536,0.0,0.0,-0.6485968232154846,-0.1612499356269836
-0.3133235573768616,1.0060172080993652,0.1291301101446151,-0.12758369743824,-0.3237924873828888,0.2708863615989685,0.0,0.0,-0.718119740486145,-0.3557586073875427
-0.311831533908844,1.0028855800628662,0.1361021399497985,-0.136313647031784,-0.3101785778999328,0.2722785770893097,0.0,0.0,-0.7764509320259094,0.1234838962554931
-0.3102686405181885,0.9995598793029784,0.1430542320013046,-0.145043671131134,-0.2964867949485779,0.2738354802131653,0.0,0.0,-0.8463451862335205,0.0651507377624511
-0.3086350858211517,0.9960399866104126,0.1499835550785064,-0.1537738144397735,-0.2827090620994568,0.2755545973777771,0.0,0.0,-0.9181919693946838,0.1999971866607666
