x_pos,y_pos,x_vel,y_vel,angle,ang_vel,leg_1,leg_2,main_booster,lat_booster
-0.0014702796470373,1.4035226106643677,-0.1495502293109893,-0.3287750482559204,0.0022570991422981,0.044560320675373,0.0,0.0,-0.5216875725138728,0.8824205633400763
-0.0028105736710131,1.3960424661636353,-0.1348618417978286,-0.3324491083621979,0.0030786520801484,0.0164332669228315,0.0,0.0,-0.7712111182783936,-0.793740935703461
-0.0041435239836573,1.3884541988372805,-0.1358697712421417,-0.337266057729721,0.0056339683942496,0.0511113032698631,0.0,0.0,0.1326614280579938,0.7766149653468095
-0.0054538724943995,1.381274938583374,-0.1324910819530487,-0.3190778493881225,0.0070702992379665,0.0287291556596755,0.0,0.0,0.246945310212868,-0.7487117144327636
-0.0066586495377123,1.3747353553771973,-0.1240791454911232,-0.2906757593154907,0.0106418225914239,0.0714369565248489,0.0,0.0,0.3249768501701395,0.8317612000236563
-0.0076184272766113,1.3687491416931152,-0.0985878556966781,-0.2660772502422333,0.013216383755207,0.0514958873391151,0.0,0.0,0.4538190851443138,0.6859726841736502
-0.008492755703628,1.3634239435195925,-0.0891232714056968,-0.2366896569728851,0.014883910305798,0.0333536975085735,0.0,0.0,0.8963251701055563,-0.8467322929006547
-0.0091958045959472,1.3591160774230957,-0.0745900496840477,-0.1915085315704345,0.0191200412809848,0.0847305729985237,0.0,0.0,0.7894462479487034,-0.9020915097459284
-0.0099400524049997,1.3560734987258911,-0.0809752717614173,-0.1353233009576797,0.0255982466042041,0.1295760869979858,0.0,0.0,-0.4174108382973038,-0.9972253081414764
-0.0107004167512059,1.3529331684112549,-0.0850752592086792,-0.1397507190704345,0.0345325246453285,0.1787018030881881,0.0,0.0,0.330243145967422,-0.8898255674061855
-0.0114048961549997,1.350411295890808,-0.0818053260445594,-0.1123797893524169,0.045779213309288,0.2249545753002166,0.0,0.0,-0.2706290976364829,-0.6388016163333222
-0.012089729309082,1.347785472869873,-0.0814432874321937,-0.1171501204371452,0.0586095824837684,0.2566307485103607,0.0,0.0,0.9000308815483617,0.7852411333101226
-0.0125325201079249,1.3462886810302734,-0.0564930848777294,-0.0670455247163772,0.0707112476229667,0.2420552223920822,0.0,0.0,0.5569928894124754,-0.8162056284011232
-0.0129251480102539,1.345186710357666,-0.0536926090717315,-0.0497190691530704,0.0850094333291053,0.2859895825386047,0.0,0.0,0.9211592099629256,-0.8527509981808985
-0.013221931643784,1.3454426527023315,-0.0466104932129383,0.0103244874626398,0.1018188968300819,0.3362203538417816,0.0,0.0,-0.9377593668835535,0.6731771716344723
-0.0133895874023437,1.34560227394104,-0.0325157195329666,0.0059472820721566,0.1174835786223411,0.3133217692375183,0.0,0.0,0.3028295963940608,-0.8623627806596987
-0.0135146137326955,1.3466893434524536,-0.0304898712784051,0.0468026287853717,0.1354078501462936,0.3585181832313537,0.0,0.0,0.6727290163544384,-0.9984189467525152
-0.0135396961122751,1.3482526540756226,-0.0230772551149129,0.0674787610769271,0.1559499055147171,0.4108779430389404,0.0,0.0,0.8228540455849194,0.9017831510176896
-0.0134486202150583,1.351085186004639,-0.0102019002661108,0.1237459480762481,0.1753036230802536,0.3871099352836609,0.0,0.0,-0.2743553402134964,-0.966009378476398
-0.013374900445342,1.3537989854812622,-0.0144486259669065,0.1178895980119705,0.1972494572401046,0.4389560222625732,0.0,0.0,0.2118346150911678,-0.7361806188387281
-0.0132955554872751,1.35724937915802,-0.0157420709729194,0.150020495057106,0.2211779803037643,0.4786139130592346,0.0,0.0,-0.2678486581780663,0.7109476899997719
-0.0130919460207223,1.3606209754943848,-0.0021371154580265,0.1463054865598678,0.2440255433320999,0.4569922387599945,0.0,0.0,0.6006091711452297,0.9268806278486724
-0.0127391815185546,1.3647422790527344,0.014196878299117,0.1795264333486557,0.2655492424964905,0.4305128157138824,0.0,0.0,-0.3495468609623215,0.7729451662330882
-0.0122506143525242,1.3687868118286133,0.0292350091040134,0.1760707050561905,0.2856853306293487,0.4027579426765442,0.0,0.0,-0.903863958488666,0.6050126965577431
-0.0116588594391942,1.3727524280548096,0.0402731038630008,0.1724322885274887,0.3052187860012054,0.3907045423984527,0.0,0.0,-0.1593984854474464,-0.7994504849385736
-0.0110692027956247,1.3765714168548584,0.037911981344223,0.1651518940925598,0.32709401845932,0.4375039637088775,0.0,0.0,0.1550533389490567,-0.8899528737025215
-0.0106379510834813,1.380990982055664,0.020189318805933,0.1910528987646103,0.3510927557945251,0.4799745082855224,0.0,0.0,0.2397643998438461,0.9157070568258991
-0.0103919031098485,1.386176586151123,0.0034162462688982,0.2251323759555816,0.3734515607357025,0.4471753239631653,0.0,0.0,0.918925380817307,-0.6059920915380442
-0.0106010437011718,1.3924148082733154,-0.0429465100169181,0.2713183462619781,0.3968999981880188,0.4689694344997406,0.0,0.0,0.0917330294076397,-0.7064852864984588
-0.010930729098618,1.3989617824554443,-0.0563743002712726,0.2842313945293426,0.4220613241195678,0.503226637840271,0.0,0.0,0.3833250721073531,0.8777869269797711
-0.0114058498293161,1.4064476490020752,-0.0692031681537628,0.3260305523872375,0.4456463456153869,0.471700370311737,0.0,0.0,-0.5849206398849547,-0.6781757786221672
-0.0118651390075683,1.4137979745864868,-0.0690367370843887,0.3191104829311371,0.4710607826709747,0.5082893371582031,0.0,0.0,0.9474702248057748,0.7803706058096568
-0.012726878747344,1.4222941398620603,-0.1074926033616066,0.3701757490634918,0.494809091091156,0.4749663770198822,0.0,0.0,0.75542923511758,-0.968768890825071
-0.013832664117217,1.4310873746871948,-0.1335143148899078,0.3823265433311462,0.5207023024559021,0.5178632140159607,0.0,0.0,0.2079675568614416,0.7112089129076264
-0.0150393489748239,1.440436601638794,-0.1421179473400116,0.4071121513843536,0.5452672243118286,0.4912988245487213,0.0,0.0,-0.6750529516989443,-0.9616443627376434
-0.0162430759519338,1.449642300605774,-0.1433192193508148,0.3996060490608215,0.5719531178474426,0.5337180495262146,0.0,0.0,0.766916150361953,-0.9808383826554704
-0.0177322383970022,1.459278225898743,-0.1733147948980331,0.4174951910972595,0.6008351445198059,0.5776400566101074,0.0,0.0,0.8441865491149376,-0.6226732410983162
-0.0196401588618755,1.469875693321228,-0.2159712761640548,0.459150105714798,0.6312658786773682,0.6086162328720093,0.0,0.0,-0.915473976915967,-0.8075958089831801
-0.0215405467897653,1.4803305864334106,-0.2162240743637085,0.4515134394168854,0.6636300683021545,0.6472824811935425,0.0,0.0,0.985372684181391,-0.964984914869727
-0.0238571166992187,1.4915258884429932,-0.2589120268821716,0.4828940033912658,0.6982192993164062,0.6917849779129028,0.0,0.0,-0.0161349443949267,-0.6049299007274657
-0.0261555667966604,1.502583384513855,-0.2575351595878601,0.4754261374473572,0.7344056963920593,0.7237281799316406,0.0,0.0,-0.356479287147522,0.9958257675170898
-0.0283221248537302,1.5136425495147705,-0.2415360659360885,0.4760842323303222,0.7679390907287598,0.6706687211990356,0.0,0.0,-0.664621889591217,0.9747204780578612
-0.0303586013615131,1.5246928930282593,-0.2259243726730346,0.4763693511486053,0.7989448308944702,0.6201149225234985,0.0,0.0,-0.2977232933044433,0.99309241771698
-0.0322689041495323,1.5357434749603271,-0.2108144462108612,0.4772346913814544,0.8273108601570129,0.5673221349716187,0.0,0.0,0.2389180660247802,0.9811322689056396
-0.034245777875185,1.546958565711975,-0.2153551578521728,0.4853315353393554,0.853425145149231,0.5222853422164917,0.0,0.0,-0.3803828954696655,0.9945474863052368
-0.0360997207462787,1.5581626892089844,-0.2009270936250686,0.4858375489711761,0.8770362138748169,0.4722219109535217,0.0,0.0,-0.4299674034118652,0.9903693199157716
-0.0378334037959575,1.5693613290786743,-0.1868306696414947,0.4867090582847595,0.898054838180542,0.4203720092773437,0.0,0.0,-0.8252103924751282,0.9401270151138306
-0.0394719131290912,1.5805344581604004,-0.1757810860872268,0.4864265620708465,0.917174220085144,0.3823873102664947,0.0,0.0,-0.7270973324775696,0.9639593362808228
-0.0410158149898052,1.591680645942688,-0.1648929268121719,0.4860915243625641,0.9343998432159424,0.3445127606391907,0.0,0.0,-0.6649416089057922,0.7566572427749634
-0.0424612052738666,1.6027910709381104,-0.1537165939807891,0.4854100346565246,0.949774205684662,0.3074875473976135,0.0,0.0,-0.6127121448516846,0.8109879493713379
-0.0437979698181152,1.6138927936553955,-0.1411959379911422,0.4863120317459106,0.9626285433769226,0.2570871114730835,0.0,0.0,-0.7108938694000244,0.340120792388916
-0.0450709350407123,1.624891757965088,-0.1345719993114471,0.4817944467067718,0.9752902388572692,0.2532337307929992,0.0,0.0,-0.8999208211898804,0.5535805225372314
-0.046251107007265,1.635847568511963,-0.1241738647222518,0.4808024764060974,0.9862098097801208,0.2183911502361297,0.0,0.0,-0.9464803338050842,-0.1639027595520019
-0.0473684296011924,1.6466999053955078,-0.1176698058843612,0.4762900173664093,0.9969013333320618,0.2138299196958542,0.0,0.0,-0.674835741519928,0.1088628768920898
-0.0484237670898437,1.6574485301971436,-0.1112318038940429,0.4717791378498077,1.0073481798171997,0.2089362889528274,0.0,0.0,-0.8333625197410583,-0.2426252365112304
-0.0494175925850868,1.668093204498291,-0.1048656329512596,0.4672698378562927,1.0175344944000244,0.203725665807724,0.0,0.0,-0.6923116445541382,-0.0278953313827514
-0.050351046025753,1.678633689880371,-0.0985773354768753,0.4627620279788971,1.0274451971054075,0.1982134282588958,0.0,0.0,-0.7276893854141235,-0.4930212497711181
-0.0512246116995811,1.6890698671340942,-0.0923732444643974,0.4582557082176208,1.0370659828186035,0.1924150735139846,0.0,0.0,-0.7542867064476013,-0.1728606820106506
-0.052039623260498,1.6994012594223022,-0.0862600654363632,0.4537507891654968,1.046383261680603,0.1863458454608917,0.0,0.0,-0.9422503113746644,-0.6075944304466248
-0.0528258308768272,1.7095634937286377,-0.0839701741933822,0.445424348115921,1.0570068359375,0.2124711573123932,0.0,0.0,0.2203202247619629,-0.4938067197799682
-0.0537751205265522,1.7198717594146729,-0.1001059561967849,0.4519759118556976,1.0674769878387451,0.2094027996063232,0.0,0.0,-0.8939637541770935,-0.3081578016281128
-0.0546690933406353,1.730075120925903,-0.09430543333292,0.4474735260009765,1.0776076316833496,0.2026117593050003,0.0,0.0,-0.7886453866958618,-0.6824840903282166
-0.0555273070931434,1.7401185035705566,-0.0910886749625206,0.43975630402565,1.088690996170044,0.2216663360595703,0.0,0.0,-0.6368957161903381,-0.551386833190918
-0.0563518516719341,1.7500038146972656,-0.0880367010831832,0.4321485757827759,1.100685477256775,0.2398891896009445,0.0,0.0,0.4363827705383301,-0.5725715160369873
-0.0574497207999229,1.759971022605896,-0.1156999319791793,0.435119479894638,1.11370849609375,0.2604605555534363,0.0,0.0,-0.9441177248954772,-0.443753719329834
-0.0584980957210063,1.7698328495025637,-0.1104281991720199,0.4306186735630035,1.126353740692139,0.2529054582118988,0.0,0.0,0.2133023738861084,-0.325967788696289
-0.0600590705871582,1.7800159454345703,-0.1614110469818115,0.4450397193431854,1.138686180114746,0.2466498911380767,0.0,0.0,-0.9979944825172424,0.6955258846282959
-0.0615433678030967,1.7901707887649536,-0.1526588499546051,0.44516322016716,1.148722529411316,0.2007268667221069,0.0,0.0,-0.3904094696044922,-0.328366756439209
-0.062982752919197,1.8002195358276367,-0.1478972882032394,0.4406674802303314,1.1583590507507324,0.192730575799942,0.0,0.0,-0.9901437759399414,0.1329802274703979
-0.0643789321184158,1.8101625442504885,-0.1433251649141311,0.4361726641654968,1.1675894260406494,0.1846072971820831,0.0,0.0,-0.9625269174575806,-0.1380296945571899
-0.0657338127493858,1.8199987411499023,-0.1389535367488861,0.4316787719726562,1.176407814025879,0.1763668954372406,0.0,0.0,-0.992319643497467,-0.3461353778839111
-0.0670493096113205,1.829728484153748,-0.134793683886528,0.4271857142448425,1.1848087310791016,0.168018564581871,0.0,0.0,-0.993107795715332,-0.592357873916626
-0.0683524161577224,1.8392788171768188,-0.1339695155620575,0.418369859457016,1.1945334672927856,0.1944956928491592,0.0,0.0,-0.9963359832763672,-0.3133251667022705
-0.0696208029985427,1.8487228155136108,-0.1302643120288849,0.41387739777565,1.2038313150405884,0.1859578341245651,0.0,0.0,-0.9976133704185486,-0.099449872970581
-0.0708570480346679,1.858060002326965,-0.1268059164285659,0.409385621547699,1.212698221206665,0.1773380488157272,0.0,0.0,-0.6870384216308594,-0.5844525098800659
-0.0720733627676963,1.867233633995056,-0.1250351518392563,0.4015644788742065,1.2224080562591553,0.1941958665847778,0.0,0.0,-0.9945841431617736,-0.413876473903656
-0.0732627883553505,1.8763002157211304,-0.1221023201942443,0.3970734477043152,1.2316797971725464,0.1854340136051178,0.0,0.0,-0.9154995679855348,-0.6643230319023132
-0.0744485855102539,1.885190486907959,-0.1220659762620925,0.3884425759315491,1.242158055305481,0.2095660418272018,0.0,0.0,-0.9942012429237366,-0.6714067459106445
-0.0756316184997558,1.893914103507996,-0.122002400457859,0.3803794085979461,1.2536171674728394,0.2291816920042038,0.0,0.0,-0.2444398999214172,-0.4060199856758117
-0.0767967253923416,1.9025309085845947,-0.1199383959174156,0.3758886158466339,1.2646299600601196,0.2202569544315338,0.0,0.0,-0.4445089697837829,-0.6347816586494446
-0.0779602080583572,1.910956025123596,-0.1200928911566734,0.3664129972457886,1.2771036624908447,0.2494749724864959,0.0,0.0,-0.99640953540802,-0.6077700257301331
-0.0791280716657638,1.919215202331543,-0.1206438690423965,0.3583777546882629,1.2905226945877075,0.2683802545070648,0.0,0.0,-0.9954408407211304,-0.5976217985153198
-0.0803024321794509,1.9272918701171875,-0.1214610487222671,0.3494175970554352,1.3052175045013428,0.2938959002494812,0.0,0.0,-0.9470632076263428,-0.2026195526123047
-0.0814722999930381,1.9352622032165527,-0.1206834763288497,0.3449265658855438,1.3194589614868164,0.2848298549652099,0.0,0.0,-0.9978176951408386,-0.4296232461929321
-0.0826409310102462,1.9431251287460327,-0.1202493906021118,0.3404363393783569,1.3332459926605225,0.2757405042648315,0.0,0.0,-0.7434048056602478,-0.3759288787841797
-0.0838115662336349,1.950881004333496,-0.1201635226607322,0.3359467685222626,1.346577525138855,0.2666315138339996,0.0,0.0,-0.9481449723243712,-0.5046871900558472
-0.0849925056099891,1.958475947380066,-0.1211832612752914,0.3282593786716461,1.3606631755828855,0.2817161083221435,0.0,0.0,-0.9961522221565248,-0.6037410497665405
-0.0861878395080566,1.9659066200256348,-0.1225749626755714,0.3204014003276825,1.37556791305542,0.2980956137180328,0.0,0.0,-0.999435305595398,-0.4229142665863037
-0.0873957648873329,1.973230242729187,-0.1235403642058372,0.3159124553203583,1.3900151252746582,0.2889454066753387,0.0,0.0,-0.996831476688385,-0.4404627084732055
-0.0886197090148925,1.980446577072144,-0.1248594671487808,0.3114241659641266,1.404004454612732,0.2797882556915283,0.0,0.0,-0.9991095066070556,-0.468653917312622
-0.0898631066083908,1.9875556230545044,-0.1265299469232559,0.3069364130496979,1.4175357818603516,0.2706268727779388,0.0,0.0,-0.9985061287879944,-0.4269744157791137
-0.0911291092634201,1.9945571422576904,-0.1285480409860611,0.3024491369724273,1.4306089878082275,0.2614640295505523,0.0,0.0,-0.9906867146492004,-0.3705531358718872
-0.0924210548400878,2.001451253890991,-0.130908578634262,0.2979622483253479,1.44322407245636,0.2523025572299957,0.0,0.0,-0.9764121770858764,-0.1609478592872619
-0.093742087483406,2.008237600326538,-0.1336051523685455,0.2934757471084595,1.4553812742233276,0.2431451827287674,0.0,0.0,-0.9973903894424438,-0.5106624364852905
-0.095099352300167,2.014854907989502,-0.1371723860502243,0.2853069901466369,1.4684739112854004,0.2618537247180938,0.0,0.0,-0.9936124086380004,-0.3153595924377441
-0.0964921936392784,2.021364450454712,-0.1405126452445984,0.2808207273483276,1.4811094999313354,0.252711534500122,0.0,0.0,-0.7554009556770325,-0.3165051341056824
-0.0979235619306564,2.027766227722168,-0.1441629976034164,0.2763347625732422,1.493288516998291,0.2435812950134277,0.0,0.0,-0.99896639585495,-0.1931191682815551
-0.0993961319327354,2.034060478210449,-0.148112878203392,0.2718490362167358,1.505011796951294,0.2344659566879272,0.0,0.0,-0.993449866771698,-0.3727337121963501
-0.1009128540754318,2.040247201919556,-0.1523510068655014,0.2673634588718414,1.516280174255371,0.2253685444593429,0.0,0.0,-0.9900861382484436,-0.1893932819366455
-0.1024761199951171,2.046326160430908,-0.156865581870079,0.2628779709339142,1.5270947217941284,0.2162921130657196,0.0,0.0,-0.9999744296073914,-0.146074116230011
-0.1040885895490646,2.052297353744507,-0.1616444140672683,0.2583926022052765,1.537456750869751,0.2072399407625198,0.0,0.0,-0.9996646642684937,0.044553518295288
-0.1057524681091308,2.058160781860352,-0.1666749566793441,0.2539072632789612,1.5473675727844238,0.198215365409851,0.0,0.0,-0.9992778301239014,0.0783144235610961
-0.1074701324105262,2.0639164447784424,-0.1719445884227752,0.2494219094514846,1.5568286180496216,0.1892219334840774,0.0,0.0,-0.9999897480010986,0.0093210935592651
-0.1092436760663986,2.0695645809173584,-0.177440658211708,0.2449365258216858,1.565841794013977,0.1802632957696914,0.0,0.0,-0.9972550868988036,0.1707571744918823
-0.1110751181840896,2.0751049518585205,-0.1831505894660949,0.2404510676860809,1.5744088888168335,0.1713432371616363,0.0,0.0,-0.9999999403953552,0.1585990190505981
-0.1129664406180381,2.0805375576019287,-0.1890619695186615,0.2359654903411865,1.5825321674346924,0.1624656617641449,0.0,0.0,-0.975964367389679,0.0636912584304809
-0.1149192824959755,2.085862398147583,-0.1951626539230346,0.2314797490835189,1.5902138948440552,0.1536346822977066,0.0,0.0,-0.996088445186615,-0.0446781516075134
-0.1169353500008583,2.0910799503326416,-0.2014409005641937,0.2269938141107559,1.5974565744400024,0.1448545902967453,0.0,0.0,-0.99999737739563,-0.0757766962051391
-0.1190162673592567,2.0961897373199463,-0.2078852951526641,0.2225076854228973,1.6042630672454834,0.1361296623945236,0.0,0.0,-0.999999701976776,-0.1340657472610473
-0.1211634650826454,2.1011922359466557,-0.2144847810268402,0.2180213183164596,1.6106362342834473,0.1274644285440445,0.0,0.0,-0.99867445230484,-0.0519005060195922
-0.1233783736824989,2.1060869693756104,-0.2212289124727249,0.2135346680879593,1.6165794134140017,0.1188634857535362,0.0,0.0,-0.9996135234832764,0.5442509651184082
-0.1256672888994217,2.110940933227539,-0.2287008464336395,0.2130262404680252,1.6205908060073853,0.0802284032106399,0.0,0.0,-0.9982471466064452,0.161699891090393
-0.1280262917280197,2.115687370300293,-0.2357064038515091,0.2085389196872711,1.6241793632507324,0.0717720836400985,0.0,0.0,-0.999923288822174,0.5082356929779053
-0.1304584443569183,2.1203718185424805,-0.2431017905473709,0.2067444324493408,1.626331448554993,0.0430407114326953,0.0,0.0,-0.999966025352478,0.38774573802948
-0.1329627931118011,2.124948740005493,-0.2503312230110168,0.2022563517093658,1.6280690431594849,0.0347512923181057,0.0,0.0,-0.9957411289215088,0.6288821697235107
-0.13554248213768,2.129486322402954,-0.257982850074768,0.201803371310234,1.6278727054595947,-0.003926804754883,0.0,0.0,-0.9999971985816956,0.5958957672119141
-0.1381980925798416,2.133986234664917,-0.2656847834587097,0.2014529705047607,1.625709056854248,-0.0432732366025447,0.0,0.0,-0.9996902346611024,0.8910616636276245
-0.1409277021884918,2.138500690460205,-0.2732427418231964,0.2041987776756286,1.6204190254211426,-0.105801023542881,0.0,0.0,-1.0,0.8638138771057129
-0.1437397003173828,2.143019437789917,-0.2815761566162109,0.2063808292150497,1.6122130155563354,-0.1641199737787246,0.0,0.0,-0.9999849796295166,0.7951970100402832
-0.1466364860534668,2.147523641586304,-0.2900739908218384,0.2073919773101806,1.601538062095642,-0.2134997099637985,0.0,0.0,-0.9999988079071044,0.8993117809295654
-0.1496072709560394,2.1520323753356934,-0.2974193096160888,0.2095390707254409,1.5879805088043213,-0.2711518704891205,0.0,0.0,0.9324417114257812,0.929767370223999
-0.1533842086791992,2.1567087173461914,-0.3778534531593323,0.2187180817127227,1.571860432624817,-0.3224014937877655,0.0,0.0,-0.9952616691589355,0.9683842658996582
