x_pos,y_pos,x_vel,y_vel,angle,ang_vel,leg_1,leg_2,main_booster,lat_booster
-0.0015772819751873,1.4033340215682983,-0.1606846302747726,-0.3371631801128387,0.002659082878381,0.0525192320346832,0.0,0.0,-0.1669764518737793,0.7525298595428467
-0.0031447410583496,1.395477294921875,-0.1586059331893921,-0.3491973280906677,0.0044881962239742,0.0365865789353847,0.0,0.0,-0.0127763748168945,0.9232964515686036
-0.0046786307357251,1.3873233795166016,-0.1538472473621368,-0.3623987734317779,0.0049404934979975,0.0090468963608145,0.0,0.0,-0.2401906847953796,0.394935131072998
-0.00626802444458,1.378878831863403,-0.1602632701396942,-0.3753151297569275,0.0062489807605743,0.0261720027774572,0.0,0.0,0.0382235050201416,0.942091941833496
-0.0077450750395655,1.3707631826400757,-0.1480007767677307,-0.3606991469860077,0.0065405154600739,0.0058313128538429,0.0,0.0,0.0244907140731811,0.837040901184082
-0.0091150281950831,1.362862467765808,-0.1365046948194503,-0.3511399030685425,0.0060665602795779,-0.0094800880178809,0.0,0.0,-0.0166260004043579,0.9051187038421632
-0.010473346337676,1.3546719551086426,-0.1344732046127319,-0.3640198707580566,0.0047303633764386,-0.0267266817390918,0.0,0.0,-0.0251129269599914,0.637162446975708
-0.0118264202028512,1.3461933135986328,-0.1332369744777679,-0.3768236339092254,0.0026849543210119,-0.0409119464457035,0.0,0.0,-0.0013202428817749,0.8645148277282715
-0.0131704332306981,1.337433934211731,-0.1315232813358307,-0.3893041014671325,-0.0001720903819659,-0.0571463331580162,0.0,0.0,-0.3272521495819092,0.7029170989990234
-0.0145173072814941,1.3283884525299072,-0.1312775462865829,-0.4020232260227203,-0.0035516049247235,-0.0675962939858436,0.0,0.0,0.4412237405776977,0.4996874332427978
-0.015845775604248,1.3198299407958984,-0.1306594610214233,-0.3803816139698028,-0.0057049612514674,-0.0430712662637233,0.0,0.0,0.2404757738113403,0.889217734336853
-0.0170992854982614,1.3115729093551636,-0.122319221496582,-0.3669972717761993,-0.0087061738595366,-0.0600297749042511,0.0,0.0,0.0091538429260253,0.8274843692779541
-0.018249224871397,1.3036682605743408,-0.1112073436379432,-0.3513424098491668,-0.0124534582719206,-0.0749522298574447,0.0,0.0,-0.2865726351737976,0.426662802696228
-0.0194585807621479,1.2954730987548828,-0.1180299520492553,-0.3642583787441253,-0.015327482484281,-0.0574853010475635,0.0,0.0,-0.7784636616706848,0.0116891860961914
-0.0207277294248342,1.2869873046875,-0.124882698059082,-0.377169132232666,-0.0173278972506523,-0.0400121286511421,0.0,0.0,-0.8407523036003113,0.5556681156158447
-0.0220050811767578,1.278202772140503,-0.1252705454826355,-0.390446275472641,-0.0197571143507957,-0.0485888756811618,0.0,0.0,-0.8161786794662476,0.5554108619689941
-0.0232884399592876,1.2691327333450315,-0.1254080384969711,-0.4031592905521393,-0.0226642321795225,-0.0581477284431457,0.0,0.0,-0.8263721466064453,0.7181357145309448
-0.0245622638612985,1.259763479232788,-0.1235470399260521,-0.4164756834506988,-0.0264580287039279,-0.0758826956152916,0.0,0.0,0.3438128232955932,0.5746009349822998
-0.0257474891841411,1.2510828971862793,-0.114614263176918,-0.3858827948570251,-0.0303294342011213,-0.0774349123239517,0.0,0.0,-0.7666679620742798,0.8709542751312256
-0.0269338600337505,1.2421081066131592,-0.1140980869531631,-0.398972600698471,-0.0348223894834518,-0.0898671820759773,0.0,0.0,-0.9829535484313964,0.6730207204818726
-0.028116513043642,1.232844352722168,-0.1129764690995216,-0.41185063123703,-0.0400572195649147,-0.1047058552503585,0.0,0.0,-0.6412979960441589,0.4484111070632934
-0.0293601043522357,1.2232898473739624,-0.1199593171477317,-0.4247634708881378,-0.0444138683378696,-0.0871408656239509,0.0,0.0,-0.6784118413925171,0.2753748893737793
-0.0306648258119821,1.2134448289871216,-0.1269574612379074,-0.437675416469574,-0.0478931255638599,-0.0695908665657043,0.0,0.0,0.1033799648284912,-0.0784174799919128
-0.0319742187857627,1.2036174535751345,-0.1285288333892822,-0.4368458390235901,-0.0502782203257083,-0.0477060489356517,0.0,0.0,-0.6540354490280151,0.7730950117111206
-0.0332982055842876,1.1934977769851685,-0.1296895146369934,-0.4498598277568817,-0.0529612749814987,-0.053665854036808,0.0,0.0,-0.5854285955429077,0.4746677875518799
-0.0346844680607318,1.183065414428711,-0.1367958188056945,-0.4637212455272674,-0.0547670684754848,-0.036116000264883,0.0,0.0,-0.8832606673240662,0.6071629524230957
-0.0360837951302528,1.1723419427871704,-0.1377682536840438,-0.476681649684906,-0.0569122433662414,-0.0429033860564231,0.0,0.0,0.3059724569320678,0.4387158155441284
-0.0376109108328819,1.1623129844665527,-0.1509337276220321,-0.4457944631576538,-0.0586603991687297,-0.0349632278084754,0.0,0.0,-0.5054183006286621,0.955947995185852
-0.0391400344669818,1.1519957780838013,-0.1505308300256729,-0.4586417078971863,-0.0610234625637531,-0.0472609028220176,0.0,0.0,-0.4834641218185425,0.9869762659072876
-0.0406558997929096,1.1413767337799072,-0.1481562405824661,-0.472098171710968,-0.0644107684493064,-0.0677461475133895,0.0,0.0,0.0765465497970581,-0.4939486980438232
-0.0421856865286827,1.1312912702560425,-0.1504950821399688,-0.4483533501625061,-0.0668705105781555,-0.049195010215044,0.0,0.0,-0.5167390704154968,0.4878408908843994
-0.0437772758305072,1.1209145784378052,-0.1575442254543304,-0.4612599909305572,-0.068460538983345,-0.031800590455532,0.0,0.0,-0.8887661695480347,0.4621250629425049
-0.0454304702579975,1.1102465391159058,-0.1645898967981338,-0.4741662442684173,-0.0691825523972511,-0.0144404144957661,0.0,0.0,0.0405898094177246,0.5443024635314941
-0.0471315383911132,1.0996224880218506,-0.1690786331892013,-0.472229540348053,-0.0701944977045059,-0.0202388893812894,0.0,0.0,-0.8686434626579285,0.9090888500213624
-0.0488203056156635,1.088701248168945,-0.1668556034564972,-0.4854849576950073,-0.0722009912133216,-0.0401298552751541,0.0,0.0,0.8871133327484131,0.4033170938491821
-0.0504876151680946,1.0787789821624756,-0.1656721979379654,-0.4410421252250671,-0.0732498243451118,-0.0209768861532211,0.0,0.0,-0.5195661783218384,0.958749771118164
-0.0521443374454975,1.0685524940490725,-0.1636310517787933,-0.4546097815036773,-0.0752668231725692,-0.0403399281203746,0.0,0.0,0.4606087207794189,0.5975518226623535
-0.0537278167903423,1.0590364933013916,-0.1560608446598053,-0.4230522513389587,-0.0775358825922012,-0.0453813001513481,0.0,0.0,-0.968160092830658,0.8282078504562378
-0.0553111061453819,1.0492312908172607,-0.155341237783432,-0.4359472990036011,-0.0804907828569412,-0.0590982623398304,0.0,0.0,-0.9931858777999878,-0.5909168124198914
-0.0569998733699321,1.039140701293945,-0.1678875982761383,-0.4485202133655548,-0.0814736261963844,-0.0196565650403499,0.0,0.0,-0.9693573713302612,0.5059957504272461
-0.0587166771292686,1.028758883476257,-0.1707035601139068,-0.4614608585834503,-0.0824380069971084,-0.0192877333611249,0.0,0.0,-0.9769846200942992,0.9023797512054444
-0.0604087822139263,1.018073320388794,-0.1668938249349594,-0.4750491678714752,-0.0847265794873237,-0.0457712337374687,0.0,0.0,-0.9804906249046326,-0.0241788625717163
-0.0621615424752235,1.0070960521697998,-0.1738120764493942,-0.487954705953598,-0.0861769020557403,-0.0290066245943307,0.0,0.0,-0.8231820464134216,0.3835716247558594
-0.0639747604727745,0.9958276748657228,-0.1807063966989517,-0.5008598566055298,-0.0867936909198761,-0.0123355872929096,0.0,0.0,-0.3655761480331421,0.9010242223739624
-0.0657827407121658,0.9842483997344972,-0.1793235540390014,-0.51472008228302,-0.0882594734430313,-0.0293158385902643,0.0,0.0,-0.9496552348136902,-0.845539391040802
-0.067712977528572,0.9723773002624512,-0.1939378827810287,-0.5275512933731079,-0.0873488262295723,0.0182132385671138,0.0,0.0,-0.9706147909164428,0.9305684566497804
-0.0696226134896278,0.9601990580558776,-0.1906359195709228,-0.5412737131118774,-0.0876649022102356,-0.0063216621056199,0.0,0.0,-0.893399178981781,0.9165645837783812
-0.0715322494506836,0.9477314352989196,-0.1899755448102951,-0.5541750192642212,-0.0886530429124832,-0.0197626072913408,0.0,0.0,-0.999775528907776,0.899066686630249
-0.0734454169869422,0.9349730014801024,-0.18972809612751,-0.5671396255493164,-0.0902322605252265,-0.0315844602882862,0.0,0.0,-0.9846815466880798,0.0865582227706909
-0.0754175186157226,0.921923041343689,-0.1964189559221267,-0.5800448656082153,-0.091015912592411,-0.0156728588044643,0.0,0.0,-0.9501339197158812,-0.0076873302459716
-0.0774481743574142,0.9085816740989684,-0.203063815832138,-0.5929499864578247,-0.0910123139619827,7.176179497037083e-05,0.0,0.0,-0.9497439861297609,0.4045047760009765
-0.0795368179678917,0.8949488997459412,-0.2096584737300872,-0.6058550477027893,-0.0902305468916893,0.0156355313956737,0.0,0.0,-0.8437303304672241,-0.068144679069519
-0.0816831588745117,0.8810245394706726,-0.2161984890699386,-0.618760347366333,-0.0886803790926933,0.0310035087168216,0.0,0.0,0.0949417352676391,-0.7570434212684631
-0.0838966369628906,0.8676134943962097,-0.2252008914947509,-0.5958215594291687,-0.0848599970340728,0.0764075368642807,0.0,0.0,-0.9411817193031312,-0.1078933477401733
-0.0861666649580001,0.8539113402366638,-0.231616735458374,-0.6087284684181213,-0.0802932232618331,0.0913351625204086,0.0,0.0,-0.9443225860595704,-0.1262332797050476
-0.0884927734732627,0.8399182558059692,-0.2379622459411621,-0.6216362714767456,-0.0749924182891845,0.1060160174965858,0.0,0.0,-0.702130913734436,0.3134702444076538
-0.0908742919564247,0.8256344199180603,-0.2442313432693481,-0.634545087814331,-0.0689708739519119,0.1204309463500976,0.0,0.0,-0.9003201127052307,0.771786093711853
-0.093235395848751,0.8110552430152893,-0.2410052567720413,-0.6477487683296204,-0.064130999147892,0.0967978164553642,0.0,0.0,-0.9359694123268129,0.960342288017273
-0.0955647453665733,0.7961868047714233,-0.2363615036010742,-0.6606771349906921,-0.0607468336820602,0.067683532834053,0.0,0.0,-0.983138382434845,0.7195595502853394
-0.0978973358869552,0.7810291051864624,-0.2361040413379669,-0.6735595464706421,-0.0579379387199878,0.0561775751411914,0.0,0.0,-0.9744184017181396,0.958804726600647
-0.1002003699541091,0.7655649781227112,-0.2317152321338653,-0.6872361302375793,-0.056544579565525,0.0278673805296421,0.0,0.0,-0.9285013675689696,0.8155934810638428
-0.1025009155273437,0.7498096227645874,-0.2307372391223907,-0.7002105712890625,-0.0558654554188251,0.0135822845622897,0.0,0.0,-0.9361549615859984,0.9598630666732788
-0.1047604531049728,0.7337532639503479,-0.2249314785003662,-0.7136538028717041,-0.0568713136017322,-0.0201173610985279,0.0,0.0,-0.9204128980636596,0.8839446306228638
-0.106996439397335,0.7174010872840881,-0.2213400304317474,-0.7268493175506592,-0.0591089352965354,-0.0447525084018707,0.0,0.0,-0.9110859632492064,0.9441640377044678
-0.1092052459716796,0.7007445096969604,-0.2172622382640838,-0.7404418587684631,-0.0626784563064575,-0.0713904798030853,0.0,0.0,-0.1958389282226562,0.6755897998809814
-0.1114181503653526,0.6837934851646423,-0.2171616554260254,-0.753556489944458,-0.0667672455310821,-0.0817758291959762,0.0,0.0,-0.6220980286598206,0.8936488628387451
-0.1136028319597244,0.6665549874305725,-0.2129986733198166,-0.7664124965667725,-0.0721726641058921,-0.1081086993217468,0.0,0.0,-0.2923492193222046,0.4429835081100464
-0.1158311814069747,0.6490257978439331,-0.2178724259138107,-0.7793228626251221,-0.0770815387368202,-0.0981775224208831,0.0,0.0,-0.2415886521339416,0.7348620891571045
-0.1180405616760253,0.6312074661254883,-0.2149082124233245,-0.7922474145889282,-0.0830491185188293,-0.1193516254425048,0.0,0.0,0.062148094177246,0.3938741683959961
-0.120325282216072,0.6135610938072205,-0.2226056158542633,-0.7846214771270752,-0.088857926428318,-0.1161763221025466,0.0,0.0,0.825943112373352,0.7138638496398926
-0.1226351708173751,0.5967524647712708,-0.2238521128892898,-0.7474900484085083,-0.095933198928833,-0.1415055692195892,0.0,0.0,-0.5016050338745117,0.938386082649231
-0.1249037757515907,0.5796442627906799,-0.2181150913238525,-0.7609496712684631,-0.1045982465147972,-0.1733008921146392,0.0,0.0,0.0566245317459106,0.701127290725708
-0.1271881163120269,0.563065767288208,-0.2185628116130828,-0.7375403046607971,-0.1143981143832206,-0.1959979832172393,0.0,0.0,-0.6859225034713745,0.7069852352142334
-0.1294420212507248,0.5461871027946472,-0.2142520397901535,-0.7510557770729065,-0.1254725307226181,-0.2214880287647247,0.0,0.0,-0.4404652118682861,0.0838167667388916
-0.131725400686264,0.5290190577507019,-0.2174918353557586,-0.763974130153656,-0.1362736970186233,-0.2160232365131378,0.0,0.0,0.7468669414520264,-0.5423486828804016
-0.1339561492204666,0.5120595097541809,-0.2137667387723922,-0.754631757736206,-0.1455465108156204,-0.1854561865329742,0.0,0.0,0.8680422306060791,0.1123753786087036
-0.1361908018589019,0.4953875541687011,-0.2142151892185211,-0.7419030666351318,-0.1547840982675552,-0.1847517788410186,0.0,0.0,-0.2938966751098633,-0.4763453602790832
-0.1384470015764236,0.478425920009613,-0.2165455371141433,-0.7548190355300903,-0.1638582944869995,-0.1814839839935302,0.0,0.0,0.4917410612106323,0.2690423727035522
-0.1405304968357086,0.4622469842433929,-0.1997339725494384,-0.7200372219085693,-0.1724724918603897,-0.1722840815782547,0.0,0.0,-0.1879267692565918,-0.4776070117950439
-0.1426294296979904,0.4457782208919525,-0.20139741897583,-0.7329530119895935,-0.1809986531734466,-0.170523315668106,0.0,0.0,0.7491798400878906,-0.6763935685157776
-0.1448773443698883,0.4295848309993744,-0.2173530161380767,-0.7206313610076904,-0.188464805483818,-0.1493234187364578,0.0,0.0,0.4989674091339111,0.6775162220001221
-0.1469074189662933,0.4141381680965423,-0.1943170130252838,-0.6876479387283325,-0.1971962302923202,-0.174628660082817,0.0,0.0,-0.399154782295227,-0.7794932723045349
-0.1490139961242675,0.3984229266643524,-0.2037827670574188,-0.6993871927261353,-0.2041235566139221,-0.1385463923215866,0.0,0.0,0.7569997310638428,-0.4666327238082886
-0.1510343551635742,0.3834945261478424,-0.194837212562561,-0.6644942164421082,-0.2113828063011169,-0.145185112953186,0.0,0.0,-0.2655129432678222,-0.2099614739418029
-0.1530541479587555,0.3682766854763031,-0.1946946084499359,-0.6774111986160278,-0.2187407612800598,-0.1471588313579559,0.0,0.0,0.7880840301513672,0.4784176349639892
-0.1548412293195724,0.3536605834960937,-0.1717340797185897,-0.6506525874137878,-0.2257968038320541,-0.1411209851503372,0.0,0.0,0.6792621612548828,-0.8353350162506104
-0.1565826386213302,0.3392688333988189,-0.1687123477458953,-0.6404746770858765,-0.2313007265329361,-0.1100784987211227,0.0,0.0,0.9595885276794434,0.1845278739929199
-0.1580968797206878,0.325247049331665,-0.1463040262460708,-0.6240046620368958,-0.2364994883537292,-0.103975161910057,0.0,0.0,0.9571175575256348,-0.5790837407112122
-0.1593029946088791,0.3118728995323181,-0.1169187203049659,-0.5950034260749817,-0.2402463555335998,-0.0749373584985733,0.0,0.0,0.9372162818908693,-0.8509417772293091
-0.1602744162082672,0.2988367080688476,-0.0952268093824386,-0.5796998143196106,-0.2421917021274566,-0.0389069281518459,0.0,0.0,0.9680500030517578,-0.7155877947807312
-0.1610719710588455,0.2868422269821167,-0.0789557173848152,-0.5332227349281311,-0.2430056929588318,-0.0162798874080181,0.0,0.0,0.9352428913116456,-0.3723424673080444
-0.1615972518920898,0.2758388221263885,-0.0515714474022388,-0.4891997277736664,-0.2439816892147064,-0.0195198357105255,0.0,0.0,0.973341464996338,-0.976942777633667
-0.1618182212114334,0.2656775414943695,-0.0230014007538557,-0.4514598548412323,-0.2430598884820938,0.018436100333929,0.0,0.0,0.926689386367798,-0.8446316123008728
-0.1618596017360687,0.2557503581047058,-0.0065946197137236,-0.4408074021339416,-0.240567073225975,0.0498567037284374,0.0,0.0,0.640180230140686,-0.8689752221107483
-0.1618722975254058,0.2463133484125137,-0.0049491501413285,-0.4188214242458343,-0.2368218004703521,0.0749050676822662,0.0,0.0,0.8521111011505127,-0.2510894536972046
-0.1615312546491623,0.2379643768072128,0.0304025318473577,-0.3704758286476135,-0.2330735325813293,0.074965551495552,0.0,0.0,0.3816629648208618,-0.6609541177749634
-0.1611151695251464,0.2300464957952499,0.0370849296450614,-0.3511980772018432,-0.2284903526306152,0.0916638821363449,0.0,0.0,-0.7696147561073303,-0.0350968837738037
-0.160659983754158,0.2218398600816726,0.0414735004305839,-0.3641198575496673,-0.224388375878334,0.082039825618267,0.0,0.0,0.0473250150680542,-0.5774254202842712
-0.1600486785173416,0.213988795876503,0.0563335828483104,-0.3482151925563812,-0.2195359617471695,0.0970482602715492,0.0,0.0,-0.1014386415481567,-0.8244696855545044
-0.1594622582197189,0.2058780789375305,0.0525696277618408,-0.3595841228961944,-0.2133931964635849,0.1228554397821426,0.0,0.0,0.3521691560745239,-0.5774888396263123
-0.1588169038295745,0.1984193921089172,0.0579879991710186,-0.3305663764476776,-0.2067794352769851,0.1322753280401229,0.0,0.0,-0.7260448336601257,-0.3536826372146606
-0.1581243574619293,0.1906722337007522,0.0632465407252311,-0.3434904813766479,-0.2007234692573547,0.1211194023489952,0.0,0.0,-0.1340267062187194,-0.6223934888839722
-0.1574403792619705,0.1826548725366592,0.0614649765193462,-0.3554060757160187,-0.1937482804059982,0.1395037621259689,0.0,0.0,-0.0144686698913574,-0.192507266998291
-0.1567061394453048,0.1743490248918533,0.067075029015541,-0.3683305382728576,-0.1873625516891479,0.1277147233486175,0.0,0.0,-0.2712162137031555,-0.2846262454986572
-0.1559201180934906,0.1657546609640121,0.072841964662075,-0.3812542855739593,-0.1815805733203888,0.1156394630670547,0.0,0.0,0.7618851661682129,-0.5588780641555786
-0.1549853384494781,0.1574405282735824,0.0870326310396194,-0.3687404692173004,-0.1751095801591873,0.1294198185205459,0.0,0.0,0.0919917821884155,-0.840416431427002
-0.1538627594709396,0.1495774388313293,0.1046993881464004,-0.3486007452011108,-0.1675419509410858,0.1513524949550628,0.0,0.0,0.3945449590682983,-0.2306309938430786
-0.1525945663452148,0.1423995643854141,0.1199778467416763,-0.3182637095451355,-0.160705029964447,0.1367387026548385,0.0,0.0,0.0133702754974365,-0.2964246273040771
-0.1510998755693435,0.1356882452964782,0.142882153391838,-0.2975858151912689,-0.1541153490543365,0.1317934393882751,0.0,0.0,-0.6085401177406311,-0.2794539928436279
-0.1495477706193924,0.128688171505928,0.1492674648761749,-0.3105088770389557,-0.1481877267360687,0.1185525432229042,0.0,0.0,0.0773947238922119,-0.5921249389648438
-0.1479099243879318,0.1222067475318908,0.1573407649993896,-0.2874336242675781,-0.1417517662048339,0.1287191212177276,0.0,0.0,-0.4044642448425293,-0.7565732002258301
-0.1462657004594802,0.1154548004269599,0.1572828143835067,-0.2994266748428345,-0.1346323937177658,0.1423872709274292,0.0,0.0,-0.27057945728302,-0.4441492557525635
-0.144561767578125,0.1084141135215759,0.1639309078454971,-0.3123495876789093,-0.1282009482383728,0.1286287754774093,0.0,0.0,0.3102970123291015,-0.8502047061920166
-0.1429112404584884,0.1018497794866561,0.1576912701129913,-0.2911302149295807,-0.1208701208233833,0.146616518497467,0.0,0.0,0.0759370326995849,-0.5234951972961426
-0.1412921845912933,0.095518909394741,0.1543416380882263,-0.2807802557945251,-0.1133609861135482,0.1501829028129577,0.0,0.0,-0.0566850900650024,-0.589271068572998
-0.1396598815917968,0.0889072269201278,0.1551670432090759,-0.2932605743408203,-0.1053424626588821,0.1603702753782272,0.0,0.0,0.3862802982330322,-0.8309718370437622
-0.1379593908786773,0.0826796367764473,0.1609834730625152,-0.2761680781841278,-0.096352033317089,0.1798082590103149,0.0,0.0,0.0089591741561889,-0.3935568332672119
-0.1360961943864822,0.0764798745512962,0.1776203364133834,-0.2750066518783569,-0.0877119004726409,0.1728025823831558,0.0,0.0,0.1210541725158691,-0.8106417059898376
-0.1341167390346527,0.0706868767738342,0.188270017504692,-0.25693079829216,-0.0781349167227745,0.191539466381073,0.0,0.0,0.0692224502563476,-0.5806111097335815
-0.1320608109235763,0.0653948411345481,0.1954545676708221,-0.2347039729356765,-0.0681014060974121,0.2006700783967971,0.0,0.0,0.3633971214294433,-0.9227367639541626
