x_pos,y_pos,x_vel,y_vel,angle,ang_vel,leg_1,leg_2,main_booster,lat_booster
-0.0015214920276775,1.4033674001693726,-0.1543496698141098,-0.3356828093528747,0.0019738227128982,0.0389510914683342,0.0,0.0,-0.1050041913986206,0.6884398460388184
-0.0029824257362633,1.3955771923065186,-0.1467264741659164,-0.3462271690368652,0.0025995241012424,0.0125160617753863,0.0,0.0,-0.5972539186477661,0.8197965621948242
-0.0043629645369946,1.3875237703323364,-0.1368419080972671,-0.3579307794570923,0.0014014155603945,-0.0239641219377517,0.0,0.0,0.014719009399414,0.0309060811996459
-0.0058156969025731,1.3796731233596802,-0.1438366621732711,-0.3489152491092682,-1.5158429050643464e-05,-0.0283342748880386,0.0,0.0,-0.2216837406158447,0.3516777753829956
-0.007267284207046,1.3715652227401731,-0.1438309103250503,-0.3603516519069671,-0.001324642682448,-0.0261923037469387,0.0,0.0,-0.2498666048049926,0.0939555168151855
-0.0087180137634277,1.3632001876831057,-0.1438322067260742,-0.371783047914505,-0.0025522282812744,-0.0245540179312229,0.0,0.0,-0.0086292028427124,0.7125227451324463
-0.0101143838837742,1.3545777797698977,-0.1370690166950225,-0.3832269608974457,-0.005080999340862,-0.0505801811814308,0.0,0.0,0.2304409742355346,0.2299100160598755
-0.011396693997085,1.3464200496673584,-0.1262418925762176,-0.3625735342502594,-0.007047873456031,-0.0393411591649055,0.0,0.0,-0.1182821989059448,0.4750975370407104
-0.0126791950315237,1.3380050659179688,-0.1262635290622711,-0.3740120530128479,-0.0090101612731814,-0.0392495356500148,0.0,0.0,-0.3604535460472107,0.3391294479370117
-0.0139622688293457,1.3293328285217283,-0.1262924969196319,-0.3854425549507141,-0.0109925847500562,-0.0396525189280509,0.0,0.0,0.1488286256790161,0.7420297861099243
-0.0151145933195948,1.3210221529006958,-0.1117839962244033,-0.3693987131118774,-0.0144170532003045,-0.068495474755764,0.0,0.0,0.4000723361968994,0.1678406000137329
-0.0162017829716205,1.313124179840088,-0.1054725050926208,-0.3510515093803406,-0.0176278464496135,-0.0642221048474311,0.0,0.0,-0.7087604403495789,0.2965556383132934
-0.0172904971987009,1.3049691915512085,-0.1055233627557754,-0.3624877631664276,-0.0209342911839485,-0.0661344602704048,0.0,0.0,-0.7109726667404175,0.6691691875457764
-0.018322180956602,1.2965492010116575,-0.0982136875391006,-0.3742988407611847,-0.0258392300456762,-0.0981073454022407,0.0,0.0,-0.6812472939491272,0.2494199275970459
-0.0193558689206838,1.287872314453125,-0.0982769057154655,-0.3857333958148956,-0.0308855976909399,-0.1009366139769554,0.0,0.0,-0.4692971706390381,0.3999596834182739
-0.0203921310603618,1.2789387702941897,-0.0983495563268661,-0.3971685469150543,-0.0360968187451362,-0.1042339652776718,0.0,0.0,-0.8608401417732239,0.2086057662963867
-0.0214309692382812,1.269748330116272,-0.0984310582280159,-0.4086040556430816,-0.0414941757917404,-0.1079567447304725,0.0,0.0,-0.9258418083190918,-0.084067702293396
-0.0224727634340524,1.2603012323379517,-0.0985216498374939,-0.4200399816036224,-0.0470983050763607,-0.112092912197113,0.0,0.0,-0.9282188415527344,-0.6407597064971924
-0.0235601421445608,1.2506062984466553,-0.1039223223924636,-0.4310408234596252,-0.0518601723015308,-0.0952459424734115,0.0,0.0,-0.7924825549125671,-0.036037802696228
-0.0246510505676269,1.2406545877456665,-0.1040347069501876,-0.442476749420166,-0.0568678677082061,-0.1001630052924156,0.0,0.0,-0.8642351627349854,0.6316796541213989
-0.0256852153688669,1.2304459810256958,-0.0965615436434745,-0.453995794057846,-0.0636592730879783,-0.1358399987220764,0.0,0.0,-0.9910622835159302,-0.4632836580276489
-0.0267233848571777,1.2199808359146118,-0.0966878235340118,-0.4654345512390136,-0.0707296282052993,-0.1414198130369186,0.0,0.0,-0.9821135401725768,0.0563750267028808
-0.0277660377323627,1.209259271621704,-0.0968241840600967,-0.4768739640712738,-0.0780956298112869,-0.1473332494497299,0.0,0.0,-0.9458208680152892,-0.6117588877677917
-0.028856087476015,1.198279857635498,-0.1023551076650619,-0.4883366227149963,-0.0846968814730644,-0.1320371180772781,0.0,0.0,-0.4761518836021423,-0.6895185112953186
-0.0300181396305561,1.1870543956756592,-0.1109309569001197,-0.4992149770259857,-0.089924581348896,-0.1045631766319274,0.0,0.0,-0.2836517095565796,-0.1026192903518676
-0.0311864856630563,1.1755512952804563,-0.1112308874726295,-0.5116034150123596,-0.0954900309443473,-0.1113086938858032,0.0,0.0,0.1669186353683471,-0.5757969617843628
-0.032353688031435,1.1645673513412476,-0.1119111627340316,-0.4884849190711975,-0.1002514138817787,-0.0952277854084968,0.0,0.0,-0.1107814311981201,-0.3000463247299194
-0.0335265174508094,1.1533271074295044,-0.1121188849210739,-0.499920517206192,-0.105374090373516,-0.1024538427591323,0.0,0.0,0.1481311321258545,-0.4240562915802002
-0.034738827496767,1.1426479816436768,-0.1152695789933204,-0.4750633537769317,-0.1112880855798721,-0.1182799488306045,0.0,0.0,-0.4276609420776367,0.8035553693771362
-0.035896398127079,1.131699562072754,-0.1078669279813766,-0.487204372882843,-0.1191319748759269,-0.1568777561187744,0.0,0.0,0.4062215089797973,-0.8940145373344421
-0.0370260253548622,1.1215877532958984,-0.1064939871430397,-0.4499374330043793,-0.1255594044923782,-0.1285487860441208,0.0,0.0,-0.7402387857437134,0.757684588432312
-0.0381106361746788,1.1112061738967896,-0.1002794653177261,-0.4621176719665527,-0.1337050646543502,-0.1629131436347961,0.0,0.0,-0.7414246797561646,0.1937010288238525
-0.0392019264400005,1.1005690097808838,-0.1005395203828811,-0.4735584259033203,-0.1422570794820785,-0.1710405200719833,0.0,0.0,-0.9400395750999452,-0.6031582355499268
-0.0403526313602924,1.0896821022033691,-0.1074179038405418,-0.4846151769161224,-0.1498919427394867,-0.15269735455513,0.0,0.0,-0.724513590335846,-0.5413013100624084
-0.0415513031184673,1.078549861907959,-0.1128578335046768,-0.4954856634140014,-0.1568927317857742,-0.1400158256292343,0.0,0.0,0.2695044279098511,-0.608820378780365
-0.0426980033516883,1.068035125732422,-0.1084925755858421,-0.4679846167564392,-0.1630707830190658,-0.1235607266426086,0.0,0.0,-0.9474072456359864,-0.5779362916946411
-0.0438993461430072,1.0572733879089355,-0.1147321015596389,-0.4789058566093445,-0.1684744209051132,-0.1080732122063636,0.0,0.0,-0.9689674973487854,-0.7890266180038452
-0.0451648719608783,1.0462762117385864,-0.1222073882818222,-0.4892583787441253,-0.1728304326534271,-0.0871199816465377,0.0,0.0,-0.8820279836654663,-0.5331403017044067
-0.0464815124869346,1.0350407361984253,-0.1280109584331512,-0.4997909963130951,-0.1764859408140182,-0.0731099173426628,0.0,0.0,0.0916478633880615,-0.012578010559082
-0.0477167144417762,1.0241373777389526,-0.1195281893014907,-0.4850769340991974,-0.1805007606744766,-0.0802965834736824,0.0,0.0,-0.9553024172782898,-0.0256720185279846
-0.0489598289132118,1.0129780769348145,-0.1198585256934166,-0.4965157210826874,-0.1849652081727981,-0.0892890766263008,0.0,0.0,-0.913974940776825,-0.0605570673942565
-0.0502107627689838,1.0015630722045898,-0.1201963797211647,-0.507955014705658,-0.1898829191923141,-0.0983541086316108,0.0,0.0,-0.8683660626411438,-0.1575340032577514
-0.05146961286664,0.9898921847343444,-0.1205414161086082,-0.5193948745727539,-0.1952572017908096,-0.1074856370687484,0.0,0.0,-0.6856544017791748,-0.5717917680740356
-0.0527736656367778,0.977975606918335,-0.1255607157945633,-0.5302731394767761,-0.2001329213380813,-0.097514659166336,0.0,0.0,-0.2524478435516357,-0.7270848155021667
-0.0541471466422081,0.9658131003379822,-0.1335871070623397,-0.5410674810409546,-0.2039176076650619,-0.0756936520338058,0.0,0.0,-0.2282993793487548,-0.4230623245239258
-0.0555288307368755,0.9533948302268982,-0.1339506804943084,-0.5525072813034058,-0.2081672400236129,-0.0849930420517921,0.0,0.0,-0.7767072916030884,-0.5725623965263367
-0.0569589622318744,0.9407305121421814,-0.1393629610538482,-0.5633795857429504,-0.2118517458438873,-0.073689728975296,0.0,0.0,0.1053071022033691,-0.9646568894386292
-0.0584403984248638,0.9286906123161316,-0.1459835171699524,-0.5354152321815491,-0.2140430212020874,-0.0438252165913581,0.0,0.0,-0.947098433971405,-0.4452332258224487
-0.0599304214119911,0.9163949489593506,-0.1463616788387298,-0.5468547344207764,-0.2167056202888488,-0.0532520301640033,0.0,0.0,-0.751720130443573,-0.9222164154052734
-0.0615028366446495,0.9038652777671814,-0.15604168176651,-0.5570509433746338,-0.2179218679666519,-0.0243250112980604,0.0,0.0,-0.9521334171295166,0.0322364568710327
-0.0630838423967361,0.8910797834396362,-0.1564273238182068,-0.5684902667999268,-0.2196127772331237,-0.0338182933628559,0.0,0.0,-0.6052128076553345,-0.3353917598724365
-0.0646734237670898,0.8780386447906494,-0.156816080212593,-0.5799299478530884,-0.221779778599739,-0.0433399453759193,0.0,0.0,-0.9987139701843262,-0.0985910296440124
-0.0662715882062912,0.8647417426109314,-0.1572074592113495,-0.5913698077201843,-0.224424123764038,-0.0528870299458503,0.0,0.0,-0.7508436441421509,-0.7045031785964966
-0.0679312720894813,0.8512138724327087,-0.1642908006906509,-0.6014955639839172,-0.2261301726102829,-0.0341208390891552,0.0,0.0,-0.9971472024917604,-0.5777215361595154
-0.0696334838867187,0.8374395966529846,-0.1689265370368957,-0.6123842597007751,-0.2274414151906967,-0.0262244679033756,0.0,0.0,-0.9880285263061525,0.520967960357666
-0.0713110938668251,0.823395848274231,-0.1651154905557632,-0.624579131603241,-0.2301181852817535,-0.0535354129970073,0.0,0.0,-0.8636168241500854,-0.7778404951095581
-0.0730465874075889,0.8091208934783936,-0.1717518270015716,-0.6347184777259827,-0.2319471538066864,-0.03657928109169,0.0,0.0,-0.9472430944442748,-0.7362870573997498
-0.0748339667916297,0.7946087718009949,-0.1775890290737152,-0.6451653838157654,-0.2331111431121826,-0.0232797767966985,0.0,0.0,-0.9956806302070618,-0.7926443815231323
-0.0766820907592773,0.7798678278923035,-0.1845694780349731,-0.6551902890205383,-0.2333507239818573,-0.0047919694334268,0.0,0.0,-0.9436818361282348,-0.8117130398750305
-0.078607939183712,0.7649030685424805,-0.1936915814876556,-0.6649237275123596,-0.2322233617305755,0.0225469693541526,0.0,0.0,-0.9093979001045228,-0.7994951605796814
-0.0805996879935264,0.749695897102356,-0.2012613713741302,-0.6755493879318237,-0.2301097065210342,0.0422735102474689,0.0,0.0,-0.7858789563179016,-0.5199273228645325
-0.082646369934082,0.7342519164085388,-0.2074766159057617,-0.6859568357467651,-0.2272545397281646,0.0571033731102943,0.0,0.0,-0.8360219597816467,-0.6390794515609741
-0.0847408324480056,0.7185643911361694,-0.2128045260906219,-0.696709394454956,-0.22386035323143,0.0678836926817894,0.0,0.0,-0.7708269953727722,-0.1754577755928039
-0.0868439674377441,0.702621340751648,-0.2131888419389724,-0.7081500291824341,-0.2209496200084686,0.0582146160304546,0.0,0.0,-0.684877872467041,-0.1616231799125671
-0.0889555960893631,0.6864225268363953,-0.2135688960552215,-0.7195902466773987,-0.2185222953557968,0.0485468134284019,0.0,0.0,-0.1852062940597534,-0.2958642840385437
-0.0910758003592491,0.6699678897857666,-0.2139440774917602,-0.7310302257537842,-0.2165781706571579,0.0388821177184581,0.0,0.0,0.4351576566696167,-0.3417472839355469
-0.0930265411734581,0.6543406844139099,-0.1966003477573394,-0.6943219304084778,-0.2150308042764663,0.0309472344815731,0.0,0.0,-0.3144413828849792,-0.2074765563011169
-0.094985581934452,0.6384575963020325,-0.1969639062881469,-0.7057614922523499,-0.2139661014080047,0.0212942194193601,0.0,0.0,-0.1428955793380737,-0.144333004951477
-0.0969531089067459,0.622318685054779,-0.1973206847906112,-0.7172008752822876,-0.2133835852146148,0.0116502959281206,0.0,0.0,-0.4545601606369018,0.0323431491851806
-0.0989287346601486,0.6059239506721497,-0.1976700127124786,-0.7286400198936462,-0.2132827192544937,0.0020170365460217,0.0,0.0,0.6625118255615234,-0.4218676090240478
-0.1008586883544921,0.5903016924858093,-0.1921942830085754,-0.694441020488739,-0.2140903770923614,-0.0161532443016767,0.0,0.0,0.0495179891586303,-0.728122353553772
-0.1027466803789138,0.5750154852867126,-0.1889922171831131,-0.6793580651283264,-0.213896632194519,0.0038750176317989,0.0,0.0,0.3721439838409424,-0.1628576517105102
-0.1045983284711837,0.5605356097221375,-0.1843893229961395,-0.6436595916748047,-0.2146772444248199,-0.0156125724315643,0.0,0.0,-0.0972919464111328,-0.634541392326355
-0.1065007224678993,0.5458140969276428,-0.1901083141565323,-0.6543129682540894,-0.2148152440786361,-0.0027600447647273,0.0,0.0,-0.2567277550697326,-0.2773481607437134
-0.108410932123661,0.5308365821838379,-0.1904098838567733,-0.6657522320747375,-0.215430662035942,-0.0123082613572478,0.0,0.0,0.6236681938171387,-0.1366563439369201
-0.1101951599121093,0.5160500407218933,-0.1776469051837921,-0.6572940945625305,-0.2162131667137146,-0.0156499743461608,0.0,0.0,0.1899162530899047,-0.7241773009300232
-0.1120164841413497,0.501385509967804,-0.1822942048311233,-0.6517360210418701,-0.216047316789627,0.0033170375972986,0.0,0.0,0.8887397050857544,-0.5375056862831116
-0.1137014403939247,0.4878151416778564,-0.1692248880863189,-0.6030136942863464,-0.2152987420558929,0.0149715514853596,0.0,0.0,-0.6420263648033142,-0.2629766464233398
-0.1153934448957443,0.4739891290664673,-0.1694747358560562,-0.6144528985023499,-0.2150220274925232,0.0055338470265269,0.0,0.0,0.7507030963897705,-0.1311643123626709
-0.1170237511396408,0.4612145125865936,-0.1623001843690872,-0.567870020866394,-0.2157656252384185,-0.0148720545694231,0.0,0.0,-0.3272385597229004,0.6595134735107422
-0.1186220198869705,0.4481642246246338,-0.1575918793678283,-0.580338716506958,-0.2180248647928238,-0.04518498852849,0.0,0.0,0.5265299081802368,0.5351424217224121
-0.1199878677725792,0.4359058141708374,-0.1329192370176315,-0.5453608632087708,-0.2217238992452621,-0.0739810392260551,0.0,0.0,0.0294415950775146,-0.2757480144500732
-0.1213427558541297,0.423937439918518,-0.1310885101556778,-0.5325978398323059,-0.2261790782213211,-0.0891039222478866,0.0,0.0,0.3032071590423584,-0.1803574562072754
-0.1226261109113693,0.4125095903873443,-0.1232811957597732,-0.5086864233016968,-0.2312960177659988,-0.1023388504981994,0.0,0.0,0.3290698528289795,-0.8280131220817566
-0.1238598823547363,0.4016779065132141,-0.1195261925458908,-0.4820201694965362,-0.2352107018232345,-0.0782938152551651,0.0,0.0,0.1215548515319824,0.5979466438293457
-0.1248973831534385,0.3911274671554565,-0.0983490422368049,-0.4697840511798858,-0.2406886667013168,-0.1095593720674514,0.0,0.0,0.6693989038467407,-0.9839942455291748
-0.1259085685014724,0.3808339834213257,-0.0972674563527107,-0.4581218063831329,-0.2446094900369644,-0.078416496515274,0.0,0.0,0.5933852195739746,-0.2761349678039551
-0.126744270324707,0.3708176910877228,-0.0796760022640228,-0.4458220601081848,-0.2485667020082473,-0.0791442766785621,0.0,0.0,0.8477797508239746,-0.951537311077118
-0.1273232400417328,0.3614342510700226,-0.0557529851794242,-0.4174061417579651,-0.250757098197937,-0.0438078753650188,0.0,0.0,0.5326269865036011,-0.9128197431564332
-0.1277457177639007,0.3522925078868866,-0.0416415929794311,-0.4064065515995025,-0.2513808906078338,-0.0124758668243885,0.0,0.0,0.38709557056427,-0.6803716421127319
-0.1280721724033355,0.343838095664978,-0.0329351909458637,-0.3756989538669586,-0.2510736584663391,0.0061445329338312,0.0,0.0,-0.6979459524154663,-0.819562554359436
-0.1284610778093338,0.3351567685604095,-0.040309015661478,-0.3855918347835541,-0.249624878168106,0.0289756152778863,0.0,0.0,-0.6268853545188904,-0.3090168237686157
-0.1288538873195648,0.3262197971343994,-0.0402802601456642,-0.3970315754413605,-0.248606652021408,0.0203645266592502,0.0,0.0,0.1918902397155761,-0.2100154161453247
-0.1291218698024749,0.3173425197601318,-0.027709299698472,-0.3943915069103241,-0.2476776540279388,0.018579963594675,0.0,0.0,-0.5287647843360901,-0.4089445471763611
-0.1293931901454925,0.3082094192504883,-0.0276298038661479,-0.4058309197425842,-0.2471693605184555,0.010165998712182,0.0,0.0,-0.2924753427505493,0.2501626014709472
-0.1296674758195877,0.2988204956054687,-0.027524247765541,-0.4172701239585876,-0.2470763474702835,0.0018603911157697,0.0,0.0,0.2500457763671875,-0.7937411665916443
-0.1299194395542144,0.2898321449756622,-0.0264350287616252,-0.3992757201194763,-0.2458093166351318,0.025340249761939,0.0,0.0,0.5832623243331909,-0.8008604645729065
-0.1301765441894531,0.2817754447460174,-0.027939885854721,-0.3577033281326294,-0.243539497256279,0.0453961715102195,0.0,0.0,-0.6184492111206055,0.0051720142364501
-0.1304356604814529,0.2734628915786743,-0.0277542974799871,-0.3691424429416656,-0.2416666448116302,0.0374571792781353,0.0,0.0,-0.3340768814086914,0.0931546688079834
-0.13069649040699,0.2648944854736328,-0.0275414697825908,-0.3805812001228332,-0.240183874964714,0.0296552870422601,0.0,0.0,-0.096986174583435,-0.6498934626579285
-0.1310145407915115,0.2560954689979553,-0.0343591794371604,-0.3906538784503937,-0.2375882416963577,0.0519128069281578,0.0,0.0,0.4882148504257202,-0.914527416229248
-0.1313232481479644,0.2477259784936905,-0.0348494686186313,-0.3713408410549164,-0.2335526198148727,0.0807123035192489,0.0,0.0,-0.4957609176635742,-0.1744408011436462
-0.1316326111555099,0.2391006350517273,-0.0345550812780857,-0.382779985666275,-0.2298841774463653,0.0733692348003387,0.0,0.0,-0.0101028084754943,0.064231276512146
-0.1319422721862793,0.230219304561615,-0.0342334136366844,-0.3942185938358307,-0.2265743911266327,0.0661956891417503,0.0,0.0,-0.2584878206253052,-0.777430534362793
-0.132300466299057,0.2211035788059234,-0.0400171354413032,-0.4045046269893646,-0.2223197817802429,0.0850923433899879,0.0,0.0,0.0913594961166381,-0.4318575859069824
-0.132564827799797,0.2120751291513443,-0.0304993595927953,-0.4006617665290832,-0.2182181775569915,0.0820321515202522,0.0,0.0,0.45242440700531,-0.8216909170150757
-999.0,0.2037536948919296,-0.009666183963418,-0.3690302073955536,-0.2125968188047409,0.1124268546700477,0.0,0.0,-0.7810377478599548,-0.6906978487968445
-0.1327002495527267,0.1951999515295028,-0.0161189548671245,-0.3792178034782409,-0.2058493047952652,0.1349501460790634,0.0,0.0,-0.7021195888519287,-0.4149099588394165
-0.1327930390834808,0.1863905042409896,-0.0156665183603763,-0.390657514333725,-0.1994117051362991,0.1287519633769989,0.0,0.0,0.17281174659729,-0.1089752912521362
-0.1327492743730545,0.1779140084981918,-0.001977240666747,-0.3758918344974518,-0.1930224746465683,0.1277845948934555,0.0,0.0,-0.3304907083511352,-0.2591890096664428
-0.1327033936977386,0.1691815257072448,-0.0014752800343558,-0.3873304724693298,-0.1869206726551056,0.1220360249280929,0.0,0.0,-0.3319839835166931,-0.1353546380996704
-0.1326548606157302,0.1601930409669876,-0.0009494816185906,-0.3987684845924377,-0.1810944527387619,0.116524301469326,0.0,0.0,0.5605123043060303,0.2289295196533203
-0.1324505805969238,0.1515668481588363,0.0145358769223093,-0.3826788067817688,-0.1751795560121536,0.1182975769042968,0.0,0.0,0.2817472219467163,0.0369644165039062
-0.1322527825832367,0.1434177309274673,0.0145626440644264,-0.3615753054618835,-0.1699544340372085,0.1045025587081909,0.0,0.0,0.284675121307373,-0.5186679363250732
-0.1321311891078949,0.1356407552957534,0.0063760676421225,-0.3449938893318176,-0.1641690284013748,0.1157081574201583,0.0,0.0,-0.0083739161491394,0.1507067680358886
-0.1320056915283203,0.1276074945926666,0.0069896490313112,-0.3564303815364837,-0.1586082130670547,0.1112164482474327,0.0,0.0,0.7089657783508301,-0.0848779678344726
-0.1317623108625412,0.1201288551092147,0.0188683625310659,-0.3318113982677459,-0.15313421189785,0.109480008482933,0.0,0.0,0.8232873678207397,-0.5525292754173279
-0.1313455551862716,0.1129520535469055,0.0348544754087924,-0.3182818293571472,-0.1463278234004974,0.1361277848482132,0.0,0.0,-0.0011712908744812,0.0284821987152099
-0.1309238374233245,0.1055189669132232,0.035525195300579,-0.3297186195850372,-0.1397046595811844,0.1324632465839386,0.0,0.0,0.886815071105957,0.2504384517669678
-0.1303402930498123,0.0991920307278633,0.0517457537353038,-0.2805923819541931,-0.1331181675195694,0.1317295134067535,0.0,0.0,-0.3525453805923462,-0.404882550239563
