x_pos,y_pos,x_vel,y_vel,angle,ang_vel,leg_1,leg_2,main_booster,lat_booster
-0.0015392303466796,1.4033863544464111,-0.1559273898601532,-0.334827721118927,0.0017953615169972,0.0354173295199871,0.0,0.0,-0.6393616199493408,0.2112358808517456
-0.0030926703475415,1.3956378698349,-0.1571276783943176,-0.3443773984909057,0.0035570932086557,0.0352388992905616,0.0,0.0,-0.0260252952575683,0.9261093139648438
-0.0045696259476244,1.3876447677612305,-0.1472243368625641,-0.3552508056163788,0.0030925350729376,-0.009292010217905,0.0,0.0,0.2538388967514038,0.8293302059173584
-0.0060964585281908,1.3799794912338257,-0.1504465639591217,-0.3406769633293152,0.000888388720341,-0.044086780399084,0.0,0.0,-0.3201541900634765,-0.1236993074417114
-0.0076319696381688,1.3720762729644775,-0.1513296067714691,-0.3512589037418365,-0.001306154532358,-0.0438948720693588,0.0,0.0,-0.1040663719177246,0.0218349695205688
-0.0091743469238281,1.363934874534607,-0.1520279198884964,-0.3618348240852356,-0.0034931655973196,-0.0437444560229778,0.0,0.0,-0.2081471681594848,0.7176221609115601
-0.0106673240661621,1.355555534362793,-0.1457163691520691,-0.372428148984909,-0.007040892727673,-0.0709611102938652,0.0,0.0,0.1140167713165283,0.1480066776275634
-0.0120594976469874,1.3475916385650637,-0.1361289769411087,-0.3539691269397735,-0.0101023036986589,-0.0612338297069072,0.0,0.0,-0.2851656675338745,0.0350139141082763
-0.0134528158232569,1.3393898010253906,-0.1362466216087341,-0.3645526170730591,-0.0131601840257644,-0.0611628219485282,0.0,0.0,0.018450379371643,0.533045768737793
-0.0147979734465479,1.3316242694854736,-0.1303598880767822,-0.3451765477657318,-0.0172719564288854,-0.0822427943348884,0.0,0.0,-0.2714982032775879,0.4405287504196167
-0.0161402709782123,1.3236207962036133,-0.1300794035196304,-0.3557606339454651,-0.0213817898184061,-0.0822041779756546,0.0,0.0,-0.242044985294342,0.374219536781311
-0.0174778942018747,1.315379619598389,-0.1296021193265915,-0.3663372993469238,-0.0254919379949569,-0.0822108387947082,0.0,0.0,-0.3211539983749389,0.769471287727356
-0.0187348369508981,1.306901931762695,-0.1196709275245666,-0.3768986165523529,-0.0314587578177452,-0.1193470135331153,0.0,0.0,-0.785638689994812,-0.6458213925361633
-0.0200284011662006,1.2981828451156616,-0.1244680136442184,-0.3876276612281799,-0.0362941734492778,-0.096716895699501,0.0,0.0,-0.6963714361190796,0.1949751377105713
-0.0213113781064748,1.2892260551452637,-0.1234124898910522,-0.3982071280479431,-0.0411352813243866,-0.096830740571022,0.0,0.0,-0.3129149079322815,-0.235476016998291
-0.0225821491330862,1.280031442642212,-0.1221721768379211,-0.4087865054607391,-0.0459826029837131,-0.096955619752407,0.0,0.0,-0.4389023184776306,0.1703237295150756
-0.023838710039854,1.270599126815796,-0.1207527741789817,-0.4193663597106933,-0.0508381053805351,-0.0971187278628349,0.0,0.0,0.0696650743484497,0.7653088569641113
-0.0249006263911724,0.0,-0.0998144373297691,-0.4146984815597534,-0.05715162307024,-0.1262817680835724,0.0,0.0,-0.5815936326980591,-0.507790207862854
-0.0259783752262592,1.251718282699585,-0.1022480130195617,-0.4249092936515808,-0.062628649175167,-0.1095500439405441,0.0,0.0,-0.97424978017807,0.1053826808929443
-0.0270370487123727,1.2419252395629885,-0.1003298312425613,-0.4354886412620544,-0.0681193023920059,-0.1098229438066482,0.0,0.0,-0.8849571347236633,-0.1515030860900879
-0.0280751232057809,1.2318944931030271,-0.098259836435318,-0.4460687637329101,-0.0736245140433311,-0.1101142764091491,0.0,0.0,-0.7759469747543335,-0.6004425287246704
-0.0291378982365131,1.2216280698776243,-0.1018861904740333,-0.4565141499042511,-0.0779755935072898,-0.0870292782783508,0.0,0.0,-0.7245221734046936,-0.0145358443260192
-0.0301774032413959,1.211123824119568,-0.0995405465364456,-0.4670940935611725,-0.0823453217744827,-0.0874024182558059,0.0,0.0,-0.8774688839912415,-0.2556965351104736
-0.0311922077089548,1.200381636619568,-0.0970667600631713,-0.4776739776134491,-0.0867345780134201,-0.0877930670976638,0.0,0.0,-0.6625303030014038,-0.3492314219474792
-0.0321813598275184,1.1894018650054932,-0.0944731086492538,-0.4882542192935943,-0.0911451950669288,-0.0882197692990303,0.0,0.0,-0.6561295986175537,-0.3409566879272461
-0.0331450477242469,1.1781630516052246,-0.091897115111351,-0.4997843503952026,-0.0955790430307388,-0.0886768028140068,0.0,0.0,-0.4561190605163574,-0.929545760154724
-0.0341532714664936,1.1667025089263916,-0.0981921851634979,-0.5095216035842896,-0.0981946364045143,-0.0523115172982215,0.0,0.0,-0.6190484762191772,-0.8854817748069763
-0.0352170951664447,1.1550261974334717,-0.1058862432837486,-0.5189918875694275,-0.0986847206950187,-0.0098018692806363,0.0,0.0,-0.8994498252868652,-0.3047470450401306
-0.0362513549625873,1.1431115865707395,-0.1029006615281105,-0.5295677781105042,-0.0992020592093467,-0.0103467190638184,0.0,0.0,-0.8909602761268616,-0.4087668657302856
-0.0372550971806049,1.1309592723846436,-0.0998315662145614,-0.540143609046936,-0.0997477993369102,-0.0109146824106574,0.0,0.0,-0.832378089427948,0.3127403259277344
-0.0382277481257915,1.1185688972473145,-0.0966853201389312,-0.5507193803787231,-0.1003230586647987,-0.011505102738738,0.0,0.0,-0.7123255729675293,-0.4661855697631836
-0.0391685478389263,1.105940580368042,-0.0934679359197616,-0.5612952709197998,-0.100928895175457,-0.012116951867938,0.0,0.0,-0.6965318322181702,-0.0248721241950988
-0.0400769226253032,1.0930744409561155,-0.0901850163936615,-0.5718710422515869,-0.1015663594007492,-0.0127494242042303,0.0,0.0,-0.9113335609436036,-0.2371631860733032
-0.0409520156681537,1.079970359802246,-0.086841844022274,-0.5824469327926636,-0.1022364348173141,-0.0134015902876853,0.0,0.0,-0.1324015259742736,-0.4610111713409424
-0.0417936332523822,1.0666285753250122,-0.0834433361887931,-0.5930227637290955,-0.1029400750994682,-0.0140727432444691,0.0,0.0,-0.7865926623344421,-0.2596062421798706
-0.0426010116934776,1.0530487298965454,-0.0799940451979637,-0.6035985946655273,-0.103678174316883,-0.0147621436044573,0.0,0.0,-0.8401253819465637,-0.4948681592941284
-0.0433737747371196,1.0392310619354248,-0.0764982104301452,-0.6141745448112488,-0.1044516265392303,-0.0154690472409129,0.0,0.0,-0.8477435111999512,-0.8054277896881104
-0.0441703796386718,1.0251909494400024,-0.0803682506084442,-0.6239555478096008,-0.1037543192505836,0.0139462742954492,0.0,0.0,-0.9013107419013976,0.0425052642822265
-0.0449316017329692,1.0109130144119265,-0.0767907351255416,-0.634531557559967,-0.1030940040946006,0.0132062528282403,0.0,0.0,-0.789483368396759,-0.5008408427238464
-0.045694638043642,0.9964036345481871,-0.0778878703713417,-0.6447540521621704,-0.1015193983912468,0.0314921289682388,0.0,0.0,-0.8822727799415588,0.4886126518249511
-0.0464215278625488,0.9816561937332152,-0.0742420256137847,-0.6553300619125366,-0.0999833196401596,0.0307219084352254,0.0,0.0,-0.185096263885498,0.3770890235900879
-0.0471120849251747,0.9666709899902344,-0.0705663338303566,-0.6659061312675476,-0.0984864458441734,0.029937470331788,0.0,0.0,-0.8774420619010925,-0.0444329977035522
-0.0477660186588764,0.9514480829238892,-0.0668633431196212,-0.6764822006225586,-0.0970294848084449,0.0291394405066967,0.0,0.0,-0.9183187484741212,0.1935639381408691
-0.0483830459415912,0.9359872341156006,-0.0631354376673698,-0.6870582699775696,-0.0956130623817443,0.0283284876495599,0.0,0.0,-0.9388291835784912,0.0921579599380493
-0.0489630699157714,0.9202885031700134,-0.0593847818672657,-0.6976343393325806,-0.0942377969622612,0.0275051891803741,0.0,0.0,-0.9120451807975768,0.0773814916610717
-0.0495057106018066,0.9043518900871276,-0.0556133463978767,-0.708210289478302,-0.0929042994976043,0.0266701523214578,0.0,0.0,-0.726384162902832,-0.1922430396080017
-0.0500108711421489,0.8881773948669434,-0.0518229380249977,-0.718786358833313,-0.0916130989789962,0.0258239656686782,0.0,0.0,-0.6972368955612183,-0.304786205291748
-0.050478458404541,0.8717650175094604,-0.0480152182281017,-0.729362428188324,-0.0903647169470787,0.0249672792851924,0.0,0.0,-0.3376837372779846,-0.3936002254486084
-0.0509082786738872,0.8551148772239685,-0.0441917143762111,-0.7399384379386902,-0.089159682393074,0.0241006389260292,0.0,0.0,-0.4514391422271728,-0.6268194913864136
-0.0513512603938579,0.8382318019866943,-0.04678176343441,-0.7502119541168213,-0.086706131696701,0.0490713864564895,0.0,0.0,0.0230838060379028,0.1323845386505127
-0.0516371726989746,0.8216278553009033,-0.0314326025545597,-0.7377908825874329,-0.0838859006762504,0.0564045310020446,0.0,0.0,-0.7495181560516357,-0.0617842674255371
-0.0518848411738872,0.8047861456871033,-0.0275697205215692,-0.748367428779602,-0.0811103358864784,0.055511362850666,0.0,0.0,-0.3494108915328979,-0.0898391008377075
-0.0520942695438861,0.7877065539360046,-0.0236959680914878,-0.7589438557624817,-0.0783798024058342,0.0546105615794658,0.0,0.0,-0.545178234577179,0.1742089986801147
-0.0522651672363281,0.7703892588615417,-0.0198123399168252,-0.7695204019546509,-0.0756946802139282,0.0537026301026344,0.0,0.0,-0.6021496653556824,0.0980780124664306
-0.0523977279663085,0.7528340220451355,-0.0159197524189949,-0.7800968289375305,-0.0730552822351455,0.0527881607413291,0.0,0.0,0.217300534248352,0.621826171875
-0.0524953827261924,0.7355608344078064,-0.0110085513442754,-0.7676385641098022,-0.0718301311135292,0.0245027616620063,0.0,0.0,-0.7028011679649353,-0.3162856101989746
-0.0525545105338096,0.7180497050285339,-0.007100464310497,-0.7782145142555237,-0.0706512778997421,0.0235771425068378,0.0,0.0,-0.2919116020202636,0.2712868452072143
-0.0525749213993549,0.7003006339073181,-0.003185773268342,-0.7887905240058899,-0.0695189386606216,0.0226467046886682,0.0,0.0,0.2637028694152832,0.580956220626831
-0.0524040237069129,0.6832507848739624,0.0170424114912748,-0.7577710747718811,-0.0694677829742431,0.001023203600198,0.0,0.0,-0.3233025074005127,-0.4574170112609863
-0.0521942153573036,0.6659628748893738,0.0209683440625667,-0.7683468461036682,-0.0694635361433029,8.505978621542454e-05,0.0,0.0,-0.1014021039009094,-0.4479321837425232
-0.051945686340332,0.6484371423721313,0.0248989835381507,-0.7789227366447449,-0.0695063322782516,-0.0008560878923162,0.0,0.0,-0.1738777756690979,-0.2645750045776367
-0.0516582503914833,0.6306735873222351,0.0288337711244821,-0.789498507976532,-0.0695962980389595,-0.0017995538655668,0.0,0.0,-0.544048547744751,-0.4643430709838867
-0.0513319969177246,0.6126720309257507,0.0327721908688545,-0.8000743985176086,-0.0697335228323936,-0.0027448290493339,0.0,0.0,-0.1150445342063903,-0.7076085209846497
-0.0510203354060649,0.5944393277168274,0.0299838036298751,-0.8102899789810181,-0.0685641020536422,0.0233883541077375,0.0,0.0,0.3081393241882324,0.0423301458358764
-0.0506418235599994,0.5764430165290833,0.0366923920810222,-0.7997833490371704,-0.0674133971333503,0.0230139959603548,0.0,0.0,-0.2653988599777221,-0.0155062079429626
-0.0502243041992187,0.5582087635993958,0.0406387969851493,-0.8103592395782471,-0.0663100555539131,0.0220668464899063,0.0,0.0,0.2860559225082397,-0.1614707708358764
-0.0497069358825683,0.5407321453094482,0.0505926385521888,-0.7766914963722229,-0.0651767775416374,0.0226655527949333,0.0,0.0,-0.3529214859008789,-0.7862461805343628
-0.0492046363651752,0.5230134129524231,0.0477730445563793,-0.7873910665512085,-0.0627411380410194,0.0487130060791969,0.0,0.0,0.3368030786514282,-0.2514394521713257
-0.0485980994999408,0.50608891248703,0.0581372566521167,-0.7520955204963684,-0.0602515488862991,0.0497918054461479,0.0,0.0,-0.4588119983673095,-0.7811324596405029
-0.0480239875614643,0.488929808139801,0.0531225129961967,-0.7624631524085999,-0.0560120306909084,0.0847903043031692,0.0,0.0,0.3658287525177002,-0.5803321599960327
-0.0475079528987407,0.4723845720291137,0.0463631376624107,-0.7351549863815308,-0.0508390925824642,0.1034589409828186,0.0,0.0,0.5909613370895386,-0.2133077383041381
-0.0468929298222065,0.4564974009990692,0.0561811439692974,-0.7059263586997986,-0.045575875788927,0.1052644625306129,0.0,0.0,-0.1891179680824279,-0.2984569072723388
-0.0462388023734092,0.4403725862503052,0.0601310320198535,-0.7165044546127319,-0.0403591506183147,0.1043342724442482,0.0,0.0,0.5563368797302246,-0.7380622029304504
-0.0455057136714458,0.4248246550559997,0.0664396286010742,-0.690850555896759,-0.0335794538259506,0.1355941742658615,0.0,0.0,0.3163361549377441,0.6084837913513184
-0.0447047241032123,0.4095007181167602,0.0745649486780166,-0.6809499263763428,-0.0281131789088249,0.1093253046274185,0.0,0.0,0.52590012550354,0.4028186798095703
-0.0437935814261436,0.394386887550354,0.0853391364216804,-0.6716330051422119,-0.0224020276218652,0.1142229437828064,0.0,0.0,0.1765553951263427,-0.3061296939849853
-0.0428604111075401,0.3793987035751343,0.0876799076795578,-0.6660686135292053,-0.0168402772396802,0.1112350225448608,0.0,0.0,0.5115604400634766,-0.6367671489715576
-0.0419346801936626,0.3652686774730682,0.0857117623090744,-0.6279374957084656,-0.0100746592506766,0.1353124529123306,0.0,0.0,-0.2599996328353882,0.3810728788375854
-0.0409701354801654,0.3509013950824737,0.089648425579071,-0.6385168433189392,-0.0033534809481352,0.1344234645366668,0.0,0.0,0.4604864120483398,0.2793560028076172
-0.0400634780526161,0.3373809158802032,0.0843707472085952,-0.6009072065353394,0.002864820882678,0.1243661642074585,0.0,0.0,-0.0200540423393249,0.5846006870269775
-0.0390815734863281,0.3236171007156372,0.0928580313920974,-0.6117454171180725,0.0081269992515444,0.1052434667944908,0.0,0.0,0.4600626230239868,0.4060055017471313
-0.0380309112370014,0.3106640577316284,0.0996140837669372,-0.5757333040237427,0.0135111482813954,0.1076830625534057,0.0,0.0,0.2708239555358886,0.0248404741287231
-0.0370253548026084,0.2981356978416443,0.0955071076750755,-0.5568686723709106,0.0184924490749835,0.0996259599924087,0.0,0.0,-0.3520550727844238,0.4797255992889404
-0.0359810814261436,0.2853697538375854,0.0994188040494918,-0.5674461722373962,0.0234321113675832,0.0987931936979293,0.0,0.0,0.3609914779663086,0.5927568674087524
-0.0348755829036235,0.2732342183589935,0.1067997366189956,-0.5394214987754822,0.0271294303238391,0.0739465802907943,0.0,0.0,0.1501004695892334,-0.4892483353614807
-0.0336818695068359,0.2614706158638,0.1153831109404563,-0.52290278673172,0.0310673266649246,0.0787578746676445,0.0,0.0,-0.4269671440124511,-0.4257681369781494
-0.0324496254324913,0.2494692653417587,0.1192716807126998,-0.533479630947113,0.0349658168852329,0.0779699087142944,0.0,0.0,0.6990420818328857,-0.4911988973617553
-0.0310981757938861,0.2378559410572052,0.1307921707630157,-0.5162561535835266,0.0392669811844825,0.086023524403572,0.0,0.0,0.5594182014465332,-0.5916898846626282
-0.0296261794865131,0.2268188297748565,0.1413373053073883,-0.4907044172286987,0.0450622327625751,0.1159048676490783,0.0,0.0,0.0203239917755126,-0.380777895450592
-0.0280408859252929,0.2159149795770645,0.1522960513830185,-0.4848147928714752,0.05121885612607,0.1231323629617691,0.0,0.0,0.1125092506408691,-0.8347334861755371
-0.0265140533447265,0.2055323272943496,0.1448137611150741,-0.4617401957511902,0.0589973889291286,0.1555705666542053,0.0,0.0,-0.2456339597702026,-0.6060281991958618
-0.024994945153594,0.1949131339788437,0.1429292261600494,-0.4723410904407501,0.0678842142224311,0.1777363717555999,0.0,0.0,0.1867308616638183,-0.0190572142601013
-0.0233813282102346,0.1847831755876541,0.1520044505596161,-0.4506672620773315,0.0771509557962417,0.1853347867727279,0.0,0.0,0.2828161716461181,0.0914053916931152
-0.0216714851558208,0.1748046427965164,0.1612941175699234,-0.4440188407897949,0.0867471620440483,0.1919240653514862,0.0,0.0,0.4483621120452881,-0.6657506823539734
-0.020065689459443,0.1652413159608841,0.1496867388486862,-0.4257048964500427,0.0975414291024208,0.2158853262662887,0.0,0.0,-0.1687885522842407,0.402026891708374
-0.0184226986020803,0.1554415374994278,0.1534500569105148,-0.4362899363040924,0.1083052679896354,0.2152766287326812,0.0,0.0,0.1406140327453613,0.0523518323898315
-0.0168011672794818,0.1459885686635971,0.1514205485582351,-0.4209439158439636,0.1189654394984245,0.2132036238908767,0.0,0.0,0.2424734830856323,0.1492197513580322
-0.0153068546205759,0.1371733993291854,0.1391835659742355,-0.3926325738430023,0.129164844751358,0.2039879113435745,0.0,0.0,-0.0419530868530273,-0.5220869779586792
-0.0138113023713231,0.1281176209449768,0.1384552121162414,-0.4034813344478607,0.1402284950017929,0.2212731838226318,0.0,0.0,0.3403744697570801,-0.0317112207412719
-0.0124073978513479,0.1197203695774078,0.1295145452022552,-0.374271035194397,0.1510660797357559,0.2167518138885498,0.0,0.0,-0.2950895428657532,-0.0939005613327026
-0.01096773147583,0.1110866665840148,0.1331477463245391,-0.384856104850769,0.1618800014257431,0.2162784785032272,0.0,0.0,0.2379254102706909,-0.0823967456817627
-0.0095708845183253,0.1027643755078315,0.1289812326431274,-0.3710820078849792,0.172585517168045,0.2141103744506836,0.0,0.0,0.1673880815505981,-0.4611508250236511
-0.0082931518554687,0.094812162220478,0.1175067797303199,-0.354657232761383,0.1828891038894653,0.2060716450214386,0.0,0.0,0.0449919700622558,0.2668507099151611
-0.0071343421004712,0.0870859697461128,0.1060836762189865,-0.3446241915225982,0.1927333772182464,0.1968853771686554,0.0,0.0,0.4485945701599121,0.2961766719818115
-0.0059706689789891,0.0800774693489074,0.1061824336647987,-0.3128490149974823,0.202989861369133,0.2051295340061187,0.0,0.0,0.1517659425735473,0.6126015186309814
-0.0047298432327806,0.0732338279485702,0.1150573641061782,-0.3054206073284149,0.2120754867792129,0.1817128956317901,0.0,0.0,0.2868032455444336,0.4231815338134765
-0.0034704208374023,0.0670604556798935,0.1164542585611343,-0.2757643163204193,0.2216697186231613,0.1918847560882568,0.0,0.0,-0.103194773197174,0.3966593742370605
-0.0021780966781079,0.0606502629816532,0.1197724938392639,-0.2863472104072571,0.2312516868114471,0.1916393339633941,0.0,0.0,0.5123355388641357,0.6884522438049316
-0.0008415222400799,0.0552209727466106,0.1253335624933242,-0.2426306903362274,0.2397038340568542,0.1690433621406555,0.0,0.0,0.1226427555084228,0.0904949903488159
0.0004836082516703,0.0501470193266868,0.1239711791276931,-0.2269235253334045,0.2483871430158615,0.1736658364534378,0.0,0.0,-0.052792489528656,0.0534909963607788
0.0018397331004962,0.0448360294103622,0.1270843893289566,-0.2375051081180572,0.2570635974407196,0.1735296547412872,0.0,0.0,0.3600201606750488,-0.4889756441116333
0.0031092644203454,0.0402476638555526,0.1182401031255722,-0.2054784446954727,0.2659661173820495,0.1780510693788528,0.0,0.0,-0.2103168964385986,-0.7529191374778748
0.004359149839729,0.0353986583650112,0.115001305937767,-0.2173566669225692,0.2761896550655365,0.2044707983732223,0.0,0.0,-0.048938512802124,-0.6214726567268372
0.0055802343413233,0.0302902311086654,0.1106898188591003,-0.229245513677597,0.2879271507263183,0.2347497642040252,0.0,0.0,0.0564147233963012,0.0068204402923583
0.0066379546187818,0.0263792127370834,0.1119332090020179,-0.1726421862840652,0.2815645039081573,-0.1272982060909271,0.0,1.0,0.972057580947876,0.91152024269104
0.0074454308487474,0.0240684375166893,0.106506273150444,-0.0981569439172744,0.2547295093536377,-0.5373656749725342,0.0,1.0,0.8907790184020996,-0.3002188205718994
0.0080554960295557,0.0228872634470462,0.0979847684502601,-0.0465324111282825,0.2171216458082199,-0.7522264719009399,0.0,1.0,0.4562102556228637,-0.788765013217926
0.0086523052304983,0.0220341067761182,0.0968008190393447,-0.0328983515501022,0.1797075271606445,-0.7483304738998413,0.0,1.0,0.2156128883361816,-0.7128909826278687
0.0092185977846384,0.0216703992336988,0.0905634313821792,-0.0124069964513182,0.1457518339157104,-0.6791146397590637,0.0,1.0,0.0911358594894409,-0.7519418597221375
0.0096652982756495,0.0218721721321344,0.0772610828280448,0.0118362344801425,0.1133104935288429,-0.6488276720046997,0.0,0.0,-0.9958016276359558,-0.1458421945571899
0.0101374629884958,0.0218499284237623,0.0799208879470825,0.0011719041503965,0.080873504281044,-0.6487408876419067,0.0,0.0,-0.9905540347099304,-0.8356795907020569
