x_pos,y_pos,x_vel,y_vel,angle,ang_vel,leg_1,leg_2,main_booster,lat_booster
-0.0016557693015784,1.4030150175094604,-0.1677309572696685,-0.3513319194316864,0.0019270164193585,0.0380245447158813,0.0,0.0,0.4104030132293701,0.9089803695678712
-0.0033232688438147,1.3951104879379272,-0.1669606566429138,-0.3513121008872986,0.0021365380380302,0.0041916794143617,0.0,0.0,0.026212453842163,0.7696540355682373
-0.0049668313004076,1.3869673013687134,-0.1631638258695602,-0.3619166612625122,0.0009579141042195,-0.0235746316611766,0.0,0.0,-0.2260257601737976,0.5451254844665527
-0.0067080496810376,1.3782129287719729,-0.1721281707286834,-0.3890784978866577,-0.0010112393647432,-0.0393866971135139,0.0,0.0,0.0202946662902832,0.7830501794815063
-0.0084261894226074,1.3694558143615725,-0.1683805435895919,-0.3892135918140411,-0.0044013289734721,-0.0678083226084709,0.0,0.0,-0.3004876971244812,0.6535723209381104
-0.0102125164121389,1.3600879907608032,-0.1736792027950287,-0.4163658916950226,-0.0092976884916424,-0.0979360938072204,0.0,0.0,0.0021287202835083,0.4849574565887451
-0.0121401790529489,1.3506368398666382,-0.1878336369991302,-0.4200873374938965,-0.0141750397160649,-0.0975559502840042,0.0,0.0,0.1446248292922973,0.9092245101928712
-0.0139991762116551,1.3412476778030396,-0.1792799532413482,-0.4173765778541565,-0.0207184925675392,-0.1308810263872146,0.0,0.0,-0.0954843759536743,0.9588379859924316
-0.0159140583127737,1.331257700920105,-0.1830784380435943,-0.4441295862197876,-0.0290318559855222,-0.1662825345993042,0.0,0.0,-0.5031406283378601,0.5160231590270996
-0.0179176330566406,1.320661187171936,-0.1910255402326584,-0.4711689054965973,-0.0382723398506641,-0.1848265677690506,0.0,0.0,-0.1530108451843261,0.5533370971679688
-0.0200003627687692,1.3094539642333984,-0.1977709978818893,-0.4983987212181091,-0.0486701466143131,-0.2079751193523407,0.0,0.0,-0.4703497290611267,0.8385133743286133
-0.0221378318965435,1.297631859779358,-0.2014611512422561,-0.5258657336235046,-0.0608266554772853,-0.2431525439023971,0.0,0.0,-0.3228206634521484,0.8317949771881104
-0.0243229866027832,1.2851996421813965,-0.2043319046497345,-0.5531753897666931,-0.0748866125941276,-0.2812251150608063,0.0,0.0,-0.29544198513031,0.8144502639770508
-0.0265640262514352,1.2721457481384275,-0.2082188129425048,-0.5810570120811462,-0.0906453803181648,-0.3152039051055908,0.0,0.0,-0.3165333271026611,0.7898874282836914
-0.0288539882749319,1.2584832906723022,-0.2112949788570404,-0.608377993106842,-0.1082301586866378,-0.3517276644706726,0.0,0.0,0.1866732835769653,0.9064972400665284
-0.0310843475162982,1.2444976568222046,-0.203717902302742,-0.6231082677841187,-0.1274689733982086,-0.3848110735416412,0.0,0.0,0.8519251346588135,-0.4146005511283874
-0.0331637375056743,1.2313040494918823,-0.1895012557506561,-0.5880628228187561,-0.1458681225776672,-0.36801677942276,0.0,0.0,0.7017431259155273,-0.1621266603469848
-0.0351652130484581,1.2180455923080444,-0.1825490295886993,-0.5910822749137878,-0.1634639352560043,-0.3519481420516968,0.0,0.0,0.3159406185150146,-0.9415144324302672
-0.0371689796447753,1.2051323652267456,-0.1848881989717483,-0.575693666934967,-0.1789953112602234,-0.3106557130813598,0.0,0.0,0.2620959281921386,-0.876931369304657
-0.0393548980355262,1.1922874450683594,-0.2049654424190521,-0.5725909471511841,-0.1927041709423065,-0.2742018699645996,0.0,0.0,0.1280175447463989,-0.8459085822105408
-0.0415281280875206,1.1795867681503296,-0.2055834233760833,-0.5660459399223328,-0.2045431584119796,-0.2368011772632599,0.0,0.0,0.740829348564148,-0.6611379981040955
-0.043764304369688,1.1669706106185913,-0.2133766412734985,-0.5621635913848877,-0.2149022370576858,-0.2071997225284576,0.0,0.0,0.2803405523300171,-0.8102613687515259
-0.0459794998168945,1.154346942901611,-0.2131294757127761,-0.5622908473014832,-0.2233906984329223,-0.1697840392589569,0.0,0.0,0.7638157606124878,-0.6093801856040955
-0.0482071861624717,1.1415845155715942,-0.2159291803836822,-0.5682711005210876,-0.2303272485733032,-0.1387438625097274,0.0,0.0,0.9508461952209472,-0.2999905347824096
-0.0505396835505962,1.1293801069259644,-0.2257919758558273,-0.5436004996299744,-0.2379133403301239,-0.1517351865768432,0.0,0.0,0.4948515892028808,-0.1320297718048095
-0.0529671683907508,1.1175211668014526,-0.2348111420869827,-0.5283685326576233,-0.2459794133901596,-0.1613216549158096,0.0,0.0,0.2457387447357177,0.2839572429656982
-0.0553702339529991,1.1058491468429563,-0.2325269877910614,-0.5200778841972351,-0.2539028823375702,-0.1584684997797012,0.0,0.0,-0.4259124994277954,-0.7297857999801636
-0.0579495429992675,1.0936018228530884,-0.2520680427551269,-0.5453566908836365,-0.2598943412303924,-0.1198291406035423,0.0,0.0,0.680208683013916,0.249630331993103
-0.0605626106262207,1.0819382667541504,-0.2549645006656647,-0.5195164084434509,-0.2663697302341461,-0.1295080333948135,0.0,0.0,0.7055823802947998,-0.597977876663208
-0.0632170662283897,1.0704195499420166,-0.2603704631328583,-0.5128788352012634,-0.2715643942356109,-0.1038924232125282,0.0,0.0,0.4758822917938232,-0.6951321959495544
-0.0658053383231163,1.0594061613082886,-0.2553048729896545,-0.4901378750801086,-0.2751795947551727,-0.0723040848970413,0.0,0.0,0.8224689960479736,0.0578163862228393
-0.068445585668087,1.0485161542892456,-0.2602340281009674,-0.4847190082073211,-0.2790619432926178,-0.0776467695832252,0.0,0.0,0.6084073781967163,-0.8420393466949463
-0.0711169242858886,1.0382137298583984,-0.2650186717510223,-0.4582915008068084,-0.2812369167804718,-0.0434992983937263,0.0,0.0,-0.050938069820404,0.7575821876525879
-0.0738333687186241,1.0272729396820068,-0.2683045566082001,-0.486907958984375,-0.2846640646457672,-0.0685430616140365,0.0,0.0,0.5123918056488037,0.1550818681716919
-0.0764659866690635,1.0165427923202517,-0.2601282000541687,-0.4775141775608063,-0.2878941893577575,-0.0646021589636802,0.0,0.0,0.0121352672576904,-0.396040678024292
-0.0790449157357215,1.0058646202087402,-0.2549326717853546,-0.4751742482185364,-0.2909455299377441,-0.0610265918076038,0.0,0.0,0.1553192138671875,0.6802045106887817
-0.0815867409110069,0.995016872882843,-0.2499767839908599,-0.4829680025577545,-0.2952809035778045,-0.0867080241441726,0.0,0.0,0.3231333494186401,-0.2006800770759582
-0.0840033516287803,0.9844211935997008,-0.2377119064331054,-0.4717282950878143,-0.2993504703044891,-0.0813920944929122,0.0,0.0,0.2001948356628418,-0.5033236145973206
-0.0863832458853721,0.974129855632782,-0.2351094931364059,-0.4579938054084778,-0.3023325800895691,-0.0596424639225006,0.0,0.0,0.3000401258468628,0.722496747970581
-0.0886158943176269,0.963878095149994,-0.2191045731306076,-0.4565030932426452,-0.3066288232803345,-0.0859253406524658,0.0,0.0,0.5528335571289062,-0.3734654188156128
-0.090792179107666,0.9541086554527284,-0.2131565511226654,-0.4351444244384765,-0.3112697601318359,-0.0928189978003501,0.0,0.0,-0.0271649956703186,-0.2670289874076843
-0.0930331200361251,0.9437300562858582,-0.2197324782609939,-0.4622230231761932,-0.3157932460308075,-0.0904703587293624,0.0,0.0,0.8376805782318115,0.0422236919403076
-0.0951229110360145,0.9331886172294616,-0.2052154541015625,-0.4693287014961242,-0.3197018206119537,-0.0781713873147964,0.0,0.0,-0.3788239955902099,-0.3454385995864868
-0.0972677245736122,0.9220377802848816,-0.210840418934822,-0.4964068233966827,-0.3234978318214416,-0.075920358300209,0.0,0.0,0.8913257122039795,-0.0800570845603942
-0.0993997603654861,0.9107787609100342,-0.209452822804451,-0.5012357831001282,-0.3273992538452148,-0.0780285373330116,0.0,0.0,0.5877532958984375,-0.445338487625122
-0.1014316529035568,0.8993452787399292,-0.1997518688440323,-0.5089448690414429,-0.3309895098209381,-0.0718051493167877,0.0,0.0,0.4303681850433349,-0.260563850402832
-0.1033276543021202,0.887825071811676,-0.1865015923976898,-0.5127203464508057,-0.3342315852642059,-0.0648414269089698,0.0,0.0,0.7288179397583008,-0.8559871315956116
-0.1051565185189247,0.8770374655723572,-0.1813500374555587,-0.4798073470592499,-0.3358294069766998,-0.0319557599723339,0.0,0.0,0.7086539268493652,-0.9376503825187684
-0.1069582924246788,0.8669144511222839,-0.1803886592388153,-0.4498617947101593,-0.3356145918369293,0.0042965887114405,0.0,0.0,0.8154855966567993,-0.8685343265533447
-0.1086889281868934,0.857017457485199,-0.1750105917453766,-0.439413845539093,-0.3335771858692169,0.0407483428716659,0.0,0.0,0.9554083347320556,-0.8967639207839966
-0.1101066619157791,0.847411572933197,-0.1459001153707504,-0.4259783327579498,-0.3292674422264099,0.0861950367689132,0.0,0.0,0.6657321453094482,-0.8248783946037292
-0.1114175766706466,0.8383186459541321,-0.1368298828601837,-0.4028405547142029,-0.3232867121696472,0.1196146830916404,0.0,0.0,0.8856178522109985,-0.2755221128463745
-0.1124557480216026,0.8292786478996277,-0.1102080196142196,-0.4003658294677734,-0.316646009683609,0.1328142583370208,0.0,0.0,-0.2098325490951538,-0.6994032263755798
-0.1135458946228027,0.8196614980697632,-0.1168622002005577,-0.425739586353302,-0.3085005581378937,0.162909060716629,0.0,0.0,-0.3991154432296753,0.2074869871139526
-0.114631749689579,0.8094354867935181,-0.1165296584367752,-0.4528228044509887,-0.3002801239490509,0.1644087433815002,0.0,0.0,-0.4992599487304687,0.5873277187347412
-0.1156713515520095,0.798581063747406,-0.1110128387808799,-0.4809855222702026,-0.2929968237876892,0.1456658393144607,0.0,0.0,-0.6114436388015747,0.1438146829605102
-0.1166959777474403,0.7871176600456238,-0.1095970124006271,-0.5080679655075073,-0.2856467366218567,0.1470018923282623,0.0,0.0,-0.4939506649971008,-0.1224361062049865
-0.1177002936601638,0.7750453948974609,-0.1076545938849449,-0.5351506471633911,-0.2782340347766876,0.1482538282871246,0.0,0.0,0.5102510452270508,0.2592883110046386
-0.118407055735588,0.7634217739105225,-0.0782638788223266,-0.5151806473731995,-0.2704470455646515,0.1557396352291107,0.0,0.0,-0.5871674418449402,-0.4215498566627502
-0.1190835013985633,0.7511894702911377,-0.0753061100840568,-0.5422641634941101,-0.2626059651374817,0.1568217277526855,0.0,0.0,-0.3065413236618042,0.7278931140899658
-0.1196658164262771,0.7383179068565369,-0.0643940642476081,-0.570976972579956,-0.2563193440437317,0.1257324069738388,0.0,0.0,-0.8137733936309814,0.3312127590179443
-0.1202085465192794,0.7248374819755554,-0.0604791529476642,-0.5980590581893921,-0.2499872148036956,0.1266423314809799,0.0,0.0,-0.0887504816055297,-0.6606984734535217
-0.1207474693655967,0.7107619643211365,-0.0611928105354309,-0.6243528723716736,-0.2425541579723358,0.1486611515283584,0.0,0.0,-0.3425906896591186,-0.1452510356903076
-0.1212378516793251,0.6960778832435608,-0.0563888177275657,-0.6514365077018738,-0.2350843399763107,0.1493968069553375,0.0,0.0,-0.2403479814529419,0.0392330884933471
-0.1216755881905555,0.6807850003242493,-0.051166646182537,-0.6785202026367188,-0.2275820970535278,0.1500448286533355,0.0,0.0,-0.7069365978240967,-0.1010799407958984
-0.1220566779375076,0.6648834347724915,-0.0455445237457752,-0.7056040167808533,-0.2200518548488617,0.1506049633026123,0.0,0.0,-0.2870166897773742,-0.0809370279312133
-0.122377298772335,0.6483733057975769,-0.0395407900214195,-0.7326880097389221,-0.2124980241060257,0.1510769426822662,0.0,0.0,0.7088133096694946,0.3120813369750976
-0.1224871650338172,0.6316713690757751,-0.0188832022249698,-0.7411985397338867,-0.2045323103666305,0.1593143045902252,0.0,0.0,0.390292763710022,-0.1321150064468383
-0.1223613768815994,0.6154090762138367,0.0045449426397681,-0.7216832041740417,-0.1964467167854309,0.1617123186588287,0.0,0.0,0.080283522605896,0.1867399215698242
-0.1221650093793869,0.5990115404129028,0.0118738422170281,-0.7277677059173584,-0.1886355131864547,0.1562241464853286,0.0,0.0,0.7560625076293945,0.4108996391296386
-0.1218558326363563,0.5830932855606079,0.0235827509313821,-0.706559956073761,-0.1812700778245926,0.1473086923360824,0.0,0.0,0.6505799293518066,-0.1133797764778137
-0.1213277801871299,0.5674756169319153,0.0453162901103496,-0.6932246088981628,-0.1737612783908844,0.1501759737730026,0.0,0.0,0.2785060405731201,-0.0667163133621215
-0.1207056045532226,0.5522406697273254,0.0551752522587776,-0.6763008832931519,-0.1667169332504272,0.1408869922161102,0.0,0.0,0.5105977058410645,-0.2410227060317993
-0.119847871363163,0.5371615290641785,0.0784296989440918,-0.6693814396858215,-0.1593697071075439,0.1469445079565048,0.0,0.0,0.1152725219726562,-0.2511210441589355
-0.1188864707946777,0.5218701362609863,0.0888980105519294,-0.678859293460846,-0.1521402597427368,0.1445888727903366,0.0,0.0,0.6412503719329834,-0.6188139915466309
-999.0,0.5064370632171631,0.1033519357442855,-0.6850516200065613,-0.1435208469629287,0.1723880171775818,0.0,0.0,0.6796238422393799,-0.4916791915893554
-0.1165408119559288,0.4909149408340454,0.1141206249594688,-0.6890773773193359,-0.1350719332695007,0.1689780354499817,0.0,0.0,0.4879312515258789,-0.6131720542907715
-0.1151837334036827,0.475863367319107,0.1260261237621307,-0.668110728263855,-0.125439777970314,0.1926432400941848,0.0,0.0,0.1980077028274536,-0.3698794841766357
-0.1136028319597244,0.4610732495784759,0.1481677591800689,-0.6565341949462891,-0.1155706569552421,0.1973825842142105,0.0,0.0,-0.450313925743103,-0.0842527151107788
-0.111927792429924,0.4456751346588135,0.1575931161642074,-0.6836224794387817,-0.1057378873229026,0.1966554820537567,0.0,0.0,0.2326713800430297,-0.273888349533081
-0.1102273017168045,0.4300529658794403,0.1606406718492508,-0.6936800479888916,-0.096392922103405,0.1868990361690521,0.0,0.0,0.2417371273040771,-0.4892754554748535
-0.1083422675728797,0.414705365896225,0.1789776384830474,-0.6815279722213745,-0.0869540050625801,0.1887783855199813,0.0,0.0,0.3382879495620727,-0.4990257024765014
-0.1064002066850662,0.399457037448883,0.1851151287555694,-0.6772013902664185,-0.0779460221529007,0.180159792304039,0.0,0.0,0.2226338386535644,-0.851479709148407
-0.1044328659772872,0.3843676447868347,0.1860015988349914,-0.6701114177703857,-0.067330777645111,0.2123049050569534,0.0,0.0,0.4301353693008423,-0.2368423342704773
-0.1023344025015831,0.3695774376392364,0.1992240250110626,-0.6568943858146667,-0.0568249188363552,0.2101173102855682,0.0,0.0,0.4784315824508667,-0.1501083970069885
-0.1000266075134277,0.3549526035785675,0.2198523730039596,-0.6496126651763916,-0.0460247434675693,0.2160034626722335,0.0,0.0,0.3231935501098633,-0.4691760540008545
-0.0975844413042068,0.3401295840740204,0.2332692444324493,-0.6585007905960083,-0.0352085828781127,0.2163233757019043,0.0,0.0,0.6658724546432495,-0.639275848865509
-0.0949737578630447,0.3253002464771271,0.2486740350723266,-0.6588325500488281,-0.0229616463184356,0.2449387609958648,0.0,0.0,0.797130823135376,-0.2989376783370971
-0.0920842140913009,0.3107897937297821,0.2758805751800537,-0.6447586417198181,-0.010056760162115,0.258097767829895,0.0,0.0,0.7520961761474609,-0.7303311228752136
-0.0889820083975792,0.2962928414344787,0.295423686504364,-0.6442766189575195,0.0045602652244269,0.2923404276371002,0.0,0.0,0.9707167148590088,-0.5974684357643127
-0.0858324021100997,0.2825377583503723,0.2990632355213165,-0.6114597320556641,0.0202521961182355,0.3138386905193329,0.0,0.0,0.8657622337341309,-0.3642573356628418
-0.0825588256120681,0.2694624662399292,0.3114055395126343,-0.5814178586006165,0.0360075421631336,0.3151068091392517,0.0,0.0,0.6770443916320801,-0.8317750096321106
-0.0791286453604698,0.2568036317825317,0.3252605497837066,-0.563135027885437,0.0535561516880989,0.3509719967842102,0.0,0.0,0.8430850505828857,-0.2865365743637085
-0.0754982009530067,0.2440941929817199,0.3448763489723205,-0.5656145811080933,0.0715164765715599,0.3592064678668976,0.0,0.0,0.9226188659667968,-0.6569328308105469
-0.0719198212027549,0.2316519618034362,0.3386668860912323,-0.5540130734443665,0.0905028358101844,0.3797273635864258,0.0,0.0,0.912423849105835,-0.2713115811347961
-0.0682261437177658,0.2201103717088699,0.3498865067958832,-0.5142509937286377,0.1098233833909034,0.3864107728004455,0.0,0.0,0.7833125591278076,0.0061153173446655
-0.0645166411995887,0.2088759988546371,0.3517487943172455,-0.5008277893066406,0.1289035379886627,0.3816034495830536,0.0,0.0,0.857621431350708,0.0027647018432617
-0.0609525665640831,0.1983402818441391,0.3380357027053833,-0.4699439406394958,0.1472076922655105,0.3660833537578583,0.0,0.0,0.8315973281860352,0.4114223718643188
-0.0572979934513568,0.1883686929941177,0.3468191623687744,-0.4451314210891723,0.1658246219158172,0.3723385632038116,0.0,0.0,0.4820669889450073,-0.2314563989639282
-0.0536934845149517,0.1787756830453872,0.3422467410564422,-0.4284876883029938,0.1840811967849731,0.3651312589645386,0.0,0.0,0.4006062746047973,-0.1249085664749145
-0.0501653663814067,0.169494166970253,0.3351204097270965,-0.4148037135601043,0.2018706053495407,0.3557877838611603,0.0,0.0,-0.1433550119400024,-0.2597256898880005
-0.0465286262333393,0.1596070379018783,0.3461916148662567,-0.44190713763237,0.2195128798484802,0.3528450727462768,0.0,0.0,0.3250410556793213,-0.1332510113716125
-0.0429797172546386,0.1497897207736969,0.3380607366561889,-0.4389200806617737,0.2365709394216537,0.3411610722541809,0.0,0.0,0.4822119474411011,0.4073679447174072
-0.0395636558532714,0.1400039494037628,0.3256134390830993,-0.4375778436660766,0.2528490722179413,0.325561910867691,0.0,0.0,0.3645727634429931,-0.056155502796173
-0.0361028686165809,0.1305067092180252,0.3299071788787842,-0.4249739050865173,0.2693723142147064,0.3304641842842102,0.0,0.0,0.5842523574829102,-0.1102017164230346
-0.0325713157653808,0.120938241481781,0.3369528651237488,-0.4283401668071747,0.2860042154788971,0.3326382040977478,0.0,0.0,0.8845200538635254,0.2788528203964233
-0.0290184970945119,0.1120857298374176,0.338574469089508,-0.3968129456043243,0.3032343089580536,0.3446017503738403,0.0,0.0,0.7619494199752808,0.0700529813766479
-0.0256284717470407,0.103800781071186,0.3226653933525085,-0.3717184066772461,0.3201809823513031,0.3389332890510559,0.0,0.0,0.508662223815918,0.0376415252685546
-0.0222529415041208,0.0960820317268371,0.3208923935890198,-0.346834123134613,0.337556391954422,0.3475079834461212,0.0,0.0,0.5947321653366089,-0.1964462399482727
-0.0188862793147563,0.0885855033993721,0.3199549317359924,-0.3371895253658294,0.3550953567028045,0.3507792353630066,0.0,0.0,0.5639133453369141,0.1537827253341674
-0.0156880374997854,0.0815661251544952,0.3034084141254425,-0.3161279261112213,0.3724227249622345,0.3465474545955658,0.0,0.0,0.3748595714569092,0.4725735187530517
-0.0125753404572606,0.0748834908008575,0.2949373126029968,-0.3013602495193481,0.3898008465766907,0.3475623726844787,0.0,0.0,0.7256462574005127,0.3479020595550537
-0.009461116977036,0.0683068633079528,0.295009970664978,-0.2968945205211639,0.4073828756809234,0.3516407310962677,0.0,0.0,0.7314560413360596,0.2177433967590332
-0.0066161155700683,0.0619397275149822,0.2689203321933746,-0.2875545620918274,0.4241843223571777,0.3360289931297302,0.0,0.0,0.6805365085601807,0.5082211494445801
-0.0039719580672681,0.055618867278099,0.25043386220932,-0.285213440656662,0.4393629431724548,0.3035722970962524,0.0,0.0,0.3466706275939941,0.6774930953979492
-0.001388645148836,0.049334917217493,0.2459484636783599,-0.2832282185554504,0.4529077410697937,0.2708966135978699,0.0,0.0,0.5377820730209351,0.3149093389511108
0.0011026381980627,0.0431282147765159,0.2369115799665451,-0.27987802028656,0.4663706421852112,0.2692577242851257,0.0,1.0,0.9997889995574952,0.9994449615478516
0.0036642074119299,0.0381133407354354,0.2572108209133148,-0.2236577123403549,0.4612154066562652,-0.1090415567159652,0.0,1.0,0.9980666637420654,0.9839439392089844
0.005926894955337,0.0346854776144027,0.249112918972969,-0.1450189054012298,0.4361323714256286,-0.5017505884170532,0.0,1.0,0.9957892894744872,-0.529088020324707
0.0076927184127271,0.0327170230448246,0.2120527476072311,-0.0769829675555229,0.3977393209934234,-0.7679685354232788,0.0,1.0,0.9268548488616944,-0.9498263597488404
0.0092859268188476,0.0310378894209861,0.20065239071846,-0.0637126192450523,0.3537603616714477,-0.8796945810317993,0.0,1.0,0.6615508794784546,-0.9627432823181152
