x_pos,y_pos,x_vel,y_vel,angle,ang_vel,leg_1,leg_2,main_booster,lat_booster
-0.0015175819862633,1.403489351272583,-0.1531037390232086,-0.3302550911903381,0.0011990683851763,0.0236112121492624,0.0,0.0,-0.3390797845695001,0.522631075455388
-0.0029840469360351,1.395944118499756,-0.1461202204227447,-0.3353407979011535,0.0006778126116842,-0.0104255639016628,0.0,0.0,0.8449520920613358,0.534191468619263
-0.0042429924942553,1.3889364004135132,-0.1242143958806991,-0.3114551603794098,-0.0009822064312174,-0.0332035794854164,0.0,0.0,0.7876901308115418,-0.710231358384241
-0.0056892395950853,1.3826022148132324,-0.143437772989273,-0.2815161645412445,-0.002142749261111,-0.0232131294906139,0.0,0.0,0.1500534057988793,0.5307336595763306
-0.0069851875305175,1.3768150806427002,-0.127003014087677,-0.2572103142738342,-0.0047111106105148,-0.0513719134032726,0.0,0.0,0.8934904204362419,0.7347282367170014
-0.0080407140776515,1.371824026107788,-0.1013417020440101,-0.2218435257673263,-0.0088734738528728,-0.0832550674676895,0.0,0.0,0.5073137364609022,-0.8588783973767573
-0.0091722486540675,1.367489457130432,-0.1100764498114585,-0.192668154835701,-0.0119304182007908,-0.0611444525420665,0.0,0.0,0.366244881112596,0.8231808823370421
-0.0100828167051076,1.363821268081665,-0.0859316512942314,-0.1630791276693344,-0.0169915109872818,-0.1012312173843383,0.0,0.0,0.880754084941769,0.713823071867806
-0.0109248161315917,1.3614540100097656,-0.0770475938916206,-0.105309396982193,-0.0240591969341039,-0.1413664668798446,0.0,0.0,0.879179955208468,-0.7071731862170134
-0.0117919920012354,1.3601975440979004,-0.0804302990436554,-0.0559524334967136,-0.0302819777280092,-0.1244673356413841,0.0,0.0,-0.4563626453771232,-0.515914976151499
-0.0126822469756007,1.3588086366653442,-0.0830590650439262,-0.0618610344827175,-0.0361819937825202,-0.1180107370018959,0.0,0.0,0.5807774873871638,-0.9904508549321144
-0.0135431289672851,1.3580410480499268,-0.0816581174731254,-0.0342291221022605,-0.0405790880322456,-0.0879497900605201,0.0,0.0,0.4527058450705736,0.9237914268872064
-0.01416358910501,1.358053207397461,-0.0553386211395263,0.000340397353284,-0.0472111292183399,-0.1326531320810318,0.0,0.0,-0.2519739090793456,0.7731243554749389
-0.0147034646943211,1.357919216156006,-0.0449992716312408,-0.0062624779529869,-0.0560983717441558,-0.1777613461017608,0.0,0.0,0.8136104124378025,-0.8796405331732189
-0.0150772091001272,1.3590073585510254,-0.0299393776804208,0.0480656139552593,-0.0634581819176673,-0.1472096890211105,0.0,0.0,-0.8686572702550643,-0.9400331953244728
-0.0154983522370457,1.359955906867981,-0.0356825068593025,0.0418747328221797,-0.0698336809873581,-0.1275216042995453,0.0,0.0,-0.3974434502523969,-0.7282054031329345
-0.0159494392573833,1.3607834577560425,-0.0392669364809989,0.0365033857524395,-0.0756268799304962,-0.1158743947744369,0.0,0.0,-0.8299518910534067,-0.7232061455212282
-0.0164302829653024,1.3614758253097534,-0.0428079776465892,0.0304951556026935,-0.0808562710881233,-0.1045972555875778,0.0,0.0,-0.2836042821811337,-0.8086813683749091
-0.0169496536254882,1.3620480298995972,-0.0475039891898632,0.025184104219079,-0.0852629765868187,-0.0881417915225029,0.0,0.0,0.6636559224036696,0.5820636896975913
-0.0174472816288471,1.3633430004119873,-0.0434045121073722,0.0571736432611942,-0.0915769860148429,-0.1262917220592498,0.0,0.0,0.941579083268,0.9942299836920828
-0.0176048278808593,1.3657972812652588,-0.0071584088727831,0.108536846935749,-0.1001057103276252,-0.1705902516841888,0.0,0.0,0.9996525643808511,0.8811680221755817
-0.0176093094050884,1.3688998222351074,0.0103861112147569,0.1371329873800277,-0.1108736991882324,-0.215378999710083,0.0,0.0,-0.3373789576292363,-0.988177332456418
-0.0176594741642475,1.371878147125244,0.0047629871405661,0.1316177248954773,-0.1206044182181358,-0.1946318447589874,0.0,0.0,-0.858975757011599,0.7769936210843067
-0.0176268573850393,1.3747029304504397,0.0152727318927645,0.1245294883847236,-0.1325728893280029,-0.2393907010555267,0.0,0.0,-0.2695046703709813,-0.7483474686913029
-0.017650794237852,1.3774116039276123,0.0082371402531862,0.1194046810269355,-0.1431882828474044,-0.2123267203569412,0.0,0.0,-0.560159188892329,-0.5636914322838569
-0.0177157409489154,1.3799810409545898,0.0032255132682621,0.1132306158542633,-0.1528941094875335,-0.194116473197937,0.0,0.0,-0.5446632411821151,0.5360742599805642
-0.0177227016538381,1.3824114799499512,0.0105715971440076,0.1068167611956596,-0.1641619801521301,-0.2253576964139938,0.0,0.0,-0.2959680635848967,0.9771410994696874
-0.0176533702760934,1.3847049474716189,0.0201928243041038,0.1004139333963394,-0.1774331629276275,-0.2654235959053039,0.0,0.0,-0.1899706107231007,-0.9840325212486554
-0.0176603309810161,1.386899471282959,0.010594043880701,0.0961442962288856,-0.1887678205966949,-0.2266930341720581,0.0,0.0,0.5041510505569422,-0.5376009325330913
-0.0176304820924997,1.3896315097808838,0.013687640428543,0.120022214949131,-0.1995362043380737,-0.215367704629898,0.0,0.0,-0.307756747874512,-0.7410005495253058
-0.0176393501460552,1.3922560214996338,0.0088057238608598,0.1153087094426155,-0.2093078196048736,-0.1954323798418045,0.0,0.0,-0.5162445306777954,-0.9465025663375854
-0.0177159309387207,1.3947687149047852,0.000334542710334,0.1105205193161964,-0.2173761427402496,-0.1613665670156479,0.0,0.0,-0.8874756097793579,-0.98146653175354
-0.0178615562617778,1.3971856832504272,-0.0083799446001648,0.1064983680844307,-0.2236231416463852,-0.1249404326081276,0.0,0.0,-0.828885018825531,-0.9660016894340516
-0.0180750843137502,1.3994886875152588,-0.0168902222067117,0.1016726270318031,-0.2281469255685806,-0.0904756784439086,0.0,0.0,-0.6364257335662842,-0.8949328064918518
-0.0183398239314556,1.4016832113265991,-0.023336723446846,0.0970451161265373,-0.2313250601291656,-0.0635622963309288,0.0,0.0,-0.668421745300293,-0.8930680155754089
-0.0186545364558696,1.4037740230560305,-0.0296749658882617,0.0926382392644882,-0.2331507802009582,-0.0365143492817878,0.0,0.0,-0.9262822270393372,-0.8473083972930908
-0.0190225597470998,1.4057509899139404,-0.0363716669380664,0.0877927169203758,-0.2335839569568634,-0.0086638052016496,0.0,0.0,-0.4634592533111572,-0.4541652202606201
-0.0193753242492675,1.407593846321106,-0.034477237612009,0.0817825347185134,-0.2343915551900863,-0.0161518268287181,0.0,0.0,-0.6987161636352539,-0.5587241053581238
-0.0197575576603412,1.409325361251831,-0.0382602848112583,0.0769563764333725,-0.2343547940254211,0.0007352009997703,0.0,0.0,-0.479361891746521,-0.7945928573608398
-0.020182704553008,1.4109444618225098,-0.0437132455408573,0.0721549466252327,-0.2331373393535614,0.024349084123969,0.0,0.0,-0.6151344776153564,-0.2542760968208313
-0.0205929763615131,1.412429690361023,-0.0418911501765251,0.066145472228527,-0.232253149151802,0.0176839157938957,0.0,0.0,-0.7493769526481628,-0.6990724205970764
-0.0210311897099018,1.4137943983078003,-0.0454929545521736,0.0609150417149066,-0.2305680811405182,0.0337012261152267,0.0,0.0,-0.6156800389289856,-0.7515643239021301
-0.0215045921504497,1.415033936500549,-0.0499483607709407,0.0555002316832542,-0.2279223352670669,0.0529147908091545,0.0,0.0,-0.5403211116790771,-0.6575643420219421
-0.0220058448612689,0.0,-0.0535473339259624,0.0502546317875385,-0.2244585901498794,0.0692748054862022,0.0,0.0,-0.7921732068061829,-0.5861058235168457
-0.0225419048219919,1.4171473979949951,-0.0580062791705131,0.0448665544390678,-0.2200114130973816,0.0889434069395065,0.0,0.0,-0.4547327756881714,-0.139460802078247
-0.0230638496577739,0.0,-0.0563382096588611,0.038857378065586,-0.2158192992210388,0.0838422328233718,0.0,0.0,-0.6178228855133057,-0.3113106489181518
-0.0235716812312603,1.4187343120574951,-0.0547053813934326,0.0328487679362297,-0.2118654102087021,0.0790780335664749,0.0,0.0,-0.6650819778442383,-0.6761849522590637
-0.0241266246885061,1.4193536043167114,-0.0607992522418499,0.028273519128561,-0.2065129727125167,0.1070489287376403,0.0,0.0,-0.349517822265625,-0.1291330456733703
-0.0246679298579692,1.4198386669158936,-0.0592415817081928,0.022264776751399,-0.2013641446828842,0.102976843714714,0.0,0.0,-0.5484238266944885,0.0057041645050048
-0.0251958854496479,0.0,-0.0577232912182807,0.0162565875798463,-0.1964012235403061,0.0992582291364669,0.0,0.0,-0.4296751022338867,-0.4065916538238525
-0.0257107727229595,1.4204062223434448,-0.0562456473708152,0.0102489190176129,-0.1916063725948333,0.095896765589714,0.0,0.0,-0.3153305649757385,-0.0150408744812011
-0.0262125972658395,1.420488357543945,-0.0548098571598529,0.0042417356744408,-0.1869616359472274,0.0928951203823089,0.0,0.0,-0.122954785823822,0.3497133255004883
-0.0267018321901559,1.420435905456543,-0.0534170642495155,-0.0017649941146373,-0.1824488788843155,0.0902549475431442,0.0,0.0,-0.0243156552314758,0.4439706802368164
-0.0271786693483591,1.420249104499817,-0.0520683154463768,-0.0077713024802505,-0.1780500411987304,0.0879768654704094,0.0,0.0,-0.6713055968284607,-0.1708793640136718
-0.0276433937251567,1.419927716255188,-0.0507645979523658,-0.0137772168964147,-0.1737470179796219,0.0860604792833328,0.0,0.0,-0.5831958651542664,-0.4441415071487427
-0.0280962940305471,1.4194715023040771,-0.049506802111864,-0.0197827704250812,-0.1695218235254287,0.0845043435692787,0.0,0.0,-0.5999858975410461,0.5699179172515869
-0.0284857749938964,1.4188727140426636,-0.0417869798839092,-0.0262943170964717,-0.1666735112667083,0.0569661930203437,0.0,0.0,-0.3834551572799682,-0.1301950216293335
-0.0288640018552541,1.4181389808654783,-0.0406231917440891,-0.0322984717786312,-0.1638673841953277,0.056122500449419,0.0,0.0,-0.6709821224212646,-0.2880290150642395
-0.0292312614619731,1.4172704219818115,-0.0395074971020221,-0.0383023619651794,-0.1610859334468841,0.0556290559470653,0.0,0.0,-0.6120564937591553,-0.0665556192398071
-0.0295879356563091,1.416266679763794,-0.038440428674221,-0.0443060025572776,-0.1583119034767151,0.0554806590080261,0.0,0.0,-0.7666659951210022,0.1438044309616089
-0.0299343112856149,1.415128231048584,-0.0374224223196506,-0.0503094121813774,-0.1555283367633819,0.0556714311242103,0.0,0.0,-0.8141048550605774,-0.2263069748878479
-0.0302706714719533,1.4138545989990234,-0.0364538058638572,-0.0563126131892204,-0.1527186185121536,0.0561945810914039,0.0,0.0,-0.8501482605934143,0.3797292709350586
-0.0305974967777729,0.0,-0.0355348065495491,-0.0623156242072582,-0.1498664766550064,0.0570427291095256,0.0,0.0,-0.9463170766830444,-0.0726603865623474
-0.0309149734675884,1.4109022617340088,-0.0346655510365963,-0.0683184713125228,-0.1469560861587524,0.0582078993320465,0.0,0.0,-0.8206983804702759,0.0663421154022216
-0.0312234871089458,1.4092234373092651,-0.0338460616767406,-0.0743211731314659,-0.1439720243215561,0.0596815422177314,0.0,0.0,-0.7795794606208801,-0.5508828163146973
-0.0315752997994422,1.407421350479126,-0.0396002084016799,-0.0796791985630989,-0.139571338891983,0.0880137160420417,0.0,0.0,-0.8259643912315369,0.7627246379852295
-0.0318562500178813,1.4054796695709229,-0.0310295429080724,-0.0860185250639915,-0.1366419494152069,0.0585878193378448,0.0,0.0,-0.8276582956314087,-0.9217654466629028
-0.0321926102042198,1.403404951095581,-0.0382899157702922,-0.0917876958847045,-0.1320098936557769,0.0926408022642135,0.0,0.0,-0.8796120285987854,9.65595245361328e-05
-0.0325215347111225,1.401195406913757,-0.0376677364110946,-0.0977909490466117,-0.1272471696138382,0.0952546074986457,0.0,0.0,-0.8469135761260986,-0.2322577238082885
-0.0328432098031044,1.3988507986068726,-0.0370938219130039,-0.1037942096590995,-0.1223407313227653,0.0981285795569419,0.0,0.0,-0.4796693325042724,0.3842954635620117
-0.0331579223275184,1.3963710069656372,-0.0365675613284111,-0.1097975149750709,-0.1172781214118003,0.1012523397803306,0.0,0.0,-0.9390292763710022,0.9041563272476196
-0.0333913788199424,1.393744945526123,-0.0267022550106048,-0.1164620444178581,-0.113943338394165,0.0666958317160606,0.0,0.0,-0.9919798374176024,0.6780881881713867
-0.03357620164752,1.3909837007522583,-0.0209524519741535,-0.122530311346054,-0.1114894822239875,0.0490772202610969,0.0,0.0,-0.9346083998680116,-0.0767855048179626
-0.0337552055716514,1.3880873918533323,-0.0205641034990549,-0.1285319477319717,-0.1088450849056243,0.0528879351913929,0.0,0.0,-0.9414685368537904,-0.2180356383323669
-0.0339286811649799,1.3850557804107666,-0.02021992392838,-0.1345335990190506,-0.1059997752308845,0.0569066628813743,0.0,0.0,-0.9625396132469176,0.3305394649505615
-0.0340970978140831,1.38188898563385,-0.0199188031256198,-0.1405353099107742,-0.1029436066746711,0.0611230358481407,0.0,0.0,-0.982570230960846,-0.2737288475036621
-0.0342606529593467,1.3785868883132937,-0.0196595434099435,-0.1465370804071426,-0.0996672660112381,0.0655267983675003,0.0,0.0,-0.7360345125198364,-0.6457894444465637
-0.0344708450138568,1.3751630783081057,-0.025871742516756,-0.151849552989006,-0.0948544070124626,0.0962570533156395,0.0,0.0,-0.6539722681045532,0.2564296722412109
-0.0346768386662006,1.3716044425964355,-0.0256923772394657,-0.1578525006771087,-0.0898041427135467,0.101005233824253,0.0,0.0,-0.7473505735397339,0.9274137020111084
-0.0348188392817974,1.367911696434021,-0.0180320106446743,-0.1638910919427871,-0.0860094055533409,0.0758947730064392,0.0,0.0,-0.8089314103126526,0.611869215965271
-0.0349197387695312,1.3640727996826172,-0.0132094454020261,-0.1704461574554443,-0.0829211398959159,0.0617652907967567,0.0,0.0,-0.9422394633293152,0.4450501203536987
-0.0350173935294151,1.3600986003875732,-0.0131384003907442,-0.1764480620622635,-0.079573281109333,0.0669571012258529,0.0,0.0,-0.9622551798820496,0.8144233226776123
-0.0350584983825683,1.3559826612472534,-0.0063952319324016,-0.1828095614910125,-0.077308714389801,0.0452913083136081,0.0,0.0,-0.9819942712783812,0.9731600284576416
-0.0350267402827739,1.3517274856567385,0.0023905974812805,-0.1890821158885955,-0.0765328332781791,0.0155178625136613,0.0,0.0,-0.9071290493011476,-0.3550878763198852
-0.0349924080073833,1.347336769104004,0.0023683318868279,-0.1950833052396774,-0.0754793360829353,0.0210697837173938,0.0,0.0,-0.9864267110824584,-0.404872179031372
-0.0349557884037494,1.3428109884262085,0.0023185801692306,-0.2010845243930816,-0.0741431266069412,0.0267240907996892,0.0,0.0,-0.8821747899055481,0.5164792537689209
-0.0348748192191123,1.3381397724151611,0.0075341882184147,-0.2075746059417724,-0.0735899060964584,0.0110644418746232,0.0,0.0,-0.9020074605941772,-0.1148101687431335
-0.0347919464111328,1.3333333730697632,0.0074352971278131,-0.2135757356882095,-0.072744995355606,0.016898263245821,0.0,0.0,-0.9164580702781676,0.0695297718048095
-0.0347072593867778,1.328391671180725,0.0073148384690284,-0.219576895236969,-0.0716045126318931,0.0228095911443233,0.0,0.0,-0.9260463118553162,0.7954509258270264
-0.0345438942313194,1.3233002424240112,0.0168483778834342,-0.2263126075267791,-0.0721171796321868,-0.010253369808197,0.0,0.0,-0.9119935035705566,-0.1472201347351074
-0.0343791954219341,1.318073272705078,0.0166910402476787,-0.2323137074708938,-0.0723277032375335,-0.0042106444016098,0.0,0.0,-0.8936417698860168,-0.2044048309326172
-0.0342130661010742,1.3127111196517944,0.0165184624493122,-0.2383147925138473,-0.0722333788871765,0.0018863009754568,0.0,0.0,-0.917198359966278,0.0742746591567993
-0.0340455994009971,1.307213544845581,0.0163328275084495,-0.2443158477544784,-0.0718318969011306,0.0080300364643335,0.0,0.0,-0.8266929984092712,0.3039358854293823
-0.0338770858943462,1.3015806674957275,0.0161363519728183,-0.2503168880939483,-0.0711212232708931,0.0142132909968495,0.0,0.0,-0.8488606214523315,0.841139554977417
-0.0336469635367393,1.2958035469055176,0.0235245134681463,-0.2567857801914215,-0.0716291740536689,-0.0101588508114218,0.0,0.0,-0.9551116228103638,0.7521837949752808
-0.0333476066589355,1.2898927927017212,0.0318530686199665,-0.2627946436405182,-0.0735310912132263,-0.0380381867289543,0.0,0.0,-0.9389601349830629,-0.5171279311180115
-0.0330896377563476,1.283851146697998,0.0263174828141927,-0.2685427367687225,-0.0740504190325737,-0.0103864306584,0.0,0.0,-0.9461716413497924,-0.4824978113174438
-0.0328307151794433,1.2776740789413452,0.0261003524065017,-0.2745437324047088,-0.0742561668157577,-0.0041149826720356,0.0,0.0,-0.8257508873939514,-0.1241816282272338
-0.0325707420706748,1.2713618278503418,0.025883849710226,-0.2805446982383728,-0.0741480812430381,0.0021615629084408,0.0,0.0,-0.8548460602760315,0.3089224100112915
-0.0323098190128803,1.2649139165878296,0.0256703235208988,-0.2865456640720367,-0.0737262442708015,0.0084367711097002,0.0,0.0,-0.8824675679206848,-0.4739735722541809
-0.0320477485656738,1.2583308219909668,0.0254621412605047,-0.2925466299057007,-0.0729910433292388,0.0147041482850909,0.0,0.0,-0.6246225237846375,-0.3750319480895996
-0.0317845344543457,1.251612424850464,0.0252616740763187,-0.2985476553440094,-0.0719431638717651,0.0209574047476053,0.0,0.0,-0.8874990344047546,0.2075114250183105
-0.0315200798213481,1.2447586059570312,0.0250712987035512,-0.3045487999916076,-0.0705836415290832,0.0271903239190578,0.0,0.0,-0.9503931403160096,0.6489722728729248
-0.0312159545719623,1.2377638816833496,0.0297086592763662,-0.3108420670032501,-0.0698835253715515,0.0140023780986666,0.0,0.0,-0.9037591218948364,-0.044680893421173
-0.0309103019535541,1.2306339740753174,0.0295456610620021,-0.3168432116508484,-0.0688747242093086,0.0201761536300182,0.0,0.0,-0.6708212494850159,0.8235206604003906
-0.0305316932499408,1.2233539819717407,0.0383564159274101,-0.3235768675804138,-0.0693676546216011,-0.0098587926477193,0.0,0.0,-0.7977021932601929,-0.4854764938354492
-0.0301512721925973,1.2159388065338137,0.0382303409278392,-0.3295780122280121,-0.0695560649037361,-0.0037681250832974,0.0,0.0,-0.5147305727005005,-0.6301470398902893
-0.0298202522099018,1.208398699760437,0.0316714346408844,-0.3350457847118377,-0.0681388601660728,0.028344165533781,0.0,0.0,-0.9449654817581176,0.2429345846176147
-0.0294869430363178,1.20072340965271,0.0315917693078517,-0.3410471677780151,-0.0664224475622177,0.0343283787369728,0.0,0.0,-0.907051146030426,0.5603563785552979
-0.0291013717651367,1.1929079294204712,0.0377945676445961,-0.3473238348960876,-0.0656668543815612,0.015111980959773,0.0,0.0,-0.8012409210205078,-0.7315089106559753
-0.0287711136043071,1.1849700212478638,0.0304680075496435,-0.3526787161827087,-0.0631431117653846,0.0504749491810798,0.0,0.0,-0.8504160642623901,0.3794904947280884
-0.0284379012882709,1.176897048950195,0.0304754581302404,-0.3586806356906891,-0.0603302717208862,0.056257028132677,0.0,0.0,-0.847231924533844,0.3554794788360595
-0.0281013492494821,1.1686890125274658,0.0305165238678455,-0.3646827638149261,-0.0572322458028793,0.0619607046246528,0.0,0.0,-0.825766921043396,0.7463604211807251
-0.0277142524719238,1.1603429317474363,0.0364947319030761,-0.3708537220954895,-0.0550367310643196,0.0439101979136467,0.0,0.0,-0.8435736894607544,0.1329225301742553
-0.027323056012392,1.151861548423767,0.0366097427904605,-0.3768557608127594,-0.0525646805763244,0.049441210925579,0.0,0.0,-0.7600334882736206,0.1454867124557495
-0.0269276611506938,1.1432453393936155,0.036764957010746,-0.3828579485416412,-0.0498207733035087,0.0548780634999275,0.0,0.0,-0.8508802652359009,-0.3864263296127319
-0.0265275947749614,1.134493708610535,0.0369624719023704,-0.3888603746891022,-0.0468099974095821,0.0602157711982727,0.0,0.0,-0.9355051517486572,0.2125309705734253
-0.0261223800480365,1.1256070137023926,0.0372043289244174,-0.3948630690574646,-0.0435375273227691,0.0654494017362594,0.0,0.0,-0.8974938988685608,0.6150960922241211
-0.0256551746279001,1.116584300994873,0.0445901341736316,-0.4009501338005066,-0.0414302609860897,0.0421455614268779,0.0,0.0,-0.6882142424583435,0.1328214406967163
-0.02518205717206,1.107426404953003,0.0449265763163566,-0.4069525599479675,-0.0390724241733551,0.0471569038927555,0.0,0.0,-0.9406164288520812,0.4251548051834106
-0.0247025489807128,1.0981334447860718,0.0453130826354026,-0.4129551351070404,-0.0364699028432369,0.0520502850413322,0.0,0.0,-0.6503539085388184,0.4333206415176391
