x_pos,y_pos,x_vel,y_vel,angle,ang_vel,leg_1,leg_2,main_booster,lat_booster
-0.0015396118396893,1.4035276174545288,-0.1559551805257797,-0.3285547494888305,0.0017866318812593,0.0352446176111698,0.0,0.0,-0.697412233707527,0.5269664441096527
-0.0030501366127282,1.3960590362548828,-0.1516768634319305,-0.3319385349750519,0.0024022681172937,0.0123147722333669,0.0,0.0,-0.9947762869587468,-0.5002654815309429
-0.0046066283248364,1.3884893655776978,-0.1570649147033691,-0.3364337682723999,0.0037958337925374,0.0278740227222442,0.0,0.0,-0.1654463530984273,0.9594860490353938
-0.0061177252791821,1.3808199167251587,-0.1509827524423599,-0.3408611714839935,0.0036743707023561,-0.002429369604215,0.0,0.0,-0.5638013981704866,0.6916389257724123
-0.0075774192810058,1.373056411743164,-0.1441777497529983,-0.3450488746166229,0.0019038617610931,-0.0354134999215602,0.0,0.0,0.8472799783352825,0.8969499612430278
-0.0088123325258493,1.3661062717437744,-0.120256021618843,-0.3088945150375366,-0.0012986882356926,-0.0640573725104332,0.0,0.0,-0.5881508210502906,-0.9217277225030782
-0.0101363183930516,1.3590593338012695,-0.1310857236385345,-0.3131987750530243,-0.0025942451320588,-0.0259130634367465,0.0,0.0,-0.4059169258572925,0.9256514647812002
-0.0113826747983694,1.3519179821014404,-0.1210316270589828,-0.3173992931842804,-0.0061622434295713,-0.0713666602969169,0.0,0.0,0.3109852238187092,0.5406197849503864
-0.0126055721193552,1.3456816673278809,-0.1175933256745338,-0.2771934568881988,-0.0108072161674499,-0.0929081216454505,0.0,0.0,-0.9025518644415718,-0.6463218731293483
-0.013891601935029,1.3393534421920776,-0.125228613615036,-0.2812822163105011,-0.0141524001955986,-0.0669098943471908,0.0,0.0,-0.3065625222953163,0.936287625665678
-0.0151051525026559,1.332927703857422,-0.1158442646265029,-0.285653293132782,-0.0196008030325174,-0.1089778169989585,0.0,0.0,-0.9155671710735788,-0.5940651914031623
-0.0163710601627826,1.3264052867889404,-0.1221585869789123,-0.289946585893631,-0.0239896718412637,-0.0877850279211998,0.0,0.0,0.2120130879181443,-0.6406323627390624
-0.017579173669219,1.3205571174621582,-0.1178579553961753,-0.2599733769893646,-0.0269123520702123,-0.0584587045013904,0.0,0.0,-0.9400891155584384,0.5048460536331524
-0.0187527649104595,1.3146055936813354,-0.1133107170462608,-0.2645935118198395,-0.0309327878057956,-0.0804159790277481,0.0,0.0,-0.2259618454547483,-0.5910686054952912
-0.0199712757021188,1.3085651397705078,-0.1187127083539962,-0.2685321867465973,-0.0340339541435241,-0.0620287470519542,0.0,0.0,-0.2718575244814913,0.8653410629946204
-0.0211176872253417,1.3024137020111084,-0.109482541680336,-0.2735184133052826,-0.039147350937128,-0.1022771000862121,0.0,0.0,0.3083474235088377,-0.705625089662898
-0.0221789367496967,1.2971855401992798,-0.1025888696312904,-0.2324626445770263,-0.0426463410258293,-0.0699860006570816,0.0,0.0,-0.6741009718209166,-0.8917274742856145
-0.0233010295778512,1.2918561697006226,-0.1100573167204856,-0.2369213551282882,-0.0447769276797771,-0.0426151230931282,0.0,0.0,-0.3588893028701789,-0.8167365018145121
-0.0244831088930368,1.2864415645599363,-0.1174415722489357,-0.2406772226095199,-0.0455278120934963,-0.0150194065645337,0.0,0.0,-0.5707113083935165,-0.5811898369366947
-0.0257224086672067,1.280933141708374,-0.1245093196630477,-0.2447963058948516,-0.0449530780315399,0.0114957150071859,0.0,0.0,-0.1863583470097787,-0.7657155671284854
-0.0270135886967182,1.2753368616104126,-0.1309260874986648,-0.2486731857061386,-0.0431627109646797,0.0358105897903442,0.0,0.0,0.3278554825252306,0.9472330868864132
-0.0282073020935058,1.2701656818389893,-0.1193061918020248,-0.2298312783241272,-0.0432350523769855,-0.0014469297602772,0.0,0.0,0.0977944412682647,-0.8980926274064117
-0.0293574333190917,1.2654366493225098,-0.1167795062065124,-0.2101340740919113,-0.0414915941655635,0.0348722152411937,0.0,0.0,0.4626638024879792,0.5824577504122032
-0.0303848274052143,1.2610113620758057,-0.1034882068634033,-0.1966614723205566,-0.0407446958124637,0.0149391051381826,0.0,0.0,-0.4723199001408389,0.8258279255980998
-0.0313628204166889,1.25648832321167,-0.0972927659749984,-0.2010357677936554,-0.0412423349916935,-0.0099536562338471,0.0,0.0,-0.6307814044766575,0.6326386194815541
-0.0323029533028602,1.2518479824066162,-0.0925515592098236,-0.2062737345695495,-0.0426853150129318,-0.0288595799356699,0.0,0.0,0.5534908847819116,0.9989972402326271
-0.0331293120980262,1.2481358051300049,-0.0791700929403305,-0.1650962084531784,-0.0461049154400825,-0.0683924257755279,0.0,0.0,-0.7269338787081232,0.5894885737776894
-0.0339165702462196,1.2443304061889648,-0.0743423253297805,-0.16926871240139,-0.0504380986094474,-0.0866633504629135,0.0,0.0,-0.1197227717233351,0.7727931480496233
-0.0346524231135845,1.240431308746338,-0.0679886713624,-0.1734914630651474,-0.0559731237590312,-0.1107006445527076,0.0,0.0,-0.3283881602089353,0.5140332971709977
-0.0353448875248432,1.2364306449890137,-0.0626512914896011,-0.1780661940574646,-0.0624967627227306,-0.1304725706577301,0.0,0.0,-0.6068536086599505,0.7118982614414398
-0.0359738357365131,1.2323365211486816,-0.0548223666846752,-0.1823195815086364,-0.0704831331968307,-0.1597276031970977,0.0,0.0,-0.991030752658844,-0.5763625502586365
-0.0366482734680175,1.2281484603881836,-0.0606707409024238,-0.1864731907844543,-0.0771805495023727,-0.1339484453201294,0.0,0.0,-0.9981580972671508,-0.5925633311271667
-0.037368394434452,1.223875641822815,-0.0666091665625572,-0.1901890188455581,-0.0825433135032653,-0.1072551384568214,0.0,0.0,-0.9893825650215148,-0.7176114320755005
-0.0381438247859478,1.2195075750350952,-0.0737070515751838,-0.1943496912717819,-0.0863389000296592,-0.0759117156267166,0.0,0.0,-0.998773157596588,-0.7366594076156616
-0.0389670357108116,1.2150520086288452,-0.0799144208431243,-0.1981763839721679,-0.0887207090854644,-0.0476362369954586,0.0,0.0,-0.9743051528930664,-0.311152696609497
-0.0397809036076068,1.2104994058609009,-0.0789599642157554,-0.2024794518947601,-0.0911203846335411,-0.0479937307536602,0.0,0.0,-0.864630401134491,0.1061813831329345
-0.0405845642089843,1.2058502435684204,-0.0779294967651367,-0.2067826092243194,-0.0935411602258682,-0.0484155677258968,0.0,0.0,-0.9879045486450196,0.400864839553833
-0.0413775444030761,1.2011044025421145,-0.0768269598484039,-0.2110857963562011,-0.0959863364696502,-0.0489037074148654,0.0,0.0,-0.9949949979782104,-0.4717925786972046
-0.0421589836478233,1.196261644363403,-0.0756563693284988,-0.2153890132904052,-0.0984593331813812,-0.0494599565863609,0.0,0.0,-0.9692177176475524,0.8091188669204712
-0.0428616516292095,1.191313624382019,-0.0660437867045402,-0.2201979458332061,-0.1026520952582359,-0.0838551893830299,0.0,0.0,-0.9566715359687804,-0.4117163419723511
-0.0435517318546772,1.1862690448760986,-0.0647492259740829,-0.2245022356510162,-0.1068797335028648,-0.0845527574419975,0.0,0.0,-0.9862167835235596,-0.4276853799819946
-0.0442287437617778,1.1811280250549316,-0.0633985251188278,-0.2288065552711486,-0.111145906150341,-0.0853234604001045,0.0,0.0,-0.8848477005958557,0.1768475770950317
-0.0448920242488384,1.1758904457092283,-0.0619954764842987,-0.2331109642982483,-0.1154543235898017,-0.0861686915159225,0.0,0.0,-0.883531391620636,-0.7444558143615723
-0.045590303838253,1.1705633401870728,-0.0666879266500473,-0.2370086312294006,-0.1185688525438308,-0.0622905492782592,0.0,0.0,-0.9181602001190186,0.0192606449127197
-0.0462740883231163,1.1651395559310913,-0.0651909261941909,-0.2413124591112136,-0.1217332929372787,-0.0632889941334724,0.0,0.0,-0.8629347681999207,-0.7245479822158813
-0.0469960197806358,1.1596213579177856,-0.0703083798289299,-0.245404303073883,-0.1236187815666198,-0.0377096459269523,0.0,0.0,-0.8551575541496277,-0.3331274390220642
-0.0477028861641883,1.1540066003799438,-0.0687308311462402,-0.2497077137231826,-0.1255620718002319,-0.0388658717274665,0.0,0.0,-0.8755548596382141,0.1720470190048217
-0.0483943000435829,1.1482951641082764,-0.0671176314353942,-0.2540111839771271,-0.1275672018527984,-0.0401024632155895,0.0,0.0,-0.8590972423553467,-0.0999876260757446
-0.0490697845816612,1.1424871683120728,-0.0654715746641159,-0.258314698934555,-0.129638209939003,-0.0414201058447361,0.0,0.0,-0.9669862985610962,-0.0708377957344055
-0.0497291572391986,1.136582612991333,-0.063795305788517,-0.2626183331012726,-0.131779208779335,-0.042819645255804,0.0,0.0,-0.7510954141616821,0.1026875972747802
-0.0503723137080669,1.130581259727478,-0.0620912425220012,-0.2669219970703125,-0.1339942514896392,-0.0443008951842784,0.0,0.0,-0.4711127281188965,-0.4610828161239624
-0.0509989745914936,1.1244834661483765,-0.0603616759181022,-0.2712258100509643,-0.1362875252962112,-0.045865349471569,0.0,0.0,-0.7840467095375061,-0.4553354382514953
-0.0516089424490928,1.1182888746261597,-0.058608703315258,-0.275529682636261,-0.1386631578207016,-0.0475128814578056,0.0,0.0,-0.9359610676765442,-0.8127639293670654
-0.0522645004093647,1.112018585205078,-0.0647166967391967,-0.2787638008594513,-0.139505922794342,-0.01685531437397,0.0,0.0,-0.3601747751235962,0.3152427673339844
-0.0529031753540039,1.1056514978408811,-0.0629224777221679,-0.2830674052238464,-0.1404393315315246,-0.0186685733497142,0.0,0.0,-0.5672658085823059,0.598193883895874
-0.0534854903817176,1.0991768836975098,-0.056186020374298,-0.2879547476768493,-0.1424748748540878,-0.0407113097608089,0.0,0.0,-0.8115978240966797,-0.7571722865104675
-0.0540996566414833,1.092623233795166,-0.0605725646018981,-0.2913516759872436,-0.1433285176753997,-0.0170727223157882,0.0,0.0,-0.5766741633415222,-0.719274640083313
-0.0547396652400493,1.0859854221343994,-0.0641503036022186,-0.2950026392936706,-0.1431752443313598,0.0030653497669845,0.0,0.0,-0.7396653890609741,-0.5185802578926086
-0.0553972236812114,1.0792638063430786,-0.0667065382003784,-0.2986423373222351,-0.1422182321548462,0.0191402547061443,0.0,0.0,-0.0847484469413757,0.5482431650161743
-0.0559990890324115,1.0724424123764038,-0.0600829608738422,-0.3031850755214691,-0.1423273086547851,-0.0021814811043441,0.0,0.0,-0.893791675567627,0.3813176155090332
-0.0565834045410156,1.065524339675903,-0.0582007952034473,-0.3074889779090881,-0.142551451921463,-0.00448280852288,0.0,0.0,-0.5336289405822754,0.4169447422027588
-0.0571498870849609,1.0585097074508667,-0.0563079826533794,-0.3117929100990295,-0.1428945958614349,-0.0068625649437308,0.0,0.0,-0.2830111980438232,0.1904883384704589
-0.0576986297965049,1.051398515701294,-0.0544054135680198,-0.3160968720912933,-0.1433605700731277,-0.009319569915533,0.0,0.0,-0.7213858366012573,0.1682981252670288
-0.0582294464111328,1.0441906452178955,-0.0524939224123954,-0.3204008936882019,-0.143953189253807,-0.0118524525314569,0.0,0.0,-0.7743966579437256,-0.069366455078125
-0.0587424263358116,1.03688645362854,-0.0505742728710174,-0.3247049748897552,-0.1446761637926101,-0.0144597692415118,0.0,0.0,-0.9634503722190856,-0.2517292499542236
-0.0592374801635742,1.0294855833053589,-0.0486471429467201,-0.3290091156959533,-0.1455331593751907,-0.0171400215476751,0.0,0.0,-0.7971057891845703,-0.0314502716064453
-0.0597146041691303,1.0219881534576416,-0.046713188290596,-0.3333133459091186,-0.1465277373790741,-0.0198916085064411,0.0,0.0,-0.678838312625885,-0.6313707232475281
-0.0602170936763286,1.0143963098526,-0.0502031743526458,-0.3374222218990326,-0.1465768665075302,-0.0009825847810134,0.0,0.0,-0.6053016781806946,0.1650673151016235
-0.060701560229063,1.0067079067230225,-0.0482572354376316,-0.3417264521121979,-0.1467704474925995,-0.0038716490380465,0.0,0.0,-0.8739802241325378,0.5492790937423706
-0.0611321441829204,0.9989125728607178,-0.041776243597269,-0.3465848863124847,-0.1480398327112198,-0.0253880508244037,0.0,0.0,-0.9706529378890992,-0.6507779359817505
-0.0616028793156147,0.9910364747047424,-0.0471604242920875,-0.3500375747680664,-0.1479588001966476,0.0016206869622692,0.0,0.0,-0.9664797782897948,-0.1008855104446411
-0.0620556846261024,0.9830639362335204,-0.0452001951634883,-0.354341983795166,-0.1480318009853363,-0.0014606098411604,0.0,0.0,-0.9522730112075806,0.1749953031539917
-0.0624903663992881,0.9749950170516968,-0.0432360358536243,-0.358646422624588,-0.1482619047164917,-0.0046019712463021,0.0,0.0,-0.9682391881942748,-0.670619547367096
-0.0629529953002929,0.9668397903442384,-0.0470512136816978,-0.3623751401901245,-0.1474744379520416,0.015749467536807,0.0,0.0,-0.9521310925483704,-0.5114482045173645
-0.063440129160881,0.958593487739563,-0.050424326211214,-0.3663299679756164,-0.1457717716693878,0.0340535379946231,0.0,0.0,-0.9588645100593568,-0.2638272047042846
-0.0639092475175857,0.9502508640289308,-0.0484505221247673,-0.3706347048282623,-0.1442345678806305,0.0307439919561147,0.0,0.0,-0.9768489599227904,0.1003516912460327
-0.0643602386116981,0.941811740398407,-0.0464741066098213,-0.3749394416809082,-0.1428654491901397,0.0273825265467166,0.0,0.0,-0.9975135326385498,0.2619355916976928
-0.0647932067513465,0.933276116847992,-0.0444953627884388,-0.3792441785335541,-0.1416668891906738,0.0239712558686733,0.0,0.0,-0.9899797439575196,0.1473668813705444
-0.0652080550789833,0.92464417219162,-0.0425145588815212,-0.3835488259792328,-0.1406412720680236,0.0205122884362936,0.0,0.0,-0.9789041876792908,0.2668828964233398
-0.0656047835946083,0.9159156084060668,-0.0405319593846797,-0.3878535032272339,-0.1397908926010131,0.0170076843351125,0.0,0.0,-0.9992682933807372,-0.528939962387085
-0.0660344138741493,0.9070957899093628,-0.0449171960353851,-0.3918056488037109,-0.1378363221883773,0.0390917994081974,0.0,0.0,-0.9991481900215148,-0.4645493030548095
-0.0664459243416786,0.8981795310974121,-0.0429317876696586,-0.3961105048656463,-0.1360612213611602,0.0355021320283412,0.0,0.0,-0.9987568855285645,0.1814618110656738
-0.0668393149971962,0.8891670107841492,-0.0409452877938747,-0.4004153311252594,-0.1344675868749618,0.031872984021902,0.0,0.0,-0.9998197555541992,-0.3302950859069824
-0.0672147721052169,0.8800579905509949,-0.0389579162001609,-0.4047200977802276,-0.1330572664737701,0.0282064191997051,0.0,0.0,-0.9964905977249146,0.0177562236785888
-0.0675722137093544,0.8708523511886597,-0.0369698926806449,-0.4090247750282287,-0.1318320333957672,0.024504380300641,0.0,0.0,-0.9994108080863952,0.457427978515625
-0.0679115280508995,0.8615504503250122,-0.034981433302164,-0.4133294820785522,-0.1307936012744903,0.0207688752561807,0.0,0.0,-0.9872971773147584,-0.5534313917160034
-0.0682750716805458,0.8521548509597778,-0.0382742397487163,-0.4174155294895172,-0.1288841217756271,0.038189485669136,0.0,0.0,-0.9870342016220092,-0.1564632654190063
-0.0686206817626953,0.8426626920700073,-0.0362855941057205,-0.4217203259468078,-0.1271644830703735,0.0343928635120391,0.0,0.0,-0.9984447956085204,0.213470458984375
-0.0689482688903808,0.8330742716789246,-0.0342971459031105,-0.4260250627994537,-0.1256360709667205,0.0305685009807348,0.0,0.0,-0.991325855255127,0.2911405563354492
-0.0692579299211502,0.8233892321586609,-0.0323091074824333,-0.4303297698497772,-0.1243001371622085,0.0267183147370815,0.0,0.0,-0.9953136444091796,-0.6596058011054993
-0.0696014389395713,0.8136224150657654,-0.0368428491055965,-0.4338761270046234,-0.121826484799385,0.0494731813669204,0.0,0.0,-0.996048867702484,0.0226492881774902
-0.0699271187186241,0.8037592172622681,-0.0348563827574253,-0.4381811320781708,-0.1195476278662681,0.045576624572277,0.0,0.0,-0.9974479675292968,-0.1090502738952636
-0.0702348724007606,0.7937995791435242,-0.0328710004687309,-0.4424860179424286,-0.1174646466970443,0.0416596159338951,0.0,0.0,-0.9978071451187134,-0.0170992016792297
-0.0705247893929481,0.7837433218955994,-0.0308869518339633,-0.4467908143997192,-0.1155784428119659,0.0377239324152469,0.0,0.0,-0.9992260336875916,-0.0114665627479553
-0.0707968696951866,0.7735908627510071,-0.0289044827222824,-0.4510955214500427,-0.1138898655772209,0.0337712727487087,0.0,0.0,-0.9994421005249025,-0.4382218718528747
-0.0710511207580566,0.7633418440818787,-0.0269238613545894,-0.455400139093399,-0.1123996973037719,0.0298033952713012,0.0,0.0,-0.99964702129364,-0.0482732653617858
-0.0712876319885253,0.7529963850975037,-0.0249453745782375,-0.459704726934433,-0.1111085936427116,0.0258219689130783,0.0,0.0,-0.9988691806793212,-0.5194504857063293
-0.0715551376342773,0.742567241191864,-0.0291200578212738,-0.4633395373821258,-0.1087648794054985,0.0468744710087776,0.0,0.0,-0.9994123578071594,0.3482580184936523
-0.0718050971627235,0.7320417761802673,-0.0271467976272106,-0.4676443040370941,-0.1066213250160217,0.0428710207343101,0.0,0.0,-0.9970123171806335,0.2189303636550903
-0.0720373168587684,0.7214198112487793,-0.0251766089349985,-0.4719490110874176,-0.1046783700585365,0.0388591215014457,0.0,0.0,-0.999537467956543,-0.8344221115112305
-0.0723259896039962,0.7107192873954773,-0.0325407646596431,-0.4753323495388031,-0.1010415032505989,0.0727374702692031,0.0,0.0,-0.9996681809425354,0.5804411172866821
-0.0725534409284591,0.6999136805534363,-0.0250930897891521,-0.4800947606563568,-0.0987160950899124,0.0465083010494709,0.0,0.0,-0.999022364616394,-0.5057035684585571
-0.0728109329938888,0.6890191435813904,-0.0290963016450405,-0.4839830994606018,-0.0953883975744247,0.0665540248155593,0.0,0.0,-0.9997427463531494,0.4351285696029663
-0.073050782084465,0.6780282855033875,-0.0271423906087875,-0.4882881045341491,-0.0922621563076973,0.062525026500225,0.0,0.0,-0.9998766779899596,0.0631035566329956
-0.0732732787728309,0.6669408082962036,-0.025193640962243,-0.4925929605960846,-0.0893373563885688,0.0584960393607616,0.0,0.0,-0.9999205470085144,0.4163249731063843
-0.0734782218933105,0.6557570695877075,-0.0232505835592746,-0.4968976676464081,-0.0866139233112335,0.0544688291847705,0.0,0.0,-0.9999322891235352,0.9799928665161132
-0.0735696777701377,0.6444717645645142,-0.0092397239059209,-0.5015614032745361,-0.0865122824907302,0.0020325183868408,0.0,0.0,-0.9990504384040833,0.621593713760376
-0.0735962837934494,0.6330888867378235,-0.0013641967670992,-0.5059784054756165,-0.087801456451416,-0.0257834251970052,0.0,0.0,-0.9978540539741516,-0.9014531970024108
-0.0736593231558799,0.6216270327568054,-0.0061847860924899,-0.5094199776649475,-0.0879173278808593,-0.0023175743408501,0.0,0.0,-0.9972374439239502,-0.8970264196395874
-0.0737669914960861,0.6100768446922302,-0.0120189264416694,-0.513265073299408,-0.0866723656654357,0.0248992573469877,0.0,0.0,-0.9999563694000244,0.1909250020980835
-0.0738575905561447,0.5984301567077637,-0.0101140439510345,-0.5175691843032837,-0.0856269150972366,0.020908934995532,0.0,0.0,-0.9950734376907348,0.4810932874679565
-0.0739312171936035,0.5866869688034058,-0.0082191731780767,-0.5218731760978699,-0.0847803279757499,0.0169318057596683,0.0,0.0,-0.99922913312912,0.713823676109314
-0.0739244446158409,0.574835479259491,0.001652730978094,-0.5267884731292725,-0.0857453718781471,-0.0193011835217475,0.0,0.0,-0.9958771467208862,-0.2845500707626343
-0.073900893330574,0.5628873705863953,0.0035246019251644,-0.5310924053192139,-0.0869076400995254,-0.0232453923672437,0.0,0.0,-0.9989481568336488,-0.8233469724655151
-0.0739397034049034,0.5508509278297424,-0.0045100348070263,-0.5349185466766357,-0.0862766504287719,0.0126197915524244,0.0,0.0,-0.9977157711982728,0.8103704452514648
-0.073900319635868,0.5387094020843506,0.0050621679984033,-0.5396888852119446,-0.0873978957533836,-0.0224244520068168,0.0,0.0,-0.9984650015830994,-0.7119300365447998
-0.073898509144783,0.5264770984649658,0.0001444976805942,-0.5436575412750244,-0.0873560607433319,0.0008367510745301,0.0,0.0,-0.998542845249176,0.2754960060119629
-0.0738804787397384,0.5141480565071106,0.0019557743798941,-0.547961413860321,-0.0875067114830017,-0.0030131561215966,0.0,0.0,-0.9985259175300598,-0.7866306900978088
-0.0738982185721397,0.5017328858375549,-0.0027531483210623,-0.5517288446426392,-0.0865335911512374,0.0194622315466403,0.0,0.0,-0.9987562894821168,0.4666008949279785
-0.0739001259207725,0.4892211258411407,-0.0009813364595174,-0.5560327768325806,-0.0857498124241828,0.0156755708158016,0.0,0.0,-0.996512770652771,0.2517503499984741
