x_pos,y_pos,x_vel,y_vel,angle,ang_vel,leg_1,leg_2,main_booster,lat_booster
-0.0015188216930255,1.402911901473999,-0.1534843891859054,-0.3559258878231048,0.0014324698131531,0.0282323602586984,0.0,0.0,0.5122495724574825,-0.9529721077414134
-0.0030548095237463,1.3948428630828855,-0.1566199362277984,-0.3586353957653045,0.0044256546534597,0.0598699152469635,0.0,0.0,-0.8229286479595439,0.6330482984170475
-0.0045257569290697,1.3860560655593872,-0.1482052654027938,-0.3905220031738281,0.0055188555270433,0.0218661241233348,0.0,0.0,0.6506362814139393,-0.6809301885089749
-0.0061787604354321,1.3773019313812256,-0.1670772731304168,-0.389089435338974,0.0072699524462223,0.0350253544747829,0.0,0.0,0.3811977323958866,0.9831921857551073
-0.0076307295821607,1.3686575889587402,-0.1447053253650665,-0.3841840326786041,0.006776365917176,-0.009872319176793,0.0,0.0,-0.0907861770197657,0.6246567116550866
-0.0090196607634425,1.3593004941940308,-0.1364392340183258,-0.4158684015274048,0.0043539986945688,-0.0484520345926284,0.0,0.0,0.084581277184546,0.935679844813011
-0.010351943783462,1.3497997522354126,-0.1284691840410232,-0.4222457110881805,-0.00034604978282,-0.0940098017454147,0.0,0.0,-0.2424743715901358,-0.9218380994696148
-0.0117370607331395,1.3395891189575195,-0.1347195953130722,-0.4538060426712036,-0.0041073197498917,-0.0752320736646652,0.0,0.0,-0.3406575083848493,-0.6324789574735333
-0.0131723405793309,1.328673243522644,-0.140562504529953,-0.485157310962677,-0.0070374486967921,-0.0586076863110065,0.0,0.0,-0.6196256159494897,0.6095313348765578
-0.0145596507936716,1.3170483112335205,-0.1340945661067962,-0.5166927576065063,-0.011628832668066,-0.0918359756469726,0.0,0.0,-0.1924432174888253,0.8528989951899808
-0.0158711429685354,1.3047103881835938,-0.124086894094944,-0.5484179258346558,-0.0186144448816776,-0.1397248953580856,0.0,0.0,-0.3826286823747784,0.851159586794962
-0.0171095840632915,1.2916569709777832,-0.1143994778394699,-0.580292284488678,-0.0279553830623626,-0.1868360936641693,0.0,0.0,-0.8884481735687915,0.8839792722878643
-0.0182661060243845,1.2778936624526978,-0.1035671457648277,-0.6119726300239563,-0.0399045012891292,-0.2390044927597046,0.0,0.0,-0.3339319958657314,0.831173777665443
-0.0193535797297954,1.2634083032608032,-0.09433214366436,-0.6442482471466064,-0.0541753210127353,-0.2854422926902771,0.0,0.0,0.808226522733301,-0.8714597077220843
-0.020295238122344,1.2495648860931396,-0.0813344493508338,-0.6157700419425964,-0.0668801888823509,-0.2541206479072571,0.0,0.0,0.8499173770118318,-0.8103769742299729
-0.0211509708315134,1.2354925870895386,-0.0741705074906349,-0.6259824633598328,-0.0781886354088783,-0.2261891663074493,0.0,0.0,-0.8681051422285704,-0.7410521366087939
-0.0220588687807321,1.2207236289978027,-0.0800339207053184,-0.6569933295249939,-0.0888577550649643,-0.2134012877941131,0.0,0.0,0.114233338786311,0.7175276340088508
-0.0227881427854299,1.205593824386597,-0.0603558830916881,-0.6732320189476013,-0.1013458520174026,-0.2497847974300384,0.0,0.0,0.4201349213681131,-0.9528820344757042
-0.0234369281679391,1.1907892227172852,-0.0538109466433525,-0.6587684750556946,-0.1123542860150337,-0.2201885282993316,0.0,0.0,-0.6844183231014274,0.9894655971243712
-0.024030303582549,1.175262689590454,-0.0460537448525428,-0.691123366355896,-0.1255813241004943,-0.2645643651485443,0.0,0.0,-0.849663271046204,0.8339835261754148
-0.0245572086423635,1.1590181589126587,-0.0368836186826229,-0.7233848571777344,-0.1413320451974868,-0.3150432407855987,0.0,0.0,0.2465111378803988,-0.8381730262715315
-0.0251074787229299,1.1425676345825195,-0.0404327549040317,-0.732578694820404,-0.155915766954422,-0.2917007207870483,0.0,0.0,-0.6193113874425811,-0.8536769747668798
-0.0257262233644723,1.12541925907135,-0.0481444932520389,-0.7636494040489197,-0.1696777492761612,-0.2752638757228851,0.0,0.0,-0.2692566709018129,-0.8606403877913504
-0.0264232642948627,1.107567548751831,-0.0569932051002979,-0.7949193716049194,-0.1824396401643753,-0.2552608549594879,0.0,0.0,-0.5003651115530028,-0.671380915117098
-0.0272040367126464,1.089025616645813,-0.0665409639477729,-0.8255424499511719,-0.194055899977684,-0.2323453873395919,0.0,0.0,-0.8736476386158551,-0.7682760172464754
-0.0280825607478618,1.0697786808013916,-0.0777058154344558,-0.856781542301178,-0.2042748183012008,-0.2043783664703369,0.0,0.0,0.4320762975643304,-0.7996848251658708
-0.0289143566042184,1.050769567489624,-0.0741297155618667,-0.8461243510246277,-0.2134009003639221,-0.1825214922428131,0.0,0.0,0.4580268665825595,0.9432570213122328
-0.029671287164092,1.0321462154388428,-0.064162403345108,-0.8294187188148499,-0.2250634580850601,-0.2332512140274047,0.0,0.0,-0.8594130449856612,-0.764573528182424
-0.030525779351592,1.0128440856933594,-0.0752806141972541,-0.8594648838043213,-0.2353716492652893,-0.20616415143013,0.0,0.0,0.9784804921884476,-0.9886337480974612
-0.031376551836729,0.9937171339988708,-0.0763186886906623,-0.8515132069587708,-0.2442608326673507,-0.1777838170528412,0.0,0.0,0.2686770317836722,-0.8674098692116348
-0.0321494117379188,0.9748545289039612,-0.0697763562202453,-0.8396013379096985,-0.251903772354126,-0.1528593897819519,0.0,0.0,0.6155323248602214,0.7680779414333676
-0.0328712463378906,0.9559091329574584,-0.0625062733888626,-0.8437162637710571,-0.261780321598053,-0.1975308060646057,0.0,0.0,-0.3998143340400877,-0.7097001011731557
-0.0336876884102821,0.9362850785255432,-0.0730721279978752,-0.8737396597862244,-0.2705435454845428,-0.1752644479274749,0.0,0.0,-0.5081531046110779,0.956284419063073
-0.0344767570495605,0.9159159064292908,-0.0681615620851516,-0.9073169231414796,-0.2815732061862945,-0.2205934077501297,0.0,0.0,-0.2739106231566335,-0.7605173901881119
-0.0353595726191997,0.894863486289978,-0.0785017907619476,-0.937583029270172,-0.2916255295276642,-0.2010464668273925,0.0,0.0,-0.6083389224182303,-0.8294017857525309
-0.0363415703177452,0.8731347322463989,-0.0895285978913307,-0.9674809575080872,-0.300562709569931,-0.1787433922290802,0.0,0.0,-0.9675400831592356,0.7764215899003909
-0.0373099334537982,0.8506668210029602,-0.0862338468432426,-1.0007989406585691,-0.3115400671958923,-0.2195469141006469,0.0,0.0,-0.890318757785147,-0.6230426022339611
-0.0383642204105854,0.827515721321106,-0.0955147370696067,-1.0311075448989868,-0.3218476474285126,-0.2061517685651779,0.0,0.0,-0.5658770041515278,-0.9826194702476948
-0.0395396240055561,0.8037046790122986,-0.1091918349266052,-1.0601495504379272,-0.3305310308933258,-0.1736674010753631,0.0,0.0,0.7938640525159095,-0.6818270740854253
-0.0405667312443256,0.7801312804222107,-0.0953080803155899,-1.0494238138198853,-0.3382671475410461,-0.1547225415706634,0.0,0.0,0.7977040642937347,0.987211314316882
-0.0414087288081646,0.7570810317993164,-0.0742322653532028,-1.0268226861953735,-0.3487167060375213,-0.2089914977550506,0.0,0.0,0.6760318279266357,-0.997875154018402
-0.0420611388981342,0.734036386013031,-0.0568970367312431,-1.0262635946273804,-0.3574860990047455,-0.1753876209259033,0.0,0.0,0.8894420862197876,-0.9978163242340088
-0.0426002517342567,0.7107519507408142,-0.0472083091735839,-1.0365499258041382,-0.3645587563514709,-0.1414528787136078,0.0,0.0,0.8724684715270996,-0.9992229342460632
-0.0429362282156944,0.687570333480835,-0.028524775058031,-1.0315901041030884,-0.3699195981025696,-0.1072168499231338,0.0,0.0,0.6983559131622314,-0.9998024702072144
-0.0433382987976074,0.6641595959663391,-0.0365316979587078,-1.0414403676986694,-0.3738131821155548,-0.0778717100620269,0.0,0.0,0.9870901107788086,-0.9984051585197448
-0.0436693206429481,0.64059978723526,-0.0309558417648077,-1.0476609468460083,-0.3760850131511688,-0.0454372875392437,0.0,0.0,0.9916279315948486,-0.9998028874397278
-0.0438596718013286,0.6170749068260193,-0.018467852845788,-1.0457030534744265,-0.3766921162605285,-0.0121419485658407,0.0,0.0,0.9828766584396362,-0.9980667233467102
-0.0439512245357036,0.5943712592124939,-0.0098253916949033,-1.0088752508163452,-0.3759887516498565,0.0140673564746975,0.0,0.0,0.991319179534912,-0.998702585697174
-0.0439911857247352,0.572431743144989,-0.0058468081988394,-0.9745986461639404,-0.3740215897560119,0.039343923330307,0.0,0.0,0.9859050512313844,-0.9989172220230104
-0.0439707748591899,0.5506917834281921,-0.001218345714733,-0.9653730392456056,-0.3705631196498871,0.0691687613725662,0.0,0.0,0.9987736940383912,-0.9925310611724854
-0.0436580665409565,0.5291455388069153,0.0262551754713058,-0.9563227295875548,-0.3652618825435638,0.1060246005654335,0.0,0.0,0.9915492534637452,-0.9903668761253356
-0.0432365424931049,0.508222758769989,0.0357974283397197,-0.9282996654510498,-0.3585574924945831,0.1340878903865814,0.0,0.0,0.9956041574478148,-0.9909732937812804
-0.0426307693123817,0.4873035252094269,0.0525410063564777,-0.9277580380439758,-0.350096583366394,0.1692177504301071,0.0,0.0,0.9988226890563964,-0.9675692319869996
-0.0418271049857139,0.4670801162719726,0.0708777979016304,-0.89654141664505,-0.3401459753513336,0.199011892080307,0.0,0.0,0.9773869514465332,-0.985497236251831
-0.0407854095101356,0.4469094574451446,0.092895932495594,-0.89385986328125,-0.3283672332763672,0.2355747520923614,0.0,0.0,0.9876166582107544,-0.9720207452774048
-0.0398244857788085,0.4269295036792755,0.0835662633180618,-0.8852064609527588,-0.3153333961963653,0.2606772780418396,0.0,0.0,0.993556022644043,-0.9051121473312378
-0.038583755493164,0.4075959920883178,0.1099722385406494,-0.8562704920768738,-0.3007166683673858,0.2923340797424316,0.0,0.0,0.9775245189666748,-0.9266930222511292
-0.0370706543326377,0.3886666297912597,0.1354651898145675,-0.838118851184845,-0.284385621547699,0.3266215324401855,0.0,0.0,0.9954259395599364,-0.4286462068557739
-0.0352645888924598,0.3704235851764679,0.164779245853424,-0.8078039288520813,-0.2681427001953125,0.3248587250709533,0.0,0.0,0.9921951293945312,-0.9205448031425476
-0.0334467887878418,0.3529203534126282,0.16472689807415,-0.7748892903327942,-0.2507210075855255,0.3484344780445099,0.0,0.0,0.980299949645996,-0.827065110206604
-0.0315924659371376,0.3353478014469147,0.1670036017894745,-0.7779654860496521,-0.2319951355457306,0.3745176792144775,0.0,0.0,0.8722845315933228,-0.8816925287246704
-0.0298192016780376,0.3183010518550873,0.157796561717987,-0.7546802163124084,-0.2122186422348022,0.3955297470092773,0.0,0.0,0.9783908128738404,-0.8625621795654297
-0.0278993602842092,0.3014248013496399,0.1708017289638519,-0.7471520900726318,-0.1908799856901168,0.4267730712890625,0.0,0.0,0.9906375408172609,-0.7675843834877014
-0.0259446147829294,0.2849408090114593,0.1731055080890655,-0.7298960089683533,-0.1684268563985824,0.4490628242492676,0.0,0.0,0.9722404479980468,-0.4215055704116821
-0.0239768028259277,0.2684569358825683,0.1747683584690094,-0.7302678823471069,-0.146427109837532,0.4399950504302978,0.0,0.0,0.9646027088165284,-0.4323886632919311
-0.0221291538327932,0.2523425817489624,0.1638678014278412,-0.7142709493637085,-0.1256030201911926,0.4164820611476898,0.0,0.0,0.9824299812316896,0.0336530208587646
-0.020204734057188,0.2370454221963882,0.1718636155128479,-0.6782705187797546,-0.1051526293158531,0.4090079665184021,0.0,0.0,0.9735556840896606,-0.0689306259155273
-0.0182238575071096,0.221547469496727,0.1774932891130447,-0.6874765753746033,-0.0847396180033683,0.4082602858543396,0.0,0.0,0.9985158443450928,0.3761458396911621
-0.0162011142820119,0.2068820148706436,0.1819922626018524,-0.6507673859596252,-0.0646643191576004,0.4015062749385834,0.0,0.0,0.9928741455078124,0.1361559629440307
-0.0143330572172999,0.1923751980066299,0.1675266623497009,-0.6440252065658569,-0.0456008613109588,0.3812692165374756,0.0,0.0,0.9858431816101074,0.2188694477081298
-0.0126164434477686,0.1783877164125442,0.1533680856227874,-0.6212084889411926,-0.0275324210524559,0.3613689243793487,0.0,0.0,0.9824817180633544,0.3358505964279175
-0.0109207155182957,0.1648102402687072,0.1515869349241256,-0.6032078862190247,-0.0097753619775176,0.3551412522792816,0.0,0.0,0.9716963768005372,0.5721487998962402
-0.0094115259125828,0.1520437747240066,0.1350496262311935,-0.5673683285713196,0.0058967964723706,0.3134433627128601,0.0,0.0,0.995638370513916,0.1571145057678222
-0.0078956605866551,0.1396150738000869,0.1357780247926712,-0.5525272488594055,0.02150259912014,0.3121158480644226,0.0,0.0,0.9895126819610596,0.3616721630096435
-0.0065081594511866,0.1271815598011016,0.1236051172018051,-0.5528861284255981,0.036446563899517,0.2988795638084411,0.0,0.0,0.9975571632385254,0.2253836393356323
-0.0051303864456713,0.1146317571401596,0.1227505803108215,-0.5582019686698914,0.0512998811900615,0.29706671833992,0.0,0.0,0.9997644424438475,0.6185455322265625
-0.0038421631325036,0.1019814610481262,0.1156286001205444,-0.5627375841140747,0.0643435418605804,0.2608732581138611,0.0,0.0,0.9998314380645752,0.4593019485473633
-0.0027021407149732,0.0900565013289451,0.1013405174016952,-0.5305883288383484,0.0768764391541481,0.2506580650806427,0.0,0.0,0.9997735023498536,0.5656121969223022
-0.0015666007529944,0.0789196789264679,0.1021924614906311,-0.4955890476703644,0.0881195738911628,0.224863052368164,0.0,0.0,0.9999765157699584,-0.1680023670196533
-0.0007284164312295,0.0685316622257232,0.0735727101564407,-0.4623241424560547,0.0982788130640983,0.2031846344470977,0.0,0.0,0.9999399185180664,0.5360540151596069
-0.0001258850097656,0.0580063909292221,0.0520426146686077,-0.4683489799499511,0.1064254790544509,0.1629334986209869,0.0,0.0,0.9999489784240724,0.4338725805282593
0.0003505706845317,0.0482038110494613,0.0396644957363605,-0.4362607598304748,0.1143521517515182,0.1585334986448288,0.0,0.0,0.9999675750732422,0.8461811542510986
0.0006091117975302,0.0387151576578617,0.0203036442399024,-0.4221543669700622,0.1198667809367179,0.1102923974394798,0.0,0.0,0.9999933242797852,0.983381986618042
0.0007027626270428,0.0297401994466781,0.0063630370423197,-0.3991302847862243,0.1228541657328605,0.0597477778792381,0.0,0.0,0.999587059020996,0.8834652900695801
0.0006765365833416,0.0213262885808944,-0.0033877440728247,-0.3740145266056061,0.1236162260174751,0.0152412932366132,0.0,0.0,0.999959111213684,0.8344837427139282
0.0006752967601642,0.0132810929790139,0.0009496235288679,-0.3574756979942322,0.1225387081503868,-0.0215502921491861,0.0,0.0,0.9999842643737792,0.919057846069336
0.0006056785350665,0.0059552644379436,0.0152514073997735,-0.3238783478736877,0.1006362363696098,-0.4378440976142883,0.0,1.0,0.979682207107544,0.1259845495223999
0.0004744529724121,-0.0006455802940763,0.0275949444621801,-0.2911127805709839,0.0603528879582881,-0.805598258972168,0.0,1.0,0.9702391624450684,-0.362845778465271
0.0003676414489746,-0.0063120867125689,0.0459849759936332,-0.2505344748497009,0.0043157082982361,-1.12082839012146,1.0,1.0,0.9530582427978516,-0.9981022477149964
0.0003495216369628,-0.0108763836324214,0.0473133586347103,-0.2037154287099838,-0.0427460968494415,-0.9393938779830932,1.0,1.0,0.9644601345062256,-0.99038565158844
0.0003715515194926,-0.0138415833935141,0.037719439715147,-0.1331998705863952,-0.0778302922844886,-0.7016445994377136,1.0,1.0,0.908788561820984,-0.953481912612915
0.0005131721263751,-0.0153279565274715,0.0356047935783863,-0.0673237964510917,-0.099041923880577,-0.4242044985294342,1.0,1.0,0.8178328275680542,-0.7267581820487976
0.0008526801830157,-0.0156183866783976,0.0424510650336742,-0.0134954517707228,-0.107470728456974,-0.1685605943202972,1.0,1.0,0.5597155094146729,-0.9784384965896606
0.0012598037719726,-0.0153143666684627,0.038508266210556,0.0136680286377668,-0.1052674576640129,0.0440783686935901,1.0,1.0,-0.2407234907150268,-0.9575154781341552
0.0015082359313964,-0.0147867584601044,0.01968914270401,0.0238056741654872,-0.1001595556735992,0.1021566390991211,1.0,1.0,-0.1313814520835876,-0.1047019958496093
0.0017166137695312,-0.0141127733513712,0.0159251112490892,0.030280228704214,-0.0952957645058631,0.097260482609272,1.0,1.0,-0.0626155138015747,-0.6508407592773438
0.001861858414486,-0.0133740566670894,0.0092264609411358,0.0331605300307273,-0.0900379046797752,0.1051626205444336,1.0,1.0,0.3344860076904297,-0.4902795553207397
0.0020206451881676,-0.0120389964431524,0.0063779465854167,0.0598780401051044,-0.0806343853473663,0.1880722343921661,1.0,1.0,0.3569532632827759,0.7486271858215332
0.0023819922935217,-0.0105329891666769,0.0265310071408748,0.0674217119812965,-0.0711299479007721,0.1900769174098968,1.0,1.0,0.1998416185379028,0.1272968053817749
0.0027290345169603,-0.008944621309638,0.0262532941997051,0.0709731504321098,-0.0627778321504592,0.167047306895256,1.0,1.0,-0.1699921488761901,0.1149359941482544
0.0030581473838537,-0.008025374263525,0.0260103531181812,0.0411281809210777,-0.0559438876807689,0.1366823017597198,0.0,1.0,-0.9636406302452089,0.6664828062057495
0.0033986091148108,-0.007728757802397,0.0318030416965484,0.0132657848298549,-0.0537288822233676,0.0442995205521583,0.0,1.0,-0.9663929343223572,0.1502354145050048
0.0036880492698401,-0.0080191874876618,0.0311393439769744,-0.0129869002848863,-0.0558999665081501,-0.0434266589581966,0.0,1.0,-0.6059938669204712,-0.0970907211303711
0.0039533614180982,-0.0088742040097713,0.0329764857888221,-0.0382539294660091,-0.0622854046523571,-0.1277175396680832,0.0,1.0,-0.571806788444519,0.0051702260971069
0.0042019844986498,-0.0098560359328985,0.0318716466426849,-0.0439676977694034,-0.0691347792744636,-0.1368784457445144,1.0,1.0,0.8758690357208252,-0.8049150705337524
0.0044533731415867,-0.0101999305188655,0.0275439415127038,-0.0154100051149725,-0.0714487582445144,-0.0461892858147621,1.0,1.0,0.0285587310791015,-0.8732430934906006
0.0047450065612792,-0.0098161958158016,0.026347005739808,0.0171807520091533,-0.06861013174057,0.0568314120173454,1.0,1.0,-0.2506802082061767,-0.5425224900245667
0.0049239159561693,-0.0093550710007548,0.0144814532250165,0.0206432472914457,-0.0652031227946281,0.0681818053126335,1.0,1.0,-0.2364739775657653,-0.8160496354103088
0.0050450325943529,-0.0088419103994965,0.0083219995722174,0.0229626726359128,-0.0614328011870384,0.0754455775022506,1.0,1.0,0.0886944532394409,-0.2434805631637573
0.0052690505981445,-0.0079598566517233,0.0159808062016963,0.0394475609064102,-0.0550601929426193,0.1274825781583786,1.0,1.0,0.1976410150527954,0.421847939491272
0.0055539133027195,-0.0066986107267439,0.0193082466721534,0.0563643388450145,-0.0459755808115005,0.1817145347595214,1.0,1.0,-0.0973394513130188,0.5496923923492432
0.0058558462187647,-0.0059644724242389,0.0247596949338912,0.0327823124825954,-0.0405916534364223,0.1076989397406578,1.0,1.0,-0.1983579993247985,-0.170266568660736
0.0061007500626146,-0.0056912447325885,0.0223869252949953,0.0121938241645693,-0.0384940207004547,0.0419744811952114,1.0,1.0,-0.7341495156288147,-0.7616563439369202
0.0061964988708496,-0.0057038329541683,0.0095711592584848,-0.0005649566301144,-0.0384597443044185,0.0007121466915123,1.0,1.0,-0.6741564273834229,-0.4423325061798095
0.0062593459151685,-0.0058499597944319,0.0072477487847208,-0.0065250471234321,-0.0393877439200878,-0.0185323618352413,1.0,1.0,-0.5677921175956726,-0.3860745429992676
0.0063078878447413,-0.005952563136816,0.0054964292794466,-0.0045836819335818,-0.0400039404630661,-0.0122975539416074,1.0,1.0,-0.694527804851532,-0.3678069710731506
0.006326007656753,-0.0059165144339203,0.0014483479317277,0.0016171463066712,-0.0396189987659454,0.0077246250584721,1.0,1.0,-0.6918476223945618,-0.040597379207611
0.0063352584838867,-0.0057209990918636,-0.0007712236838415,0.00874391105026,-0.0379682928323745,0.0329887717962265,1.0,1.0,-0.5221701264381409,-0.0616986155509948
0.0063588144257664,-0.0053526069968938,-0.0004683030419982,0.0164399184286594,-0.0351776108145713,0.0558199286460876,1.0,1.0,-0.2961182594299316,0.5451149940490723
0.0064512253738939,-0.0048655178397893,0.0055500129237771,0.0217311158776283,-0.0315297618508338,0.0729615315794944,1.0,1.0,-0.5550021529197693,0.6320362091064453
0.0066202161833643,-0.0043226741254329,0.0127850454300642,0.0242079719901084,-0.0274721328169107,0.0811558216810226,1.0,1.0,-0.0510405898094177,0.4935401678085327
