x_pos,y_pos,x_vel,y_vel,angle,ang_vel,leg_1,leg_2,main_booster,lat_booster
-0.0015147209633141,1.4031342267990112,-0.1534547507762909,-0.3460462689399719,0.0017783881630748,0.0350813493132591,0.0,0.0,-0.3123637437820434,0.6254326105117798
-0.0029672621749341,1.3948780298233032,-0.1456636786460876,-0.3669419884681701,0.0021848524920642,0.0081306127831339,0.0,0.0,-0.4187793135643005,0.8786534070968628
-0.0043266294524073,1.386124849319458,-0.134216234087944,-0.3890296220779419,0.0004889146075583,-0.033921904861927,0.0,0.0,-0.1596895456314087,0.2400270700454712
-0.0056773186661303,1.376881122589111,-0.1333675980567932,-0.410828948020935,-0.0011836502235382,-0.0334546193480491,0.0,0.0,-0.4066908359527588,0.7335622310638428
-0.0069494247436523,1.3671493530273438,-0.1237663403153419,-0.4325295686721802,-0.0045929020270705,-0.068191610276699,0.0,0.0,0.3681081533432007,0.7166798114776611
-0.0080284122377634,1.3575997352600098,-0.1032764539122581,-0.4244494140148163,-0.0091714533045887,-0.0915793925523758,0.0,0.0,-0.3270006775856018,-0.6485916376113892
-0.0091526983305811,1.3475605249404907,-0.1091750636696815,-0.4462114870548248,-0.0123888570815324,-0.0643540173768997,0.0,0.0,-0.3217924237251282,0.3273069858551025
-0.0102698327973485,1.3370311260223389,-0.1084854155778884,-0.4680050015449524,-0.0155769269913434,-0.063767209649086,0.0,0.0,-0.0182963013648986,0.1555914878845214
-0.0113801956176757,1.326011300086975,-0.1078516840934753,-0.4898006319999695,-0.0187340173870325,-0.0631473660469055,0.0,0.0,0.9588457345962524,-0.3161002397537231
-0.0124692916870117,1.3157930374145508,-0.10575482994318,-0.4541901051998138,-0.0218647923320531,-0.0626210644841194,0.0,0.0,-0.1313763260841369,0.5963616371154785
-0.0134994508698582,1.30508291721344,-0.098515585064888,-0.4760766327381134,-0.0263156704604625,-0.0890256091952323,0.0,0.0,-0.514934778213501,-0.6215360760688782
-0.0145682338625192,1.293883204460144,-0.1035077944397926,-0.4978308081626892,-0.0296484772115945,-0.0666623786091804,0.0,0.0,0.5339665412902832,-0.1591168642044067
-0.0154930111020803,1.2831615209579468,-0.0897153168916702,-0.4765773415565491,-0.0323817282915115,-0.0546696409583091,0.0,0.0,-0.7206193208694458,-0.4493315815925598
-0.0164149291813373,1.271949291229248,-0.0894518196582794,-0.4983816742897033,-0.0350883342325687,-0.0541373901069164,0.0,0.0,-0.4454095363616943,-0.1103202700614929
-0.0173347480595111,1.2602468729019165,-0.0892775058746337,-0.5201750993728638,-0.0377700217068195,-0.0536383911967277,0.0,0.0,-0.7617372274398804,-0.5069432854652405
-0.0182865150272846,1.2480499744415283,-0.0933165624737739,-0.5421329736709595,-0.0396071188151836,-0.0367454402148723,0.0,0.0,0.078452467918396,-0.876960277557373
-0.0191794391721487,1.2362077236175537,-0.0892322957515716,-0.5263272523880005,-0.0396586246788501,-0.0010304045863449,0.0,0.0,-0.7227421998977661,0.3277070522308349
-0.0200735088437795,1.223874807357788,-0.0893652215600013,-0.5481299161911011,-0.0396953932940959,-0.0007355232373811,0.0,0.0,-0.3525830507278442,-0.6551644802093506
-0.0210129730403423,1.2110604047775269,-0.0950303375720977,-0.5695041418075562,-0.0386275686323642,0.0213582199066877,0.0,0.0,-0.5452367067337036,-0.0597285628318786
-0.0219559669494628,1.1977555751800537,-0.095386765897274,-0.591300368309021,-0.0375528372824192,0.0214965604245662,0.0,0.0,-0.5149208307266235,-0.12026047706604
-0.0229037292301654,1.1839600801467896,-0.0958592817187309,-0.6130965352058411,-0.0364750400185585,0.0215575471520423,0.0,0.0,-0.6351633667945862,-0.3148960471153259
-0.0238574035465717,1.1696743965148926,-0.0964517742395401,-0.6348927021026611,-0.0353993363678455,0.0215157829225063,0.0,0.0,-0.3554233312606811,-0.2788175344467163
-0.024818230420351,1.1548984050750732,-0.0971674472093582,,-0.0343310311436653,0.0213680248707532,0.0,0.0,0.4349312782287597,-0.3621774315834045
-0.0257176402956247,1.1400353908538818,-0.0912981703877449,-0.6605533361434937,-0.032994095236063,0.0267413519322872,0.0,0.0,0.0108662843704223,-0.1613572835922241
-0.0267008785158395,1.1252763271331787,-0.0992488488554954,-0.6559321284294128,-0.0320793688297271,0.018296293914318,0.0,0.0,-0.6726201176643372,-0.5904073119163513
-0.0277538299560546,1.1100116968154907,-0.1076665297150611,-0.6783875226974487,-0.0297306329011917,0.0469746924936771,0.0,0.0,-0.1609917283058166,-0.5254576802253723
-0.0288605690002441,1.0942617654800415,-0.114074632525444,-0.699933648109436,-0.0263750255107879,0.0671118721365928,0.0,0.0,-0.5626354813575745,0.4331473112106323
-0.0299814231693744,1.07802152633667,-0.1154427677392959,-0.7217287421226501,-0.023058446124196,0.0663316994905471,0.0,0.0,0.0692757368087768,0.7948927879333496
-0.0311412811279296,1.0620508193969729,-0.1176471933722496,-0.7097905874252319,-0.0214167721569538,0.0328336432576179,0.0,0.0,-0.1191028952598571,-0.5278376936912537
-0.0323613174259662,1.0455889701843262,-0.1247161030769348,-0.7315959334373474,-0.0187429320067167,0.0534768104553222,0.0,0.0,-0.5354373455047607,0.7161192893981934
-0.0335412994027137,1.0286434888839722,-0.1191582456231117,-0.7531232833862305,-0.0175989624112844,0.0228794515132904,0.0,0.0,-0.3850715756416321,-0.2994012236595154
-0.034741211682558,1.0112075805664062,-0.1210810169577598,-0.774917483329773,-0.0165251102298498,0.0214767586439847,0.0,0.0,-0.4606688618659973,-0.6186950206756592
-0.036018181592226,0.993288516998291,-0.1301221251487732,-0.7963765263557434,-0.014130474999547,0.0478929951786994,0.0,0.0,0.9647281169891356,0.1936491727828979
-0.0373877510428428,0.9755243062973022,-0.1389429122209549,-0.7895116806030273,-0.0121737513691186,0.0391347929835319,0.0,0.0,0.1976023912429809,-0.1978905797004699
-0.038764476776123,0.9579511880874634,-0.1396076679229736,-0.7810066342353821,-0.0102585209533572,0.0383043922483921,0.0,0.0,0.5965794324874878,0.17616868019104
-0.0401419624686241,0.9409838914871216,-0.1396635919809341,-0.7540877461433411,-0.008367147296667,0.037827331572771,0.0,0.0,0.241113543510437,0.0314427614212036
-0.0415637008845806,0.9240396022796632,-0.1438767313957214,-0.7530702948570251,-0.0066812844015657,0.0337172523140907,0.0,0.0,0.2062849998474121,-0.1218172907829284
-0.0429826751351356,0.9074383974075316,-0.1436134725809097,-0.7378252148628235,-0.0049905213527381,0.0338152237236499,0.0,0.0,-0.8954560160636902,0.1932675838470459
-0.0444320663809776,0.8903467655181885,-0.1465083062648773,-0.7596194744110107,-0.0034328331239521,0.0311535689979791,0.0,0.0,-0.4774736166000366,0.7004760503768921
-0.0458550453186035,0.8727654814720154,-0.1422552168369293,-0.7813907265663147,-0.0034761065617203,-0.0008656048448756,0.0,0.0,-0.0379807949066162,-0.2063965201377868
-0.0473112091422081,0.8546938300132751,-0.1454164832830429,-0.8031846284866333,-0.0036716612521559,-0.0039111962541937,0.0,0.0,0.5393893718719482,0.190915822982788
-0.0486851707100868,0.8368628025054932,-0.1375659853219986,-0.7924874424934387,-0.0034972401335835,0.0034882701002061,0.0,0.0,-0.1075050830841064,-0.122732400894165
-0.0500948913395404,0.8185415267944336,-0.1409845650196075,-0.8142815232276917,-0.0034945488441735,5.390573642216623e-05,0.0,0.0,0.714040994644165,0.0895526409149169
-0.0514370910823345,0.8005520105361938,-0.1345163583755493,-0.7995365262031555,-0.0031968387775123,0.0059541733935475,0.0,0.0,0.850035548210144,0.4677259922027588
-0.0528622642159462,0.7825669050216675,-0.1424128264188766,-0.799336850643158,-0.003300912445411,-0.0020813690498471,0.0,0.0,0.7145998477935791,0.6199580430984497
-0.0542257316410541,0.7646049857139587,-0.1349119842052459,-0.7983176112174988,-0.0047123348340392,-0.0282286293804645,0.0,0.0,0.705209493637085,0.8075046539306641
-0.0554946884512901,0.746839165687561,-0.123761162161827,-0.7896053791046143,-0.0078116757795214,-0.0619867667555809,0.0,0.0,0.6381251811981201,0.0401087999343872
-0.0569109916687011,0.7298244833946228,-0.1377440690994262,-0.7562329173088074,-0.0116467699408531,-0.0767019391059875,0.0,0.0,-0.2291628122329712,0.2500276565551758
-0.0583707801997661,0.7123197913169861,-0.1418614536523819,-0.7780283689498901,-0.0157116055488586,-0.0812964811921119,0.0,0.0,0.1245255470275878,0.1827408075332641
-0.0598841682076454,0.6948444843292236,-0.1469101756811142,-0.7767324447631836,-0.0200822129845619,-0.0874122604727745,0.0,0.0,0.8507671356201172,0.5560312271118164
-0.0612152107059955,0.6778320074081421,-0.1277961432933807,-0.7561932802200317,-0.0253272261470556,-0.1049000471830368,0.0,0.0,0.4261472225189209,-0.4319157600402832
-0.0626266449689865,0.6612849831581116,-0.1353351771831512,-0.7355285882949829,-0.0310597494244575,-0.1146504282951355,0.0,0.0,0.1765135526657104,0.0799436569213867
-0.0639982223510742,0.6447192430496216,-0.1314409077167511,-0.7363839745521545,-0.0366987138986587,-0.1127798408269882,0.0,0.0,-0.4443845748901367,-0.5767977833747864
-0.0654636397957801,0.6276714205741882,-0.1417135298252105,-0.7578058242797852,-0.0414711609482765,-0.0954489111900329,0.0,0.0,0.27777099609375,0.1603882312774658
-0.0668478980660438,0.6106916666030884,-0.1338483691215515,-0.7547885775566101,-0.045994583517313,-0.0904682129621505,0.0,0.0,0.8612685203552246,0.8417758941650391
-0.0683098807930946,0.5940174460411072,-0.1393925100564956,-0.7413007616996765,-0.0527181886136531,-0.134472519159317,0.0,0.0,0.5214076042175293,0.7966644763946533
-0.0696248039603233,0.5779479742050171,-0.1229458004236221,-0.7145253419876099,-0.0611735917627811,-0.1691080927848816,0.0,0.0,-0.4070985913276672,-0.9307896494865416
-0.0710483565926551,0.5613981485366821,-0.1349306851625442,-0.7358688116073608,-0.0685087293386459,-0.1467030346393585,0.0,0.0,0.8136904239654541,-0.051755666732788
-0.0723807364702224,0.545703113079071,-0.1258913576602935,-0.697911262512207,-0.075780913233757,-0.145443320274353,0.0,0.0,-0.2167237997055053,-0.822797417640686
-0.0738391876220703,0.529534101486206,-0.1400392949581146,-0.7189289927482605,-0.0815292298793792,-0.1149664297699928,0.0,0.0,0.8460242748260498,-0.1513817310333252
-0.0752608329057693,0.5134871006011963,-0.1362921297550201,-0.7135308980941772,-0.0873441472649574,-0.1162982359528541,0.0,0.0,0.7716090679168701,-0.0930603742599487
-0.0767783150076866,0.4980886578559875,-0.1450415104627609,-0.6847819089889526,-0.0939946547150611,-0.1330102384090423,0.0,0.0,-0.3930541276931762,0.3279018402099609
-0.0783507376909256,0.4822008907794952,-0.1501849144697189,-0.7065823674201965,-0.1009899973869323,-0.1399066746234893,0.0,0.0,0.8302398920059204,0.0367298126220703
-0.0798838585615158,0.4668332636356354,-0.1460390388965606,-0.6835131049156189,-0.1082158237695694,-0.1445164829492569,0.0,0.0,0.4453345537185669,0.170039415359497
-0.0814279541373252,0.4514984786510467,-0.1468084752559662,-0.682120144367218,-0.1157673448324203,-0.1510302126407623,0.0,0.0,-0.0083693861961364,0.5004410743713379
-0.0829968452453613,0.4356693625450134,-0.1481139063835144,-0.7042139768600464,-0.1244752407073974,-0.1741584241390228,0.0,0.0,0.0942780971527099,0.2495532035827636
-0.0845371261239051,0.4201926589012146,-0.144976332783699,-0.6886337995529175,-0.1334860324859619,-0.1802160143852234,0.0,0.0,0.4452521800994873,-0.1747448444366455
-0.0860283821821212,0.4045933485031128,-0.1400450468063354,-0.6941426992416382,-0.1425384730100631,-0.1810491234064102,0.0,0.0,-0.1058168411254882,-0.602734386920929
-0.0876203551888465,0.3885219991207123,-0.1509006768465042,-0.7150996327400208,-0.1508152335882187,-0.1655353456735611,0.0,0.0,0.917283058166504,-0.7212821841239929
-0.0893595665693283,0.3728128373622894,-0.1664173901081085,-0.6989644765853882,-0.1583138406276703,-0.1499720364809036,0.0,0.0,0.8326101303100586,-0.37701416015625
-0.0911372154951095,0.3577515482902527,-0.1694139987230301,-0.6703017950057983,-0.1666710972785949,-0.1671448945999145,0.0,0.0,-0.0090161561965942,-0.6610449552536011
-0.0930198654532432,0.3422151207923889,-0.1807827651500702,-0.6913635730743408,-0.1741625517606735,-0.1498287618160247,0.0,0.0,0.899343729019165,-0.6219897866249084
-0.0949939712882042,0.3276851177215576,-0.19038125872612,-0.6466192603111267,-0.1812163591384887,-0.1410764306783676,0.0,0.0,0.6713067293167114,-0.0021964907646179
-0.0968454331159591,0.3135082721710205,-0.1780732870101928,-0.6309677362442017,-0.1883244514465332,-0.1421615183353424,0.0,0.0,0.591761589050293,-0.2775429487228393
-0.0987137779593467,0.2994070053100586,-0.1792164593935012,-0.6277101635932922,-0.1959837228059768,-0.1531853675842285,0.0,0.0,0.3667349815368652,-0.1471004486083984
-0.1005295738577842,0.2851963639259338,-0.1738361269235611,-0.6326274871826172,-0.203786164522171,-0.1560490429401397,0.0,0.0,0.962433934211731,-0.3825464844703674
-0.1023551970720291,0.2711008787155151,-0.1742473542690277,-0.6276284456253052,-0.2121677845716476,-0.16763237118721,0.0,0.0,0.9760777950286864,-0.1090742349624633
-0.1040447205305099,0.2579115629196167,-0.160212367773056,-0.587472140789032,-0.2210030406713485,-0.1767052114009857,0.0,0.0,0.9654979705810548,-0.1233512759208679
-0.1054821014404296,0.2456231266260147,-0.1350312083959579,-0.5474804639816284,-0.2298065274953842,-0.1760701388120651,0.0,0.0,0.8050178289413452,-0.8922414183616638
-0.1069678291678428,0.2342298179864883,-0.1410495489835739,-0.5075637102127075,-0.2374460250139236,-0.152789905667305,0.0,0.0,0.8402862548828125,-0.5959569811820984
-0.1086153984069824,0.2229510098695755,-0.1576103717088699,-0.502448320388794,-0.244706928730011,-0.1452180743217468,0.0,0.0,0.8871755599975586,-0.6721923351287842
-0.1100975051522255,0.2125049233436584,-0.1421355456113815,-0.4652960896492004,-0.2508938014507293,-0.1237375140190124,0.0,0.0,0.8943477869033813,-0.6416425704956055
-0.1116357818245887,0.2025943398475647,-0.1483156085014343,-0.4414243698120117,-0.256513774394989,-0.1123996824026107,0.0,0.0,0.5542926788330078,-0.7863317728042603
-0.1131761521100997,0.1931688338518142,-0.1495998054742813,-0.4196943044662475,-0.2610443532466888,-0.090611532330513,0.0,0.0,0.6560993194580078,-0.8123350143432617
-0.1146575957536697,0.1843043118715286,-0.144903153181076,-0.3945619165897369,-0.2643592357635498,-0.0662972182035446,0.0,0.0,0.7175984382629395,-0.8904246687889099
-0.1159983649849891,0.1758148074150085,-0.1323489397764206,-0.3776239454746246,-0.2661206126213074,-0.0352284088730812,0.0,0.0,0.5361014604568481,-0.8880130648612976
-0.1173461899161338,0.1673064082860946,-0.1344462782144546,-0.3782146871089935,-0.2664665281772613,-0.0069183036684989,0.0,0.0,0.3386297225952148,-0.1718326807022094
-0.1185799613595008,0.1587513834238052,-0.1229740604758262,-0.3802936971187591,-0.2668682038784027,-0.0080334972590208,0.0,0.0,0.8639049530029297,-0.6860391497612
-0.1195658668875694,0.1505898833274841,-0.0995789244771003,-0.3625517189502716,-0.2658531367778778,0.0203014649450778,0.0,0.0,0.4774614572525024,-0.8253526091575623
-0.1204293221235275,0.1424144357442855,-0.0887692272663116,-0.3629172146320343,-0.2633804380893707,0.0494541749358177,0.0,0.0,0.4271415472030639,-0.9287307262420654
-0.1212383285164833,0.1347272247076034,-0.0847676023840904,-0.3409613370895386,-0.2594205141067505,0.0791986808180809,0.0,0.0,0.4530901908874511,-0.6445437073707581
-0.121933177113533,0.1275313198566436,-0.0743303820490837,-0.3189709484577179,-0.2544830441474914,0.0987495332956314,0.0,0.0,0.2300610542297363,-0.6342002749443054
-0.1224871650338172,0.1205499991774559,-0.0612867772579193,-0.3092737793922424,-0.2484825104475021,0.1200107485055923,0.0,0.0,0.1027059555053711,-0.7566967010498047
-0.123005673289299,0.1133826375007629,-0.0589317455887794,-0.3173686563968658,-0.24128457903862,0.1439590156078338,0.0,0.0,0.2743171453475952,-0.494709849357605
-0.1235015839338302,0.106313407421112,-0.0561245270073413,-0.3131322264671325,-0.2346482276916504,0.132726788520813,0.0,0.0,0.358607530593872,-0.6672537922859192
-0.1238371878862381,0.0997899174690246,-0.0412103980779647,-0.2887342870235443,-0.2268947213888168,0.1550701558589935,0.0,0.0,0.2755305767059326,-0.4989559650421142
-0.1241189986467361,0.0934261381626129,-0.0353972874581813,-0.2817403376102447,-0.2195856273174286,0.1461815685033798,0.0,0.0,0.3095337152481079,0.1139411926269531
-0.1243847832083702,0.0875290036201477,-0.0330089107155799,-0.2611533999443054,-0.2130866199731826,0.1299801766872406,0.0,0.0,0.4687387943267822,-0.3632663488388061
-0.1244663223624229,0.0820278972387313,-0.0146146146580576,-0.2435736656188964,-0.2065756171941757,0.1302203834056854,0.0,0.0,0.2135032415390014,-0.1595054864883422
-0.1244935989379882,0.076859101653099,-0.0086682559922337,-0.2289072424173355,-0.2005838900804519,0.1198343858122825,0.0,0.0,0.3999886512756347,-0.0454676747322082
-0.124480627477169,0.0721548646688461,-0.0040077520534396,-0.2083695530891418,-0.1952447742223739,0.1067823395133018,0.0,0.0,0.3773435354232788,0.1898305416107177
-0.1244223564863205,0.067578375339508,0.0009359020623378,-0.2027649879455566,-0.1903201788663864,0.0984919518232345,0.0,0.0,0.2886487245559692,0.1569361686706543
-0.1243766769766807,0.0632292628288269,0.0003926229546777,-0.1927643716335296,-0.1861247569322586,0.0839084386825561,0.0,0.0,0.6264257431030273,0.5979487895965576
-0.124355599284172,0.0591806285083293,-0.0002020886458922,-0.1796513944864273,-0.1838127374649047,0.0462403632700443,0.0,0.0,-0.0522024631500244,0.2562088966369629
-0.1243409141898155,0.0546424016356468,-0.0005396698834374,-0.2014502137899398,-0.1817862689495086,0.0405293107032775,0.0,0.0,0.5518157482147217,0.7591873407363892
-0.1241457015275955,0.0500857196748256,0.0191754885017871,-0.2024781107902526,-0.1814486384391784,0.0067527517676353,0.0,0.0,0.5205061435699463,-0.6727203130722046
-0.1237316131591796,0.046055182814598,0.0396908111870288,-0.1789276748895645,-0.1797261238098144,0.0344503186643123,0.0,0.0,0.5247807502746582,-0.4471510648727417
-0.123207189142704,0.0425974242389202,0.0510730966925621,-0.1535082012414932,-0.1783477514982223,0.027567233890295,0.0,0.0,0.5269758701324463,-0.1975959539413452
-0.1224064826965332,0.03978081792593,0.0783231183886528,-0.1249766424298286,-0.1765914261341095,0.035126656293869,0.0,0.0,-0.043904960155487,-0.7952612638473511
-0.1216500252485275,0.0364888533949852,0.0727129653096199,-0.1459632217884063,-0.1736596673727035,0.0586351342499256,0.0,0.0,0.4126542806625366,-0.7057167887687683
-0.1208208054304122,0.0337617956101894,0.0787896737456321,-0.1207254156470298,-0.1695218831300735,0.0827560201287269,0.0,0.0,0.0826225280761718,-0.4521068334579468
-0.1198490113019943,0.0312979556620121,0.0930471569299697,-0.1090373694896698,-0.1653847843408584,0.0827421024441719,0.0,0.0,-0.0688321590423584,-0.8155465722084045
-0.1189129799604415,0.0283542498946189,0.0882178619503974,-0.1302434653043747,-0.1600026190280914,0.1076430231332779,0.0,0.0,0.3028347492218017,-0.8111734390258789
-0.1180474311113357,0.025685915723443,0.0798143446445465,-0.1178849563002586,-0.1532616913318634,0.1348186880350113,0.0,0.0,-0.1213221549987793,-0.4916079044342041
-0.1171553581953048,0.0225279908627271,0.0825920179486274,-0.1396844089031219,-0.1466516703367233,0.1322000324726104,0.0,0.0,0.1243228912353515,-0.7055123448371887
-0.1162488907575607,0.0194654092192649,0.0827330127358436,-0.1353576183319091,-0.1387601494789123,0.1578299850225448,0.0,0.0,0.2086254358291626,-0.542203426361084
-0.1152770072221756,0.0164968110620975,0.0882308632135391,-0.1311276257038116,-0.1298363804817199,0.1784753650426864,0.0,0.0,0.0989658832550048,-0.6546713709831238
-0.1141920089721679,0.0133800124749541,0.0981730669736862,-0.1376556605100631,-0.1195611804723739,0.2055038511753082,0.0,0.0,0.6161165237426758,-0.175821840763092
-0.1128499954938888,0.0111090755090117,0.1146647706627845,-0.0994805246591568,-0.1001488044857978,0.388257086277008,1.0,0.0,0.1807543039321899,-0.6609894633293152
-0.1114813834428787,0.0092246271669864,0.1159073114395141,-0.0824798643589019,-0.0793883502483367,0.4152091145515442,1.0,0.0,-0.0538733601570129,-0.4364016652107239
