x_pos,y_pos,x_vel,y_vel,angle,ang_vel,leg_1,leg_2,main_booster,lat_booster
-0.0015134811401367,1.4030165672302246,-0.1533195078372955,-0.3512684106826782,0.0017652538372203,0.034821517765522,0.0,0.0,0.6407953613948636,-0.7474922240353296
-0.0030220032203942,1.395211935043335,-0.1542033404111862,-0.3468820452690124,0.0050847786478698,0.0663973242044448,0.0,0.0,0.5392524773124858,0.8740210475944067
-0.0043180463835597,1.387358546257019,-0.1314339935779571,-0.3490432798862457,0.0068897022865712,0.0361019149422645,0.0,0.0,-0.3686497961051864,-0.7303682553174321
-0.0056789396330714,1.3788942098617554,-0.1396560370922088,-0.3762122988700866,0.0104255191981792,0.0707228034734726,0.0,0.0,-0.9505311755367204,-0.8424137659029927
-0.0070898057892918,1.3698241710662842,-0.1459888517856598,-0.4031569063663482,0.0152712548151612,0.096923604607582,0.0,0.0,0.3199908402524436,-0.825829539581259
-0.0084475520998239,1.360797643661499,-0.1424914747476577,-0.4012622833251953,0.0219042636454105,0.1326724737882614,0.0,0.0,0.1705959607487099,0.8301704936176661
-0.00976905785501,1.3517787456512451,-0.1371780633926391,-0.4009245634078979,0.0268784388899803,0.0994928404688835,0.0,0.0,0.8604828090253214,-0.7259722453783011
-0.010988044552505,1.3432518243789673,-0.1288337409496307,-0.379109263420105,0.0337382070720195,0.1372080594301223,0.0,0.0,-0.6830647704276314,-0.937710743462086
-0.0122872348874807,1.3341243267059326,-0.1387739032506942,-0.4058970808982849,0.042491141706705,0.1750750243663787,0.0,0.0,-0.3125201597155502,-0.8627127931323806
-0.0136609077453613,1.3243911266326904,-0.1479410678148269,-0.4329193532466888,0.0529561527073383,0.2093195617198944,0.0,0.0,-0.4069604378201235,0.8721938172713315
-0.0149638177827,1.3140579462051392,-0.1388649344444275,-0.4595706164836883,0.0614452473819255,0.1697973310947418,0.0,0.0,0.0935807471332841,0.6556793123150443
-0.0161925312131643,1.303649663925171,-0.1302064359188079,-0.4629086852073669,0.0687059983611106,0.1452284604310989,0.0,0.0,0.0878647806894932,-0.9631595388463996
-0.0174367912113666,1.2933311462402344,-0.1336807310581207,-0.4590524137020111,0.0778723880648613,0.1833449155092239,0.0,0.0,-0.3357342410069854,-0.8207291178758195
-0.0187490470707416,1.2823914289474487,-0.141911581158638,-0.486793041229248,0.0884858295321464,0.2122881710529327,0.0,0.0,-0.8514119552519204,0.6856451145690271
-0.0200071334838867,1.2708611488342283,-0.1348120868206024,-0.5130106806755066,0.0974180102348327,0.1786598712205886,0.0,0.0,-0.0386483315511374,0.6901643261777144
-0.021213436499238,1.2587250471115112,-0.1280021071434021,-0.5398727059364319,0.1047352105379104,0.1463572084903717,0.0,0.0,0.0024376078632337,0.6451340755352304
-0.0223428718745708,1.2467864751815796,-0.1191015690565109,-0.5310482382774353,0.1108690872788429,0.1226887255907058,0.0,0.0,0.4194823556917872,-0.8653146466066246
-0.0234515182673931,1.2347246408462524,-0.1189388483762741,-0.5366952419281006,0.1189001873135566,0.1606364995241165,0.0,0.0,-0.9470488491180912,0.9923815359711804
-0.0244854930788278,1.2220810651779177,-0.1091467887163162,-0.5624062418937683,0.1246343478560447,0.1146933883428573,0.0,0.0,-0.942648199049668,-0.9713326356300944
-0.0256206505000591,1.2088135480880735,-0.121486485004425,-0.5903521776199341,0.1325715631246566,0.1587587296962738,0.0,0.0,0.2928983886440814,0.9770105146373882
-0.0266583450138568,1.1958590745925903,-0.1098128706216812,-0.576307475566864,0.1386125534772873,0.1208302155137062,0.0,0.0,0.1267543359498899,-0.7068067080266711
-0.0277992244809865,1.1827316284179688,-0.121571347117424,-0.5841519832611084,0.146083578467369,0.1494340300559997,0.0,0.0,-0.3871838084652721,-0.9334464575569176
-0.0290131568908691,1.1689832210540771,-0.130342036485672,-0.6119387745857239,0.1550238281488418,0.1788211464881897,0.0,0.0,-0.6057162589373111,0.7005086570873811
-0.0301814079284667,1.1546343564987185,-0.1242020279169082,-0.6385074853897095,0.1624102592468261,0.1477419435977935,0.0,0.0,-0.937165369724962,-0.8323585898081511
-0.0314460769295692,1.1396610736846924,-0.1359028071165084,-0.6665326356887817,0.1718621701002121,0.1890548169612884,0.0,0.0,0.247722685123368,-0.8364313106689487
-0.0330050475895404,1.1248010396957395,-0.1668949425220489,-0.6617521047592163,0.182890385389328,0.2205641716718673,0.0,0.0,-0.0565312894312752,-0.824394887587842
-0.0346439369022846,1.1093225479125977,-0.1765006929636001,-0.6895399689674377,0.1955661028623581,0.2535144686698913,0.0,0.0,-0.8344811395639926,-0.6009748986353474
-0.036355685442686,1.093227744102478,-0.1852193921804428,-0.7172383666038513,0.2097140699625015,0.2829593122005462,0.0,0.0,-0.10609636832579,0.6729665671050429
-0.0380426421761512,1.0765461921691897,-0.1816475689411163,-0.7433027029037476,0.2228052467107772,0.2618235051631927,0.0,0.0,0.9351409040811668,0.946226469513421
-0.0398234352469444,1.0601061582565308,-0.189078614115715,-0.7323642373085022,0.2339535355567932,0.2229657620191574,0.0,0.0,0.0623080096195785,-0.6702630687281184
-0.04178361967206,1.0438480377197266,-0.2083427011966705,-0.7245801091194153,0.2464686185121536,0.2503015398979187,0.0,0.0,0.7918360017086825,0.7634570382539569
-0.0439034476876258,1.02765953540802,-0.2225641459226608,-0.7213062644004822,0.2572619020938873,0.2158650457859039,0.0,0.0,0.933478359031072,0.9996196484616866
-0.0463035590946674,1.0122233629226685,-0.2484408617019653,-0.6875526309013367,0.2658624947071075,0.1720124036073684,0.0,0.0,0.5929799299058398,0.8325097961521535
-0.0488080978393554,0.9966751337051392,-0.2571146786212921,-0.6922607421875,0.2726858258247375,0.1364667564630508,0.0,0.0,-0.3255789373767834,-0.6465963765359026
-0.0513713844120502,0.980500876903534,-0.2642211318016052,-0.7203452587127686,0.2807902097702026,0.1620878726243972,0.0,0.0,-0.4442732547233707,0.6885388704487322
-0.0538916587829589,0.96374773979187,-0.2585106194019317,-0.7458444237709045,0.287457525730133,0.1333463937044143,0.0,0.0,0.5578570545650476,-0.6152936389082504
-0.0566139221191406,0.9469701647758484,-0.2798632383346557,-0.7472028136253357,0.295324444770813,0.1573381870985031,0.0,0.0,-0.4615718079491548,0.947943142966639
-0.0592694282531738,0.929626762866974,-0.2711735665798187,-0.7719706296920776,0.301141619682312,0.1163435950875282,0.0,0.0,0.6305324565206747,-0.7016138865273263
-0.0622726455330848,0.9128312468528748,-0.3072485625743866,-0.7479145526885986,0.3082985877990722,0.1431396603584289,0.0,0.0,-0.960999275067162,-0.6567171691875431
-0.0653281211853027,0.8954071998596191,-0.3136962950229645,-0.776157557964325,0.3167359828948974,0.1687484085559845,0.0,0.0,0.0199558693025863,0.8809335169830868
-0.0685474425554275,0.878063976764679,-0.3283199369907379,-0.7722229361534119,0.3233884274959564,0.1330490559339523,0.0,0.0,0.2080335617065429,0.9829645156860352
-0.07171630859375,0.8607432246208191,-0.3213567435741424,-0.7708247303962708,0.328048437833786,0.0932001918554306,0.0,0.0,0.2961329221725464,0.9941200017929076
-0.0748046860098838,0.8432343006134033,-0.3114031553268432,-0.7787529826164246,0.3307200074195862,0.0534313693642616,0.0,0.0,-0.3202170729637146,0.9771153926849364
-0.0778074264526367,0.82515949010849,-0.3006059527397156,-0.8034055829048157,0.3310726881027221,0.0070534078404307,0.0,0.0,0.6557461023330688,0.9999104738235474
-0.0808703452348709,0.8069002032279968,-0.3046412169933319,-0.8111466765403748,0.3293492496013641,-0.0344681367278099,0.0,0.0,0.4773447513580322,0.999996304512024
-0.0839049369096756,0.7885086536407471,-0.2998890578746795,-0.8165925741195679,0.3256325423717499,-0.0743339881300926,0.0,0.0,0.6376297473907471,0.9998834133148192
-0.0869351401925087,0.7702047228813171,-0.2975783944129944,-0.8122982382774353,0.3199570477008819,-0.1135097593069076,0.0,0.0,0.687827467918396,0.9999885559082032
-0.0902770012617111,0.752492368221283,-0.3266013860702514,-0.7855592370033264,0.3120832741260528,-0.1574763655662536,0.0,0.0,0.4573085308074951,0.9999759197235109
-0.0938785523176193,0.7351486086845398,-0.3504872918128967,-0.7687957882881165,0.3020735383033752,-0.2001951485872268,0.0,0.0,0.0749256610870361,0.9942725896835328
-0.0975087136030197,0.7176970839500427,-0.3513705432415008,-0.7732481360435486,0.2900542020797729,-0.2403869330883026,0.0,0.0,0.0118932723999023,0.9996204376220704
-0.1010493263602256,0.7002219557762146,-0.3403219878673553,-0.7740029096603394,0.2759301364421844,-0.2824814617633819,0.0,0.0,-0.4635025262832641,0.9999136924743652
-0.1045089736580848,0.6821774840354919,-0.3303767144680023,-0.7991179823875427,0.2599689364433288,-0.319223940372467,0.0,0.0,-0.3378685712814331,0.9998204708099364
-0.1078623756766319,0.66355961561203,-0.3173340260982513,-0.8243829607963562,0.241625040769577,-0.3668780624866485,0.0,0.0,-0.285810112953186,0.9993398189544678
-0.1111231818795204,0.6443759202957153,-0.3059956431388855,-0.8494364023208618,0.2212474346160888,-0.4075525403022766,0.0,0.0,-0.5343316793441772,0.999141812324524
-0.1142685860395431,0.6246192455291748,-0.2918794155120849,-0.8748384714126587,0.1983644962310791,-0.4576587677001953,0.0,0.0,-0.3526968359947204,0.9976588487625122
-0.1173278838396072,0.6042773723602295,-0.2814748585224151,-0.9009958505630492,0.1737999320030212,-0.4912915229797363,0.0,0.0,0.1183419227600097,0.9914224147796632
-0.1203071624040603,0.5841822624206543,-0.2713574171066284,-0.8902264833450317,0.1472279280424118,-0.5314403772354126,0.0,0.0,0.8470172882080078,0.9949951171875
-0.1231246963143348,0.5646671652793884,-0.2533425986766815,-0.8647742867469788,0.1189223825931549,-0.5661112070083618,0.0,0.0,-0.1462251543998718,0.988644003868103
-0.1258295029401779,0.544581413269043,-0.2397251427173614,-0.8905344605445862,0.0883949473500251,-0.6105491518974304,0.0,0.0,0.7514461278915405,0.9741955995559692
-0.1285933554172516,0.5251523852348328,-0.2434480190277099,-0.8618889451026917,0.0557960085570812,-0.6519793272018433,0.0,0.0,0.9075663089752196,0.7768943309783936
-0.1312246322631836,0.5057743787765503,-0.2287135869264602,-0.8603123426437378,0.021794544532895,-0.6800296902656555,0.0,0.0,0.9526770114898682,-0.3411527872085571
-0.1339598596096038,0.4870435297489166,-0.2385197132825851,-0.8323341012001038,-0.0127549385651946,-0.6909903883934021,0.0,0.0,0.984085202217102,0.7618228197097778
-0.1364313066005706,0.4686466455459595,-0.2110050618648529,-0.8183313012123108,-0.0484444946050643,-0.7137916088104248,0.0,0.0,0.9273871183395386,-0.3914740681648254
-0.1388035714626312,0.4507282078266144,-0.2012772560119629,-0.7979236841201782,-0.0840073153376579,-0.7112570405006409,0.0,0.0,0.985605001449585,-0.4479416608810425
-0.1410868614912033,0.4329374432563782,-0.1925222426652908,-0.7930918335914612,-0.1195275261998176,-0.7104046940803528,0.0,0.0,0.9916324615478516,-0.91691654920578
-0.1434787809848785,0.4156588017940521,-0.2050531208515167,-0.7710281014442444,-0.1535326093435287,-0.6801022291183472,0.0,0.0,0.9677008390426636,-0.8959920406341553
-0.1457125693559646,0.3993176221847534,-0.1912713348865509,-0.7299034595489502,-0.1856870651245117,-0.6430891156196594,0.0,0.0,0.9545727968215942,-0.8941304683685303
-0.147803395986557,0.3828709125518799,-0.1791317909955978,-0.7349984645843506,-0.2158525884151458,-0.6033107042312622,0.0,0.0,0.9868953227996826,-0.9889829754829408
-0.1496669799089431,0.3673562109470367,-0.158628910779953,-0.6938402652740479,-0.2439614832401275,-0.5621777772903442,0.0,0.0,0.9884324073791504,-0.9895020127296448
-0.1515429466962814,0.3521420955657959,-0.1617934256792068,-0.6806831955909729,-0.2702915370464325,-0.5266009569168091,0.0,0.0,0.9976856708526612,-0.9951340556144714
-0.1533439606428146,0.3375965654850006,-0.1562323421239853,-0.6510652303695679,-0.2948120832443237,-0.490410715341568,0.0,0.0,0.989445686340332,-0.99478018283844
-0.1549113243818283,0.3235437870025635,-0.1350607573986053,-0.6291126608848572,-0.3172453045845032,-0.4486647248268127,0.0,0.0,0.991529941558838,-0.9984171986579896
-0.1563444137573242,0.310467779636383,-0.1234720796346664,-0.5856339931488037,-0.3379178643226623,-0.4134512841701507,0.0,0.0,0.9411828517913818,-0.999535858631134
-0.1574824303388595,0.2977403700351715,-0.0961973220109939,-0.569900631904602,-0.3564009070396423,-0.3696610331535339,0.0,0.0,0.9971611499786376,-0.9999961853027344
-0.1585187017917633,0.2851309776306152,-0.0879775956273078,-0.5643883347511292,-0.3729200363159179,-0.3303818702697754,0.0,0.0,0.9905459880828856,-0.9996581673622132
-0.1593474447727203,0.2724472880363464,-0.0693875849246978,-0.5673052668571472,-0.3872539699077606,-0.2866785824298858,0.0,0.0,0.9959824085235596,-0.9979943633079528
-0.16007861495018,0.2597866058349609,-0.0615503899753093,-0.5658898949623108,-0.3996158540248871,-0.24723681807518,0.0,0.0,0.9987579584121704,-0.9990021586418152
-0.1604584753513336,0.2479062229394912,-0.0283899214118719,-0.5307539105415344,-0.4099245369434356,-0.2061736136674881,0.0,0.0,0.9973633289337158,-0.9978957176208496
-0.1603570878505706,0.2367676049470901,0.0176170971244573,-0.4972364008426666,-0.4179863035678863,-0.1612360924482345,0.0,0.0,0.9658617973327636,-0.9997613430023192
-0.1600051820278167,0.2265021204948425,0.0409308262169361,-0.4579614996910095,-0.4241976141929626,-0.1242262497544288,0.0,0.0,0.745633602142334,-0.994325876235962
-0.159662440419197,0.2162409871816635,0.0383035317063331,-0.4572634100914001,-0.4285522401332855,-0.0870923474431037,0.0,0.0,0.7797590494155884,-0.8409770727157593
-0.1589182913303375,0.2065520584583282,0.0767293572425842,-0.4313279688358307,-0.4310712516307831,-0.0503799729049205,0.0,0.0,0.3063385486602783,-0.9948254823684692
-0.1580772399902343,0.1969827264547348,0.0845468789339065,-0.4254413247108459,-0.4315502941608429,-0.0095809279009699,0.0,0.0,0.3694378137588501,-0.987159013748169
-0.1570548117160797,0.1876561492681503,0.1008189544081687,-0.4140755236148834,-0.4300004243850708,0.0309975147247314,0.0,0.0,0.0752367973327636,-0.9964842200279236
-0.1558568030595779,0.1784016042947769,0.1164558380842208,-0.4102952778339386,-0.4263734519481659,0.0725393965840339,0.0,0.0,-0.5842260122299194,-0.9715343117713928
-0.1546535491943359,0.1685800701379776,0.115380622446537,-0.4350283741950989,-0.4210271537303924,0.1069258674979209,0.0,0.0,-0.2465080022811889,-0.9930316209793092
-0.1534564048051834,0.1581881195306778,0.1129516810178756,-0.4598606824874878,-0.4137213826179504,0.1461153775453567,0.0,0.0,-0.1065506935119628,-0.9411181211471558
-0.1522528678178787,0.1472205221652984,0.112055480480194,-0.4850411117076874,-0.4047823548316955,0.1787808239459991,0.0,0.0,0.3574333190917969,-0.8078482747077942
-0.1507313698530197,0.1362500041723251,0.1421102881431579,-0.484753668308258,-0.3940295875072479,0.2150555849075317,0.0,0.0,0.4705517292022705,-0.7416002750396729
-0.1489369422197342,0.125108540058136,0.1677281558513641,-0.4919806122779846,-0.3815418481826782,0.2497549802064895,0.0,0.0,0.7493338584899902,-0.8951838612556458
-0.1468493491411209,0.1145178899168968,0.1952576339244842,-0.4671519696712494,-0.367220401763916,0.2864291071891784,0.0,0.0,0.7356836795806885,-0.946750819683075
-0.144442468881607,0.1044651865959167,0.2252253741025924,-0.4429068863391876,-0.3509029150009155,0.3263497352600097,0.0,0.0,0.7998363971710205,-0.943908989429474
-0.1416454315185547,0.094795785844326,0.262067973613739,-0.4255605340003967,-0.3324287831783294,0.3694829046726227,0.0,0.0,0.6322619915008545,-0.9454325437545776
-0.1386425048112869,0.0849527940154075,0.2805769741535187,-0.4330634772777557,-0.3119062781333923,0.4104498326778412,0.0,0.0,0.6579246520996094,-0.9330843687057496
-0.1355421990156173,0.0752958357334137,0.2884261906147003,-0.4247120022773742,-0.2895739078521728,0.4466475546360016,0.0,0.0,0.6954891681671143,-0.9815359115600586
-0.1321000158786773,0.0663134455680847,0.3204074203968048,-0.3946788907051086,-0.2651261985301971,0.4889544546604156,0.0,0.0,0.7027640342712402,-0.9693846106529236
-0.1285369843244552,0.0576209388673305,0.3304464221000671,-0.381872296333313,-0.2387632578611374,0.5272587537765503,0.0,0.0,0.6654316186904907,-0.8819636106491089
-0.1249197944998741,0.0495809651911258,0.3341457843780517,-0.3531017601490021,-0.2108386754989624,0.5584916472434998,0.0,0.0,0.8541810512542725,-0.945268988609314
-0.1210389137268066,0.042086873203516,0.3582974970340729,-0.3290970921516418,-0.1808451265096664,0.5998712778091431,0.0,0.0,0.94075345993042,-0.9095998406410216
-0.1170721054077148,0.0353425107896328,0.3650381863117218,-0.2962039113044739,-0.1491651684045791,0.6335993409156799,0.0,0.0,0.9279849529266356,-0.9832603931427002
-0.1130929961800575,0.0293485969305038,0.3643245995044708,-0.2633737623691559,-0.1157048419117927,0.6692066192626953,0.0,0.0,0.9083467721939088,-0.948019564151764
-0.1090902313590049,0.0236349198967218,0.3647168278694153,-0.2515674829483032,-0.0804228857159614,0.705639123916626,0.0,0.0,0.8463904857635498,-0.95177561044693
-0.105190560221672,0.0183630567044019,0.352634847164154,-0.2327130734920501,-0.0434949174523353,0.7385596036911011,0.0,0.0,0.6799015998840332,-0.6868888735771179
-0.1014275550842285,0.0133129218593239,0.3379078507423401,-0.2237724214792251,-0.0055814427323639,0.7582700252532959,0.0,0.0,0.481929063796997,-0.7467227578163147
-0.0975551605224609,0.0086458064615726,0.3471578955650329,-0.2077524960041046,0.0339802242815494,0.7912338972091675,0.0,0.0,0.2825212478637695,-0.0506619811058044
-0.0935873016715049,0.003823623759672,0.3565475344657898,-0.2157129943370819,0.0737469941377639,0.7953361868858337,0.0,1.0,0.9956891536712646,0.4107298851013183
-0.0897098556160926,0.0003848528722301,0.3651476502418518,-0.1543679982423782,0.0947491973638534,0.4182546138763428,0.0,1.0,0.9528412818908693,-0.1266937255859375
-0.0862031951546669,-0.0017504715360701,0.3497543334960937,-0.0949638038873672,0.0956513434648513,0.0180272348225116,0.0,1.0,-0.4335583448410034,-0.9205180406570436
-0.0829810127615928,-0.0039634015411138,0.3391626477241516,-0.0973618999123573,0.0788379311561584,-0.3362949788570404,0.0,1.0,-0.2636921405792236,-0.7861783504486084
-0.0799989700317382,-0.0063524269498884,0.3295707106590271,-0.1048330217599868,0.0477569177746772,-0.6216806173324585,0.0,1.0,0.6534531116485596,-0.8814148902893066
-0.0772157683968544,-0.007917764596641,0.3148697018623352,-0.0688215270638465,0.0116014881059527,-0.7231923341751099,1.0,1.0,0.3951736688613891,-0.9947172403335572
-0.07440185546875,-0.0085395006462931,0.3023940026760101,-0.0282043199986219,-0.0070138936862349,-0.3696268200874328,1.0,1.0,0.5916247367858887,-0.9910624623298644
-0.0714500397443771,-0.0084909703582525,0.2954532206058502,0.0021436803508549,-0.0072488384321331,-0.0046416567638516,1.0,1.0,-0.4234415888786316,-0.9983554482460022
-0.0686027556657791,-0.0083279274404048,0.2768160104751587,0.0072595081292092,0.0005839687073603,0.1566754132509231,1.0,1.0,-0.8154935836791992,-0.996193528175354
-0.065956212580204,-0.0079828528687357,0.2577337622642517,0.0153141263872385,0.0074228034354746,0.1367900073528289,1.0,1.0,-0.658866822719574,-0.9996957778930664
-0.063532069325447,-0.0074165128171443,0.2400794923305511,0.0251540411263704,0.0097519680857658,0.0466038659214973,1.0,1.0,-0.6329577565193176,-0.99990051984787
-0.06131162494421,-0.0066271568648517,0.2231161147356033,0.0350852720439434,0.0087179522961378,-0.0206555239856243,1.0,1.0,-0.6745432019233704,-0.9980348944664
-0.0592521652579307,-0.0056515838950872,0.20805124938488,0.0433690175414085,0.0066564138978719,-0.041207380592823,1.0,1.0,-0.5723568797111511,-0.999708890914917
-0.0573356635868549,-0.004534819163382,0.1929185688495636,0.0496403165161609,0.005423828959465,-0.0246352143585681,1.0,1.0,-0.6473023891448975,-0.9920263290405272
-0.0555617325007915,-0.0033482098951935,0.1773815751075744,0.0527374669909477,0.0054435264319181,0.0004024556255899,1.0,1.0,-0.7005428671836853,-0.9934839010238647
-0.053924273699522,-0.0021874213125556,0.1631606966257095,0.0515858866274356,0.0060266074724495,0.0116662066429853,1.0,1.0,-0.5968306064605713,-0.997878909111023
