x_pos,y_pos,x_vel,y_vel,angle,ang_vel,leg_1,leg_2,main_booster,lat_booster
-0.0016171454917639,1.4029176235198977,-0.1636480391025543,-0.3556692898273468,0.0017358303302899,0.0342387072741985,0.0,0.0,0.3253521198393319,0.9221531205835368
-0.0032086372375488,1.3947821855545044,-0.1589696854352951,-0.3615745604038238,0.0015507253119722,-0.0037019450683146,0.0,0.0,-0.2996684401402385,-0.7872717150742703
-0.0049424171447753,1.38593327999115,-0.1743194311857223,-0.393282026052475,0.0024821306578814,0.0186297409236431,0.0,0.0,-0.8127733646847635,-0.982738432270608
-0.0068628313019871,1.3763740062713623,-0.1952331066131591,-0.4248639047145843,0.0056447102688252,0.0632575005292892,0.0,0.0,0.7437795852825368,-0.8784211486578439
-0.0087993619963526,1.3671441078186035,-0.1987974345684051,-0.4102535247802734,0.0107306400313973,0.1017276868224144,0.0,0.0,-0.4231664665977424,-0.6639759713650224
-0.010870361700654,1.3572057485580444,-0.2131784707307815,-0.4417612850666046,0.0167380608618259,0.1201599016785621,0.0,0.0,-0.1976865627908037,0.7743335261408174
-0.0129768373444676,1.346562385559082,-0.2151371240615844,-0.4730964303016662,0.021178038790822,0.0888075679540634,0.0,0.0,0.0820317427397447,0.945528122721448
-0.0149955749511718,1.3358561992645264,-0.2043828070163726,-0.4758566319942474,0.0236590337008237,0.0496244616806507,0.0,0.0,-0.0712682882343764,0.9163153484739812
-0.0170375816524028,1.324455738067627,-0.20482237637043,-0.5066986680030823,0.024272833019495,0.0122769670560956,0.0,0.0,0.8600863302462796,-0.9301857051329282
-0.0192673690617084,1.3135778903961182,-0.2253795862197876,-0.4835023581981659,0.0266419667750597,0.0473871156573295,0.0,0.0,-0.8909873166532798,-0.9253125104710818
-0.0216533653438091,1.3019912242889404,-0.2424902617931366,-0.515041708946228,0.0304978471249341,0.0771247297525405,0.0,0.0,0.1340890589511654,-0.9584277000593752
-0.0241619106382131,1.290238618850708,-0.2565964460372925,-0.5224578380584717,0.0361788161098957,0.1136297136545181,0.0,0.0,-0.4818259359832602,-0.6005546713959835
-0.0268009193241596,1.2777807712554932,-0.2705108523368835,-0.5538593530654907,0.0427125953137874,0.1306874006986618,0.0,0.0,-0.0919660215021445,0.7783611692221957
-0.0294645316898822,1.264613389968872,-0.2711530029773712,-0.5853573083877563,0.0474487915635108,0.0947327986359596,0.0,0.0,-0.4763127713944659,0.6875424499374972
-0.0321545600891113,1.250751256942749,-0.2720001339912414,-0.6161956191062927,0.0504260174930095,0.059549905359745,0.0,0.0,0.7380629260349079,0.9265629847898612
-0.0347508415579795,1.2366549968719482,-0.2609257102012634,-0.6265438795089722,0.0517019964754581,0.0255218781530857,0.0,0.0,0.2670153524481964,-0.8857351123446984
-0.0374220833182334,1.222848892211914,-0.2702077627182007,-0.6137173175811768,0.0547600649297237,0.0611671321094036,0.0,0.0,-0.3003132866305473,0.803791978654745
-0.040106676518917,1.208335280418396,-0.2694856226444244,-0.645087480545044,0.055777683854103,0.0203539542853832,0.0,0.0,-0.8274179361535234,-0.8192855876328597
-0.0429372787475585,1.1931179761886597,-0.285407543182373,-0.6764127016067505,0.0580971613526344,0.04639408364892,0.0,0.0,-0.5345015050776962,0.5870156134339456
-0.045819092541933,1.177196979522705,-0.2894399762153625,-0.7076501250267029,0.0593444667756557,0.0249482803046703,0.0,0.0,-0.4644236831898065,0.520881817385808
-0.0487421043217182,1.1605770587921145,-0.2922312915325165,-0.7386531233787537,0.0592792853713035,-0.0013037521857768,0.0,0.0,-0.6906780072309928,-0.7234068313757576
-0.0518111214041709,1.1432414054870603,-0.3082153797149658,-0.7705318331718445,0.060571800917387,0.0258524566888809,0.0,0.0,-0.9158117175599774,0.6317283917655732
-0.0549095161259174,1.125203251838684,-0.3095450699329376,-0.8016828298568726,0.0602850243449211,-0.0057360818609595,0.0,0.0,0.2588929326895368,0.6823172240058216
-0.057997990399599,1.1068170070648191,-0.3072216212749481,-0.817102313041687,0.0586851648986339,-0.0319999940693378,0.0,0.0,-0.7244846913540663,-0.967006236687386
-0.0612695701420307,1.0877180099487305,-0.3278977274894714,-0.8488714098930359,0.0594188794493675,0.0146752949804067,0.0,0.0,0.3772573836416828,-0.8826593850922235
-0.0648713111877441,1.0687557458877563,-0.3625128269195556,-0.8428627848625183,0.0617295987904071,0.04621447250247,0.0,0.0,-0.7088164883208437,0.7667159555041345
-0.0684997588396072,1.0490970611572266,-0.3635886311531067,-0.8737528324127197,0.0624648891389369,0.014705847017467,0.0,0.0,-0.2612207185369684,0.9042567473256152
-0.0721592903137207,1.0287460088729858,-0.3652426302433014,-0.9044608473777772,0.0617528520524501,-0.0142408236861228,0.0,0.0,0.4650452574951775,0.6675195288539548
-0.076021671295166,1.0087151527404783,-0.3838830888271332,-0.8901687860488892,0.0594303980469703,-0.0464490726590156,0.0,0.0,-0.8183466309609067,0.6600629299079863
-0.0799184814095497,0.9879794716835022,-0.386028915643692,-0.9214461445808412,0.0558102279901504,-0.0724031627178192,0.0,0.0,-0.9815317615875768,-0.5735194930436578
-0.0839436501264572,0.9665396809577942,-0.3999399542808532,-0.9527825117111206,0.0532671585679054,-0.0508614107966423,0.0,0.0,0.6430164575576782,0.9946385622024536
-0.0880835503339767,0.9450395107269288,-0.4092915952205658,-0.955400824546814,0.0486188828945159,-0.0929655209183693,0.0,0.0,0.914564609527588,0.9709259271621704
-0.0923802405595779,0.9242318868637084,-0.4228010773658752,-0.9245836734771729,0.0418372675776481,-0.1356325000524521,0.0,0.0,0.8806803226470947,0.9801276922225952
-0.0967777222394943,0.9033240675926208,-0.4307583272457123,-0.9290030598640442,0.0329585373401641,-0.1775746792554855,0.0,0.0,0.9324824810028076,0.994565725326538
-0.1011790260672569,0.8828179836273193,-0.4291499257087707,-0.9111881852149964,0.0221192333847284,-0.216786116361618,0.0,0.0,0.7362377643585205,0.98913311958313
-0.1055761352181434,0.8628093004226685,-0.4267608523368835,-0.8891329169273376,0.009327171370387,-0.2558411955833435,0.0,0.0,0.6797534227371216,0.998516082763672
-0.1100050956010818,0.8427861332893372,-0.4278787672519684,-0.8898881673812866,-0.0054985010065138,-0.2965134680271148,0.0,0.0,0.8750457763671875,0.9823859930038452
-0.1143781691789627,0.8233618140220642,-0.4203755855560303,-0.8634482026100159,-0.0222099442034959,-0.3342293798923492,0.0,0.0,0.5840327739715576,0.9944541454315186
-0.1187701225280761,0.8044561743736267,-0.4202199876308441,-0.8406368494033813,-0.0409498810768127,-0.3747985661029815,0.0,0.0,0.4048705101013183,0.9960811138153076
-0.1231052428483963,0.7856183052062988,-0.412562221288681,-0.8379415273666382,-0.0616569742560386,-0.414141833782196,0.0,0.0,0.7165563106536865,0.9914114475250244
-0.127505213022232,0.7673036456108093,-0.416903555393219,-0.8150927424430847,-0.0845005512237548,-0.4568722248077392,0.0,0.0,0.9465556144714355,0.9771687984466552
-0.1316816359758377,0.7491790652275085,-0.3929187655448913,-0.8071166276931763,-0.109017439186573,-0.4903382360935211,0.0,0.0,0.972752809524536,0.9926300048828124
-0.1356758177280426,0.7308699488639832,-0.3729853630065918,-0.8158845901489258,-0.1352989971637725,-0.5256310701370239,0.0,0.0,0.9563043117523192,0.8354969024658203
-0.1394536048173904,0.7127525210380554,-0.3500557243824005,-0.8079630732536316,-0.162977859377861,-0.5535774827003479,0.0,0.0,0.8984363079071045,0.7735289335250854
-0.1432251930236816,0.6944285035133362,-0.3478949666023254,-0.8178786635398865,-0.1923164278268814,-0.5867716073989868,0.0,0.0,0.9800622463226318,-0.4156932234764099
-0.1469206809997558,0.6759824752807617,-0.3407073020935058,-0.8238294124603271,-0.2213928252458572,-0.5815281271934509,0.0,0.0,0.9985036849975586,-0.7331778407096863
-0.1505279541015625,0.6576200127601624,-0.3337250053882599,-0.8204028606414795,-0.2487956285476684,-0.548056423664093,0.0,0.0,0.9976835250854492,-0.6262485980987549
-0.1541222631931305,0.6401036977767944,-0.3334722220897674,-0.783112108707428,-0.2753108739852905,-0.5303057432174683,0.0,0.0,0.9958482980728148,-0.933182656764984
-0.157740980386734,0.6233734488487244,-0.3376504778861999,-0.7483317255973816,-0.3002415895462036,-0.4986141622066498,0.0,0.0,0.9964549541473388,-0.9187215566635132
-0.1613151580095291,0.606866180896759,-0.3351287841796875,-0.7384253740310669,-0.3233487904071808,-0.4621438086032867,0.0,0.0,0.901595950126648,-0.7816415429115295
-0.1646054238080978,0.5905364751815796,-0.3087954223155975,,-0.3444671332836151,-0.4223673939704895,0.0,0.0,0.9665532112121582,-0.9287666082382202
-0.1677707731723785,0.5748240351676941,-0.2981569170951843,-0.7028480172157288,-0.36380136013031,-0.3866848349571228,0.0,0.0,0.9518657922744752,-0.9691605567932128
-0.1707169562578201,0.5591042637825012,-0.2784771621227264,-0.7028461694717407,-0.3809052109718323,-0.3420771956443786,0.0,0.0,0.9868943691253662,-0.9859527349472046
-0.1733967810869217,0.5440658926963806,-0.2538708448410034,-0.6722154021263123,-0.3959496021270752,-0.3008880019187927,0.0,0.0,0.9425337314605712,-0.9936129450798036
-0.1757692396640777,0.5290453433990479,-0.2254227697849273,-0.670925498008728,-0.4086346626281738,-0.2537013292312622,0.0,0.0,0.9885921478271484,-0.989535629749298
-0.1781213730573654,0.5142185091972351,-0.2251646518707275,-0.6619150638580322,-0.4194746315479278,-0.2167989760637283,0.0,0.0,0.9421106576919556,-0.9931684732437134
-0.1800597161054611,0.499950110912323,-0.1859110891819,-0.6365254521369934,-0.4280444383621216,-0.1713961958885193,0.0,0.0,0.9764879941940308,-0.9910781979560852
-0.1815726310014724,0.486014723777771,-0.1455743461847305,-0.621101975440979,-0.4342507421970367,-0.1241259798407554,0.0,0.0,0.9919800758361816,-0.9931153059005736
-0.182646557688713,0.4727188944816589,-0.1037569493055343,-0.59205561876297,-0.4382104575634002,-0.0791945457458496,0.0,0.0,0.9919980764389038,-0.9676060676574708
-0.1834731101989746,0.4601234495639801,-0.0807375833392143,-0.560399055480957,-0.4403086900711059,-0.0419645793735981,0.0,0.0,0.8636080026626587,-0.9688228964805604
-0.1841266602277755,0.4473879039287567,-0.0653527081012725,-0.5660239458084106,-0.4403015375137329,0.0001429413532605,0.0,0.0,0.9632139205932616,-0.9458646178245544
-0.1845962554216385,0.4352121651172638,-0.0485799126327037,-0.5406335592269897,-0.4385380744934082,0.0352694950997829,0.0,0.0,0.9129974842071532,-0.9252181649208068
-0.1847170889377594,0.4230865240097046,-0.0157044045627117,-0.5377904176712036,-0.4345845580101013,0.0790701657533645,0.0,0.0,0.7790635824203491,-0.9592722654342652
-0.1845791786909103,0.4111831486225128,0.0082784863188862,-0.5273467302322388,-0.4285949766635895,0.1197913736104965,0.0,0.0,0.298654556274414,-0.9572274684906006
-0.1843464821577072,0.3990393280982971,0.0159055702388286,-0.5375081300735474,-0.4206259548664093,0.1593802124261856,0.0,0.0,0.2448636293411255,-0.768528401851654
-0.1840513199567794,0.3869012892246246,0.0207705292850732,-0.5368850827217102,-0.411169946193695,0.1891203671693802,0.0,0.0,0.2769794464111328,-0.9104927182197572
-0.1834998130798339,0.375008225440979,0.0445716492831707,-0.5255500078201294,-0.3998112380504608,0.2271742820739746,0.0,0.0,0.0985411405563354,-0.6391798853874207
-0.1828233748674392,0.3626652061939239,0.0557348541915416,-0.5452754497528076,-0.3870782554149627,0.254660427570343,0.0,0.0,0.5514068603515625,-0.7320643663406372
-0.1818242073059082,0.3507556319236755,0.0864736288785934,-0.5257288813591003,-0.372786670923233,0.2858316302299499,0.0,0.0,-0.1991006135940551,-0.6127146482467651
-0.1808284819126129,0.3381699919700622,0.0846969336271286,-0.555563747882843,-0.357054740190506,0.314638614654541,0.0,0.0,0.2286669015884399,-0.7148144245147705
-0.179727554321289,0.3256610929965973,0.093811497092247,-0.5519989728927612,-0.3399611413478851,0.3418720662593841,0.0,0.0,0.0686287879943847,-0.412330150604248
-0.178417295217514,0.3130083680152893,0.1145834177732467,-0.5585610270500183,-0.3227952122688293,0.3433193862438202,0.0,0.0,0.0558142662048339,-0.3833086490631103
-0.1769541800022125,0.3004594147205353,0.130153089761734,-0.5542209148406982,-0.3060322701931,0.3352595865726471,0.0,0.0,0.220179796218872,-0.7926484942436218
-0.1753004044294357,0.2878178358078003,0.1475411653518676,-0.558199942111969,-0.2876259684562683,0.3681262135505676,0.0,0.0,0.553107500076294,-0.1811863183975219
-0.1735072135925293,0.2750160694122314,0.1615604907274246,-0.5655707716941833,-0.2693938016891479,0.3646438419818878,0.0,0.0,0.3775514364242553,-0.6164098381996155
-0.171561911702156,0.2618923187255859,0.1753894090652465,-0.5798724293708801,-0.2498279511928558,0.3913171589374542,0.0,0.0,0.6438356637954712,-0.5766006112098694
-0.1695401221513748,0.2485817074775695,0.1819071024656295,-0.5882659554481506,-0.2292193621397018,0.4121715128421783,0.0,0.0,0.5716829299926758,0.6868155002593994
-0.1672286093235016,0.2356622517108917,0.212199181318283,-0.5713653564453125,-0.2100439965724945,0.3835071623325348,0.0,0.0,0.4329874515533447,-0.3653788566589355
-0.1646266877651214,0.2230570912361145,0.2408820390701294,-0.5575991868972778,-0.1905864477157592,0.3891507685184479,0.0,0.0,0.628467321395874,-0.7423120141029358
-0.1619710922241211,0.2109955847263336,0.2449554651975631,-0.533551037311554,-0.1699095666408538,0.4135372042655945,0.0,0.0,0.1794602870941162,-0.8886562585830688
-0.1593730896711349,0.1986189484596252,0.2374460250139236,-0.5476677417755127,-0.1475474238395691,0.447242796421051,0.0,0.0,0.7178876399993896,0.387127161026001
-0.1565322875976562,0.1867524236440658,0.2614948451519012,-0.5253172516822815,-0.1250396966934204,0.450154960155487,0.0,0.0,0.7048909664154053,-0.1343886256217956
-0.1536393165588379,0.1750891059637069,0.2671790719032287,-0.5166652798652649,-0.1030671000480651,0.4394518733024597,0.0,0.0,0.6864728927612305,0.0415074825286865
-0.150647833943367,0.1637662500143051,0.2773033678531647,-0.5018752813339233,-0.0814080685377121,0.4331806302070617,0.0,0.0,0.9002227783203125,-0.4412647485733032
-0.1475204527378082,0.1529468595981598,0.2909802198410034,-0.4798205196857452,-0.0598707310855388,0.4307467937469482,0.0,0.0,0.9444019794464112,-0.2010302543640136
-0.1441642791032791,0.1424428969621658,0.3134057223796844,-0.4661005735397339,-0.0379202701151371,0.4390093684196472,0.0,0.0,0.9761605262756348,-0.562926709651947
-0.140720933675766,0.1318478882312774,0.3209529817104339,-0.4704611599445343,-0.0148286670446395,0.4618319571018219,0.0,0.0,0.9802225828170776,-0.3825909495353699
-0.1370720863342285,0.1212745532393455,0.3410416841506958,-0.4698578417301178,0.0087084621191024,0.4707428812980652,0.0,0.0,0.9776740074157716,-0.5350403785705566
-0.1331971138715744,0.1110292971134185,0.3620883226394653,-0.4556843340396881,0.0337917283177375,0.501665472984314,0.0,0.0,0.9757130146026612,-0.5428761839866638
-0.1291158646345138,0.1007957085967063,0.3811998665332794,-0.4556501507759094,0.0604000762104988,0.5321671366691589,0.0,0.0,0.9970359802246094,-0.7921913266181946
-0.1250704824924469,0.0912242233753204,0.3761541247367859,-0.4267865121364593,0.088486835360527,0.5617358088493347,0.0,0.0,0.9798109531402588,-0.1188398599624633
-0.1209789291024208,0.0823192223906517,0.3807514309883117,-0.3976978957653045,0.1166607812047004,0.5634788870811462,0.0,0.0,0.9846110343933104,0.0127816200256347
-0.116742230951786,0.0739377811551094,0.3947632908821106,-0.3750162422657013,0.1454383432865142,0.5755516290664673,0.0,0.0,0.957432746887207,-0.0029443502426147
-0.1123531311750412,0.0654603540897369,0.4096640944480896,-0.3798890113830566,0.1746762543916702,0.5847586393356323,0.0,0.0,0.9645950794219972,0.0957696437835693
-0.1080401390790939,0.0571651794016361,0.4025703072547912,-0.3723098635673523,0.203528955578804,0.5770541429519653,0.0,0.0,0.9717621803283693,0.4804334640502929
-0.1037457436323165,0.049717079848051,0.4005338549613952,-0.3352664709091186,0.2327485233545303,0.5843920111656189,0.0,0.0,0.947542667388916,0.5536549091339111
-0.0995008498430252,0.0425564385950565,0.3970521092414856,-0.3228289484977722,0.2606635093688965,0.5583004355430603,0.0,0.0,0.9436612129211426,0.5642130374908447
-0.0955140143632888,0.0360163561999797,0.3730958104133606,-0.2954344153404236,0.2868827879428863,0.5243860483169556,0.0,0.0,0.7949798107147217,0.5202444791793823
-0.0915148705244064,0.0299308151006698,0.375384509563446,-0.2754959166049957,0.3122154474258423,0.5066534280776978,0.0,1.0,0.9961600303649902,0.9897232055664062
-0.0877953544259071,0.0255029536783695,0.3653659522533417,-0.1987881660461425,0.3174000978469848,0.1012812480330467,0.0,1.0,0.8892512321472168,0.976792573928833
-0.0846424102783203,0.022134743630886,0.3313279151916504,-0.1463026255369186,0.3007238805294037,-0.3336151242256164,0.0,1.0,0.3920375108718872,-0.731622040271759
-0.0819252952933311,0.0191793069243431,0.3046770393848419,-0.1249401345849037,0.2667024135589599,-0.6805802583694458,0.0,1.0,0.196900725364685,-0.9772719144821168
-0.0796499252319336,0.0164609048515558,0.2711933851242065,-0.1135294660925865,0.2221433967351913,-0.8913536071777344,0.0,1.0,0.4398066997528076,-0.9777538776397704
-0.077752873301506,0.0137825580313801,0.2363476008176803,-0.112738199532032,0.1750306785106659,-0.94242125749588,0.0,1.0,0.707395076751709,-0.9828605651855468
-0.0759237259626388,0.0115152690559625,0.2268078327178955,-0.0962012633681297,0.1311426162719726,-0.8778029680252075,0.0,1.0,0.6463797092437744,-0.9845621585845948
-0.0741505622863769,0.0091006373986601,0.2193091809749603,-0.1041671186685562,0.0893957540392875,-0.8349714279174805,0.0,0.0,-0.6393710970878601,-0.9990333914756776
-0.0723448768258094,0.0060015060007572,0.2213209420442581,-0.1358063817024231,0.0490452460944652,-0.807043194770813,0.0,0.0,-0.038296639919281,-0.988557755947113
-0.0705266967415809,0.0022186969872564,0.2206994742155075,-0.1673048436641693,0.0106182545423507,-0.7685712575912476,0.0,0.0,0.7811431884765625,-0.9706127047538756
-0.0685284584760665,-0.000857439066749,0.2366224825382232,-0.136861115694046,-0.0257397349923849,-0.7271894812583923,1.0,0.0,0.5907458066940308,-0.9810669422149658
-0.0664416328072547,-0.0031262303236871,0.2266131192445755,-0.1015666797757148,-0.042262963950634,-0.3289428949356079,1.0,0.0,0.2925189733505249,-0.9791609644889832
-0.0642746910452842,-0.0044621489942073,0.2119935452938079,-0.0592548139393329,-0.0375923067331314,0.0934482514858245,1.0,0.0,0.0114384889602661,-0.9973459839820862
-0.0620264038443565,-0.0052540805190801,0.2030829489231109,-0.0347939990460872,-0.0160723254084587,0.4304596483707428,1.0,1.0,0.3686208724975586,-0.4332277774810791
-0.0598128326237201,-0.0054874327033758,0.2048055231571197,-0.01039735134691,-0.0002557023253757,0.3156600296497345,1.0,1.0,-0.0504735112190246,-0.9824993014335632
-0.0578839294612407,-0.0056333090178668,0.1862228214740753,-0.0065021067857742,0.00632603187114,0.1316328793764114,1.0,1.0,-0.5087494254112244,-0.993147611618042
-0.0562163367867469,-0.0056110643781721,0.1665175110101699,0.0009791856864467,0.0065715843811631,0.0049226931296288,1.0,1.0,-0.5065593719482422,-0.9443931579589844
-0.0547673217952251,-0.0053177736699581,0.1479851305484771,0.0130386417731642,0.0035438514314591,-0.0605403706431388,1.0,1.0,-0.2699739933013916,-0.9979523420333862
-0.0535042770206928,-0.0047129178419709,0.129193365573883,0.0268826987594366,0.0006951336399652,-0.0569633319973945,1.0,1.0,-0.4445963501930237,-0.9949620962142944
-0.0523956306278705,-0.0038208507467061,0.1122156530618667,0.0396471619606018,-0.0006427836488001,-0.0267550852149724,1.0,1.0,-0.4710038900375366,-0.9953026175498962
-0.0514404289424419,-0.002694180002436,0.0953132659196853,0.0500774309039115,-0.0004434073052834,0.003982629161328,1.0,1.0,-0.5759869813919067,-0.9797101616859436
-0.0506472587585449,-0.0014252448454499,0.0783150345087051,0.056401502341032,0.0005370879662223,0.0196007788181304,1.0,1.0,-0.8428420424461365,-0.9592825770378112
-0.0499239936470985,-0.0009088301449082,0.0697279721498489,0.0229473579674959,0.0030933613888919,0.0511257573962211,1.0,1.0,-0.5456503033638,-0.926435112953186
