x_pos,y_pos,x_vel,y_vel,angle,ang_vel,leg_1,leg_2,main_booster,lat_booster
-0.0015076637500897,1.4029762744903564,-0.1526586711406707,-0.3530650734901428,0.0016827195649966,0.033187486231327,0.0,0.0,-0.3373961602165889,-0.9652147755296387
-0.0030690194107592,1.3944023847579956,-0.1594748795032501,-0.3810709416866302,0.0049880407750606,0.066113606095314,0.0,0.0,0.3852305651063259,-0.971866887919508
-0.0045636175200343,1.3856812715530396,-0.1547801196575164,-0.3876311480998993,0.0102477008476853,0.1052029281854629,0.0,0.0,0.9060840857554906,-0.8186465212575551
-0.0062627792358398,1.3771708011627195,-0.1764493286609649,-0.3783023655414581,0.0167066641151905,0.1291912496089935,0.0,0.0,0.8868974135086793,0.788196461152675
-0.0077361105941236,1.369137406349182,-0.1525778025388717,-0.3571095466613769,0.0218983478844165,0.103843055665493,0.0,0.0,0.4379490444814133,-0.6259086470087707
-0.0091224666684865,1.3611665964126587,-0.1453507989645004,-0.3543696701526642,0.0285390932112932,0.1328274756669998,0.0,0.0,-0.5963327870771475,-0.7474764989467155
-0.0105540277436375,1.3525456190109253,-0.1513436883687973,-0.3833344280719757,0.0366342514753341,0.1619178503751754,0.0,0.0,-0.5011845355744693,0.9858037248422448
-0.0118732452392578,1.343285083770752,-0.1375590860843658,-0.411727100610733,0.0422126054763793,0.1115777045488357,0.0,0.0,0.3336177454746802,-0.691136165768496
-0.0132705690339207,1.334392547607422,-0.1466560363769531,-0.3954398334026336,0.0490619055926799,0.1369988024234771,0.0,0.0,0.7309597004531827,-0.9304029514255114
-0.0147639270871877,1.325992465019226,-0.1580292880535125,-0.3736368119716644,0.0576720051467418,0.1722178161144256,0.0,0.0,-0.6580129851379979,-0.6967705898767247
-0.0162887573242187,1.3169416189193726,-0.1622833311557769,-0.4026673138141632,0.0673858821392059,0.1942951083183288,0.0,0.0,-0.555811867335186,0.9448528545837016
-0.0177148822695016,1.307249903678894,-0.1502268612384796,-0.4311029016971588,0.0749251842498779,0.1507999300956726,0.0,0.0,-0.0772715615268446,-0.8026777462325926
-0.0191752426326274,1.296908974647522,-0.1548196673393249,-0.4600513875484466,0.0836342647671699,0.1741977035999298,0.0,0.0,-0.840857919785241,-0.7927315283484526
-0.020674992352724,1.2859066724777222,-0.1600757837295532,-0.4895868003368377,0.0936595126986503,0.2005229890346527,0.0,0.0,0.3286723979931425,0.9992256747693008
-0.022012423723936,1.2752867937088013,-0.1418164074420929,-0.4725120663642883,0.1016843691468238,0.1605116575956344,0.0,0.0,-0.4982361828354844,-0.9292503598257068
-0.0233933441340923,1.2639994621276855,-0.1476180255413055,-0.5023324489593506,0.1111474782228469,0.1892791986465454,0.0,0.0,0.9554847859262928,-0.94850678415334
-0.0247676856815814,1.253603219985962,-0.1490891575813293,-0.4629654288291931,0.1227486506104469,0.2320446223020553,0.0,0.0,0.5035766018256811,-0.6707165773159572
-0.0260798446834087,1.243078589439392,-0.1444099396467209,-0.4689002335071563,0.1359006464481353,0.263063907623291,0.0,0.0,0.5534069019330401,0.7235532173075122
-0.0273240096867084,0.0,-0.136253997683525,-0.446036159992218,0.1477210223674774,0.2364290058612823,0.0,0.0,0.8547315244200497,0.7532965347115399
-0.0286855697631835,1.223344087600708,-0.1461698710918426,-0.4332011938095093,0.1577374786138534,0.2003471404314041,0.0,0.0,0.964565597941662,-0.6411346630025427
-0.0300630573183298,1.214328408241272,-0.1493742913007736,-0.4019691050052643,0.1693923622369766,0.2331187278032302,0.0,0.0,-0.9485727053495728,-0.7997928458778194
-0.0314866080880165,1.204646110534668,-0.1554485857486724,-0.4318767786026001,0.1825407147407531,0.2629903256893158,0.0,0.0,0.7192234525208563,0.8616534473972
-0.0327844619750976,1.1952110528945925,-0.1413142383098602,-0.4207952916622162,0.1941408216953277,0.2320228815078735,0.0,0.0,-0.7322539046463559,0.9584518330553716
-0.0339838042855262,0.0,-0.129242405295372,-0.4487298429012298,0.2035251408815384,0.1877034902572631,0.0,0.0,-0.2359721454873513,-0.9373222894701816
-0.0352590568363666,0.0,-0.1390349417924881,-0.4789881408214569,0.2151608914136886,0.2327354699373245,0.0,0.0,-0.5802778966734046,0.9506091328268172
-0.0364623069763183,1.163016676902771,-0.13032266497612,-0.5075116157531738,0.2252676486968994,0.2021350115537643,0.0,0.0,0.715691726725171,-0.7627533296985627
-0.0378752723336219,1.1520730257034302,-0.1527104079723358,-0.4881671667098999,0.2368433326482772,0.2315134704113006,0.0,0.0,0.4859392636925943,-0.8746636919146747
-0.0396460518240928,1.1415032148361206,-0.189949482679367,-0.4718998074531555,0.2499435842037201,0.2620048820972442,0.0,0.0,-0.922195492859394,0.6049333458585706
-0.0413677208125591,1.130305528640747,-0.1840034425258636,-0.4997338354587555,0.2620112299919128,0.2413526028394699,0.0,0.0,0.0221134381750733,-0.6317262776829384
-0.0432162284851074,1.118870973587036,-0.1977968513965606,-0.5105710625648499,0.2752744257450104,0.2652636766433716,0.0,0.0,-0.2230885286138193,0.6979739348665114
-0.0449983589351177,1.106820583343506,-0.1896301358938217,-0.5377642512321472,0.287002682685852,0.2345651090145111,0.0,0.0,-0.7834065526562348,-0.95345980224256
-0.0468479171395301,1.0940824747085571,-0.1983785927295684,-0.5688426494598389,0.3008556962013244,0.2770597338676452,0.0,0.0,0.784044008654617,0.9256725685589328
-0.0489680282771587,1.0819345712661743,-0.2233495265245437,-0.5422943830490112,0.3125962316989898,0.2348113059997558,0.0,0.0,0.1289752079272492,0.8517599187161438
-0.0511340126395225,1.0694917440414429,-0.2261601984500885,-0.5551092028617859,0.3225270509719848,0.1986164003610611,0.0,0.0,0.1546862092266561,-0.6835187756382076
-0.0534657463431358,1.0570071935653689,-0.2439877986907959,-0.5573176145553589,0.3338041007518768,0.2255409061908722,0.0,0.0,-0.7715664489819107,0.8270880182165903
-0.0557233802974224,1.0439143180847168,-0.234811395406723,-0.5840290784835815,0.3432709872722626,0.1893375813961029,0.0,0.0,-0.1998454294817235,0.9017676387618884
-0.057904053479433,1.0302038192749023,-0.2253539115190506,-0.6111176609992981,0.3509179353713989,0.1529389172792434,0.0,0.0,-0.2310133601102661,-0.9178326955022824
-0.0601380355656147,1.015817403793335,-0.232282355427742,-0.6415966153144836,0.3602631092071533,0.1869029998779297,0.0,0.0,-0.397019002788747,0.8506964371798635
-0.0623043999075889,1.000825047492981,-0.2238792926073074,-0.6681643724441528,0.3679091930389404,0.1529225558042526,0.0,0.0,0.8847034660886028,-0.769854477969961
-0.0647328346967697,0.9861429929733276,-0.2515785694122314,-0.6548149585723877,0.3771599233150482,0.1850148141384124,0.0,0.0,-0.7401369153303601,-0.9147184936030096
-0.0672310814261436,0.970773994922638,-0.2605462372303009,-0.6859419941902161,0.3885695040225982,0.2281920164823532,0.0,0.0,-0.2207299470901489,0.969618797302246
-0.069633200764656,0.9548079371452332,-0.2486021071672439,-0.7119207978248596,0.3975230753421783,0.1790708899497985,0.0,0.0,-0.3990868926048279,0.9372305870056152
-0.0719435662031173,0.9382341504096984,-0.2372525930404663,-0.7383714318275452,0.4041953086853027,0.1334443837404251,0.0,0.0,-0.5246871709823608,0.94671630859375
-0.0741635337471962,0.9210614562034608,-0.2260488271713256,-0.7643916606903076,0.4085457324981689,0.0870083421468734,0.0,0.0,-0.6060402989387512,0.9710357189178468
-0.0763051956892013,0.9032723307609558,-0.2164452075958252,-0.7912911176681519,0.4109969735145569,0.0490249469876289,0.0,0.0,-0.5288010835647583,0.9783270359039308
-0.0783587470650672,0.8848750591278076,-0.2055799216032028,-0.8177224397659302,0.411243736743927,0.0049350401386618,0.0,0.0,-0.4193983078002929,0.996267795562744
-0.0803224593400955,0.8658760190010071,-0.1944669783115387,-0.8438501358032227,0.4091914892196655,-0.04104545712471,0.0,0.0,0.0812755823135376,0.999010443687439
-0.082506276667118,0.8469833731651306,-0.2145446836948394,-0.8385657072067261,0.4050723910331726,-0.0823822170495987,0.0,0.0,0.2895601987838745,0.9996583461761476
-0.0849652290344238,0.8282740116119385,-0.2400658577680587,-0.8298825025558472,0.3988236486911773,-0.1249748691916465,0.0,0.0,-0.0819141864776611,0.9997625350952148
-0.0873454064130783,0.808958113193512,-0.2302891314029693,-0.8563336730003357,0.3905620872974396,-0.1652314662933349,0.0,0.0,0.6456594467163086,0.9999732971191406
-0.0897122398018837,0.7899207472801208,-0.22713103890419,-0.8435168862342834,0.3803869783878326,-0.2035019844770431,0.0,0.0,0.6099201440811157,0.998813271522522
-0.0923261642456054,0.7712506651878357,-0.2497787475585937,-0.8267256021499634,0.3680676817893982,-0.2463860511779785,0.0,0.0,0.3091216087341308,0.999675750732422
-0.0948911681771278,0.752519428730011,-0.2429026067256927,-0.8290726542472839,0.3537158966064453,-0.2870360016822815,0.0,0.0,0.4148857593536377,0.9993202686309814
-0.0976120010018348,0.7341551184654236,-0.2564382553100586,-0.8124273419380188,0.3372977674007416,-0.3283628225326538,0.0,0.0,0.2243993282318115,0.9997044801712036
-0.1002489104866981,0.7157578468322754,-0.2459953725337982,-0.8136312365531921,0.3188398778438568,-0.3691576719284057,0.0,0.0,-0.0252306461334228,0.9960287809371948
-0.1028168648481369,0.6967437863349915,-0.2373402565717697,-0.8409185409545898,0.2986778318881988,-0.4032410681247711,0.0,0.0,-0.0790398120880127,0.9980590343475342
-0.1052948981523513,0.6771361827850342,-0.2259418666362762,-0.8671247959136963,0.2761638462543487,-0.4502804279327392,0.0,0.0,-0.1426652669906616,0.9618492126464844
-0.1076797470450401,0.6569291949272156,-0.2141262590885162,-0.893676221370697,0.2512572407722473,-0.4981328547000885,0.0,0.0,0.2100487947463989,0.9740428924560548
-0.1100756675004959,0.6370212435722351,-0.2131436169147491,-0.8805005550384521,0.2243942618370056,-0.5372599363327026,0.0,0.0,0.3029936552047729,0.9974502325057985
-0.1125986129045486,0.6173927187919617,-0.2236886769533157,-0.8682806491851807,0.1955071091651916,-0.577743411064148,0.0,0.0,-0.1388019919395446,0.9481141567230223
-0.1150375381112098,0.597143292427063,-0.2130810469388961,-0.8961979746818542,0.1645791828632354,-0.6185590624809265,0.0,0.0,0.4321924448013305,0.2068396806716919
-0.1176588088274002,0.5771368145942688,-0.2307719737291336,-0.8860058188438416,0.1332724243402481,-0.6261357665061951,0.0,0.0,0.610602617263794,0.6593630313873291
-0.1201623901724815,0.5572798848152161,-0.2178554534912109,-0.879944384098053,0.1009622886776924,-0.6462032794952393,0.0,0.0,0.6664915084838867,0.3512814044952392
-0.1227017417550087,0.5377146601676941,-0.2214651107788086,-0.8676837682723999,0.0687917694449424,-0.6434110403060913,0.0,0.0,0.3207722902297973,0.5244128704071045
-0.1252119094133377,0.5179961323738098,-0.2174646854400634,-0.8751732707023621,0.0356259420514106,-0.6633173227310181,0.0,0.0,0.998121976852417,0.7427859306335449
-0.127847671508789,0.4987111389636993,-0.2281245738267898,-0.8566368222236633,0.0006291805184446,-0.6999358534812927,0.0,0.0,0.893195390701294,-0.5768058896064758
-0.1305005997419357,0.4802713394165039,-0.2311091125011444,-0.8198765516281128,-0.0331093072891235,-0.6747703552246094,0.0,0.0,0.9041702747344972,-0.2448941469192505
-0.133044809103012,0.4616988003253937,-0.2207643687725067,-0.8265255689620972,-0.0663696005940437,-0.665206253528595,0.0,0.0,0.9908052682876588,-0.6685969829559326
-0.1355354338884353,0.4440410733222961,-0.2169542759656906,-0.7865173816680908,-0.0981633216142654,-0.6358746886253357,0.0,0.0,0.8571122884750366,0.2198740243911743
-0.1380761116743087,0.4265584349632263,-0.221625879406929,-0.7794542908668518,-0.130401536822319,-0.6447650194168091,0.0,0.0,0.9092570543289183,-0.6220859289169312
-0.1406734436750412,0.4096388518810272,-0.2284013032913208,-0.755021333694458,-0.161650463938713,-0.6249786019325256,0.0,0.0,0.8329036235809326,0.2910346984863281
-0.143123060464859,0.3930974900722503,-0.2139944583177566,-0.7388342618942261,-0.1926929503679275,-0.6208504438400269,0.0,0.0,0.9324077367782592,-0.4024854898452759
-0.1455284059047699,0.3774180710315704,-0.2091191262006759,-0.7012583017349243,-0.224381998181343,-0.6337814927101135,0.0,0.0,0.9948415756225586,-0.9340029358863832
-0.1477523744106292,0.3621140420436859,-0.1932791471481323,-0.6848806142807007,-0.2539566159248352,-0.5914920568466187,0.0,0.0,0.9917596578598022,-0.879112720489502
-0.1499668061733245,0.3468929529190063,-0.1942270398139953,-0.6814419627189636,-0.2817950546741485,-0.5567687749862671,0.0,0.0,0.9966120719909668,-0.9454548358917236
-0.1520561277866363,0.3315822780132293,-0.1839931309223175,-0.6854946613311768,-0.3075067400932312,-0.5142338275909424,0.0,0.0,0.9981536865234376,-0.986531376838684
-0.1541356146335601,0.3162629306316376,-0.1851160824298858,-0.6858759522438049,-0.3312352001667022,-0.4745690822601318,0.0,0.0,0.997765064239502,-0.9694368839263916
-0.155982106924057,0.3017128407955169,-0.1639475673437118,-0.6515715718269348,-0.3529350459575653,-0.4339972138404846,0.0,0.0,0.9949166774749756,-0.9995609521865844
-0.157458022236824,0.2879003882408142,-0.1291911303997039,-0.6185216307640076,-0.3723409473896026,-0.3881182968616485,0.0,0.0,0.995603322982788,-0.9988714456558228
-0.1587841063737869,0.2749571204185486,-0.1161350756883621,-0.5796507000923157,-0.3898642063140869,-0.3504653573036194,0.0,0.0,0.9971027374267578,-0.99748957157135
-0.1601930558681488,0.2620579898357391,-0.1262210756540298,-0.5773914456367493,-0.4055628180503845,-0.3139724135398865,0.0,0.0,0.990937352180481,-0.999887466430664
-0.1612460166215896,0.2498485594987869,-0.0927934497594833,-0.5462820529937744,-0.4190335571765899,-0.2694148123264313,0.0,0.0,0.9941287040710448,-0.9996333122253418
-0.1622118949890136,0.2380746006965637,-0.0859247744083404,-0.5264973044395447,-0.4305852949619293,-0.2310349494218826,0.0,0.0,0.9996895790100098,-0.9998700618743896
-0.1629726439714431,0.2268704771995544,-0.0673163011670112,-0.5006701350212097,-0.4401074945926666,-0.1904439032077789,0.0,0.0,0.9946032762527466,-0.991173267364502
-0.1634574830532074,0.2162286192178726,-0.0417040586471557,-0.4751218557357788,-0.4475207328796386,-0.1482655107975006,0.0,0.0,0.9968950748443604,-0.996179461479187
-0.1636040657758712,0.2058644890785217,-0.0100181763991713,-0.4621208608150482,-0.4526057839393616,-0.1017002090811729,0.0,0.0,0.9703572988510132,-0.9998248219490052
-0.1636183708906173,0.1954245418310165,0.0012048740172758,-0.4648543894290924,-0.455504298210144,-0.0579704344272613,0.0,0.0,0.9520611763000488,-0.9991394281387328
-0.1633879691362381,0.1849416047334671,0.0235686972737312,-0.4660758078098297,-0.4560758769512176,-0.0114313345402479,0.0,0.0,0.8772997856140137,-0.99823260307312
-0.1627759933471679,0.1746122390031814,0.0595188438892364,-0.4585376679897308,-0.4542334973812103,0.0368467941880226,0.0,0.0,0.8555202484130859,-0.987281084060669
-0.1618860214948654,0.1641606390476226,0.0851651430130004,-0.4632752239704132,-0.4500276744365692,0.0841167047619819,0.0,0.0,0.4662168025970459,-0.9961801767349244
-0.160780519247055,0.1540223211050033,0.1047384738922119,-0.4487362504005432,-0.4436700642108917,0.1271519958972931,0.0,0.0,-0.0400701761245727,-0.988699436187744
-0.159740537405014,0.1432899832725525,0.096319742500782,-0.4745801985263824,-0.435280442237854,0.1677916944026947,0.0,0.0,0.5600509643554688,-0.992120921611786
-0.1583841294050216,0.1327347308397293,0.1258413791656494,-0.4661214649677276,-0.4246377348899841,0.212854191660881,0.0,0.0,0.1605770587921142,-0.9424733519554138
-0.156928539276123,0.1218311637639999,0.1338469088077545,-0.4811256229877472,-0.4119845032691955,0.2530644536018371,0.0,0.0,0.4918736219406128,-0.807930588722229
-0.1553968489170074,0.1109810173511505,0.1398354023694992,-0.4784140288829803,-0.3976666927337646,0.286356508731842,0.0,0.0,0.8513684272766113,-0.7140360474586487
-0.1534461975097656,0.1008028611540794,0.1799904108047485,-0.4482249915599823,-0.3815642297267914,0.3220492005348205,0.0,0.0,0.7086057662963867,-0.86655193567276
-0.1513646095991134,0.0908516496419906,0.1912467926740646,-0.4378604888916015,-0.3636516630649566,0.3582514524459839,0.0,0.0,0.7314093112945557,-0.859184741973877
-0.1491830796003341,0.081545241177082,0.1996231228113174,-0.4090365469455719,-0.344135582447052,0.3903216123580932,0.0,0.0,0.7439284324645996,-0.8117288947105408
-0.1467168778181076,0.0726207122206687,0.2261020243167877,-0.3918957412242889,-0.3227010071277618,0.428691565990448,0.0,0.0,0.7419406175613403,-0.8921709060668945
-0.1441244184970855,0.0642484277486801,0.2368584126234054,-0.3672785460948944,-0.2994706928730011,0.4646064341068268,0.0,0.0,0.6963167190551758,-0.9242807030677797
-0.1414635628461837,0.0564175210893154,0.2417501509189605,-0.3432317674160003,-0.2744213938713074,0.5009860396385193,0.0,0.0,0.8907879590988159,-0.8534531593322754
-0.1387431174516677,0.0488069877028465,0.2458351105451584,-0.3335586190223694,-0.2476385980844497,0.5356562733650208,0.0,0.0,0.7997024059295654,-0.9720099568367004
-0.1360733062028885,0.0415917001664638,0.2388021647930145,-0.3161817491054535,-0.2190324962139129,0.5721221566200256,0.0,0.0,0.9773938655853271,-0.9644309282302856
-0.1335353851318359,0.0347447022795677,0.2237692773342132,-0.3001414537429809,-0.1887680739164352,0.605289101600647,0.0,0.0,0.9893841743469238,-0.7901327013969421
-0.1307589560747146,0.0285201165825128,0.245487242937088,-0.2728745639324188,-0.1565384119749069,0.644593358039856,0.0,0.0,0.9935173988342284,-0.8882189393043518
-0.1279022246599197,0.0223111249506473,0.2513370811939239,-0.2727052569389343,-0.1223091632127761,0.6845852136611938,0.0,0.0,0.9976675510406494,-0.7244523167610168
-0.1248007789254188,0.0168248265981674,0.2736715078353882,-0.2412431240081787,-0.0861040502786636,0.7241027355194092,0.0,0.0,0.9841753244400024,-0.5700858235359192
-0.1216922774910926,0.0121152261272072,0.27313032746315,-0.2075660675764084,-0.0487815216183662,0.746451199054718,0.0,0.0,0.9574298858642578,-0.4964720010757446
-0.1183650940656662,0.0082807755097746,0.2940624952316284,-0.1696060746908188,-0.010613813996315,0.7633548378944397,0.0,0.0,0.3442956209182739,-0.4812783002853393
-0.1149709671735763,0.0045238588936626,0.3004017472267151,-0.16714408993721,0.0279041416943073,0.7703596353530884,0.0,0.0,0.2671551704406738,-0.1353093385696411
-0.1116001158952713,0.0010772920213639,0.2980745434761047,-0.1543598920106887,0.0664595142006874,0.7711080312728882,0.0,1.0,0.9744101762771606,0.765317440032959
-0.1083526611328125,-0.001004853285849,0.3052606582641601,-0.0937993675470352,0.0839072614908218,0.3465861082077026,0.0,0.0,0.6193732023239136,-0.7783970236778259
-0.1053688079118728,-0.0025320316199213,0.2986510097980499,-0.0678635537624359,0.0836130231618881,-0.0059222630225121,0.0,0.0,0.2873225212097168,-0.856999933719635
-0.1028165817260742,-0.0035114670172333,0.2719158232212066,-0.0426926538348197,0.0670499503612518,-0.3313134610652923,0.0,0.0,-0.6211506128311157,-0.7738714218139648
-0.1004800796508789,-0.0048078321851789,0.260584145784378,-0.0566416420042514,0.0403661541640758,-0.5337402820587158,0.0,0.0,-0.5817388296127319,-0.9239459037780762
-0.0982899665832519,-0.0065735839307308,0.2502448856830597,-0.0779423266649246,0.0094788186252117,-0.6178151369094849,1.0,0.0,-0.4896519780158996,-0.8707047700881958
-0.0961487740278244,-0.0082629825919866,0.2325470447540283,-0.0755390971899032,-0.0070389513857662,-0.3282616436481476,1.0,0.0,-0.1806178092956543,-0.9604474306106568
-0.094044491648674,-0.0097228912636637,0.2165349423885345,-0.0649288743734359,-0.0130557874217629,-0.1203223094344139,1.0,0.0,0.4210438728332519,-0.954453468322754
-0.0919598564505577,-0.0099223041906952,0.2081072777509689,-0.0088664386421442,-0.012689028866589,0.007348783314228,1.0,0.0,-0.3816796541213989,-0.995839297771454
-0.0900464057922363,-0.0096638463437557,0.18860724568367,0.0115023525431752,-0.0099755451083183,0.0542797520756721,1.0,0.0,-0.7264975309371948,-0.9990748763084412
-0.0886110290884971,-0.0087977079674601,0.1437059938907623,0.0384792946279048,-0.0101072397083044,-0.0025890273973345,1.0,0.0,-0.881899356842041,-0.9927054047584534
