x_pos,y_pos,x_vel,y_vel,angle,ang_vel,leg_1,leg_2,main_booster,lat_booster
-0.0015204430092126,1.4034907817840576,-0.1541364341974258,-0.3301914036273956,0.0018664204981178,0.0368248969316482,0.0,0.0,-0.2286932468414306,0.8393145799636841
-0.0029663085006177,1.3959472179412842,-0.1447018980979919,-0.3352752029895782,0.0019733419176191,0.0021391108166426,0.0,0.0,-0.2722920775413513,0.4205089807510376
-0.0044091222807765,1.388269305229187,-0.1444708704948425,-0.3412394821643829,0.002163654891774,0.0038066573906689,0.0,0.0,0.1308355331420898,-0.0947641730308532
-0.0059310914948582,1.380970478057861,-0.1520722806453704,-0.3243957459926605,0.0020395752508193,-0.002481703646481,0.0,0.0,-0.2176514863967895,0.7952771186828613
-0.0073741911910474,1.3735405206680298,-0.1423131227493286,-0.3302173018455505,7.732310041319579e-05,-0.0392489023506641,0.0,0.0,0.145726203918457,0.2839239835739136
-0.0087188724428415,1.3665419816970823,-0.1330131292343139,-0.3110466301441192,-0.001363901537843,-0.0288272462785244,0.0,0.0,-0.1018686294555664,0.5200222730636597
-0.0100212097167968,1.3594095706939695,-0.1278268694877624,-0.3169968724250793,-0.0037373469676822,-0.0474733933806419,0.0,0.0,-0.452154278755188,0.0696033239364624
-0.0113204000517725,1.3521438837051392,-0.127577543258667,-0.3229358494281769,-0.0060563399456441,-0.0463840067386627,0.0,0.0,-0.063275933265686,0.306554913520813
-0.012616729363799,1.344744324684143,-0.1273270547389984,-0.3288764655590057,-0.0083273136988282,-0.0454235784709453,0.0,0.0,-0.4094600677490234,0.006354808807373
-0.0139100076630711,1.3372113704681396,-0.1270752251148224,-0.334817886352539,-0.0105555457994341,-0.0445688590407371,0.0,0.0,-0.7375385761260986,0.6155573129653931
-0.015144919976592,1.3295443058013916,-0.1198675781488418,-0.3407889306545257,-0.0141404289752244,-0.0717045813798904,0.0,0.0,-0.619611918926239,0.0301578044891357
-0.0163768772035837,1.321743726730347,-0.1196082457900047,-0.346730887889862,-0.017692357301712,-0.0710447058081626,0.0,0.0,-0.4416295886039734,0.415499210357666
-0.0176060684025287,1.3138096332550049,-0.1193480268120765,-0.3526729345321655,-0.0212172083556652,-0.0705034583806991,0.0,0.0,-0.2997412085533142,-0.2740432024002075
-0.0188323017209768,1.3057420253753662,-0.1190868020057678,-0.3586150705814361,-0.0247196052223444,-0.0700539797544479,0.0,0.0,-0.5979912877082825,0.3893325328826904
-0.0200557708740234,1.2975409030914309,-0.1188244819641113,-0.3645572066307068,-0.0282041784375906,-0.0696978718042373,0.0,0.0,-0.3579723834991455,0.2814253568649292
-0.0212763790041208,1.2892061471939087,-0.1185610517859458,-0.3704994022846222,-0.0316754654049873,-0.0694319307804107,0.0,0.0,-0.7052775025367737,0.5735194683074951
-0.0224385261535644,1.280742049217224,-0.1113079190254211,-0.3762923777103424,-0.0365356653928756,-0.097212441265583,0.0,0.0,-0.639674186706543,-0.173852801322937
-0.0235980041325092,1.2721446752548218,-0.111037790775299,-0.3822357356548309,-0.0413901917636394,-0.0970992445945739,0.0,0.0,-0.6448721289634705,-0.4655052423477173
-0.0247547142207622,1.263413906097412,-0.110767126083374,-0.3881791830062866,-0.0462438352406024,-0.0970818251371383,0.0,0.0,-0.8637741208076477,-0.0591424107551574
-0.0259086601436138,1.2545497417449951,-0.1104959398508071,-0.3941226899623871,-0.0511000752449035,-0.0971333086490631,0.0,0.0,-0.9453717470169068,-0.0157306194305419
-0.0270600318908691,1.2455521821975708,-0.1102238744497299,-0.4000662863254547,-0.055962361395359,-0.0972545593976974,0.0,0.0,-0.8639839291572571,-0.2049790024757385
-0.0282086376100778,1.2364212274551392,-0.1099510639905929,-0.4060100018978119,-0.0608340166509151,-0.0974416360259056,0.0,0.0,-0.977266252040863,0.1052193641662597
-0.0293547622859478,1.2271569967269895,-0.1096775531768798,-0.411953866481781,-0.0657181069254875,-0.0976904407143592,0.0,0.0,-0.969645380973816,-0.117546260356903
-0.0304982177913188,1.2177592515945437,-0.1094033867120742,-0.4178978502750397,-0.0706175193190574,-0.0979967191815376,0.0,0.0,-0.9851031303405762,0.5444828271865845
-0.0316061973571777,1.2082263231277466,-0.1050015315413475,-0.4239695370197296,-0.0763628780841827,-0.1149173602461814,0.0,0.0,-0.9548866748809814,-0.1394035816192627
-0.0327127464115619,1.198538899421692,-0.1048322543501854,-0.430865615606308,-0.0821288228034973,-0.1153187006711959,0.0,0.0,-0.9510391354560852,0.2024019956588745
-0.0338168144226074,1.18871808052063,-0.1045701280236244,-0.4368078410625458,-0.0879180654883384,-0.1157848611474037,0.0,0.0,-0.8703296184539795,-0.2844804525375366
-0.0349184982478618,1.1787642240524292,-0.1043076291680336,-0.4427500963211059,-0.0937326103448867,-0.1162907853722572,0.0,0.0,-0.4141104221343994,-0.5398669242858887
-0.0360693931579589,1.1686887741088867,-0.1105109006166458,-0.4480881094932556,-0.0982635393738746,-0.0906186252832412,0.0,0.0,-0.6075063347816467,0.5463279485702515
-0.0371764190495014,1.158471941947937,-0.1050502434372901,-0.4544627964496612,-0.103874996304512,-0.1122291684150695,0.0,0.0,-0.7373940348625183,-0.2583544254302978
-0.0382810607552528,1.1481220722198486,-0.1047868877649307,-0.4604049324989319,-0.1095163747668266,-0.1128274798393249,0.0,0.0,-0.584253191947937,0.5039072036743164
-0.0393491759896278,1.1376304626464844,-0.1002131849527359,-0.4667945802211761,-0.1160653010010719,-0.1309784948825836,0.0,0.0,-0.5126734972000122,-0.5173465609550476
-0.0404606834053993,1.1270184516906738,-0.105714812874794,-0.4720722436904907,-0.1214701980352401,-0.108098067343235,0.0,0.0,-0.7180362939834595,0.3962457180023193
-0.0415698066353797,1.1162734031677246,-0.1054511666297912,-0.4780142903327942,-0.1269077211618423,-0.1087503209710121,0.0,0.0,0.4251397848129272,-0.1865155100822448
-0.0425941459834575,1.106197476387024,-0.0970113351941108,-0.448289692401886,-0.132313460111618,-0.1081143468618393,0.0,0.0,-0.7118721008300781,0.2930737733840942
-0.0436162948608398,1.0959885120391846,-0.0967477709054946,-0.454231709241867,-0.1377525180578231,-0.108781099319458,0.0,0.0,-0.575370192527771,-0.6938716173171997
-0.0446930900216102,1.0856544971466064,-0.1036393046379089,-0.4596720039844513,-0.1417796611785888,-0.0805426314473152,0.0,0.0,-0.6341361403465271,-0.0323737859725952
-0.0457674972712993,1.075186848640442,-0.1033758670091629,-0.4656130075454712,-0.1458400040864944,-0.0812072455883026,0.0,0.0,-0.7421079874038696,-0.3485692739486694
-0.0468397140502929,1.0645860433578491,-0.1031126603484153,-0.4715540111064911,-0.149933248758316,-0.0818645358085632,0.0,0.0,-0.9615808129310608,-0.5912982225418091
-0.0479534156620502,1.053862690925598,-0.1083759218454361,-0.4769047498703003,-0.1529311686754226,-0.0599582977592945,0.0,0.0,-0.9436400532722472,-0.0143287181854248
-0.0490648262202739,1.0430057048797607,-0.1081132292747497,-0.4828451573848724,-0.1559606343507766,-0.060588963329792,0.0,0.0,-0.9675021171569824,-0.142310082912445
-0.0501739494502544,1.032015323638916,-0.107850968837738,-0.4887855947017669,-0.159020647406578,-0.0612003095448017,0.0,0.0,-0.6154338121414185,0.1174144744873046
-0.0512807853519916,1.0208914279937744,-0.1075892075896263,-0.4947260320186615,-0.1621100604534149,-0.0617884881794452,0.0,0.0,-0.9059059619903564,0.2158536911010742
-0.0523852333426475,1.0096341371536257,-0.1073280125856399,-0.5006664395332336,-0.1652275472879409,-0.0623497143387794,0.0,0.0,-0.8834478855133057,-0.5703935623168945
-0.053535558283329,0.9982485175132751,-0.1131056994199752,-0.5062404870986938,-0.1671560853719711,-0.0385708771646022,0.0,0.0,-0.9048193693161012,-0.2850120663642883
-0.0546835884451866,0.9867295026779176,-0.1128456816077232,-0.5121804475784302,-0.1691094487905502,-0.0390671603381633,0.0,0.0,-0.9779847264289856,-0.8269383907318115
-0.0558876022696495,0.9750872850418092,-0.119912065565586,-0.517490565776825,-0.1695995777845382,-0.0098029989749193,0.0,0.0,-0.7945632934570312,-0.1492936015129089
-0.0570893287658691,0.9633114337921144,-0.119653582572937,-0.5234301090240479,-0.1701105684041977,-0.0102199334651231,0.0,0.0,-0.998559594154358,-0.4905272126197815
-0.05828857421875,0.9514020085334778,-0.1193960458040237,-0.5293696522712708,-0.1706401407718658,-0.0105920508503913,0.0,0.0,-0.9960978031158448,-0.6129144430160522
-0.0595350265502929,0.9393698573112488,-0.1253687292337417,-0.5346733331680298,-0.1699157655239105,0.0144878001883625,0.0,0.0,-0.9951967000961304,0.7103508710861206
-0.0607106201350688,0.9271864295005798,-0.1165058389306068,-0.5416058897972107,-0.1709674149751663,-0.0210331864655017,0.0,0.0,-0.9987037181854248,-0.8745148777961731
-0.0619576461613178,0.9148945212364196,-0.1255623996257782,-0.5462105870246887,-0.1701066642999649,0.0172149594873189,0.0,0.0,-0.9884490966796876,-0.0107286572456359
-0.0632022842764854,0.9024689197540284,-0.1253095269203186,-0.5521500110626221,-0.1692539751529693,0.0170538052916526,0.0,0.0,-0.9846166968345642,0.4648458957672119
-0.0644443482160568,0.8899097442626953,-0.1250580847263336,-0.5580893158912659,-0.1684063524007797,0.0169527903199195,0.0,0.0,-0.9815712571144104,-0.6506205201148987
-0.0657224655151367,0.8772242665290833,-0.1296291798353195,-0.5635927319526672,-0.1665812283754348,0.0365025661885738,0.0,0.0,-0.9536912441253662,-0.5115575194358826
-0.0670444518327713,0.8644147515296936,-0.1352109760046005,-0.568981409072876,-0.1635688990354538,0.0602467581629753,0.0,0.0,-0.9909756183624268,-0.4127018451690674
-0.0683639496564865,0.8514716029167175,-0.1349647790193557,-0.5749213695526123,-0.1605517864227295,0.0603418350219726,0.0,0.0,-0.7891899347305298,0.5307855606079102
-0.0696297660470008,0.838384747505188,-0.1283014863729477,-0.5814571380615234,-0.1588314026594162,0.034408114850521,0.0,0.0,-0.9853712916374208,-0.7959350347518921
-0.0709464997053146,0.8251854181289673,-0.134809598326683,-0.5863065719604492,-0.1556990146636963,0.0626474544405937,0.0,0.0,-0.9907224774360656,0.1542389392852783
-0.0722606629133224,0.8118524551391602,-0.1345697790384292,-0.5922463536262512,-0.1525510400533676,0.0629590898752212,0.0,0.0,-0.9728693962097168,-0.3649455308914184
-0.073572352528572,0.7983860373497009,-0.134332463145256,-0.598186194896698,-0.1493837088346481,0.0633467882871627,0.0,0.0,-0.991768479347229,0.7936198711395264
-0.0748291984200477,0.7847782969474792,-0.1275610327720642,-0.6045964360237122,-0.1475140154361724,0.0373935848474502,0.0,0.0,-0.9499192833900452,-0.7092217206954956
-0.0761278122663497,0.7710452675819397,-0.1328842937946319,-0.6100659966468811,-0.1444906443357467,0.0604676604270935,0.0,0.0,-0.9719393849372864,-0.5597001910209656
-0.0774656310677528,0.7571884989738464,-0.1379327476024627,-0.6154563426971436,-0.1403603255748748,0.0826063007116317,0.0,0.0,-0.9707362055778505,-0.5186346173286438
-0.0788414031267166,0.7432032227516174,-0.1427767276763916,-0.6210914850234985,-0.1351734399795532,0.1037376672029495,0.0,0.0,-0.9862860441207886,-0.5772754549980164
-0.080268956720829,0.7290959358215332,-0.1494005918502807,-0.6263971924781799,-0.128556415438652,0.1323400437831878,0.0,0.0,-0.9882372617721558,0.1158003807067871
-0.0816938430070877,0.7148557901382446,-0.1491836607456207,-0.6323395371437073,-0.1218958124518394,0.1332120448350906,0.0,0.0,-0.9800694584846495,0.4654335975646972
-0.0831160545349121,0.7004824280738831,-0.1489710062742233,-0.6382819414138794,-0.1151874214410781,0.13416787981987,0.0,0.0,-0.9139127731323242,0.3405795097351074
-0.0845355987548828,0.6859759092330933,-0.1487630009651184,-0.6442244052886963,-0.1084270104765892,0.1352080106735229,0.0,0.0,-0.9540451169013976,0.3111727237701416
-0.0859525650739669,0.6713363528251648,-0.1485600024461746,-0.650166928768158,-0.1016103774309158,0.136332556605339,0.0,0.0,-0.9498949646949768,0.8430013656616211
-0.0873104110360145,0.6565582752227783,-0.1412803679704666,-0.656433641910553,-0.0961566790938377,0.1090743169188499,0.0,0.0,-0.7096905708312988,0.6995711326599121
-0.0886075943708419,0.6416398882865906,-0.133811816573143,-0.6627839207649231,-0.0921036303043365,0.0810611769556999,0.0,0.0,-0.892317533493042,0.6515743732452393
-0.0898614898324012,0.6265896558761597,-0.1285167038440704,-0.6687132716178894,-0.0890001058578491,0.0620703101158142,0.0,0.0,-0.834278404712677,0.6740789413452148
-0.0910532027482986,0.6113977432250977,-0.1208567023277282,-0.6750977039337158,-0.0873306840658187,0.0333883687853813,0.0,0.0,-0.6671692132949829,0.8024203777313232
-0.0921831130981445,0.5960580110549927,-0.1132275238633155,-0.6817514896392822,-0.0870953872799873,0.0047059268690645,0.0,0.0,-0.0043259263038635,0.6460623741149902
-0.0932543724775314,0.5805703997612,-0.1059897914528846,-0.688406765460968,-0.0882135853171348,-0.0223641283810138,0.0,0.0,-0.0121932029724121,-0.5926539301872253
-0.0943726524710655,0.564949631690979,-0.1120381131768226,-0.6942434310913086,-0.0880054235458374,0.0041631609201431,0.0,0.0,0.3140604496002197,0.4850976467132568
-0.0954396277666091,0.5501386523246765,-0.10697603225708,-0.6582488417625427,-0.0877387523651123,0.0053337588906288,0.0,0.0,-0.5302053093910217,0.392804741859436
-0.0965044051408767,0.5351939797401428,-0.1068385243415832,-0.6641874313354492,-0.0873787775635719,0.0071994541212916,0.0,0.0,0.3741207122802734,0.7611277103424072
-0.0975512489676475,0.521144688129425,-0.1034678667783737,-0.6244808435440063,-0.0885850638151168,-0.0241257343441247,0.0,0.0,-0.8471987843513489,0.6730854511260986
-0.0985547080636024,0.5069493651390076,-0.0981644392013549,-0.6310364603996277,-0.0907457396388053,-0.0432134941220283,0.0,0.0,-0.8646780848503113,0.3412413597106933
-0.0995559692382812,0.4926203191280365,-0.0980587750673294,-0.6369752287864685,-0.0928018391132354,-0.0411216393113136,0.0,0.0,0.5048172473907471,-0.2108081579208374
-0.1005985289812088,0.4789532124996185,-0.1018643975257873,-0.6075748205184937,-0.0951767042279243,-0.0474972613155841,0.0,0.0,-0.9444554448127748,-0.5534788370132446
-0.1016865745186805,0.4651615023612976,-0.1077370420098304,-0.6130308508872986,-0.0962354838848114,-0.0211754459887743,0.0,0.0,-0.4453465938568115,0.0765290260314941
-0.1027728095650672,0.4512361288070678,-0.1076679080724716,-0.6189692616462708,-0.0971791967749595,-0.0188744626939296,0.0,0.0,0.1220276355743408,0.8368324041366577
-0.1036845222115516,0.4377473294734955,-0.0886894911527633,-0.5996641516685486,-0.0996404588222503,-0.0492251925170421,0.0,0.0,-0.5526221990585327,0.6701647043228149
-0.104540154337883,0.4241101741790771,-0.0818079188466072,-0.6063537001609802,-0.1033713817596435,-0.0746183395385742,0.0,0.0,0.8330826759338379,-0.3420655727386474
-0.1052457839250564,0.4109898805618286,-0.0674099773168563,-0.583344042301178,-0.1065017208456993,-0.0626064836978912,0.0,0.0,0.4253542423248291,0.6940608024597168
-0.1057034507393837,0.3984394371509552,-0.0416004583239555,-0.5580984354019165,-0.11064013838768,-0.0827683061361312,0.0,0.0,-0.3204187750816345,-0.75697261095047
-0.1062060371041297,0.3857572376728058,-0.0473839975893497,-0.5638692378997803,-0.1134902089834213,-0.0570015087723732,0.0,0.0,0.7365896701812744,-0.8481768369674683
-0.1066906005144119,0.3741367757320404,-0.0474173352122306,-0.516544759273529,-0.1145244166254997,-0.020684165880084,0.0,0.0,0.1303863525390625,0.2563155889511108
-0.1070938110351562,0.3631522953510284,-0.0395081862807273,-0.4882634580135345,-0.1153254732489585,-0.0160212181508541,0.0,0.0,-0.7745839357376099,0.2253414392471313
-0.107495978474617,0.3520339429378509,-0.0395503379404544,-0.4942013919353485,-0.1159889847040176,-0.0132702011615037,0.0,0.0,-0.5858601927757263,-0.0391649603843688
-0.1078972816467285,0.3407817482948303,-0.0396064780652523,-0.5001392960548401,-0.1165127754211425,-0.0104756830260157,0.0,0.0,-0.5709700584411621,0.6875964403152466
-0.1082487106323242,0.3293851613998413,-0.033501248806715,-0.506646990776062,-0.1181481331586837,-0.0327073112130165,0.0,0.0,0.1349400281906128,-0.8372039198875427
-0.1085277572274208,0.3187471628189087,-0.0281102173030376,-0.472780168056488,-0.1179307103157043,0.0043483069166541,0.0,0.0,-0.6590527892112732,0.3237383365631103
-0.1088061332702636,0.3079753220081329,-0.0282065421342849,-0.4787180125713348,-0.1175680011510849,0.0072542005218565,0.0,0.0,-0.7322196960449219,-0.0080235600471496
-0.1090842261910438,0.2970696091651916,-0.0283154435455799,-0.4846558570861816,-0.1170584633946418,0.010190600529313,0.0,0.0,-0.6554973125457764,-0.1788465976715088
-0.109361931681633,0.2860301434993744,-0.0284364335238933,-0.4905937016010284,-0.1164007633924484,0.0131541136652231,0.0,0.0,-0.0225392580032348,-0.7666516304016113
-0.1097046881914138,0.2748738527297973,-0.0367598161101341,-0.4956446886062622,-0.1139254793524742,0.0495055578649044,0.0,0.0,-0.421224296092987,0.0177521705627441
-0.1100473403930664,0.263583779335022,-0.0369034186005592,-0.5015830397605896,-0.1112998351454734,0.0525128059089183,0.0,0.0,0.146683931350708,0.3322319984436035
-0.1103687286376953,0.2526779770851135,-0.0348527655005455,-0.4845006167888641,-0.1086028739809989,0.0539391264319419,0.0,0.0,-0.354789137840271,0.456236720085144
-0.1106902137398719,0.2416384369134903,-0.0350165851414203,-0.4904391169548034,-0.1057540774345398,0.0569757930934429,0.0,0.0,0.4296969175338745,0.910547971725464
-0.1110400184988975,0.231151208281517,-0.0360156744718551,-0.4660253524780273,-0.1047183945775032,0.0207132101058959,0.0,0.0,-0.7501165270805359,0.9212086200714112
-0.1113043799996376,0.2205221503973007,-0.0254611819982528,-0.4724721312522888,-0.105688489973545,-0.0194018557667732,0.0,0.0,-0.45849609375,-0.0536742210388183
-0.1115692108869552,0.2097591906785965,-0.0256507247686386,-0.4784100949764251,-0.1065059229731559,-0.016348972916603,0.0,0.0,0.6581941843032837,0.3978950977325439
-0.1116082221269607,0.1999812871217727,-0.003907477017492,-0.4345728754997253,-0.106497436761856,0.0001695683749858,0.0,0.0,-0.405710756778717,-0.3503413200378418
-0.1116477027535438,0.1900694966316223,-0.004111326765269,-0.4405108094215393,-0.1063367500901222,0.0032137979287654,0.0,0.0,0.158747911453247,-0.2167483568191528
-0.1115245819091796,0.1809019148349762,0.0115262391045689,-0.4073949754238128,-0.1055614948272705,0.0155054377391934,0.0,0.0,-0.5769758224487305,0.3910166025161743
-0.1114021316170692,0.1716004461050033,0.0113101890310645,-0.4133329391479492,-0.1046352460980415,0.0185249224305152,0.0,0.0,0.278624415397644,-0.3998723030090332
-0.1112198829650878,0.1631087213754654,0.0171616114675998,-0.37733855843544,-0.1035848036408424,0.0210089795291423,0.0,0.0,-0.4472402930259704,-0.5765882730484009
-0.1110789328813552,0.1544945985078811,0.0118490597233176,-0.3826973736286163,-0.1013496220111846,0.0447034612298011,0.0,0.0,-0.4571596980094909,-0.4230066537857055
-0.1109387427568435,0.1457466632127761,0.0116182202473282,-0.3886357545852661,-0.098966896533966,0.047654565423727,0.0,0.0,0.1093612909317016,-0.3847317099571228
-0.1108401268720626,0.1374968439340591,0.0076968474313616,-0.3665157556533813,-0.0968181416392326,0.0429752841591835,0.0,0.0,-0.1969975233078003,-0.4402922391891479
-0.110742375254631,0.1291133314371109,0.0074582593515515,-0.3724542558193207,-0.0945251956582069,0.045858971774578,0.0,0.0,0.2158433198928833,0.059291124343872
-0.1106223091483116,0.1212177574634552,0.0096294116228818,-0.3507641851902008,-0.0921634137630462,0.0472356639802455,0.0,0.0,0.1524951457977295,0.4800560474395752
-0.110450841486454,0.1137417629361152,0.0145296454429626,-0.3321059942245483,-0.0895779728889465,0.0517090037465095,0.0,0.0,0.0944583415985107,0.4824922084808349
-0.1101731285452842,0.1064764112234115,0.0246267579495906,-0.3227192461490631,-0.0864549204707145,0.0624609291553497,0.0,0.0,0.1768957376480102,-0.2154969573020935
-0.1097851768136024,0.0997963547706604,0.0351771898567676,-0.2966882288455963,-0.0828760713338851,0.0715769380331039,0.0,0.0,-0.0113722681999206,0.6300723552703857
-0.10934629291296,0.092982180416584,0.0414529517292976,-0.3027192950248718,-0.0804712027311325,0.0480974949896335,0.0,0.0,0.394761323928833,0.0364466905593872
