x_pos,y_pos,x_vel,y_vel,angle,ang_vel,leg_1,leg_2,main_booster,lat_booster
-0.0015172958374023,1.4032622575759888,-0.1534074246883392,-0.3403468132019043,0.0014955927617847,0.0294823832809925,0.0,0.0,-0.3083922266960144,0.8767282962799072
-0.002952957060188,1.3952614068984983,-0.1428685337305069,-0.3555956780910492,0.0008093552896752,-0.0137253683060407,0.0,0.0,-0.1030778884887695,-0.1274014115333557
-0.0043806075118482,1.3868978023529053,-0.1418240368366241,-0.3717149794101715,-0.0001258032716577,-0.0187046714127063,0.0,0.0,-0.1262731552124023,0.6918381452560425
-0.0057559967972338,1.3781696557998655,-0.1352350711822509,-0.3879154324531555,-0.00239675398916,-0.0454230643808841,0.0,0.0,0.0400205850601196,0.8253872394561768
-0.0069607733748853,1.369697332382202,-0.1163445338606834,-0.3765584528446197,-0.0064839338883757,-0.0817515030503273,0.0,0.0,-0.1354762315750122,0.0619882345199584
-0.0081550600007176,1.3608629703521729,-0.1150931939482688,-0.392660915851593,-0.0107801873236894,-0.0859329625964164,0.0,0.0,0.3205471038818359,0.2076625823974609
-0.0093512535095214,1.3523595333099363,-0.1149964109063148,-0.3779734969139099,-0.0153574980795383,-0.0915545225143432,0.0,0.0,-0.0572730898857116,0.0186401605606079
-0.0105354310944676,1.3434940576553345,-0.113615296781063,-0.3940768837928772,-0.0201136972755193,-0.0951323807239532,0.0,0.0,-0.4976422190666199,0.3364025354385376
-0.0117069240659475,1.3342667818069458,-0.1121704205870628,-0.4101728796958923,-0.0250324737280607,-0.0983847081661224,0.0,0.0,-0.2769721150398254,0.0801405906677246
-0.0128647806122899,1.32467782497406,-0.1106628403067588,-0.4262711703777313,-0.0300966426730155,-0.1012927144765853,0.0,0.0,0.1047816276550293,0.3537675142288208
-0.0139386178925633,1.315320372581482,-0.1024104803800582,-0.41599041223526,-0.0350149385631084,-0.0983751788735389,0.0,0.0,-0.2918062210083008,-0.4196535944938659
-0.0149972913786768,1.3056012392044067,-0.1007824093103408,-0.4320936501026153,-0.0400424562394619,-0.1005595922470092,0.0,0.0,-0.5051007866859436,0.1377487182617187
-0.0160399433225393,1.295520305633545,-0.0990951731801033,-0.4481908082962036,-0.0451597943902015,-0.1023561134934425,0.0,0.0,-0.6997193098068237,-0.084234595298767
-0.0170658119022846,1.2850775718688965,-0.0973506644368171,-0.464289516210556,-0.0503475032746791,-0.1037637144327163,0.0,0.0,-0.639212429523468,-0.5047802925109863
-0.0181044582277536,1.2742804288864136,-0.0993552356958389,-0.4800283014774322,-0.0548172779381275,-0.0894034057855606,0.0,0.0,-0.9463127851486206,-0.5750665068626404
-0.0191622730344533,1.2631179094314575,-0.1021788492798805,-0.4962565302848816,-0.0583849735558033,-0.071360282599926,0.0,0.0,0.1301764249801635,-0.8755909204483032
-0.0201257709413766,1.2524758577346802,-0.0945348963141441,-0.4730450212955475,-0.0601769238710403,-0.0358423106372356,0.0,0.0,-0.8373421430587769,-0.0204390883445739
-0.0210697166621685,1.241471767425537,-0.0925888642668724,-0.4891490638256073,-0.0619599595665931,-0.0356640592217445,0.0,0.0,-0.7108598947525024,-0.019008457660675
-0.0219933502376079,1.2301054000854492,-0.0905927568674087,-0.5052432417869568,-0.0637127757072448,-0.0350595042109489,0.0,0.0,-0.7829500436782837,-0.5542191863059998
-0.0229455940425395,1.218381404876709,-0.0947676002979278,-0.5210875272750854,-0.0641667768359184,-0.0090808467939496,0.0,0.0,-0.4249041080474853,-0.238158643245697
-0.023876380175352,1.206295132637024,-0.0926847532391548,-0.5371841192245483,-0.0645523071289062,-0.0077113308943808,0.0,0.0,-0.6759504675865173,-0.6860226988792419
-0.0248381607234478,1.193847894668579,-0.097233161330223,-0.5531656742095947,-0.0635124742984771,0.0207982249557971,0.0,0.0,-0.5229377746582031,0.4836255311965942
-0.0257773399353027,1.1810383796691897,-0.0950713083148002,-0.5692619681358337,-0.0623668804764747,0.0229140873998403,0.0,0.0,-0.6661645174026489,0.0978362560272216
-0.0266931541264057,1.1678667068481443,-0.0928707793354988,-0.5853580832481384,-0.0610968396067619,0.0254030730575323,0.0,0.0,-0.8003251552581787,0.7388287782669067
-0.0275405887514352,1.1543306112289429,-0.0850322097539901,-0.6015916466712952,-0.0608087480068206,0.0057625756599009,0.0,0.0,-0.2778264284133911,0.3259890079498291
-0.0283644683659076,1.1404107809066772,-0.0828456208109855,-0.6186395287513733,-0.0603625252842903,0.0089245587587356,0.0,0.0,-0.8300007581710815,-0.4861903190612793
-0.0291636474430561,1.1261286735534668,-0.0805396884679794,-0.6347332000732422,-0.0597426109015941,0.0123981023207306,0.0,0.0,-0.7607131600379944,-0.4486843943595886
-0.029937457293272,1.111484408378601,-0.0782041251659393,-0.6508267521858215,-0.0589340738952159,0.0161707326769828,0.0,0.0,-0.8331732153892517,-0.4477455615997314
-0.0306857116520404,1.096477746963501,-0.0758412554860115,-0.6669203639030457,-0.0579227954149246,0.0202255956828594,0.0,0.0,-0.8032307624816895,-0.204888105392456
-0.0314077362418174,1.081108808517456,-0.0734534561634063,-0.683013916015625,-0.0566955059766769,0.0245459415018558,0.0,0.0,-0.499359667301178,-0.4698387384414673
-0.0321034416556358,1.065377712249756,-0.0710431486368179,-0.6991074681282043,-0.0552397668361663,0.0291149280965328,0.0,0.0,-0.2723527550697326,-0.1655378937721252
-0.0327724441885948,1.0492843389511108,-0.0686128288507461,-0.7152010798454285,-0.0535439439117908,0.0339162349700927,0.0,0.0,0.0623995065689086,0.1181076765060424
-0.0334398262202739,1.033604860305786,-0.068458043038845,-0.6967980861663818,-0.0518428683280944,0.034021507948637,0.0,0.0,-0.1439825296401977,-0.028906226158142
-0.0340799316763877,1.0175634622573853,-0.0659952610731124,-0.7128916382789612,-0.0498808696866035,0.0392400100827217,0.0,0.0,-0.0161924362182617,-0.568632185459137
-0.034736156463623,1.001164197921753,-0.0690030008554458,-0.7287501096725464,-0.0465475544333457,0.0666665062308311,0.0,0.0,-0.4097250699996948,0.4819300174713135
-0.0353648178279399,0.9844027757644652,-0.0665182471275329,-0.7448444962501526,-0.0429353900253772,0.0722433775663375,0.0,0.0,-0.3269342184066772,-0.1483897566795349
-0.0359656326472759,0.9672792553901672,-0.0640265196561813,-0.7609391808509827,-0.0390364229679107,0.0779792666435241,0.0,0.0,-0.1341899633407592,0.4678554534912109
-0.0365385040640831,0.9497935175895692,-0.0615305975079536,-0.7770340442657471,-0.0348433256149292,0.0838618725538253,0.0,0.0,0.2085793018341064,0.7308502197265625
-0.0370363220572471,0.9328767657279968,-0.0528283417224884,-0.7517951726913452,-0.0318403467535972,0.0600594580173492,0.0,0.0,-0.1688481569290161,0.3949480056762695
-0.037506103515625,0.9155976176261902,-0.0503324046730995,-0.7678896188735962,-0.0285302605479955,0.0662017986178398,0.0,0.0,0.076080322265625,0.4881409406661987
-0.0380028709769248,0.898719847202301,-0.0530185028910636,-0.7500627636909485,-0.0252290237694978,0.066024824976921,0.0,0.0,0.2262231111526489,0.8152294158935547
-0.0382925048470497,0.8820542693138123,-0.0310765020549297,-0.7406556606292725,-0.0231398120522499,0.0417839735746383,0.0,0.0,-0.4061790108680725,0.8664709329605103
-0.0384745597839355,0.8650141358375549,-0.0186281185597181,-0.7573296427726746,-0.0227297525852918,0.0082012945786118,0.0,0.0,-0.4656662940979004,-0.2078080177307129
-0.0386287681758403,0.8476118445396423,-0.0161676760762929,-0.7734235525131226,-0.0219922624528408,0.0147496592253446,0.0,0.0,-0.1436766386032104,0.4268666505813598
-0.0387551300227642,0.8298474550247192,-0.013723854906857,-0.7895175218582153,-0.0209232605993747,0.0213801860809326,0.0,0.0,0.1625387668609619,0.2671171426773071
-0.0388166420161724,0.8120723366737366,-0.0077266306616365,-0.7899827361106873,-0.0193694029003381,0.0310771819204092,0.0,0.0,-0.2148978114128112,0.5866823196411133
-0.0387996658682823,0.7939302921295166,0.001084616756998,-0.8063024282455444,-0.0187619552016258,0.0121491299942135,0.0,0.0,0.1126799583435058,0.0516560077667236
-0.0388205535709857,0.77627032995224,-0.0026993281207978,-0.7848772406578064,-0.0181626267731189,0.0119865480810403,0.0,0.0,-0.1274932026863098,-0.1087477207183837
-0.0388145446777343,0.7582482099533081,-0.0003549208631739,-0.8009713292121887,-0.0172182992100715,0.018886562436819,0.0,0.0,-0.1820066571235656,0.3913933038711548
-0.0387819297611713,0.7398639917373657,0.0019560330547392,-0.8170654773712158,-0.0159261990338563,0.0258417874574661,0.0,0.0,0.5159075260162354,0.7759312391281128
-0.0385069847106933,0.7218981981277466,0.0271481163799762,-0.7984769940376282,-0.0155856553465127,0.0068111531436443,0.0,0.0,0.025251030921936,0.1732248067855835
-0.0382346138358116,0.7042567133903503,0.0266900360584259,-0.7840616703033447,-0.015057691372931,0.010559638030827,0.0,0.0,-0.3618615865707397,0.0103297233581542
-0.0379369743168354,0.6862528324127197,0.0288787744939327,-0.8001558780670166,-0.0141747808083891,0.0176582857966423,0.0,0.0,-0.353094220161438,0.8515124320983887
-0.0375463478267192,0.6678933501243591,0.0395260825753212,-0.8159811496734619,-0.0146368751302361,-0.0092416163533926,0.0,0.0,-0.524628221988678,0.4694470167160034
-0.0371312126517295,0.6491717100143433,0.0416143387556076,-0.8320752382278442,-0.0147399976849555,-0.0020623835735023,0.0,0.0,0.0458353757858276,-0.078274130821228
-0.036748219281435,0.6305365562438965,0.0383224263787269,-0.8282297253608704,-0.0147621259093284,-0.000442610529717,0.0,0.0,-0.0334106087684631,0.0289434194564819
-0.0363418571650981,0.6115392446517944,0.0402942560613155,-0.8443237543106079,-0.0144217228516936,0.0068079405464231,0.0,0.0,0.3387787342071533,0.487255334854126
-0.0357929244637489,0.5929969549179077,0.0536496415734291,-0.8240892291069031,-0.0131998574361205,0.0244374461472034,0.0,0.0,0.4230945110321045,0.042641282081604
-0.0351482406258583,0.5751549601554871,0.0625609382987022,-0.7929620742797852,-0.011314514093101,0.0377068854868412,0.0,0.0,-0.0874991416931152,0.1795113086700439
-0.034482192248106,0.5569508671760559,0.0643269270658493,-0.8090564608573914,-0.0090619642287492,0.0450509712100029,0.0,0.0,0.028637409210205,0.1646409034729004
-0.0337615013122558,0.5387300848960876,0.0692633017897605,-0.8097994923591614,-0.0062933503650128,0.055372267961502,0.0,0.0,0.7371206283569336,-0.1573101282119751
-0.033121682703495,0.5212544202804565,0.0612879917025566,-0.7766859531402588,-0.00364246731624,0.0530176535248756,0.0,0.0,0.7161619663238525,-0.0129572749137878
-0.032332707196474,0.5042219161987305,0.0752352625131607,-0.7569963932037354,-2.681126534298528e-05,0.0723131671547889,0.0,0.0,0.1713112592697143,0.1530122756958007
-0.0315089225769043,0.4874793291091919,0.0782612115144729,-0.7441214919090271,0.0040386957116425,0.0813100337982177,0.0,0.0,-0.0505498051643371,0.3254841566085815
-0.0306679718196392,0.4703748524188995,0.0795972272753715,-0.7602174878120422,0.0084779765456914,0.0887856185436248,0.0,0.0,0.6309497356414795,0.4274640083312988
-0.0299380309879779,0.4537821412086487,0.0686937049031257,-0.737484872341156,0.0127269625663757,0.0849794447422027,0.0,0.0,0.7620856761932373,0.281190276145935
-0.02918167039752,0.4381970763206482,0.0708502680063247,-0.6927170157432556,0.0174579620361328,0.0946201607584953,0.0,0.0,-0.0881730914115905,-0.2370541095733642
-0.0284111015498638,0.4222503006458282,0.0718751102685928,-0.7088139653205872,0.0225662197917699,0.1021651774644851,0.0,0.0,0.4646899700164795,0.213804006576538
-0.027620792388916,0.4070776700973511,0.0733657926321029,-0.6744348406791687,0.0281637012958526,0.111949622631073,0.0,0.0,0.0933312177658081,0.0713467597961425
-0.026889706030488,0.3920105099678039,0.0673467516899108,-0.6697689890861511,0.0338525101542472,0.1137763112783432,0.0,0.0,0.7425965070724487,0.5648753643035889
-0.0262310989201068,0.3776518106460571,0.0611261501908302,-0.6382777094841003,0.038521159440279,0.0933731123805046,0.0,0.0,0.5279920101165771,0.7017487287521362
-0.0254986770451068,0.3638005256652832,0.0694865137338638,-0.6157148480415344,0.0422354191541671,0.0742851942777633,0.0,0.0,0.1252657175064087,0.6669081449508667
-0.0248288158327341,0.3504540026187897,0.064305730164051,-0.5932562351226807,0.0448821745812892,0.0529350563883781,0.0,0.0,0.3046131134033203,0.5806283950805664
-0.0240631103515625,0.3374364376068115,0.0745371952652931,-0.5786243081092834,0.046884648501873,0.0400496646761894,0.0,0.0,0.3083782196044922,0.4751458168029785
-0.0233332626521587,0.3245191276073456,0.0706969872117042,-0.5741750001907349,0.049148142337799,0.0452696532011032,0.0,0.0,0.2640027999877929,0.5134460926055908
-0.0225142482668161,0.3116143941879272,0.0801272243261337,-0.5736044645309448,0.0509016700088977,0.0350704491138458,0.0,0.0,0.4412423372268677,-0.4029159545898437
-0.0217352863401174,0.2987892925739288,0.0758688226342201,-0.5700754523277283,0.0529140532016754,0.0402474701404571,0.0,0.0,0.3792066574096679,0.2024612426757812
-0.0209970474243164,0.2865936756134033,0.0714304074645042,-0.542113184928894,0.0552813559770584,0.0473461113870143,0.0,0.0,0.7668502330780029,0.0278447866439819
-0.0202217102050781,0.2753500938415527,0.0743383318185806,-0.499837189912796,0.0584327243268489,0.0630274638533592,0.0,0.0,-0.2459351420402526,0.1034640073776245
-0.0194482803344726,0.2637447714805603,0.0737683624029159,-0.5159344673156738,0.0619730539619922,0.0708063840866088,0.0,0.0,0.196408987045288,0.8687446117401123
-0.0187321659177541,0.2521243095397949,0.0694461315870285,-0.5165587663650513,0.0641139149665832,0.0428173616528511,0.0,0.0,0.221990704536438,0.6014571189880371
-0.0179780963808298,0.2410303205251693,0.0740038901567459,-0.4931248724460602,0.0655044764280319,0.0278113596141338,0.0,0.0,0.7823060750961304,-0.4209699034690857
-0.0173799507319927,0.2304931730031967,0.0585192516446113,-0.4683748781681061,0.0667805671691894,0.0255218502134084,0.0,0.0,0.5117896795272827,0.8656759262084961
-0.0168191902339458,0.2205273658037185,0.0562125146389007,-0.4429182708263397,0.0666489750146865,-0.0026318491436541,0.0,0.0,0.4128851890563965,-0.7214158773422241
-0.0163760185241699,0.2110916525125503,0.0426201894879341,-0.4194407761096954,0.0683263316750526,0.0335470996797084,0.0,0.0,0.1976730823516845,0.8377801179885864
-0.0158337596803903,0.2019398063421249,0.0537675023078918,-0.4067713618278503,0.0687794834375381,0.0090627074241638,0.0,0.0,0.5798612833023071,-0.2825009822845459
-0.0153038976714015,0.1929183602333068,0.052035242319107,-0.4009988009929657,0.0697309225797653,0.0190287008881568,0.0,0.0,0.5656075477600098,-0.1911216378211975
-0.0147267337888479,0.1841152757406234,0.0559462681412696,-0.391331136226654,0.0714828372001648,0.0350382663309574,0.0,0.0,0.7980704307556152,-0.8771224021911621
-0.0141018871217966,0.1758917719125747,0.0582290366291999,-0.3656986653804779,0.0756894424557685,0.0841319635510444,0.0,0.0,0.4523111581802368,0.4114499092102051
-0.0133980754762887,0.1678392738103866,0.0651674717664718,-0.3581618070602417,0.0808572694659233,0.1033563986420631,0.0,0.0,0.6219185590744019,0.0764859914779663
-0.0127777103334665,0.1605274230241775,0.0564512610435485,-0.3252820074558258,0.0863938331604003,0.1107311695814132,0.0,0.0,0.4526954889297485,-0.2963876724243164
-0.0122075080871582,0.1538546681404113,0.0509060434997081,-0.2969330549240112,0.092450737953186,0.1211380511522293,0.0,0.0,-0.4312633275985718,0.397761583328247
-0.0116585735231637,0.1468207687139511,0.0483905337750911,-0.3130336999893188,0.0989020392298698,0.1290259659290313,0.0,0.0,-0.1328804492950439,0.8889584541320801
-0.0110498424619436,0.1394284516572952,0.0560553669929504,-0.3288701772689819,0.1036817133426666,0.0955934971570968,0.0,0.0,0.2729926109313965,-0.8257656097412109
-0.0106163024902343,0.1322408467531204,0.0365210324525833,-0.3199379742145538,0.1104591488838195,0.1355487704277038,0.0,0.0,-0.1073993444442749,0.6376025676727295
-0.0101514812558889,0.124709352850914,0.0407290533185005,-0.3351724743843078,0.116176076233387,0.1143387109041214,0.0,0.0,0.1932549476623535,0.0347205400466918
-0.0097774509340524,0.117426186800003,0.0313318036496639,-0.3241783082485199,0.1222078055143356,0.1206343546509742,0.0,0.0,0.2973666191101074,0.0898516178131103
-0.0096043590456247,0.1106941998004913,0.0113137001171708,-0.2997016012668609,0.1281793862581253,0.1194315552711486,0.0,0.0,0.1193928718566894,0.8569560050964355
-0.0093854907900094,0.1043350771069526,0.0171926375478506,-0.2830405533313751,0.1328537762165069,0.0934878662228584,0.0,0.0,0.2978596687316894,0.5061635971069336
-0.0092804906889796,0.0984934419393539,0.0065313288941979,-0.2599829137325287,0.1368002444505691,0.0789292976260185,0.0,0.0,0.1397597789764404,0.8531562089920044
-0.0092765809968113,0.09306450933218,-0.0022138678468763,-0.2415270507335662,0.1393973231315612,0.051941692829132,0.0,0.0,0.0547443628311157,0.7426199913024902
-0.0093087200075387,0.0877524465322494,-0.0047066463157534,-0.236232116818428,0.1408859491348266,0.0297726392745971,0.0,0.0,0.0563118457794189,-0.2511169910430908
-0.0095019340515136,0.0826343595981597,-0.0208452921360731,-0.2276165336370468,0.1424145251512527,0.0305711831897497,0.0,0.0,-0.02180016040802,0.9533830881118774
-0.0096730235964059,0.0771647989749908,-0.0175908543169498,-0.2431382089853286,0.142897367477417,0.009656517766416,0.0,0.0,0.6955623626708984,0.9717551469802856
-0.0097877504304051,0.0724770128726959,-0.0105434535071253,-0.2082571685314178,0.1419761925935745,-0.0184235516935586,0.0,0.0,-0.2062016725540161,0.8060210943222046
-0.0098681449890136,0.0674358233809471,-0.0057185003533959,-0.2238340675830841,0.1396611481904983,-0.0463010147213935,0.0,0.0,0.2581678628921509,0.9590338468551636
-0.009864330291748,0.0629464462399482,0.0042025954462587,-0.1991752982139587,0.1358498781919479,-0.07622542232275,0.0,0.0,-0.1030501127243042,0.953080415725708
-0.0098271369934082,0.0581184737384319,0.0090221781283617,-0.214103877544403,0.130574569106102,-0.1055065989494323,0.0,0.0,0.4306262731552124,0.9111777544021606
-0.0097146034240722,0.0540819279849529,0.01786938495934,-0.1788353770971298,0.1239829137921333,-0.1318331509828567,0.0,0.0,-0.1875771284103393,0.6823117733001709
-0.0095809940248727,0.0496959798038005,0.0211716033518314,-0.1943051815032959,0.1162208914756774,-0.1552404761314392,0.0,0.0,0.2520632743835449,0.1645690202713012
-0.0095643047243356,0.0458701476454734,0.0091430731117725,-0.1694758087396621,0.1087939292192459,-0.1485390812158584,0.0,0.0,-0.0544025301933288,0.6625308990478516
-0.0095311161130666,0.0416985601186752,0.0119006894528865,-0.1847961843013763,0.1002655997872352,-0.170566514134407,0.0,0.0,0.2048240900039672,0.7072186470031738
-0.0094508174806833,0.0376803986728191,0.0176159664988517,-0.1779724508523941,0.090762197971344,-0.1900679320096969,0.0,0.0,-0.1422309875488281,-0.177234411239624
-0.0094121936708688,0.0333016030490398,0.0131041062995791,-0.194077119231224,0.0816038995981216,-0.1831661760807037,0.0,0.0,0.2506172657012939,-0.0231216549873352
-0.0095444675534963,0.0291328765451908,-0.003864714410156,-0.1847933083772659,0.0723351761698722,-0.1853743940591812,0.0,0.0,0.345137357711792,0.0517464876174926
-0.0097701074555516,0.0252881627529859,-0.0134582491591572,-0.1704592108726501,0.0633179023861885,-0.1803454160690307,0.0,0.0,0.3063806295394897,0.7766542434692383
-0.0099813463166356,0.0217209681868553,-0.0107940286397933,-0.158139556646347,0.0531087145209312,-0.2041836231946945,0.0,0.0,0.2598702907562256,-0.171260118484497
-0.0101514812558889,0.018211780115962,-0.0074675539508461,-0.1556528359651565,0.043678168207407,-0.1886107772588729,0.0,0.0,0.2317004203796386,-0.4136656522750854
-0.0103154182434082,0.0151105020195245,-0.0075092846527695,-0.1376021206378936,0.0348935611546039,-0.1756920218467712,0.0,0.0,0.1720795631408691,0.0367858409881591
-0.0105262752622365,0.0125069711357355,-0.0125836404040455,-0.1155374124646186,0.0264922771602869,-0.1680254340171814,0.0,0.0,-0.3900864124298095,0.2378177642822265
-0.0107823368161916,0.0095423432067036,-0.017390863969922,-0.1316384971141815,0.0183827765285968,-0.162190169095993,0.0,0.0,0.1182374954223632,0.246988296508789
