x_pos,y_pos,x_vel,y_vel,angle,ang_vel,leg_1,leg_2,main_booster,lat_booster
-0.0015769958263263,1.4030084609985352,-0.1597442030906677,-0.3516250550746918,0.0018269915599375,0.0360442288219928,0.0,0.0,-0.13764488697052,0.929240345954895
-0.0031286240555346,1.3944997787475586,-0.1549637764692306,-0.3781607449054718,0.0016282583819702,-0.0039744726382195,0.0,0.0,-0.1517067551612854,0.3995248079299927
-0.0047339438460767,1.385374665260315,-0.1603456139564514,-0.4055586159229278,0.0014419994549825,-0.0037250802852213,0.0,0.0,0.6619236469268799,0.9429490566253662
-0.0064540863968431,1.3763843774795532,-0.1697360575199127,-0.3995709121227264,-0.0008075394434854,-0.0449948422610759,0.0,0.0,0.8124687671661377,0.757184624671936
-0.0080133434385061,1.3678531646728516,-0.1525143980979919,-0.3791660070419311,-0.0041897306218743,-0.0676501914858818,0.0,0.0,-0.2056729197502136,0.0711264610290527
-0.009626293554902,1.35870623588562,-0.1578770279884338,-0.4065468907356262,-0.0075675095431506,-0.0675619691610336,0.0,0.0,0.4142482280731201,0.5940775871276855
-0.0112632755190134,1.3496848344802856,-0.1590528488159179,-0.4009825885295868,-0.0121672432869672,-0.0920030400156974,0.0,0.0,0.2162203788757324,0.5035126209259033
-0.0127884866669774,1.340760588645935,-0.1471437215805053,-0.3966860473155975,-0.0174850709736347,-0.1063660755753517,0.0,0.0,-0.0048218965530395,0.7766838073730469
-0.0143070220947265,1.3312276601791382,-0.1449512839317321,-0.4237781465053558,-0.0243105459958314,-0.1365220844745636,0.0,0.0,0.1780041456222534,0.903644323348999
-0.0157956127077341,1.32185959815979,-0.1401416212320327,-0.4165281057357788,-0.0329271182417869,-0.1723471283912658,0.0,0.0,0.467150330543518,0.3315954208374023
-0.0172432903200387,1.312664031982422,-0.1364228427410125,-0.4088997840881347,-0.04118213057518,-0.165115624666214,0.0,0.0,0.1305187940597534,0.5744574069976807
-0.0186302177608013,1.3033877611160278,-0.1292865723371505,-0.4125588834285736,-0.050484050065279,-0.1860557794570922,0.0,0.0,-0.6249380111694336,0.1746695041656494
-0.0200696941465139,1.29349684715271,-0.134563460946083,-0.4399417340755462,-0.0597880445420742,-0.1860969066619873,0.0,0.0,-0.1552464365959167,0.5372805595397949
-0.0215149875730276,1.2829819917678833,-0.1339304894208908,-0.4677796065807342,-0.070284329354763,-0.2099449336528778,0.0,0.0,0.3675634860992431,0.5541375875473022
-0.022793959826231,1.2728617191314695,-0.1165048703551292,-0.4503662884235382,-0.0815884917974472,-0.2261034995317459,0.0,0.0,-0.4622430205345154,-0.416555643081665
-0.0241251941770315,1.262126922607422,-0.1217248663306236,-0.4777604043483734,-0.0928936749696731,-0.2261244058609008,0.0,0.0,0.0783277750015258,-0.7023271322250366
-0.0254088398069143,1.2516131401062012,-0.1185030341148376,-0.4679167568683624,-0.1026962250471115,-0.196068674325943,0.0,0.0,-0.6273375153541565,-0.3565069437026977
-0.0267441757023334,1.240484595298767,-0.1236829608678817,-0.4953074157238006,-0.1124982759356498,-0.1960586458444595,0.0,0.0,-0.4417271614074707,-0.6496047973632812
-0.0281732566654682,1.2287545204162598,-0.134154811501503,-0.5220136046409607,-0.1212089955806732,-0.1742298603057861,0.0,0.0,0.0178027153015136,-0.1992992162704467
-0.0296606067568063,1.216937780380249,-0.1397651582956314,-0.5259407162666321,-0.1301474720239639,-0.1787855327129364,0.0,0.0,-0.4346159696578979,-0.6359772086143494
-0.0312376022338867,1.2045183181762695,-0.1497503668069839,-0.552692711353302,-0.1380757689476013,-0.1585802137851715,0.0,0.0,-0.0884694457054138,-0.860082745552063
-0.0329315178096294,1.191492199897766,-0.1631443798542022,-0.5795195698738098,-0.144313097000122,-0.1247579082846641,0.0,0.0,0.2540159225463867,-0.8677166104316711
-0.0345719344913959,1.1784532070159912,-0.1596354246139526,-0.5799397826194763,-0.1487204879522323,-0.0881557464599609,0.0,0.0,0.3949332237243652,-0.722476601600647
-0.0362155921757221,1.1651796102523804,-0.1615151613950729,-0.5902277231216431,-0.1515661776065826,-0.0569189712405204,0.0,0.0,0.5155801773071289,-0.6870533227920532
-0.0380144119262695,1.1522119045257568,-0.1781474500894546,-0.5765140652656555,-0.1532974690198898,-0.0346290245652198,0.0,0.0,0.4086240530014038,0.4830191135406494
-0.0398953445255756,1.1395255327224731,-0.1858156770467758,-0.5640771389007568,-0.1555803269147873,-0.0456567332148551,0.0,0.0,0.8198902606964111,0.8660993576049805
-0.0416279807686805,1.127397537231445,-0.169275015592575,-0.539445161819458,-0.1595580726861953,-0.0795551985502243,0.0,0.0,0.8125338554382324,-0.1784339547157287
-0.0434059128165245,1.1160287857055664,-0.1731864064931869,-0.5057774782180786,-0.164167895913124,-0.0921960622072219,0.0,0.0,-0.8084208369255066,-0.1705304980278015
-0.0452309623360633,1.1040443181991575,-0.1779332906007766,-0.5331516265869141,-0.1687419116497039,-0.0914805680513382,0.0,0.0,0.9425346851348876,-0.1355366706848144
-0.0470304489135742,1.0922982692718506,-0.1753042638301849,-0.5225863456726074,-0.1733895242214203,-0.092952474951744,0.0,0.0,0.8952217102050781,-0.5371559262275696
-0.0487264618277549,1.081382155418396,-0.1661607921123504,-0.4855602383613586,-0.1768453121185302,-0.0691155418753624,0.0,0.0,-0.1586247682571411,-0.2067566514015197
-0.0504673011600971,1.0698504447937012,-0.1706903129816055,-0.5129333734512329,-0.1802497953176498,-0.0680895671248436,0.0,0.0,-0.714919924736023,-0.580012321472168
-0.0523025505244731,1.057722091674805,-0.1815143525600433,-0.5392851233482361,-0.1822711527347564,-0.0404269434511661,0.0,0.0,0.4096885919570923,-0.3677456378936767
-0.0541784279048442,1.045446515083313,-0.1853865683078766,-0.5458545088768005,-0.1844810545444488,-0.0441981218755245,0.0,0.0,0.7107974290847778,0.6551246643066406
-0.0559080131351947,1.0334947109222412,-0.1695607006549835,-0.5316159129142761,-0.187892735004425,-0.0682337284088134,0.0,0.0,0.8376410007476807,-0.1763360500335693
-0.0575013160705566,1.0221611261367798,-0.1560977697372436,-0.5041316151618958,-0.1911350637674331,-0.0648467168211937,0.0,0.0,-0.9740621447563172,0.2232886552810669
-0.0591340065002441,1.01021146774292,-0.1601302921772003,-0.5315040349960327,-0.1942948698997497,-0.0631962865591049,0.0,0.0,-0.6676760911941528,-0.3836958408355713
-0.0608049407601356,0.9976458549499512,-0.1640390455722808,-0.5588762760162354,-0.1973652243614196,-0.0614073053002357,0.0,0.0,-0.340275764465332,-0.7163816094398499
-0.062570571899414,0.9844897389411926,-0.1751441210508346,-0.58491051197052,-0.1988004893064499,-0.02870499715209,0.0,0.0,-0.2950723171234131,-0.5831339359283447
-0.0644145980477333,0.9707310795783995,-0.1841786354780197,-0.6115227937698364,-0.199014812707901,-0.0042867381125688,0.0,0.0,-0.6616108417510986,-0.401445984840393
-0.0662921890616417,0.9563564658164978,-0.1876593232154846,-0.6388939023017883,-0.1991178095340728,-0.0020598496776074,0.0,0.0,-0.2248362302780151,-0.6580587029457092
-0.0682425498962402,0.9413761496543884,-0.1960903108119964,-0.6656445264816284,-0.1980517953634262,0.0213204268366098,0.0,0.0,0.1789897680282592,-0.3392543196678161
-0.0701110810041427,0.9260885119438172,-0.1883516311645507,-0.6792539954185486,-0.196538358926773,0.0302684605121612,0.0,0.0,-0.0762020349502563,-0.8213100433349609
-0.0720611587166786,0.9101988673210144,-0.1980151087045669,-0.7058114409446716,-0.1935139298439026,0.0604886896908283,0.0,0.0,0.2508225440979004,-0.6813675165176392
-0.0740821808576583,0.8940387964248657,-0.2065630853176117,-0.7176467180252075,-0.1890344023704528,0.0895903259515762,0.0,0.0,-0.2161850333213806,0.1928049325942993
-0.0761273354291915,0.8772628903388977,-0.2091237753629684,-0.7450188994407654,-0.1844044178724289,0.0925996229052543,0.0,0.0,0.6484005451202393,-0.3338745832443237
-0.0780527144670486,0.8605116009712219,-0.1975880563259124,-0.7438791990280151,-0.179334357380867,0.1014006584882736,0.0,0.0,0.3919768333435058,0.2629604339599609
-0.0799654945731163,0.8442066311836243,-0.1960542052984237,-0.7240973114967346,-0.1745357811450958,0.0959715247154235,0.0,0.0,0.3490889072418213,-0.3212657570838928
-0.0818901062011718,0.8282644152641296,-0.1969267129898071,-0.7080210447311401,-0.170063704252243,0.0894417464733123,0.0,0.0,-0.3371238708496094,-0.2734691500663757
-0.0838292092084884,0.8117064237594604,-0.1985618025064468,-0.7353929281234741,-0.1654088497161865,0.0930970609188079,0.0,0.0,0.0620203018188476,0.3573321104049682
-0.085628792643547,0.7950525283813477,-0.1852281242609024,-0.7395918965339661,-0.1601366400718689,0.1054438352584838,0.0,0.0,-0.482943058013916,0.5319980382919312
-0.0873995795845985,0.7777772545814514,-0.1815917044878006,-0.7673165798187256,-0.1556268185377121,0.0901964753866195,0.0,0.0,-0.0094510912895202,0.580008864402771
-0.0891236290335655,0.7598698139190674,-0.1757504940032959,-0.7955335974693298,-0.1522834151983261,0.0668680816888809,0.0,0.0,0.6080806255340576,0.8455901145935059
-0.0906631499528884,0.7424890995025635,-0.1558285057544708,-0.772283673286438,-0.1504074335098266,0.0375194512307643,0.0,0.0,-0.5069279074668884,0.3384177684783935
-0.0922034233808517,0.7244921326637268,-0.1561246663331985,-0.7996541261672974,-0.1483089029788971,0.0419706180691719,0.0,0.0,0.6546258926391602,-0.20400071144104
-0.0937664061784744,0.7066001296043396,-0.1581860482692718,-0.7950108647346497,-0.1464227437973022,0.037723172456026,0.0,0.0,0.95947003364563,-0.0708439946174621
-0.0950759872794151,0.6894703507423401,-0.1336099058389663,-0.7610729336738586,-0.1437828689813614,0.0527974888682365,0.0,0.0,0.3430496454238891,0.6594678163528442
-0.096124455332756,0.6725027561187744,-0.10662741959095,-0.7539422512054443,-0.1419978439807891,0.0357004664838314,0.0,0.0,-0.0031638145446777,0.2756927013397217
-0.0971619635820388,0.6549187898635864,-0.1057976707816124,-0.7813122868537903,-0.1399598270654678,0.0407603569328784,0.0,0.0,0.9557957649230956,0.39632248878479
-0.0981452912092208,0.6381192803382874,-0.1002206355333328,-0.7464754581451416,-0.1380785554647445,0.0376255363225936,0.0,0.0,0.9084415435791016,0.2501099109649658
-0.0989946350455284,0.6213266253471375,-0.0873697623610496,-0.7461168766021729,-0.1356561779975891,0.0484474077820777,0.0,0.0,0.6459287405014038,0.0820755958557128
-0.0998292937874794,0.6049764752388,-0.0857061445713043,-0.7264706492424011,-0.1334212571382522,0.0446983873844146,0.0,0.0,0.6308361291885376,-0.3534129858016968
-0.1004532799124717,0.5887446999549866,-0.0654919892549514,-0.7211402058601379,-0.1303407698869705,0.061610072851181,0.0,0.0,0.6029459238052368,0.0053805112838745
-0.1009528189897537,0.5727766156196594,-0.0534451492130756,-0.7093895673751831,-0.1268660873174667,0.0694940313696861,0.0,0.0,0.7527830600738525,-0.2812154293060303
-0.1013632789254188,0.5568235516548157,-0.0448823496699333,-0.7087035775184631,-0.1230578422546386,0.0761648714542388,0.0,0.0,0.7869517803192139,-0.4649650454521179
-0.1017989143729209,0.5412304997444153,-0.0470717139542102,-0.6927359104156494,-0.1195672452449798,0.069811999797821,0.0,0.0,0.7621955871582031,-0.3420853614807129
-0.1020712852478027,0.5263767242431641,-0.0311650671064853,-0.6598606109619141,-0.1156626492738723,0.0780919939279556,0.0,0.0,0.3570287227630615,0.2388862371444702
-0.1022151932120323,0.5112529993057251,-0.0189503692090511,-0.6718193292617798,-0.1111317873001098,0.0906170681118965,0.0,0.0,0.5625224113464355,0.4670350551605224
-0.1022082343697547,0.4967125654220581,-0.0043149883858859,-0.6458781361579895,-0.1061622649431228,0.0993907004594802,0.0,0.0,-0.2423043251037597,0.3698889017105102
-0.1021635979413986,0.481556087732315,-0.0008705757791176,-0.6732501983642578,-0.1008663326501846,0.1059186086058616,0.0,0.0,0.3947397470474243,0.1070265769958496
-0.1020989418029785,0.4666484594345093,0.0011565694585442,-0.6622119545936584,-0.0955968722701072,0.1053890958428382,0.0,0.0,0.8562431335449219,0.3689817190170288
-0.1018918007612228,0.4521640837192535,0.0148981045931577,-0.6433910727500916,-0.0898298248648643,0.1153408885002136,0.0,0.0,0.6753354072570801,0.646392822265625
-0.1016545295715332,0.4383625090122223,0.0191909931600093,-0.6131386160850525,-0.085334226489067,0.0899117887020111,0.0,0.0,-0.3916255235671997,0.2322466373443603
-0.1013729125261306,0.423944890499115,0.0232742354273796,-0.6405106782913208,-0.080490231513977,0.0968796908855438,0.0,0.0,0.8871228694915771,0.0710432529449462
-0.1010479927062988,0.4095839262008667,0.0274250712245702,-0.6380017995834351,-0.0754709467291832,0.1003856435418129,0.0,0.0,0.8297396898269653,0.2594838142395019
-0.1005737334489822,0.3951370418071747,0.0416386798024177,-0.6418030261993408,-0.0697449892759323,0.1145191639661789,0.0,0.0,0.968402624130249,0.0990667343139648
-0.1000606566667556,0.380683422088623,0.0453327633440494,-0.64211505651474,-0.0638302043080329,0.1182956919074058,0.0,0.0,0.7177920341491699,0.0175127983093261
-0.0994542092084884,0.3668495416641235,0.0543282702565193,-0.614584743976593,-0.0575882196426391,0.1248397678136825,0.0,0.0,0.8238120079040527,0.6386027336120605
-0.0986000075936317,0.353742241859436,0.0797758027911186,-0.5823385119438171,-0.0520043894648551,0.1116766706109047,0.0,0.0,0.683922529220581,0.5802665948867798
-0.0977277755737304,0.3412788510322571,0.082670509815216,-0.5537761449813843,-0.0475122667849063,0.0898424386978149,0.0,0.0,0.2287664413452148,0.5656136274337769
-0.0968529731035232,0.3285672664642334,0.0838947296142578,-0.5648529529571533,-0.0439700707793235,0.0708439201116561,0.0,0.0,0.6271582841873169,0.3644589185714721
-0.0958513244986534,0.3164037466049194,0.096007153391838,-0.5404835939407349,-0.0398604795336723,0.0821915119886398,0.0,0.0,0.0148450136184692,0.3463999032974243
-0.0948440581560134,0.304157942533493,0.0964628010988235,-0.544150173664093,-0.0356516428291797,0.0841767042875289,0.0,0.0,0.6935153007507324,0.2648916244506836
-0.0938138961791992,0.2923409044742584,0.0986261516809463,-0.5251059532165527,-0.0313122756779193,0.0867875888943672,0.0,0.0,0.3600877523422241,0.5039405822753906
-0.0926814079284668,0.2807721495628357,0.1094949468970298,-0.5140894055366516,-0.0276070218533277,0.0741049498319625,0.0,0.0,-0.087375521659851,0.2713445425033569
-0.091493509709835,0.2685877084732055,0.1146432533860206,-0.5414626002311707,-0.023505138233304,0.0820374488830566,0.0,0.0,0.7846684455871582,-0.0962416529655456
-0.0902152061462402,0.2563410103321075,0.1231502071022987,-0.5442303419113159,-0.0188854932785034,0.0923928618431091,0.0,0.0,0.7106912136077881,0.2226029634475708
-0.0887764915823936,0.244101271033287,0.1383340507745742,-0.543930172920227,-0.0134195368736982,0.1093191355466842,0.0,0.0,0.9361810684204102,-0.2450180053710937
-0.0870994552969932,0.2322462648153305,0.1609492152929306,-0.5268411636352539,-0.0067515945993363,0.1333588659763336,0.0,0.0,0.9074310064315796,-0.7689604163169861
-0.0852478966116905,0.2204522043466568,0.1760469526052475,-0.5241674780845642,0.0022424098569899,0.1798799932003021,0.0,0.0,0.7838937044143677,-0.5730491876602173
-0.0833923369646072,0.2092641741037368,0.1748934686183929,-0.4972928464412689,0.0127668548375368,0.210488885641098,0.0,0.0,0.7661278247833252,-0.5786268711090088
-0.0814994797110557,0.1986825317144394,0.176944300532341,-0.4704450368881225,0.0249459780752658,0.2435825318098068,0.0,0.0,0.4301133155822754,0.3885669708251953
-0.0794549956917762,0.1883570998907089,0.1911907494068145,-0.4591773152351379,0.0380358286201953,0.2617970108985901,0.0,0.0,0.3238683938980102,-0.3890520334243774
-0.0772812813520431,0.1778152287006378,0.2033331841230392,-0.4689447283744812,0.0519130602478981,0.2775445580482483,0.0,0.0,0.6032971143722534,-0.1592317819595337
-0.0751253142952919,0.167396605014801,0.2013797014951706,-0.4636023938655853,0.0659692212939262,0.2811234593391418,0.0,0.0,0.5495972633361816,-0.0570330023765563
-0.0728844627737999,0.1575842946767807,0.2090826779603958,-0.4368297755718231,0.0808085799217224,0.2967871129512787,0.0,0.0,0.4512581825256347,0.0573624372482299
-0.0706453323364257,0.1479044556617736,0.2086081206798553,-0.4311085343360901,0.0959700793027877,0.3032304644584656,0.0,0.0,0.4776535034179687,0.6987926959991455
-0.068482682108879,0.1386711448431015,0.2021966874599456,-0.4113326072692871,0.1099270954728126,0.2791405022144317,0.0,0.0,0.4963881969451904,0.3437224626541137
-0.0662516579031944,0.1297805160284042,0.2082734555006027,-0.3962927460670471,0.1246671304106712,0.2948010265827179,0.0,0.0,0.505079984664917,0.3081574440002441
-0.0640944465994834,0.121285855770111,0.2007199972867965,-0.3788608610630035,0.1396003812551498,0.2986649870872497,0.0,0.0,0.2264305353164672,0.5235893726348877
-0.0619807243347168,0.1130028367042541,0.1971676051616668,-0.3695220649242401,0.1537638902664184,0.2832707464694977,0.0,0.0,0.2140716314315796,0.7019369602203369
-0.0598286613821983,0.1046554446220398,0.2020526230335235,-0.3724071085453033,0.1669168025255203,0.2630582153797149,0.0,0.0,0.6131819486618042,0.5184069871902466
-0.0577941909432411,0.0965442284941673,0.191272422671318,-0.3619158565998077,0.1791242808103561,0.2441498041152954,0.0,0.0,0.4244807958602905,-0.0633696913719177
-0.0559078231453895,0.0884518250823021,0.1766624897718429,-0.361152172088623,0.191150426864624,0.2405229806900024,0.0,0.0,0.7952498197555542,0.3706884384155273
-0.0539967529475688,0.0809294804930687,0.1782126724720001,-0.3360442221164703,0.2041272968053817,0.2595372796058655,0.0,0.0,0.3969768285751343,0.5426621437072754
-0.0519911758601665,0.0732782483100891,0.1882314980030059,-0.3418059647083282,0.2165630906820297,0.2487162798643112,0.0,0.0,0.8834121227264404,0.7585536241531372
-0.0498792640864849,0.0663713067770004,0.1996150612831115,-0.3087185323238373,0.2282813191413879,0.2343645989894867,0.0,0.0,0.6143412590026855,-0.1275374889373779
-0.0479005798697471,0.0599518865346908,0.1860170662403106,-0.2871916890144348,0.2403117567300796,0.2406084090471267,0.0,0.0,0.5317537784576416,-0.2510048151016235
-0.0459218025207519,0.0541213378310203,0.1850521266460418,-0.2612852454185486,0.2533683478832245,0.2611315548419952,0.0,0.0,0.4818813800811767,-0.2288583517074585
-0.0439470298588275,0.0484593026340007,0.1839839071035385,-0.2540381252765655,0.2671540975570678,0.2757149338722229,0.0,0.0,0.0619971752166748,-0.3687435388565063
-0.0420552268624305,0.0429428182542324,0.1753576397895813,-0.247765302658081,0.2813292145729065,0.2835023999214172,0.0,0.0,0.1914516687393188,-0.2593972682952881
-0.0402189269661903,0.0376512855291366,0.1692546308040619,-0.2380160689353943,0.2961154580116272,0.2957249283790588,0.0,0.0,0.1565195322036743,-0.2067840099334716
-0.03836240619421,0.0322335101664066,0.1706943809986114,-0.2439053803682327,0.3115690648555755,0.3090721666812897,0.0,1.0,0.9971878528594972,0.9993125200271606
-0.0368423461914062,0.0282641984522342,0.1561042666435241,-0.1757924258708953,0.3066504597663879,-0.0993581861257553,0.0,1.0,0.9715874195098876,0.9615480899810792
-0.0357090011239051,0.0253459550440311,0.1382486075162887,-0.1246680542826652,0.2809097170829773,-0.5148694515228271,0.0,1.0,0.7433477640151978,-0.5778663158416748
-0.0348849296569824,0.0232594832777977,0.1199237927794456,-0.0859949588775634,0.2424913346767425,-0.7684527039527893,0.0,1.0,0.6297255754470825,-0.928797960281372
-0.0342652313411235,0.0215903613716363,0.1039655357599258,-0.0678347125649452,0.1999166309833526,-0.8515716791152954,0.0,1.0,0.2701591253280639,-0.7439367771148682
-0.0336353294551372,0.0197304114699363,0.1030499935150146,-0.077768288552761,0.1596575826406479,-0.8052595257759094,0.0,1.0,0.3124899864196777,-0.7372220754623413
-0.0330447182059288,0.0180650800466537,0.0967274457216262,-0.0704054534435272,0.1220914423465728,-0.7513235807418823,0.0,1.0,0.3826370239257812,-0.8089751601219177
-0.0325783714652061,0.0168069452047348,0.082812376320362,-0.0533480793237686,0.0861688405275344,-0.7184526920318604,0.0,0.0,-0.915125012397766,-0.913496732711792
-0.0321161262691021,0.0149311162531375,0.0804589465260505,-0.0817485302686691,0.0522825643420219,-0.6777257323265076,0.0,0.0,-0.5421134233474731,-0.9814624786376952
