x_pos,y_pos,x_vel,y_vel,angle,ang_vel,leg_1,leg_2,main_booster,lat_booster
-0.0015896797413006,1.403205394744873,-0.1615564525127411,-0.3428807556629181,0.0023153743240982,0.0457140207290649,0.0,0.0,-0.2086195349693298,0.4351310729980469
-0.0032459259964525,1.3950947523117063,-0.1683921217918396,-0.3604837954044342,0.0050583081319928,0.0548647567629814,0.0,0.0,0.3763391971588135,0.864978551864624
-0.0047755241394042,1.3870644569396973,-0.1546463072299957,-0.3569099009037018,0.0067168776877224,0.0331743545830249,0.0,0.0,0.0421779155731201,0.9588446617126464
-0.0063879014924168,1.3790843486785889,-0.1614662557840347,-0.3546741306781769,0.0069493423216044,0.0046498915180563,0.0,0.0,0.2289900779724121,0.6287539005279541
-0.0079133035615086,1.3714162111282349,-0.1521544009447097,-0.3408032953739166,0.00657299766317,-0.007527629379183,0.0,0.0,0.5883924961090088,0.8567688465118408
-0.0092927934601902,1.3641129732131958,-0.1365301460027694,-0.324582427740097,0.0051704938523471,-0.0280527435243129,0.0,0.0,-0.2772279977798462,0.6366028785705566
-0.0106891635805368,1.3563909530639648,-0.1374053061008453,-0.3431957364082336,0.0029616761021316,-0.0441803112626075,0.0,0.0,-0.1406083703041076,0.8259209394454956
-0.0120693203061819,1.348252773284912,-0.1341079473495483,-0.3616963624954223,-0.0008995838579721,-0.0772324725985527,0.0,0.0,-0.5168586373329163,0.4358099699020386
-0.0135139469057321,1.3396955728530884,-0.1409327089786529,-0.3803277015686035,-0.0043929489329457,-0.0698737427592277,0.0,0.0,0.4865369796752929,0.6167736053466797
-0.0149721149355173,1.3317033052444458,-0.1413984149694442,-0.3552336096763611,-0.0087648993358016,-0.087447203695774,0.0,0.0,-0.2071612477302551,0.2227407693862915
-0.0164941791445016,1.3232917785644531,-0.148114264011383,-0.3738733828067779,-0.0128135131672024,-0.080979473888874,0.0,0.0,0.0248157978057861,0.6960906982421875
-0.0179704669862985,1.314949631690979,-0.1424860805273056,-0.3708232641220093,-0.0178976152092218,-0.1016915068030357,0.0,0.0,-0.2778126001358032,0.0418094396591186
-0.0195098873227834,1.3061881065368652,-0.1490762829780578,-0.3894592523574829,-0.0227076131850481,-0.0962084233760833,0.0,0.0,-0.2701871395111084,0.1031914949417114
-0.0211120601743459,1.2970077991485596,-0.1555991172790527,-0.4080901145935058,-0.0272705275565385,-0.0912666767835617,0.0,0.0,-0.3929677605628967,0.5172691345214844
-0.0227259639650583,1.28741192817688,-0.1557252258062362,-0.4265992343425751,-0.0328791514039039,-0.1121824830770492,0.0,0.0,0.0276490449905395,0.7130728960037231
-0.024261187762022,1.2776594161987305,-0.1466746032238006,-0.4336095154285431,-0.0396478027105331,-0.1353852450847625,0.0,0.0,-0.5865565538406372,0.6931807994842529
-0.0257901195436716,1.267492413520813,-0.1445097029209137,-0.4521101415157318,-0.0479423776268959,-0.1659068018198013,0.0,0.0,0.138582706451416,0.5805480480194092
-0.0272127147763967,1.2572779655456543,-0.1330352127552032,-0.4542953670024872,-0.0570683814585208,-0.1825370192527771,0.0,0.0,-0.4218021631240845,-0.1507740616798401
-0.0286952015012502,1.246645212173462,-0.1391305774450302,-0.4729359447956085,-0.0660900324583053,-0.180449366569519,0.0,0.0,-0.3685164451599121,0.8069676160812378
-0.030181597918272,1.2355886697769165,-0.1382153034210205,-0.4918945431709289,-0.0764272585511207,-0.2067634165287017,0.0,0.0,0.1361081600189209,0.5023505687713623
-0.0315511710941791,1.2248756885528564,-0.1257814168930053,-0.4767360091209411,-0.087520495057106,-0.2218843251466751,0.0,0.0,-0.1500298976898193,-0.4244052171707153
-0.0329783447086811,1.2137452363967896,-0.1315566599369049,-0.4953843355178833,-0.0985997542738914,-0.2216050624847412,0.0,0.0,-0.4277341365814209,-0.200316309928894
-0.034462071955204,1.2021969556808472,-0.1372135728597641,-0.5140249133110046,-0.109695091843605,-0.2219265401363372,0.0,0.0,-0.6379894018173218,0.2645993232727051
-0.0360014922916889,1.1902313232421875,-0.1427473425865173,-0.5326682329177856,-0.1208361238241195,-0.2228406965732574,0.0,0.0,0.0913604497909545,0.0538548231124877
-0.037637423723936,1.1784982681274414,-0.1519026905298233,-0.5224578976631165,-0.1324871033430099,-0.2330400198698043,0.0,0.0,0.1434427499771118,-0.1132773756980896
-0.0393645279109478,1.1670712232589722,-0.1604489982128143,-0.5090034008026123,-0.144709050655365,-0.2444387376308441,0.0,0.0,-0.0367849469184875,0.0530697107315063
-0.041144274175167,1.1552271842956543,-0.165603905916214,-0.5276461839675903,-0.1570643931627273,-0.2471067011356353,0.0,0.0,0.2406367063522339,-0.0408145189285278
-0.0429755225777626,1.1439077854156494,-0.17015141248703,-0.504507303237915,-0.1700345277786255,-0.2594026327133178,0.0,0.0,-0.2065303921699524,0.2402260303497314
-0.0448566451668739,1.1321717500686646,-0.1750002056360244,-0.5231526494026184,-0.1831918805837631,-0.2631469666957855,0.0,0.0,0.0233242511749267,-0.5000953674316406
-0.0467847809195518,1.120477557182312,-0.1804793179035186,-0.5213099122047424,-0.1955851465463638,-0.2478654831647873,0.0,0.0,0.3029084205627441,0.039591908454895
-0.0486159324645996,1.1093450784683228,-0.1706376671791076,-0.4964747428894043,-0.2081472277641296,-0.2512420117855072,0.0,0.0,0.0544592142105102,-0.714085042476654
-0.050546359270811,1.09823739528656,-0.1817196607589721,-0.4953029453754425,-0.2195808440446853,-0.2286723405122757,0.0,0.0,-0.7366278171539307,-0.5950619578361511
-0.0525720603764057,1.086736083030701,-0.1923546493053436,-0.5127291083335876,-0.2299301922321319,-0.206986591219902,0.0,0.0,0.3634859323501587,-0.464218258857727
-0.0546236038208007,1.0752705335617063,-0.19441919028759,-0.5112890005111694,-0.2408262938261032,-0.2179219275712967,0.0,0.0,-0.2570928335189819,-0.5762683153152466
-0.0567585006356239,1.0634055137634275,-0.2035817801952362,-0.5289965271949768,-0.2509128451347351,-0.2017312049865722,0.0,0.0,-0.3964514136314392,-0.4979033470153808
-0.0589323043823242,1.051123857498169,-0.2071540653705597,-0.5476407408714294,-0.2613413035869598,-0.2085697203874588,0.0,0.0,-0.3094522953033447,-0.9348866939544678
-0.06121826171875,1.0384504795074463,-0.2199657410383224,-0.5648223757743835,-0.2701593935489654,-0.1763616353273391,0.0,0.0,0.7682456970214844,-0.7620481848716736
-0.0633355155587196,1.0265498161315918,-0.2043646275997162,-0.530301034450531,-0.2777135968208313,-0.1510834991931915,0.0,0.0,0.1754810810089111,-0.295197069644928
-0.0653484314680099,1.015108346939087,-0.1934343725442886,-0.5100204348564148,-0.2857890725135803,-0.1615097224712371,0.0,0.0,-0.4210625886917114,-0.8749886751174927
-0.0674551948904991,1.0032790899276731,-0.2040852606296539,-0.5270595550537109,-0.2925766706466675,-0.1357519626617431,0.0,0.0,0.9373531341552734,-0.8880953788757324
-0.0695248618721962,0.992440938949585,-0.2014791220426559,-0.4828094244003296,-0.2982312440872192,-0.113091193139553,0.0,0.0,-0.2495481967926025,-0.239596426486969
-0.0716213211417198,0.9811858534812928,-0.2037550210952758,-0.5014513731002808,-0.3043185472488403,-0.1217463612556457,0.0,0.0,-0.1588155627250671,-0.52187180519104
-0.073776438832283,0.9695236086845398,-0.2100677490234375,-0.5194704532623291,-0.3099655508995056,-0.1129399910569191,0.0,0.0,0.5023294687271118,-0.2277955412864685
-0.0757215470075607,0.9580899477005004,-0.1890299618244171,-0.509344756603241,-0.3156508505344391,-0.1137052774429321,0.0,0.0,-0.1517671346664428,-0.7053264379501343
-0.0777451545000076,0.9462592005729676,-0.1979056894779205,-0.5267936587333679,-0.3202759325504303,-0.0925018191337585,0.0,0.0,0.4238653182983398,-0.7562581300735474
-0.0797123908996582,0.9344212412834167,-0.1933677345514297,-0.5268750786781311,-0.3237767815589905,-0.0700161457061767,0.0,0.0,0.6918087005615234,-0.7808735966682434
-0.081544205546379,0.9228096604347228,-0.1809962391853332,-0.5165594220161438,-0.3260456025600433,-0.0453762672841548,0.0,0.0,0.637108325958252,-0.9319218397140504
-0.0833107009530067,0.9120599627494812,-0.1756882965564727,-0.4779899716377258,-0.3270535767078399,-0.0201596356928348,0.0,0.0,0.10415780544281,-0.8351456522941589
-0.0850778594613075,0.9017295241355896,-0.1768795251846313,-0.4590892791748047,-0.3268831968307495,0.0034078669268637,0.0,0.0,0.1307952404022216,-0.7212825417518616
-0.0868124961853027,0.8915100693702698,-0.174531951546669,-0.4539562463760376,-0.3257657289505005,0.0223491359502077,0.0,0.0,0.2866464853286743,-0.7117981314659119
-0.0883466750383377,0.8814722895622253,-0.1555515825748443,-0.4456409215927124,-0.3235399425029754,0.0445149205625057,0.0,0.0,0.5303913354873657,-0.59981769323349
-0.089767649769783,0.8720421195030212,-0.1447951346635818,-0.4185206592082977,-0.3207369744777679,0.056059580296278,0.0,0.0,0.5765799283981323,-0.6473409533500671
-0.0909993201494216,0.8627659678459167,-0.1268544346094131,-0.4114595353603363,-0.3169021308422088,0.0766967236995697,0.0,0.0,0.3299740552902221,-0.6116304993629456
-0.0920737236738205,0.8540149331092834,-0.1118265762925148,-0.3879827558994293,-0.3123421669006347,0.0912001356482505,0.0,0.0,0.0881683826446533,-0.5120561122894287
-0.0929841995239257,0.8452726602554321,-0.0961242541670799,-0.3874676525592804,-0.3070836067199707,0.1051712855696678,0.0,0.0,-0.8193962574005127,-0.6675587892532349
-0.0939502716064453,0.8361385464668274,-0.1026947498321533,-0.4046897888183594,-0.3007964789867401,0.1257425397634506,0.0,0.0,-0.8700777888298035,-0.4312958717346191
-0.0949116721749305,0.8265878558158875,-0.101685956120491,-0.4233352839946747,-0.2950574457645416,0.114780806005001,0.0,0.0,-0.8765721917152405,-0.530125617980957
-0.0958965271711349,0.8166368007659912,-0.1043305024504661,-0.4411014914512634,-0.2890377938747406,0.1203933134675026,0.0,0.0,-0.8541261553764343,-0.3100383281707763
-0.0968730002641677,0.8062690496444702,-0.102949246764183,-0.459746390581131,-0.2835743129253387,0.1092697605490684,0.0,0.0,-0.9120789170265198,-0.013666033744812
-0.0978391617536544,0.795484721660614,-0.101390816271305,-0.4783906638622284,-0.2786706089973449,0.0980738326907157,0.0,0.0,-0.8366807103157043,-0.6986192464828491
-0.0988430008292198,0.7842985391616821,-0.1058774217963218,-0.4961290955543518,-0.2730393409729004,0.1126255989074707,0.0,0.0,-0.9248092770576476,-0.115906536579132
-0.0998334884643554,0.7726954817771912,-0.10398431122303,-0.5147731304168701,-0.2679743468761444,0.1013001352548599,0.0,0.0,-0.7099493741989136,-0.1436874866485595
-0.1008088141679763,0.7606757879257202,-0.101933442056179,-0.5334166288375854,-0.2634784877300262,0.0899171084165573,0.0,0.0,-0.7504345774650574,-0.2883291244506836
-0.1017677336931228,0.7482390403747559,-0.0997314900159835,-0.5520594716072083,-0.2595544457435608,0.0784811154007911,0.0,0.0,-0.973177134990692,-0.7398133873939514
-0.1027653664350509,0.7354023456573486,-0.1044888868927955,-0.5696960687637329,-0.2547322511672973,0.096444196999073,0.0,0.0,-0.7549856901168823,-0.4192060232162475
-0.1037437468767166,0.7221485376358032,-0.1020052060484886,-0.5883389115333557,-0.2504864931106567,0.0849145501852035,0.0,0.0,-0.9257227778434752,-0.5674552917480469
-0.1047423332929611,0.7085001468658447,-0.1045478135347366,-0.6057978272438049,-0.2457077205181121,0.0955755338072776,0.0,0.0,-0.9229374527931212,-0.2948495149612427
-0.1057190895080566,0.6944349408149719,-0.1018087863922119,-0.6244403123855591,-0.241509348154068,0.0839677825570106,0.0,0.0,-0.9130234122276306,-0.3390878438949585
-0.1066730469465255,0.6799524426460266,-0.0989517718553543,-0.6430822014808655,-0.2378930300474167,0.0723264589905738,0.0,0.0,-0.7037528157234192,-0.3983930349349975
-0.1076030731201171,0.6650529503822327,-0.0959832072257995,-0.6617234349250793,-0.2348602563142776,0.0606550499796867,0.0,0.0,-0.9525731801986694,-0.6915582418441772
-0.1085687652230262,0.6497610807418823,-0.1005641967058181,-0.6790114045143127,-0.2308025062084198,0.0811550319194793,0.0,0.0,-0.5261670351028442,-0.2295363545417785
-0.1095084175467491,0.6340519189834595,-0.0973918661475181,-0.6976526975631714,-0.2273308634757995,0.069433182477951,0.0,0.0,-0.3145388960838318,-0.4915409684181213
-0.1104211807250976,0.6179254651069641,-0.0941267162561416,-0.7162935137748718,-0.2244463115930557,0.057690929621458,0.0,0.0,0.7396488189697266,-0.7926899194717407
-0.1111490279436111,0.6022635102272034,-0.0767891630530357,-0.695482075214386,-0.2203898876905441,0.0811285227537155,0.0,0.0,0.407683253288269,-0.6318032741546631
-0.1118556037545204,0.586694061756134,-0.0752808079123497,-0.6912946701049805,-0.2157154530286789,0.09348876029253,0.0,0.0,0.2273441553115844,-0.7464247941970825
-0.1124840751290321,0.5710541605949402,-0.0684362798929214,-0.6943014860153198,-0.2100700139999389,0.1129088550806045,0.0,0.0,0.9344418048858644,-0.3823784589767456
-0.1130358725786209,0.5555917024612427,-0.0600197985768318,-0.6865403056144714,-0.2051854878664016,0.0976902022957801,0.0,0.0,0.7016705274581909,-0.8254706859588623
-0.1134625449776649,0.5409420132637024,-0.048572015017271,-0.6502935886383057,-0.1992430835962295,0.1188480630517005,0.0,0.0,0.1497690677642822,0.2162013053894043
-0.1136911362409591,0.5266932249069214,-0.0284299552440643,-0.6325365900993347,-0.1936332583427429,0.1121966689825058,0.0,0.0,0.237926959991455,-0.1395109295845031
-0.1138525977730751,0.512952983379364,-0.0207552667707204,-0.6100846529006958,-0.1890026032924652,0.0926130563020706,0.0,0.0,0.1661844253540039,-0.6852759718894958
-0.1140931099653244,0.4991771280765533,-0.0293196327984333,-0.6115981936454773,-0.1837182790040969,0.1056869253516197,0.0,0.0,-0.3619042038917541,-0.427513837814331
-0.1143011078238487,0.484983891248703,-0.0254752077162265,-0.6302383542060852,-0.1790236532688141,0.0938924625515937,0.0,0.0,0.6682507991790771,-0.5350086092948914
-0.1145218834280967,0.4712714254856109,-0.0269474331289529,-0.6088628768920898,-0.1741383671760559,0.0977053791284561,0.0,0.0,-0.3608617782592773,-0.2686044573783874
-0.1147092804312706,0.4571413993835449,-0.0230309255421161,-0.6275022029876709,-0.1698417961597442,0.0859315544366836,0.0,0.0,0.6873180866241455,-0.3763724565505981
-0.1147544831037521,0.4436527490615845,-0.0081594446673989,-0.599084198474884,-0.1661897450685501,0.0730407908558845,0.0,0.0,0.7924206256866455,-0.616496741771698
-0.1146090477705001,0.4306672215461731,0.0099846078082919,-0.5766340494155884,-0.1616312116384506,0.0911709666252136,0.0,0.0,0.448596715927124,-0.2983799576759338
-0.1143607124686241,0.4177032709121704,0.0207603368908166,-0.5757369995117188,-0.1575625389814376,0.0813733786344528,0.0,0.0,0.7116713523864746,-0.5978977084159851
-0.1139577850699424,0.4049221575260162,0.0353534519672393,-0.567534327507019,-0.1526242345571518,0.0987660810351371,0.0,0.0,0.4580769538879394,-0.2078692317008972
-0.1133155822753906,0.3924410343170166,0.0592657402157783,-0.5542194247245789,-0.1476687341928482,0.0991099923849105,0.0,0.0,0.0924190282821655,-0.566230833530426
-0.1125437766313552,0.3799120187759399,0.0715000480413436,-0.5562902688980103,-0.1420007348060608,0.1133601069450378,0.0,0.0,0.6398833990097046,-0.6516430377960205
-0.1116885170340538,0.3680896461009979,0.079129084944725,-0.5248405933380127,-0.1356216073036193,0.12758269906044,0.0,0.0,-0.5949214696884155,-0.1833271980285644
-0.1107987388968467,0.3558496832847595,0.0831536203622818,-0.5434792041778564,-0.1298205554485321,0.1160207018256187,0.0,0.0,0.4554316997528076,-0.2065712213516235
-0.1096896156668663,0.3440448045730591,0.1051515191793441,-0.524172842502594,-0.1240880638360977,0.1146497279405593,0.0,0.0,0.1170514822006225,-0.6540495157241821
-0.1084943786263465,0.332139253616333,0.1129216402769088,-0.5286028981208801,-0.1175297051668167,0.1311674863100052,0.0,0.0,-0.272596001625061,-0.6286453008651733
-0.1073186844587326,0.3198238313198089,0.1101640686392784,-0.5467897057533264,-0.1101790517568588,0.1470132172107696,0.0,0.0,-0.0579011440277099,-0.4946310520172119
-0.1061089485883712,0.307090699672699,0.1141438111662864,-0.5654281973838806,-0.1033966317772865,0.1356484591960907,0.0,0.0,0.6703495979309082,-0.4420591592788696
-0.1048292145133018,0.2948018908500671,0.1218088865280151,-0.5457554459571838,-0.0972885265946388,0.1221621632575988,0.0,0.0,0.5571341514587402,-0.5199920535087585
-0.1036088913679122,0.2832435667514801,0.1157326698303222,-0.5133066773414612,-0.091032437980175,0.1251215934753418,0.0,0.0,0.1889631748199463,-0.3844553828239441
-0.102246955037117,0.2720088958740234,0.1301519274711609,-0.4989629685878753,-0.0850449949502945,0.1197486743330955,0.0,0.0,0.4290549755096435,-0.4977172017097473
-0.1008428558707237,0.2613320052623749,0.1351435035467147,-0.4742408096790313,-0.0798263177275657,0.1043734103441238,0.0,0.0,-0.220200777053833,-0.3213299512863159
-0.099405862390995,0.2502368092536926,0.1389828771352768,-0.4928754866123199,-0.0751579999923706,0.093366339802742,0.0,0.0,0.2363531589508056,-0.1096507310867309
-0.0979269966483116,0.239282801747322,0.1438135206699371,-0.4866474270820617,-0.071121722459793,0.0807253643870353,0.0,0.0,0.3236677646636963,-0.6692889332771301
-0.0965379700064659,0.2286486774682998,0.1342006921768188,-0.4724120795726776,-0.0664680302143096,0.0930738598108291,0.0,0.0,0.3624011278152466,-0.5025397539138794
-0.0952618569135665,0.2182587236166,0.1227533593773841,-0.4615661203861236,-0.0616742670536041,0.0958755165338516,0.0,0.0,0.543532133102417,-0.8723705410957336
-0.0938710197806358,0.2084570080041885,0.1328672468662262,-0.4353917241096496,-0.0555212721228599,0.123059943318367,0.0,0.0,-0.3083800077438354,-0.7330397367477417
-0.0925015434622764,0.1982349306344986,0.1299266666173935,-0.454068511724472,-0.0485841445624828,0.1387428790330886,0.0,0.0,0.0192468166351318,-0.5052935481071472
-0.0910197272896766,0.1882995963096618,0.1404960453510284,-0.4413412511348724,-0.040987841784954,0.1519261449575424,0.0,0.0,0.1250948905944824,-0.8104297518730164
-0.0895684212446212,0.178750067949295,0.1363473236560821,-0.42420694231987,-0.0323012061417102,0.1737327426671981,0.0,0.0,-0.2223172783851623,-0.7968284487724304
-0.0881356224417686,0.1687942892313003,0.1337661445140838,-0.4423025846481323,-0.0229091048240661,0.1878416240215301,0.0,0.0,0.3604931831359863,-0.3923625349998474
-0.0866004973649978,0.1591342538595199,0.1442155092954635,-0.4292197525501251,-0.0137239806354045,0.1837022453546524,0.0,0.0,0.2663700580596924,-0.1103948354721069
-0.0850341767072677,0.1499950736761093,0.1478494852781295,-0.406133085489273,-0.0050541055388748,0.1733976453542709,0.0,0.0,0.4976341724395752,-0.7313490509986877
-0.0834338217973709,0.1415150761604309,0.1501551419496536,-0.376883864402771,0.0046967337839305,0.1950168311595916,0.0,0.0,-0.6110044121742249,0.6361966133117676
-0.0817496329545974,0.1326142102479934,0.1604736894369125,-0.3956389129161834,0.0125408628955483,0.1568827927112579,0.0,0.0,0.1689362525939941,-0.8925855159759521
-0.0802164077758789,0.123949609696865,0.1440938711166381,-0.3852001130580902,0.0216571241617202,0.182325005531311,0.0,0.0,0.2588642835617065,-0.0013478398323059
-0.0787639617919921,0.1154517233371734,0.13692507147789,-0.3778270781040191,0.0298678036779165,0.1642138510942459,0.0,0.0,0.2093589305877685,-0.0583344101905822
-0.0773149505257606,0.1071533262729644,0.1371105015277862,-0.3689928352832794,0.0375628657639026,0.1539013087749481,0.0,0.0,0.4547457695007324,0.8013280630111694
-0.0757705718278884,0.0991437509655952,0.1486584693193435,-0.3561362326145172,0.043269257992506,0.1141277104616165,0.0,0.0,0.675628662109375,-0.8213921189308167
-0.0741370171308517,0.0912597775459289,0.156083658337593,-0.3506281077861786,0.050448965281248,0.1435943692922592,0.0,0.0,0.5729019641876221,-0.6755286455154419
-0.0724660903215408,0.0839389860630035,0.1586721241474151,-0.325673907995224,0.0587756671011447,0.1665339171886444,0.0,0.0,0.4139360189437866,-0.8942356705665588
-0.070860669016838,0.0772380456328392,0.1507024019956588,-0.2982355952262878,0.0685096681118011,0.194679707288742,0.0,0.0,0.3782703876495361,0.9188802242279052
