x_pos,y_pos,x_vel,y_vel,angle,ang_vel,leg_1,leg_2,main_booster,lat_booster
-0.0015456199180334,1.4033243656158447,-0.1559368073940277,-0.3375909924507141,0.001221947139129,0.0240640416741371,0.0,0.0,-0.3523037433624267,0.7257169485092163
-0.0030536651611328,1.395448088645935,-0.1498480439186096,-0.3500543236732483,0.0002870552416425,-0.0186989400535821,0.0,0.0,0.1816329956054687,0.0066940784454345
-0.0044918060302734,1.387704610824585,-0.1427668035030365,-0.3441531062126159,-0.0007577612996101,-0.0208983607590198,0.0,0.0,-0.293854296207428,0.0428851842880249
-0.0059576989151537,1.3796608448028564,-0.1449443995952606,-0.3575007617473602,-0.0023748115636408,-0.0323442220687866,0.0,0.0,-0.3384059071540832,0.8607391119003296
-0.0073707578703761,1.3713195323944092,-0.1369933634996414,-0.3707365095615387,-0.0066324062645435,-0.0851600393652916,0.0,0.0,0.3968648910522461,-0.6411867141723633
-0.0087347030639648,1.3633654117584229,-0.1330652832984924,-0.3535345494747162,-0.0099295722320675,-0.0659494623541832,0.0,0.0,-0.2190114259719848,-0.2209272384643554
-0.0101317409425973,1.3551112413406372,-0.1357824057340622,-0.3668817579746246,-0.0138056967407464,-0.0775294452905654,0.0,0.0,-0.2291002869606018,0.6573927402496338
-0.0114989280700683,1.3465580940246582,-0.1305799335241317,-0.3802107274532318,-0.01988435536623,-0.1215840801596641,0.0,0.0,-0.1317030787467956,0.0209606885910034
-0.0129028316587209,1.337705373764038,-0.133655160665512,-0.3935546278953552,-0.0265421848744153,-0.1331689357757568,0.0,0.0,-0.0426087975502014,0.4795503616333008
-0.0143451690673828,1.328553318977356,-0.1369126886129379,-0.4068992733955383,-0.0337810777127742,-0.1447909325361251,0.0,0.0,0.4708290100097656,0.2174863815307617
-0.0157331470400095,1.3198919296264648,-0.1312593072652816,-0.3851477205753326,-0.0412372276186943,-0.1491370052099228,0.0,0.0,-0.4585104584693908,-0.1631734371185302
-0.0171631816774606,1.3109312057495115,-0.1348796337842941,-0.3985006511211395,-0.0492751412093639,-0.1607729792594909,0.0,0.0,0.114902377128601,-0.1502328515052795
-0.0185260772705078,1.3023720979690552,-0.1279885470867157,-0.3806900382041931,-0.0574787035584449,-0.1640865206718444,0.0,0.0,-0.7003428339958191,0.2829668521881103
-0.0199344642460346,1.2935142517089844,-0.1319657266139984,-0.3940445184707641,-0.0662637129426002,-0.1757161021232605,0.0,0.0,-0.4958651065826416,0.2421839237213134
-0.0213900562375783,1.2843577861785889,-0.1361169666051864,-0.4073926508426666,-0.0756290033459663,-0.1873230338096618,0.0,0.0,-0.6131876111030579,-0.2038098573684692
-0.0228946693241596,1.2749031782150269,-0.1404408514499664,-0.4207436442375183,-0.0855738297104835,-0.1989146322011947,0.0,0.0,-0.6457585096359253,-0.4210795164108276
-0.0244500152766704,1.2651503086090088,-0.1449345052242279,-0.4340968132019043,-0.0960970297455787,-0.2104828059673309,0.0,0.0,-0.3409932851791382,-0.2045189142227172
-0.0260576251894235,1.255099534988403,-0.1495945751667022,-0.4474517703056335,-0.1071970909833908,-0.2220211923122406,0.0,0.0,-0.5450172424316406,0.122991919517517
-0.0277191158384084,1.244751214981079,-0.1544176638126373,-0.4608086347579956,-0.118872232735157,-0.233523890376091,0.0,0.0,-0.5270128846168518,-0.3242133855819702
-0.0294360164552927,1.2341057062149048,-0.159400075674057,-0.4741676151752472,-0.1311204582452774,-0.2449862658977508,0.0,0.0,-0.3588833212852478,0.2296146154403686
-0.0312098506838083,1.2231626510620115,-0.1645378619432449,-0.4875287711620331,-0.1439394503831863,-0.2564027607440948,0.0,0.0,-0.3158411979675293,-0.3561241626739502
-0.0330420508980751,1.2119230031967163,-0.1698267310857772,-0.5008922815322876,-0.1573266088962555,-0.2677674889564514,0.0,0.0,0.0194916725158691,-0.5447657704353333
-0.0348355285823345,1.2008726596832275,-0.1666538268327713,-0.4925239980220794,-0.1700522005558014,-0.2545347213745117,0.0,0.0,0.1074599027633667,-0.3159651756286621
-0.0366086959838867,1.189822793006897,-0.164294809103012,-0.4926484525203705,-0.1831234097480774,-0.2614476382732391,0.0,0.0,-0.3678148984909057,-0.6422398686408997
-0.0385056510567665,1.1784948110580444,-0.1777398139238357,-0.5049823522567749,-0.195160374045372,-0.2407608777284622,0.0,0.0,-0.2322582602500915,-0.2132169008255005
-0.0404693596065044,1.166849136352539,-0.1838699430227279,-0.5192829966545105,-0.2077542245388031,-0.2518768310546875,0.0,0.0,-0.6457079648971558,-0.7053737044334412
-0.0425518974661827,1.154928207397461,-0.1966359317302703,-0.5314956307411194,-0.2194893211126327,-0.2347022593021392,0.0,0.0,0.4686520099639892,-0.8415846228599548
-0.0447321906685829,1.14385724067688,-0.2074059247970581,-0.4936574399471283,-0.2302430570125579,-0.2150745093822479,0.0,0.0,-0.752409040927887,-0.8402838110923767
-0.047057531774044,1.1325236558914185,-0.223440021276474,-0.5051707625389099,-0.2394763678312301,-0.1846661567687988,0.0,0.0,-0.1747251152992248,-0.7042517066001892
-0.0495079979300498,1.120910406112671,-0.2368761003017425,-0.517497181892395,-0.2477828413248062,-0.1661292016506195,0.0,0.0,-0.5922255516052246,-0.3570728302001953
-0.0520282760262489,1.1089998483657837,-0.2433415204286575,-0.5308526754379272,-0.2566262483596802,-0.176868587732315,0.0,0.0,-0.664717435836792,-0.1229413747787475
-0.0546190254390239,1.0967918634414673,-0.2499051988124847,-0.5442091226577759,-0.2660014927387237,-0.1875047087669372,0.0,0.0,-0.3974754810333252,-0.3325487375259399
-0.057281207293272,1.0842868089675903,-0.2565607726573944,-0.5575666427612305,-0.2759029865264892,-0.1980298459529876,0.0,0.0,0.8296952247619629,-0.730718195438385
-0.0600374229252338,1.0721096992492676,-0.2667374014854431,-0.5429076552391052,-0.2850192487239837,-0.1823254525661468,0.0,0.0,-0.6750800013542175,-0.2317665815353393
-0.0628664046525955,1.0596356391906738,-0.2735563516616821,-0.556265115737915,-0.2946494817733764,-0.1926048398017883,0.0,0.0,-0.09888356924057,-0.913317322731018
-0.0658345222473144,1.0469012260437012,-0.2887359261512756,-0.5676289200782776,-0.3029794096946716,-0.1665986478328704,0.0,0.0,0.0546506643295288,-0.8872665762901306
-0.0688765496015548,1.0343213081359863,-0.2974121570587158,-0.560537576675415,-0.3100067675113678,-0.1405470222234726,0.0,0.0,0.4640421867370605,-0.7080310583114624
-0.0718039497733116,1.02242112159729,-0.2869478762149811,-0.5301505923271179,-0.3160129189491272,-0.1201232448220253,0.0,0.0,0.2205781936645507,-0.882513165473938
-0.0747087448835372,1.0111678838729858,-0.2859724462032318,-0.5011361837387085,-0.3207093477249145,-0.0939286723732948,0.0,0.0,0.5746748447418213,-0.3547183871269226
-0.0774810761213302,1.0004287958145142,-0.2723751962184906,-0.4783739149570465,-0.3257557451725006,-0.1009280234575271,0.0,0.0,0.3655827045440674,-0.6505978107452393
-0.0802625641226768,0.9903828501701356,-0.2739821076393127,-0.4474295675754547,-0.3301049768924713,-0.0869846791028976,0.0,0.0,0.3222308158874511,-0.7767714858055115
-0.0829372406005859,0.9806074500083924,-0.2645063996315002,-0.4351420104503631,-0.3331917822360992,-0.0617367811501026,0.0,0.0,0.4322462081909179,-0.1104284524917602
-0.0855195075273513,0.9708781242370604,-0.2552177906036377,-0.4331162273883819,-0.3363328576087951,-0.0628213658928871,0.0,0.0,0.7374540567398071,-0.6024140119552612
-0.0879334434866905,0.9616044163703918,-0.2394245564937591,-0.4126247763633728,-0.3383953273296356,-0.0412489585578441,0.0,0.0,0.7047383785247803,-0.1327580213546753
-0.0903621688485145,0.9524834752082824,-0.2403164207935333,-0.4059820771217346,-0.3410716354846954,-0.0535260513424873,0.0,0.0,0.6535322666168213,-0.2198637127876281
-0.0927116423845291,0.9435138702392578,-0.2322063446044922,-0.3992990553379059,-0.3439419865608215,-0.0574068240821361,0.0,0.0,0.4966987371444702,-0.6042578220367432
-0.0949892029166221,0.9348081946372986,-0.2259465157985687,-0.3873505294322967,-0.3458409905433655,-0.0379803404211998,0.0,0.0,0.8901979923248291,-0.3468465805053711
-0.0971397385001182,0.9272157549858092,-0.2123169600963592,-0.3381018936634063,-0.3487128913402557,-0.0574382841587066,0.0,0.0,0.6574788093566895,-0.1843346357345581
-0.0992200821638107,0.9205079674720764,-0.2043735533952713,-0.2990221679210663,-0.3525629937648773,-0.0770021453499794,0.0,0.0,-0.0053397417068481,-0.3262999057769775
-0.1013749092817306,0.9135017395019532,-0.2114919424057006,-0.3123721480369568,-0.3567592203617096,-0.0839246064424514,0.0,0.0,0.054419994354248,0.2649762630462646
-0.1033904105424881,0.9066614508628844,-0.1976611614227295,-0.3049868643283844,-0.3608607649803161,-0.082031026482582,0.0,0.0,0.7599246501922607,0.5519216060638428
-0.1052217483520507,0.9006392955780029,-0.1777152419090271,-0.2690273225307464,-0.3665775060653686,-0.1143352165818214,0.0,0.0,-0.6543412208557129,0.2938141822814941
-0.1071252822875976,0.8943187594413757,-0.1846771389245987,-0.2823774516582489,-0.3725856840610504,-0.120163694024086,0.0,0.0,0.3353443145751953,0.0196765661239624
-0.1088629737496376,0.8885990977287292,-0.1678673923015594,-0.2557543516159057,-0.3788532614707947,-0.1253513097763061,0.0,0.0,0.0961099863052368,0.295814037322998
-0.1104596108198165,0.8829771876335144,-0.1539598554372787,-0.2513915002346039,-0.3849138617515564,-0.1212121471762657,0.0,0.0,0.6759607791900635,0.252068281173706
-0.1120357513427734,0.8777758479118347,-0.1512958109378814,-0.2328935265541076,-0.3916512429714203,-0.1347476094961166,0.0,0.0,0.9289190769195556,-0.0729115009307861
-0.1132231727242469,0.8735032081604004,-0.1127270087599754,-0.1915688067674636,-0.3980863988399505,-0.1287025213241577,0.0,0.0,0.4853651523590088,-0.0689193606376648
-0.114127829670906,0.8696982264518738,-0.0848316177725792,-0.17071034014225,-0.4041293859481811,-0.1208594441413879,0.0,0.0,0.5350308418273926,0.0297713279724121
-0.114733025431633,0.8666083216667175,-0.0550590381026268,-0.1389022469520568,-0.4100084006786346,-0.1175800338387489,0.0,0.0,0.5764012336730957,-0.7662673592567444
-0.1152300834655761,0.8643407821655273,-0.0454778596758842,-0.10201346129179,-0.4145578444004059,-0.0909887552261352,0.0,0.0,0.4899687767028808,-0.9468126893043518
-0.1156768798828125,0.8622379302978516,-0.0422211401164531,-0.0941834300756454,-0.4172136187553406,-0.0531152077019214,0.0,0.0,0.7714853286743164,-0.9209461212158204
-0.1160532981157302,0.860987663269043,-0.0367156490683555,-0.0558393634855747,-0.4182098507881164,-0.0199245549738407,0.0,0.0,-0.6316773295402527,-0.9509487748146056
-0.116543099284172,0.8594714999198914,-0.0494530722498893,-0.0672433748841285,-0.4176915884017944,0.0103650540113449,0.0,0.0,-0.26236492395401,-0.8936483263969421
-0.1171504035592079,0.8576974868774414,-0.0628508776426315,-0.0782207772135734,-0.4154126048088074,0.0455799773335456,0.0,0.0,-0.1444920301437378,-0.7498796582221985
-0.1178667992353439,0.855653703212738,-0.0751768872141838,-0.0898064076900482,-0.4116000533103943,0.0762511044740676,0.0,0.0,0.6402735710144043,-0.9346259236335754
-0.1185939759016037,0.8542436957359314,-0.0779347643256187,-0.0611610077321529,-0.4059850871562958,0.1122995987534523,0.0,0.0,-0.0737192034721374,-0.6557212471961975
-0.1194142326712608,0.8525699973106384,-0.0885485708713531,-0.0725328028202056,-0.3989867568016052,0.1399659067392349,0.0,0.0,-0.0346919298171997,-0.4605039358139038
-0.1202815994620323,0.8505963087081909,-0.0933671593666076,-0.0858723744750022,-0.3918951749801636,0.1418323218822479,0.0,0.0,0.4080963134765625,-0.543408989906311
-0.120930291712284,0.8493472933769226,-0.0727385655045509,-0.0533706806600093,-0.3834943771362304,0.1680154353380203,0.0,0.0,0.1544525623321533,-0.3156866431236267
-0.1215578094124794,0.8482951521873474,-0.0705125704407692,-0.0446977764368057,-0.3752459585666656,0.1649681180715561,0.0,0.0,-0.0621963739395141,-0.3650836944580078
-0.122224137187004,0.8469430804252625,-0.0745916292071342,-0.0580363422632217,-0.3668168485164642,0.168582484126091,0.0,0.0,0.3938446044921875,-0.0136653780937194
-0.1227138489484787,0.8460118174552917,-0.05725734308362,-0.0392912812530994,-0.358058363199234,0.1751690208911895,0.0,0.0,-0.4646775126457214,-0.1177513599395752
-0.1232362762093544,0.8447802662849426,-0.0607806965708732,-0.0526291541755199,-0.3490626811981201,0.1799138486385345,0.0,0.0,-0.0470094680786132,-0.3054184913635254
-0.1237881630659103,0.8432484865188599,-0.0640075057744979,-0.065966747701168,-0.3398023247718811,0.1852064877748489,0.0,0.0,0.283597469329834,-0.0081452131271362
-0.1242895126342773,0.8418591618537903,-0.0591512098908424,-0.0596511624753475,-0.3303718566894531,0.188609167933464,0.0,0.0,0.0202119350433349,-0.3235862851142883
-0.1247085556387901,0.8404340744018555,-0.0514499172568321,-0.0611956939101219,-0.3204299807548523,0.1988371014595031,0.0,0.0,-0.074137270450592,0.2632358074188232
-0.125146672129631,0.8387085795402527,-0.053714282810688,-0.0745333358645439,-0.3101460337638855,0.2056791484355926,0.0,0.0,-0.463887095451355,0.5180132389068604
-0.125560849905014,0.836668848991394,-0.0507063344120979,-0.0887056142091751,-0.3005319237709045,0.1922822892665863,0.0,0.0,-0.5755557417869568,0.2384202480316162
-0.1259865760803222,0.8343285322189331,-0.0522703304886817,-0.1020421758294105,-0.2905287444591522,0.2000634372234344,0.0,0.0,-0.941356599330902,0.2295105457305908
-0.1264200210571289,0.8316879272460938,-0.0534683763980865,-0.1153791472315788,-0.2801146805286407,0.2082820832729339,0.0,0.0,-0.9824033975601196,0.4268995523452759
-0.1268572807312011,0.8287470936775208,-0.0542904511094093,-0.1287166774272918,-0.2692688703536987,0.2169159948825836,0.0,0.0,-0.9391857385635376,0.927199125289917
-0.12721748650074,0.8254825472831726,-0.0451069921255111,-0.1434432566165924,-0.2599682211875915,0.1860121190547943,0.0,0.0,-0.9555820226669312,0.4125165939331054
-0.1275732070207595,0.8219175338745117,-0.0451483428478241,-0.156778946518898,-0.2501977682113647,0.1954092234373092,0.0,0.0,-0.96519273519516,0.5620214939117432
-0.1278809607028961,0.8180392980575562,-0.0398321896791458,-0.1708512902259826,-0.2409704476594925,0.1845465302467346,0.0,0.0,-0.9513577222824096,0.8235437870025635
-0.1281132698059082,0.8138415813446045,-0.0312091317027807,-0.1852811872959137,-0.2328655272722244,0.1620982140302658,0.0,0.0,-0.9970976114273072,0.9583740234375
-0.1282442063093185,0.8093129992485046,-0.0194166786968708,-0.2002844661474228,-0.2264544367790222,0.1282216906547546,0.0,0.0,-0.9933204650878906,0.5115673542022705
-0.1283136308193206,0.8044641613960266,-0.0127387018874287,-0.2146255671977996,-0.2205861806869506,0.1173652186989784,0.0,0.0,-0.985338568687439,0.7727463245391846
-0.1282894164323806,0.7992854118347168,-0.0021468864288181,-0.2294948995113372,-0.2159725576639175,0.0922724679112434,0.0,0.0,-0.8904212713241577,0.6486649513244629
-0.1281729638576507,0.7937843799591064,0.008139157667756,-0.2439784407615661,-0.2124260812997818,0.0709295719861984,0.0,0.0,-0.9663264751434326,0.203494906425476
-0.1280220001935959,0.7879819273948669,0.0110252415761351,-0.2573082447052002,-0.2083110213279724,0.082301452755928,0.0,0.0,-0.9953643083572388,-0.0478559732437133
-0.1278320252895355,0.7818779349327087,0.0143399741500616,-0.2706384062767029,-0.2036172598600387,0.0938750952482223,0.0,0.0,-0.994589865207672,0.1504955291748047
-0.127598762512207,0.7754727005958557,0.018082583323121,,-0.1983356028795242,0.1056329235434532,0.0,0.0,-0.9991053342819214,0.4863524436950683
-0.1273178160190582,0.7687661647796631,0.0222511086612939,-0.2973003387451172,-0.1924576759338379,0.1175584569573402,0.0,0.0,-0.9599474668502808,0.9075431823730468
-0.1269041001796722,0.7617248892784119,0.0370506681501865,-0.3123908042907715,-0.1881097108125686,0.086958959698677,0.0,0.0,-0.9950061440467834,-0.6079732179641724
-0.1264856308698654,0.7543952465057373,0.0355903357267379,-0.3249790966510772,-0.1818255335092544,0.1256836056709289,0.0,0.0,-0.9786416292190552,0.9284274578094482
-0.1259230673313141,0.7467526197433472,0.0514905154705047,-0.339094340801239,-0.1770412176847458,0.0956863835453987,0.0,0.0,-0.9995577931404114,-0.0269191861152648
-0.1252958327531814,0.738808810710907,0.0573211722075939,-0.3524258732795715,-0.1716343015432357,0.1081384867429733,0.0,0.0,-0.9922229051589966,0.5151567459106445
-0.1245677024126052,0.7305600643157959,0.0676041692495346,-0.366014152765274,-0.1664159297943115,0.1043673604726791,0.0,0.0,-0.9983749389648438,-0.2043334245681762
-0.1237668991088867,0.7220103144645691,0.0742256194353103,-0.3793464601039886,-0.160565435886383,0.1170098632574081,0.0,0.0,-0.999474048614502,0.5235414505004883
-0.1228521317243576,0.7131543159484863,0.085945688188076,-0.3930181860923767,-0.1550316363573074,0.1106760129332542,0.0,0.0,-0.9996484518051147,0.0954588651657104
-0.1218571662902832,0.7039970755577087,0.0933214873075485,-0.4063512682914734,-0.1488581150770187,0.12347012758255,0.0,0.0,-0.997494339942932,0.0596140623092651
-0.1207781806588172,0.6945392489433289,0.1010588780045509,-0.4196852743625641,-0.1420417577028274,0.1363274157047271,0.0,0.0,-0.9951070547103882,0.0598584413528442
-0.1196118369698524,0.6847805380821228,0.109146736562252,-0.4330202937126159,-0.1345797330141067,0.1492405086755752,0.0,0.0,-0.9996811747550964,0.5622138977050781
-0.1183217987418174,0.6747133135795593,0.1217126101255416,-0.446786880493164,-0.1273128688335418,0.1453373879194259,0.0,0.0,-0.9968912601470948,0.274486780166626
-0.1169375404715538,0.6643458604812622,0.1304665207862854,-0.4601231813430786,-0.1193957179784774,0.1583428829908371,0.0,0.0,-0.992216408252716,0.2170110940933227
-0.1154561042785644,0.6536779403686523,0.1395351439714431,-0.4734606742858886,-0.1108264103531837,0.1713860034942627,0.0,0.0,-0.9977940320968628,0.5488176345825195
-0.113820269703865,0.6427052021026611,0.1556587517261505,-0.4871097803115845,-0.1029602587223053,0.1573227345943451,0.0,0.0,-0.9992029070854188,0.2048875093460083
-0.1120812445878982,0.6314323544502258,0.1653197407722473,-0.5004481077194214,-0.0944388955831527,0.1704274266958236,0.0,0.0,-0.9977035522460938,0.6618131399154663
-0.1101711243391037,0.6198577880859375,0.1833990812301635,-0.5139588713645935,-0.0868902131915092,0.1509735286235809,0.0,0.0,-0.9995614886283876,0.117326021194458
-0.1081521958112716,0.6079833507537842,0.1936022341251373,-0.5272977352142334,-0.078684002161026,0.1641243994235992,0.0,0.0,-0.9994738101959229,0.3435322046279907
-0.1060220748186111,0.5958089828491211,0.2040576189756393,-0.5406377911567688,-0.0698193311691284,0.1772933155298233,0.0,0.0,-0.9874186515808104,0.0161933898925781
-0.1037782654166221,0.5833349823951721,0.2147529870271682,-0.5539792776107788,-0.0602954514324665,0.1904774159193039,0.0,0.0,-0.9980794191360474,0.2419742345809936
-0.1014184951782226,0.5705615282058716,0.2256762683391571,-0.567322313785553,-0.0501117520034313,0.203674167394638,0.0,0.0,-0.9889442920684814,0.1912602186203003
-0.0989405661821365,0.5574889779090881,0.236815720796585,-0.5806669592857361,-0.0392676778137683,0.2168813198804855,0.0,0.0,-0.9986952543258668,0.3693876266479492
-0.0963425636291503,0.5441177487373352,0.2481598556041717,-0.5940134525299072,-0.0277628265321254,0.2300968915224075,0.0,0.0,-0.99137544631958,0.3451648950576782
-0.093622401356697,0.5304479002952576,0.2596976161003113,-0.6073618531227112,-0.0155968619510531,0.2433191537857055,0.0,0.0,-0.9590254426002502,0.5076627731323242
-0.0907363891601562,0.5164778828620911,0.2766750752925873,-0.6208085417747498,-0.0038227243348956,0.2354826182126999,0.0,0.0,-0.9715484976768494,-0.2488563060760498
-0.0877246856689453,0.5022096037864685,0.2885682582855224,-0.6341587901115417,0.0086129875853657,0.2487143576145172,0.0,0.0,-0.9499242901802064,-0.4025774002075195
-0.0845857635140419,0.4876434803009033,0.3006238937377929,-0.6475110650062561,0.0217104163020849,0.2619486451148987,0.0,0.0,-0.7367962002754211,0.0269885063171386
-0.0813180953264236,0.4727798998355865,0.3128324747085571,-0.6608654260635376,0.0354696363210678,0.2751844823360443,0.0,0.0,-0.5977450609207153,-0.6926129460334778
