x_pos,y_pos,x_vel,y_vel,angle,ang_vel,leg_1,leg_2,main_booster,lat_booster
-0.0015101432800292,1.4034435749053955,-0.1530878245830536,-0.332293152809143,0.001846739440225,0.0364354774355888,0.0,0.0,-0.3830543756484985,0.8374462127685547
-0.002934742020443,1.3958053588867188,-0.1425467431545257,-0.3394784033298492,0.0019307277398183,0.0016807299107313,0.0,0.0,-0.2125240564346313,-0.2513309717178345
-0.0043440819717943,1.3879857063293457,-0.1411029547452926,-0.3475443124771118,0.0020953817293047,0.0032932709436863,0.0,0.0,-0.1419392824172973,0.6762511730194092
-0.005694770719856,1.379982829093933,-0.134218156337738,-0.3556810617446899,0.0012650506105273,-0.0166081581264734,0.0,0.0,-0.290427565574646,0.613048791885376
-0.0069698332808911,1.3718011379241943,-0.1252580881118774,-0.3636322021484375,-0.0009589563705958,-0.0444842688739299,0.0,0.0,-0.295099139213562,0.2801661491394043
-0.0082270624116063,1.3634384870529177,-0.1235482320189476,-0.3716752231121063,-0.0031059456523507,-0.0429437272250652,0.0,0.0,0.2472994327545166,0.0892599821090698
-0.0094813350588083,1.3555490970611572,-0.1232398748397827,-0.3506498336791992,-0.0052596451714634,-0.0430780127644538,0.0,0.0,-0.3048579692840576,-0.2993795275688171
-0.0107159614562988,1.3474787473678589,-0.1213596239686012,-0.3586980402469635,-0.0073399320244789,-0.0416094809770584,0.0,0.0,-0.4029343724250793,0.0877621173858642
-0.0119302747771143,1.3392271995544434,-0.1193952783942222,-0.3667391240596771,-0.0093487026169896,-0.0401791706681251,0.0,0.0,-0.5135366916656494,0.468845009803772
-0.0131234172731637,1.3307949304580688,-0.1173477992415428,-0.3747814297676086,-0.0112877860665321,-0.0387855470180511,0.0,0.0,-0.3116673827171325,0.7147090435028076
-0.0142301563173532,1.322181224822998,-0.1071440204977989,-0.3828629553318023,-0.0147777693346142,-0.0698063299059867,0.0,0.0,-0.7464666962623596,0.5084786415100098
-0.0152692794799804,1.3133848905563354,-0.0993128791451454,-0.3910086452960968,-0.0193272586911916,-0.090998500585556,0.0,0.0,-0.6240872144699097,0.5913784503936768
-0.0162281040102243,1.304409146308899,-0.0898997113108635,-0.3990103006362915,-0.0252383910119533,-0.1182333678007125,0.0,0.0,-0.821556568145752,-0.4785031080245971
-0.0171624179929494,1.2952529191970823,-0.0875200182199478,-0.4070559442043304,-0.0310873612761497,-0.1169900521636009,0.0,0.0,-0.357500672340393,-0.2524502873420715
-0.0180716514587402,1.285916090011597,-0.0850645154714584,-0.4151014983654022,-0.0368772335350513,-0.1158081069588661,0.0,0.0,-0.8830750584602356,-0.5718870162963867
-0.0189920421689748,1.276394009590149,-0.0871803686022758,-0.423331469297409,-0.0416825450956821,-0.0961150154471397,0.0,0.0,-0.736591637134552,0.1959855556488037
-0.0198858268558979,1.2666912078857422,-0.0845813676714897,-0.4313763082027435,-0.0464342087507247,-0.095041923224926,0.0,0.0,-0.910045325756073,-0.3187046647071838
-0.0207524299621582,1.256807804107666,-0.0819119736552238,-0.4394210875034332,-0.0511344261467456,-0.0940128117799758,0.0,0.0,-0.8761352896690369,0.0389876365661621
-0.0215910915285348,1.2467435598373413,-0.0791745036840438,-0.4474659860134125,-0.0557862929999828,-0.0930455848574638,0.0,0.0,-0.5122019648551941,-0.637356698513031
-0.022458266466856,1.2365028858184814,-0.0835242718458175,-0.4552585482597351,-0.0589566715061664,-0.0634131506085395,0.0,0.0,-0.9750245213508606,-0.0185903906822204
-0.0232964511960744,1.2260814905166626,-0.0806622356176376,-0.4633026123046875,-0.0620857663452625,-0.0625872761011123,0.0,0.0,-0.7758881449699402,-0.3308084011077881
-0.0241050720214843,1.2154792547225952,-0.0777390450239181,-0.4713467955589294,-0.0651759952306747,-0.0618102476000785,0.0,0.0,-0.7534864544868469,-0.587594211101532
-0.0249198917299509,1.2046988010406494,-0.0793245434761047,-0.479228526353836,-0.0673142150044441,-0.0427682921290397,0.0,0.0,-0.9628876447677612,-0.1810021996498108
-0.0257041938602924,1.193737506866455,-0.0762902721762657,-0.4872722625732422,-0.0694214776158332,-0.0421490781009197,0.0,0.0,-0.7596076726913452,-0.694415271282196
-0.02652483060956,1.18260395526886,-0.0816920846700668,-0.4948369264602661,-0.069792054593563,-0.0074121630750596,0.0,0.0,-0.6873146891593933,-0.2098720073699951
-0.0273149497807025,1.1712682247161863,-0.0786586254835128,-0.5038315057754517,-0.0701395571231842,-0.0069501637481153,0.0,0.0,-0.8347848653793335,-0.2066134810447693
-0.0280730240046978,1.159751296043396,-0.075479157269001,-0.511872410774231,-0.0704675018787384,-0.0065588131546974,0.0,0.0,-0.8766689300537109,0.0816402435302734
-0.0287988670170307,1.1480536460876465,-0.0722551569342613,-0.519913375377655,-0.0707797855138778,-0.0062461718916893,0.0,0.0,-0.9443714022636414,-0.0416334867477417
-0.0294917114078998,1.1361750364303589,-0.0689896196126937,-0.5279543399810791,-0.0710805281996727,-0.0060147317126393,0.0,0.0,-0.9454108476638794,0.0971126556396484
-0.0301515571773052,1.1241153478622437,-0.0656855553388595,-0.5359954237937927,-0.0713738724589347,-0.0058670830912888,0.0,0.0,-0.8892356753349304,-0.4920065402984619
-0.0307779312133789,1.11187481880188,-0.0623460710048675,-0.5440365076065063,-0.0716641470789909,-0.0058053191751241,0.0,0.0,-0.8454848527908325,-0.6616562604904175
-0.0314298644661903,1.0994558334350586,-0.0663922876119613,-0.5518945455551147,-0.0704690590500831,0.0239016562700271,0.0,0.0,-0.5608525276184082,0.0377722978591918
-0.0320477485656738,1.0868561267852783,-0.0629913955926895,-0.5599358081817627,-0.0692798122763633,0.0237851031124591,0.0,0.0,-0.9278557896614076,0.1281626224517822
-0.0326314941048622,1.0740753412246704,-0.0595646277070045,-0.5679770708084106,-0.0681009590625763,0.0235767979174852,0.0,0.0,-0.8895197510719299,-0.566406786441803
-0.0332242958247661,1.0611193180084229,-0.061569444835186,-0.5757178068161011,-0.0658397153019905,0.045225016772747,0.0,0.0,-0.93229740858078,0.2312395572662353
-0.0337825790047645,1.0479825735092163,-0.058100838214159,-0.5837594270706177,-0.0635982528328895,0.0448293313384056,0.0,0.0,-0.8707330822944641,0.3967981338500976
-0.0343063361942768,1.0346651077270508,-0.0546163544058799,-0.5918009877204895,-0.0613813176751136,0.0443388298153877,0.0,0.0,-0.9111561179161072,0.2064912319183349
-0.0347953811287879,1.0211665630340576,-0.0511194057762622,-0.5998426675796509,-0.0591936632990837,0.0437531657516956,0.0,0.0,-0.976524293422699,-0.3689781427383423
-0.0352498069405555,1.007487177848816,-0.0476134903728961,-0.6078842878341675,-0.0570400282740592,0.0430724769830703,0.0,0.0,-0.9140704274177552,0.5261824131011963
-0.03562593460083,0.9936239719390868,-0.0386383309960365,-0.6161040663719177,-0.0560214295983314,0.0203718822449445,0.0,0.0,-0.7257578372955322,-0.3312698006629944
-0.0359673500061035,0.9795799255371094,-0.035125158727169,-0.6241454482078552,-0.0550462901592254,0.0195030067116022,0.0,0.0,-0.8642591238021851,0.0230122804641723
-0.0362740531563758,0.9653549194335938,-0.0316138416528701,-0.632186770439148,-0.0541192032396793,0.0185417998582124,0.0,0.0,-0.9414097666740416,-0.0213579535484313
-0.0365462303161621,0.9509491324424744,-0.0281081106513738,-0.6402281522750854,-0.053244698792696,0.0174899883568286,0.0,0.0,-0.9073740243911744,0.0666636228561401
-0.0367841720581054,0.9363624453544616,-0.0246117748320102,-0.648269534111023,-0.0524272210896015,0.0163495875895023,0.0,0.0,-0.7818127274513245,-0.3921751976013183
-0.0369877815246582,0.921594738960266,-0.0211287066340446,-0.6563109159469604,-0.0516710504889488,0.015123089775443,0.0,0.0,-0.9377492666244508,-0.4518985748291015
-0.0371574386954307,0.9066463112831116,-0.0176628641784191,-0.6643523573875427,-0.0509803928434848,0.0138132199645042,0.0,0.0,-0.90817791223526,-0.261457622051239
-0.0372933372855186,0.891516923904419,-0.0142182828858494,-0.6723938584327698,-0.0503592304885387,0.012423001229763,0.0,0.0,-0.9021480679512024,0.0174298286437988
-0.0373957641422748,0.8762067556381226,-0.0107990847900509,-0.680435299873352,-0.0498114489018917,0.010955742560327,0.0,0.0,-0.921036958694458,-0.6274973154067993
-0.0375253669917583,0.8607257604598999,-0.0149850603193044,-0.6879785656929016,-0.0478160716593265,0.0399076975882053,0.0,0.0,-0.8272188305854797,0.0434625148773193
-0.0376222617924213,0.8450639247894287,-0.011629382148385,-0.6960203647613525,-0.0459012314677238,0.0382969975471496,0.0,0.0,-0.9062261581420898,0.2855491638183594
-0.0376869216561317,0.8292213082313538,-0.0083120074123144,-0.7040620446205139,-0.0440702140331268,0.0366203226149082,0.0,0.0,-0.8280812501907349,-0.1571047306060791
-0.0377196297049522,0.8131978511810303,-0.0050374446436762,-0.7121036648750305,-0.0423261374235153,0.0348815023899078,0.0,0.0,-0.6911167502403259,0.5311557054519653
-0.0376714691519737,0.7969874739646912,0.0044075613841414,-0.7204524874687195,-0.0419209375977516,0.0081039750948548,0.0,0.0,-0.8128514885902405,-0.1616367101669311
-0.0375925078988075,0.7805961966514587,0.0075825764797627,-0.7284939289093018,-0.0416082888841629,0.006252977065742,0.0,0.0,-0.7254501581192017,-0.465308666229248
-0.037483312189579,0.764024019241333,0.0107006160542368,-0.7365352511405945,-0.0413906946778297,0.0043519879691302,0.0,0.0,-0.6357670426368713,-0.8111081719398499
-0.0374188423156738,0.7472718954086304,0.0044231587089598,-0.7444797158241272,-0.0394013486802578,0.0397868044674396,0.0,0.0,-0.7299510836601257,0.5274412631988525
-0.0372773185372352,0.7303410768508911,0.0134754078462719,-0.7524648904800415,-0.0387238971889019,0.0135491043329238,0.0,0.0,-0.5143347382545471,0.2719442844390869
-0.0371074676513671,0.7132294178009033,0.0163924284279346,-0.760506272315979,-0.0381478108465671,0.0115218395367264,0.0,0.0,-0.2698038220405578,0.6448791027069092
-0.0368528366088867,0.6959402561187744,0.0264417566359043,-0.7684355974197388,-0.0391159653663635,-0.0193631779402494,0.0,0.0,-0.3670774698257446,-0.5541675686836243
-0.0366209037601947,0.6784778833389282,0.0230174977332353,-0.776100754737854,-0.0389462672173976,0.0033942181617021,0.0,0.0,-0.4071260690689087,0.0074890851974487
-0.036363411694765,0.6608346700668335,0.0256860200315713,-0.7841421365737915,-0.0388825051486492,0.0012749130837619,0.0,0.0,-0.2044926881790161,-0.1788361072540283
-0.036081314086914,0.6430104970932007,0.0282606594264507,-0.792183518409729,-0.038925901055336,-0.0008679671445861,0.0,0.0,-0.1984362602233886,-0.4831488132476806
-0.0357754714787006,0.6250056624412537,0.0307357423007488,-0.8002249002456665,-0.0390774607658386,-0.0030311066657304,0.0,0.0,-0.0985671281814575,-0.1130636930465698
-0.0354471206665039,0.6068198084831238,0.0331055149435997,-0.8082663416862488,-0.0393380112946033,-0.0052112303674221,0.0,0.0,-0.2598942518234253,-0.4876512289047241
-0.0350972190499305,0.5884531140327454,0.0353641435503959,-0.8163077235221863,-0.039708275347948,-0.0074052577838301,0.0,0.0,0.1270828247070312,-0.4057068824768066
-0.0347954742610454,0.5705148577690125,0.0310646053403615,-0.7972777485847473,-0.0405794493854045,-0.0174236930906772,0.0,0.0,0.3297475576400757,-0.7077136635780334
-0.0344830527901649,0.553438663482666,0.0307768024504184,-0.7589314579963684,-0.040122527629137,0.0091383168473839,0.0,0.0,-0.0487545728683471,-0.2352228760719299
-0.0341528877615928,0.5361815094947815,0.0326665975153446,-0.7669728994369507,-0.0397765412926673,0.0069198212586343,0.0,0.0,0.0837941169738769,-0.4729166626930237
-0.0337663665413856,0.5195818543434143,0.0383391603827476,-0.7377546429634094,-0.0394595935940742,0.0063386289402842,0.0,0.0,0.1341266632080078,-0.5138295292854309
-0.0334634780883789,0.5032927393913269,0.0291831400245428,-0.723932683467865,-0.0383710339665412,0.02177120372653,0.0,0.0,-0.715122640132904,-0.5423168540000916
-0.0331964492797851,0.4868278205394745,0.0244552958756685,-0.7317149639129639,-0.0361498445272445,0.0444235429167747,0.0,0.0,-0.4311126470565796,-0.2112432122230529
-0.0329174026846885,0.4701822400093078,0.025770703330636,-0.73975670337677,-0.0340394526720047,0.0422078110277652,0.0,0.0,0.6565704345703125,-0.7619993090629578
-0.0328011512756347,0.4546440839767456,0.0083485785871744,-0.6905115246772766,-0.0307961162179708,0.0648662745952606,0.0,0.0,-0.1710284948348999,-0.2432320117950439
-0.0326759330928325,0.4389252662658691,0.0093425912782549,-0.6985536813735962,-0.0276628863066434,0.0626649409532547,0.0,0.0,0.3672009706497192,-0.1914855241775512
-0.0325626358389854,0.4235121011734009,0.008405695669353,-0.6849789023399353,-0.0247682649642229,0.0578920356929302,0.0,0.0,0.2586151361465454,-0.6139041185379028
-0.0324291214346885,0.4082827270030975,0.0091912597417831,-0.6767975687980652,-0.0206605289131402,0.0821548551321029,0.0,0.0,0.7812297344207764,-0.1042777895927429
-0.0323184952139854,0.3934224843978882,0.0071748457849025,-0.6604039669036865,-0.0168187227100133,0.0768360570073127,0.0,0.0,0.5121016502380371,0.6550270318984985
-0.0321501716971397,0.3794751465320587,0.0143778640776872,-0.6198564171791077,-0.0144042260944843,0.0482902340590953,0.0,0.0,-0.1769271492958068,0.2754266262054443
-0.0319820418953895,0.3653469979763031,0.0144805368036031,-0.627898097038269,-0.0120964460074901,0.0461554378271102,0.0,0.0,0.8071386814117432,0.4063433408737182
-0.0319276824593544,0.3523811101913452,0.0037779782433062,-0.5762487053871155,-0.0104623939841985,0.0326812490820884,0.0,0.0,-0.0570109486579895,0.833153247833252
-0.0318255424499511,0.3392249941825866,0.0099845379590988,-0.5847174525260925,-0.0102344136685132,0.0045592542737722,0.0,0.0,0.4501979351043701,0.5252494812011719
-0.0316423401236534,0.3269321024417877,0.0191600881516933,-0.5463551878929138,-0.0110609466210007,-0.0165305007249116,0.0,0.0,0.1780165433883667,0.0213837623596191
-0.0315345749258995,0.3150750994682312,0.0120499478653073,-0.5269903540611267,-0.0123246181756258,-0.0252733435481786,0.0,0.0,0.536334753036499,0.1950521469116211
-0.0314799323678016,0.3039834797382355,0.0070895478129386,-0.4929743707180023,-0.0139259304851293,-0.0320263653993606,0.0,0.0,-0.3984503149986267,-0.1955572962760925
-0.0314371101558208,0.2927109897136688,0.0060058385133743,-0.5010157823562622,-0.0156279485672712,-0.0340403690934181,0.0,0.0,0.019087791442871,-0.0053728818893432
-0.0313488021492958,0.2817946672439575,0.0104065667837858,-0.4851886034011841,-0.0171807222068309,-0.0310556106269359,0.0,0.0,-0.1407175660133361,-0.2666019797325134
-0.0312763229012489,0.2706974148750305,0.0089153796434402,-0.4932299554347992,-0.0188318993896245,-0.0330233573913574,0.0,0.0,0.8075435161590576,-0.4841500520706177
-0.0311120990663766,0.2600770890712738,0.0177236907184124,-0.4720300734043121,-0.0201107636094093,-0.0255776904523372,0.0,0.0,0.3463256359100342,-0.4759258031845093
-0.0308384895324707,0.2499701529741287,0.0281890667974948,-0.4492078423500061,-0.0209310669451951,-0.016406001523137,0.0,0.0,-0.2680927515029907,-0.7665352821350098
-0.0306335445493459,0.2396779209375381,0.020234553143382,-0.4574288427829742,-0.0206750743091106,0.005119816865772,0.0,0.0,-0.0465496778488159,-0.6628779768943787
-0.0305054672062397,0.2292112857103347,0.0113013433292508,-0.4651640355587005,-0.0191816445440053,0.0298685934394598,0.0,0.0,0.216731309890747,0.2056398391723632
-0.0303696636110544,0.2194009125232696,0.0120522063225507,-0.4359972178936004,-0.0176752135157585,0.0301286280155181,0.0,0.0,0.3558486700057983,0.0548977851867675
-0.0301497466862201,0.2102279812097549,0.020074201747775,-0.4076631963253021,-0.0157871823757886,0.0377605035901069,0.0,0.0,-0.2122663259506225,-0.3885209560394287
-0.0299595836549997,0.2008742243051529,0.017196724191308,-0.4157046675682068,-0.0139891169965267,0.035961452871561,0.0,0.0,0.2820212841033935,-0.5426499247550964
-0.0298829078674316,0.1919325888156891,0.0049422401934862,-0.3973829448223114,-0.0112952608615159,0.0538768544793129,0.0,0.0,-0.3117038011550903,0.9309344291687012
-0.0297554023563861,0.1828197985887527,0.0122481985017657,-0.405009388923645,-0.0108000794425606,0.0099035454913973,0.0,0.0,0.1196359395980835,0.1122902631759643
-0.029674720019102,0.1741048395633697,0.0077382028102874,-0.3873279988765716,-0.0104644382372498,0.006712497677654,0.0,0.0,0.2392346858978271,0.4872705936431885
-0.0297178272157907,0.1661054193973541,-0.0041250539943575,-0.3555296063423157,-0.0106459213420748,-0.0036297824699431,0.0,0.0,0.0665936470031738,0.6222810745239258
-0.0296819694340229,0.1586022526025772,0.0050257598049938,-0.3334864377975464,-0.0120679521933197,-0.0284404810518026,0.0,0.0,-0.0769591927528381,-0.8440845608711243
-0.0297588352113962,0.1509255468845367,-0.0080156195908784,-0.3411827385425567,-0.0117451269179582,0.0064564757049083,0.0,0.0,-0.461051344871521,-0.646920919418335
-0.0299355499446392,0.1430736929178238,-0.0193932708352804,-0.3489603400230407,-0.0100410254672169,0.0340821221470832,0.0,0.0,-0.3228983879089355,-0.5662571787834167
-0.0302020069211721,0.1350397914648056,-0.029474189504981,,-0.0072454954497516,0.0559106990694999,0.0,0.0,-0.2352817058563232,0.2453327178955078
-0.0305129047483205,0.1268250793218612,-0.033842708915472,-0.3650880753993988,-0.0045299846678972,0.0543101802468299,0.0,0.0,0.1833884716033935,0.9002799987792969
-0.0309223178774118,0.1189905256032943,-0.041745476424694,-0.348199188709259,-0.0037351089995354,0.015897462144494,0.0,0.0,0.0064218044281005,0.8648951053619385
-0.0312321670353412,0.1116360500454902,-0.0299671739339828,-0.326869934797287,-0.0047422815114259,-0.0201434381306171,0.0,0.0,-0.2730746269226074,0.8186492919921875
-0.0315191261470317,0.104093037545681,-0.0257747061550617,-0.3352572619915008,-0.0076205455698072,-0.0575652606785297,0.0,0.0,0.3865158557891845,0.3250666856765747
-0.0317290313541889,0.0973281487822532,-0.0185635946691036,-0.3006749749183655,-0.010012025013566,-0.047829769551754,0.0,0.0,-0.0695152878761291,0.7849397659301758
-0.0319297797977924,0.0903881639242172,-0.0160561949014663,-0.3084763288497925,-0.0139803700149059,-0.0793670639395713,0.0,0.0,0.0618101358413696,-0.7746453881263733
-0.032129667699337,0.0840991362929344,-0.017509227618575,-0.279537558555603,-0.0164232291281223,-0.0488573834300041,0.0,0.0,-0.4170969128608703,-0.2868013381958008
-0.0323822982609272,0.0776292905211448,-0.0227136556059122,-0.2875791788101196,-0.0189398471266031,-0.0503324270248413,0.0,0.0,-0.0413523316383361,0.3713371753692627
-0.0326887145638465,0.0709786266088485,-0.0280145741999149,-0.295620858669281,-0.0215294118970632,-0.0517914108932018,0.0,0.0,0.4543262720108032,0.4574748277664184
-0.0329813957214355,0.0651850551366806,-0.0268230773508548,-0.2575280368328094,-0.0239441487938165,-0.0482948161661624,0.0,0.0,0.0024154186248779,0.9677393436431884
-0.0331872925162315,0.0596182905137538,-0.0160914920270442,-0.2474923878908157,-0.0283867884427309,-0.0888528600335121,0.0,0.0,-0.3648779392242431,0.2800508737564087
-0.0334494598209857,0.053870853036642,-0.0216506943106651,-0.2555352449417114,-0.0329000726342201,-0.090265542268753,0.0,0.0,0.1657352447509765,0.3362083435058594
-0.0338473320007324,0.0484918467700481,-0.0347185470163822,-0.2391878217458725,-0.0379022322595119,-0.10004323720932,0.0,0.0,0.1347444057464599,0.8747639656066895
-0.0342363342642784,0.0435093007981777,-0.0319978184998035,-0.2216356843709945,-0.044720035046339,-0.1363560259342193,0.0,0.0,-0.0237795114517211,0.6928088665008545
-0.034626580774784,0.0383415780961513,-0.0306073240935802,-0.2299514710903167,-0.0530443340539932,-0.1664858162403106,0.0,0.0,0.2728862762451172,0.1600635051727295
-0.0349607467651367,0.0334008075296878,-0.0253987070173025,-0.2198935449123382,-0.0609708763659,-0.1585306078195572,0.0,0.0,0.476980447769165,-0.0538234114646911
-0.0352302566170692,0.0291873067617416,-0.0192794632166624,-0.1876011341810226,-0.0685613080859184,-0.1518088728189468,0.0,0.0,-0.0090482831001281,0.1108425855636596
-0.0355600342154502,0.0247936341911554,-0.0252321250736713,-0.1956473439931869,-0.0762179642915725,-0.1531331837177276,0.0,0.0,0.2813304662704468,0.259113073348999
