x_pos,y_pos,x_vel,y_vel,angle,ang_vel,leg_1,leg_2,main_booster,lat_booster
-0.0014596938854083,1.403510332107544,-0.1480359882116317,-0.3293312788009643,0.00184086128138,0.0363186858594417,0.0,0.0,-0.4359996318817138,0.4228770732879638
-0.0028554915916174,1.396009087562561,-0.141497328877449,-0.3333843946456909,0.0037393940147012,0.0379751548171043,0.0,0.0,0.3412761688232422,0.9597697257995604
-0.0039877891540527,1.388879418373108,-0.1134286522865295,-0.3168788254261017,0.003937610425055,0.0039647505618631,0.0,0.0,-0.5817384719848633,0.7945449352264404
-0.0050057410262525,1.3816328048706057,-0.1008140444755554,-0.3220658898353576,0.0029655413236469,-0.0194430407136678,0.0,0.0,-0.1378658413887024,0.0888614654541015
-0.0059596062637865,1.374272108078003,-0.0944900140166282,-0.3271446526050567,0.0020777746103703,-0.0177569650113582,0.0,0.0,-0.43880295753479,-0.2348945140838623
-0.0068494798615574,1.3667970895767212,-0.0881692618131637,-0.3322247564792633,0.0012669404968619,-0.0162182357162237,0.0,0.0,-0.8110236525535583,0.3132731914520263
-0.0076755522750318,1.3592076301574707,-0.081852950155735,-0.3373056352138519,0.0005264387000352,-0.0148116396740078,0.0,0.0,-0.6748167872428894,0.6202075481414795
-0.0083769802004098,1.3515057563781738,-0.0679007172584533,-0.3423036634922027,-0.0016827068757265,-0.044187031686306,0.0,0.0,-0.8196254968643188,-0.226215124130249
-0.00901460647583,1.3436895608901978,-0.0615922324359416,-0.3473851084709167,-0.0038344992790371,-0.043039571493864,0.0,0.0,-0.6309463977813721,-0.1367515921592712
-0.0095889093354344,1.3357594013214111,-0.0552926361560821,-0.3524662852287292,-0.0059368074871599,-0.0420502014458179,0.0,0.0,-0.3741540908813476,-0.5790114998817444
-0.0101388934999704,1.327715516090393,-0.0539081022143363,-0.3575097918510437,-0.0070128701627254,-0.021523330360651,0.0,0.0,-0.9278553128242492,0.0255117416381835
-0.0106258392333984,1.3195573091506958,-0.0476323887705802,-0.3625908493995666,-0.008053527213633,-0.0208153761923313,0.0,0.0,-0.7629332542419434,-0.6293387413024902
-0.0110885621979832,1.3112884759902954,-0.04624729976058,-0.3675028085708618,-0.008086790330708,-0.0006651664152741,0.0,0.0,-0.8558490872383118,0.2230226993560791
-0.0114886285737156,1.3029054403305054,-0.0400013625621795,-0.3725838363170624,-0.0080984206870198,-0.000232525751926,0.0,0.0,-0.8773041367530823,-0.0832706093788147
-0.0118263242766261,1.294407844543457,-0.0337710119783878,-0.3776649236679077,-0.0080944998189806,7.845427899155766e-05,0.0,0.0,-0.9109213948249816,0.2730609178543091
-0.0121018411591649,1.285796046257019,-0.0275582373142242,-0.3827460706233978,-0.0080818310379982,0.0002531479112803,0.0,0.0,-0.8450719714164734,-0.514645516872406
-0.0123465536162257,1.2770763635635376,-0.0252926889806985,-0.3875397145748138,-0.0072789788246154,0.0160587318241596,0.0,0.0,-0.8191450834274292,-0.2663708925247192
-0.0125296590849757,1.2682422399520874,-0.0191225688904523,-0.3926210403442383,-0.0064807585440576,0.015966061502695,0.0,0.0,-0.9087908267974854,-0.726300060749054
-0.0126995090395212,1.2593013048171997,-0.0190088041126728,-0.3973715007305145,-0.0044831940904259,0.0399549268186092,0.0,0.0,-0.4987064599990845,-0.4148811101913452
-0.0128084179013967,1.2502460479736328,-0.0128902029246091,-0.4024530947208404,-0.0025029857642948,0.039607785642147,0.0,0.0,-0.965590476989746,-0.758733332157135
-0.0129039762541651,1.2410823106765747,-0.012726898305118,-0.4072784185409546,0.0006427028565667,0.0629190728068351,0.0,0.0,-0.831214427947998,-0.2784411311149597
-0.0129391672089695,1.231804132461548,-0.0066681066527962,-0.4123603701591491,0.003759142011404,0.0623343884944915,0.0,0.0,-0.9463518261909484,-0.2849875688552856
-0.012914371676743,1.2224119901657104,-0.0006405666936188,-0.4174425005912781,0.0068414993584156,0.0616524741053581,0.0,0.0,-0.912394642829895,-0.1422908306121826
-0.0128301624208688,1.2129056453704834,0.0053527127020061,-0.4225247204303741,0.009884150698781,0.060858316719532,0.0,0.0,-0.893059492111206,-0.0861485004425048
-0.0126868244260549,1.2032849788665771,0.0113092334941029,-0.4276069402694702,0.0128819271922111,0.0599607899785041,0.0,0.0,-0.8669058084487915,-0.0306694507598876
-0.0124844554811716,1.193528652191162,0.0172452665865421,-0.4336426854133606,0.0158301945775747,0.0589652732014656,0.0,0.0,-0.9350086450576782,0.6190739870071411
-0.0121747013181447,1.1836631298065186,0.029309531673789,-0.4384855031967163,0.0174856167286634,0.0331083461642265,0.0,0.0,-0.9489818215370178,-0.3093516826629638
-0.0118070598691701,1.1736832857131958,0.0351465120911598,-0.4435648322105407,0.0190833769738674,0.0319551900029182,0.0,0.0,-0.8848105072975159,-0.3806490898132324
-0.0113821979612112,1.1635892391204834,0.0409344471991062,-0.4486441314220428,0.0206197053194046,0.0307266116142272,0.0,0.0,-0.9762974977493286,-0.6087455153465271
-0.0109503744170069,1.1533771753311155,0.0404192097485065,-0.4539113342761993,0.023344112560153,0.0544878654181957,0.0,0.0,-0.909551441669464,0.4757959842681885
-0.0104624750092625,1.1430509090423584,0.0460986979305744,-0.4589910507202148,0.0260003227740526,0.0531243756413459,0.0,0.0,-0.8566079139709473,0.3989698886871338
-0.0099191665649414,1.132610321044922,0.0517184361815452,-0.4640706777572632,0.0285854171961545,0.0517017841339111,0.0,0.0,-0.7872617244720459,0.1640036106109619
-0.0093209268525242,1.1220555305480957,0.0572745092213153,-0.469150185585022,0.0310967117547988,0.0502261631190776,0.0,0.0,-0.8558701872825623,-0.3261345624923706
-0.008668708615005,1.11138653755188,0.062762826681137,-0.4742297232151031,0.0335318408906459,0.0487027168273925,0.0,0.0,-0.850246012210846,0.079757809638977
-0.0079629896208643,1.1006033420562744,0.0681791454553604,-0.4793091714382171,0.0358887389302253,0.047137901186943,0.0,0.0,-0.9060075283050536,-0.0283407568931579
-0.0072048185393214,1.0897058248519895,0.0735190287232399,-0.484388530254364,0.0381656400859355,0.0455379858613014,0.0,0.0,-0.7231068015098572,0.1623460054397583
-0.0063948631286621,1.0786941051483154,0.0787778943777084,-0.4894678890705108,0.0403611063957214,0.0439093150198459,0.0,0.0,-0.7630226016044617,-0.11395263671875
-0.005533886142075,1.067568063735962,0.0839509814977645,-0.4945471882820129,0.042474016547203,0.0422584079205989,0.0,0.0,-0.8758138418197632,0.3805971145629883
-0.0046230317093431,1.0563278198242188,0.0890334248542785,-0.4996264278888702,0.0445036180317401,0.040591899305582,0.0,0.0,-0.9185024499893188,-0.1844425201416015
-0.0036631585098803,1.044973373413086,0.094020165503025,-0.5047056078910828,0.0464494489133358,0.0389165990054607,0.0,0.0,-0.7584575414657593,-0.1549993157386779
-0.0026552199851721,1.033504605293274,0.0989060401916503,-0.5097848176956177,0.0483114086091518,0.0372392758727073,0.0,0.0,-0.9338412284851074,-0.1503866910934448
-0.0016003608470782,1.0219215154647827,0.1036857962608337,-0.514863908290863,0.0500897578895092,0.035566933453083,0.0,0.0,-0.8096504807472229,-0.5921218395233154
-0.0005386352422647,1.0102145671844482,0.1034511104226112,-0.5203981995582581,0.0527743957936763,0.053692776709795,0.0,0.0,-0.8960756659507751,-0.2524782419204712
0.0005677223089151,0.9983935952186584,0.1080025285482406,-0.5254776477813721,0.0553769767284393,0.0520516261458396,0.0,0.0,-0.8938295245170593,-0.1947180032730102
0.001717472099699,0.9864582419395448,0.1124315708875656,-0.5305569767951965,0.0578988268971443,0.0504368022084236,0.0,0.0,-0.9410058259963988,-0.5101714730262756
0.0028725625015795,0.9744002223014832,0.1120812743902206,,0.0612805895507335,0.0676354840397834,0.0,0.0,-0.9215079545974731,-0.2595968246459961
0.0040684700943529,0.962228000164032,0.116249218583107,-0.5411273837089539,0.0645853504538536,0.0660951361060142,0.0,0.0,-0.7137537598609924,-0.5341501832008362
0.0052536008879542,0.9499424695968628,0.1139734014868736,-0.546223521232605,0.0690758675336837,0.089810624718666,0.0,0.0,-0.8920279145240784,-0.2367768287658691
0.0064767836593091,0.9375427961349488,0.1178586855530738,-0.551304042339325,0.0734945833683013,0.0883741900324821,0.0,0.0,-0.9159459471702576,-0.3484907746315002
0.0077366828918457,0.9250290989875792,0.1215947270393371,-0.5563844442367554,0.0778446197509765,0.0870008543133735,0.0,0.0,-0.9011359214782716,-0.5649508833885193
0.0089977262541651,0.9123972654342652,0.1209168061614036,-0.5616931915283203,0.0829867199063301,0.1028418764472007,0.0,0.0,-0.9355931878089904,-0.2418371438980102
0.0102924350649118,0.8996514081954956,0.1243395656347274,-0.5667742490768433,0.0880675613880157,0.1016167029738426,0.0,0.0,-0.8685073256492615,0.3916995525360107
0.0116191860288381,0.8867916464805603,0.1275986284017563,-0.5718551874160767,0.0930913984775543,0.1004767045378685,0.0,0.0,-0.9753032326698304,-0.260840892791748
0.0129761695861816,0.8738178014755249,0.130689650774002,-0.5769360661506653,0.0980628430843353,0.0994291454553604,0.0,0.0,-0.92195725440979,0.1087150573730468
0.0143619533628225,0.8607300519943237,0.1336086094379425,-0.5820170640945435,0.1029869019985199,0.0984813347458839,0.0,0.0,-0.9836822748184204,-0.3034695386886596
0.0157747268676757,0.8475279808044434,0.1363518685102462,-0.5870979428291321,0.1078689023852348,0.0976403653621673,0.0,0.0,-0.9629682898521424,-0.2611219882965088
0.0172125808894634,0.834212064743042,0.1389161646366119,-0.5921787619590759,0.1127145737409591,0.0969132781028747,0.0,0.0,-0.9557498693466188,-0.4934777021408081
0.0186739917844533,0.8207821249961853,0.1412986367940902,-0.5972596406936646,0.117529921233654,0.0963070392608642,0.0,0.0,-0.9081782698631288,0.5541164875030518
0.0202055927366018,0.8072523474693298,0.1495954543352127,-0.6016050577163696,0.1210757866501808,0.070917323231697,0.0,0.0,-0.8514455556869507,-0.3687005043029785
0.0217571258544921,0.7936086058616638,0.1516073048114776,-0.6066851019859314,0.1246044561266899,0.0705731883645057,0.0,0.0,-0.90235698223114,0.0732935667037963
0.0233267787843942,0.7798506617546082,0.1534314751625061,-0.6117652654647827,0.128122940659523,0.0703698247671127,0.0,0.0,-0.8828622102737427,0.0786153078079223
0.0249127391725778,0.7659786939620972,0.1550669819116592,-0.6168454885482788,0.131638616323471,0.0703137069940567,0.0,0.0,-0.840601921081543,0.7696506977081299
0.0265861507505178,0.752004861831665,0.165661484003067,-0.6212054491043091,0.1333072334527969,0.0333727747201919,0.0,0.0,-0.9589676856994628,-0.7863295078277588
0.0282129291445016,0.7379061579704285,0.1594719588756561,-0.626898467540741,0.1364975571632385,0.0638063251972198,0.0,0.0,-0.3631871938705444,-0.1113075613975524
0.0298505779355764,0.723693311214447,0.1605406105518341,-0.6319788098335266,0.1397089511156082,0.0642276108264923,0.0,0.0,-0.8659769296646118,0.7861161231994629
0.0315461158752441,0.7093770503997803,0.167559340596199,-0.6364637613296509,0.1417014151811599,0.0398489348590374,0.0,0.0,-0.8119603991508484,-0.0656005144119262
0.0332490913569927,0.6949467658996582,0.1682542562484741,-0.6415437459945679,0.1437322199344635,0.0406162291765213,0.0,0.0,-0.837576687335968,-0.6462255716323853
0.0349146835505962,0.680385172367096,0.163352757692337,-0.6474927663803101,0.1469302475452423,0.0639607533812522,0.0,0.0,-0.7238513231277466,0.5492913722991943
0.0366283431649208,0.6657258868217468,0.1692590117454528,-0.6517375707626343,0.1490337252616882,0.042069923132658,0.0,0.0,-0.4618371725082397,0.4150469303131103
0.0383441932499408,0.6509523987770081,0.1694092750549316,-0.6568180322647095,0.1512033194303512,0.0433918014168739,0.0,0.0,-0.851798951625824,-0.0214343667030334
0.0400605201721191,0.6360647678375244,0.1693839132785797,-0.6618985533714294,0.1534486562013626,0.0449067912995815,0.0,0.0,-0.6216812133789062,0.2835495471954345
0.041775606572628,0.6210631728172302,0.1691864877939224,-0.666979193687439,0.1557795852422714,0.0466184243559837,0.0,0.0,-0.4037781357765198,-0.277489960193634
0.0434881225228309,0.6059475541114807,0.1688208878040313,-0.6720601320266724,0.1582060754299163,0.0485299751162529,0.0,0.0,-0.7660830020904541,-0.3526744246482849
0.0451964363455772,0.5907179713249207,0.1682913452386856,-0.6771411895751953,0.1607382893562317,0.0506442375481128,0.0,0.0,-0.4333098530769348,-0.4345457553863525
0.0468988418579101,0.5753744840621948,0.1676023155450821,-0.6822224855422974,0.1633864790201187,0.0529635921120643,0.0,0.0,-0.5202063322067261,0.3617242574691772
0.0485941879451274,0.5599170923233032,0.166758507490158,-0.6873039603233337,0.1661609858274459,0.0554900541901588,0.0,0.0,-0.1641817688941955,-0.6733840107917786
0.0502264983952045,0.5443253517150879,0.1588969826698303,-0.6934563517570496,0.1704956889152526,0.0866942703723907,0.0,0.0,-0.1918597221374511,0.8550448417663574
0.0519135482609272,0.5286443829536438,0.1659245789051056,-0.697253406047821,0.1732834726572036,0.055755466222763,0.0,0.0,0.5732686519622803,-0.23013436794281
0.0535305961966514,0.5140171051025391,0.1584109961986541,-0.6504870653152466,0.1765815764665603,0.0659623369574546,0.0,0.0,0.0054223537445068,0.4301958084106445
0.0549805648624897,0.4999926686286926,0.1418547332286834,-0.6236875653266907,0.179732084274292,0.0630101934075355,0.0,0.0,-0.268326997756958,0.9569616317749025
0.0564764961600303,0.4858606457710266,0.1477723270654678,-0.628312885761261,0.1815610080957412,0.0365783497691154,0.0,0.0,-0.4338091015815735,0.2130929231643676
0.057957649230957,0.4716147482395172,0.1461072266101837,-0.6333951950073242,0.1835793107748031,0.0403660349547863,0.0,0.0,-0.1050453782081604,0.6034022569656372
0.0594618804752826,0.4572660028934479,0.149225577712059,-0.6378733515739441,0.1847906708717346,0.0242273081094026,0.0,0.0,0.3440289497375488,0.7836332321166992
0.0608591064810752,0.4436229467391968,0.1399357914924621,-0.6063308119773865,0.1845746785402298,-0.0043199211359024,0.0,0.0,0.2641444206237793,0.5938491821289062
0.0621761307120323,0.4306682348251343,0.1329033523797989,-0.5756158828735352,0.1833671182394027,-0.0241510849446058,0.0,0.0,0.2289996147155761,0.5705115795135498
0.0635099411010742,0.4182701110839844,0.1353643536567688,-0.5507846474647522,0.1813801378011703,-0.0397396348416805,0.0,0.0,0.649899959564209,-0.8568184971809387
0.0647229179739952,0.406243085861206,0.1212779730558395,-0.5345330834388733,0.181399792432785,0.0003929579106625,0.0,0.0,-0.6509602069854736,0.5731608867645264
0.0659673660993576,0.3941124975681305,0.1254980266094207,-0.5390095114707947,0.1803463399410247,-0.0210691951215267,0.0,0.0,-0.250492513179779,0.3677084445953369
0.0671906471252441,0.3818682432174682,0.1231206804513931,-0.5440927743911743,0.1795535236597061,-0.0158562175929546,0.0,0.0,-0.0594477653503418,0.0916001796722412
0.0683920830488205,0.3695103526115417,0.1206629425287246,-0.549176037311554,0.1790310144424438,-0.0104505280032753,0.0,0.0,0.5318351984024048,0.4966475963592529
0.0694417953491211,0.3580656051635742,0.1052352041006088,-0.5086234211921692,0.1787638664245605,-0.0053429929539561,0.0,0.0,0.3336634635925293,-0.0736808180809021
0.0703840255737304,0.3474177420139313,0.0940888002514839,-0.4732530415058136,0.1789011508226394,0.0027457568794488,0.0,0.0,0.1877181529998779,0.7601268291473389
0.0713763236999511,0.3374103307723999,0.1002176254987716,-0.4446583390235901,0.1779092401266098,-0.0198381450027227,0.0,0.0,0.1805202960968017,0.4132305383682251
0.0723741501569747,0.3276528120040893,0.100122258067131,-0.4336269199848175,0.1775573939085006,-0.0070367716252803,0.0,0.0,0.3891798257827759,0.2318191528320312
0.0732279792428016,0.3184021711349487,0.0856315866112709,-0.4111094772815704,0.1773164272308349,-0.0048192171379923,0.0,0.0,0.0496560335159301,0.4249142408370971
0.0740130394697189,0.3098616003990173,0.0781746134161949,-0.3796198964118957,0.1776477694511413,0.0066267349757254,0.0,0.0,0.4127845764160156,0.3450813293457031
0.0746669769287109,0.3019207715988159,0.0648242309689521,-0.3529927432537079,0.1782184839248657,0.0114142782986164,0.0,0.0,0.6446954011917114,0.3882580995559692
0.0750328078866005,0.295002669095993,0.0362448096275329,-0.3075133562088012,0.1785555183887481,0.0067407479509711,0.0,0.0,0.4025121927261352,0.871361494064331
0.0754170417785644,0.2888905107975006,0.0393919609487056,-0.2715324461460113,0.1775787025690078,-0.0195364523679018,0.0,0.0,-0.81065434217453,0.7904257774353027
0.0758300796151161,0.2826857566833496,0.0433724299073219,-0.275524228811264,0.1755085289478302,-0.041403092443943,0.0,0.0,-0.6540130376815796,0.5336463451385498
0.0762519836425781,0.2763808369636535,0.0448087155818939,-0.2799091637134552,0.1728743463754654,-0.0526834949851036,0.0,0.0,-0.1185523867607116,0.3040106296539306
0.0766469985246658,0.2699626386165619,0.0417631529271602,-0.2849941849708557,0.1706080734729766,-0.0453254133462905,0.0,0.0,0.3643910884857178,0.5588216781616211
0.0768707245588302,0.264150321483612,0.0256204046308994,-0.257957398891449,0.1673673093318939,-0.0648157447576522,0.0,0.0,-0.6466647386550903,0.8825525045394897
0.0771193504333496,0.2582358717918396,0.0290433727204799,-0.262399673461914,0.1631820648908615,-0.0837049633264541,0.0,0.0,-0.4670077562332153,0.1627453565597534
0.0773407965898513,0.2522081136703491,0.0259491242468357,-0.2674855887889862,0.1593832373619079,-0.075976476073265,0.0,0.0,0.0896332263946533,-0.2756460905075073
0.0775365829467773,0.2464372217655182,0.0227925572544336,-0.2561453282833099,0.1561635881662368,-0.0643926560878753,0.0,0.0,-0.2289656400680542,0.7712223529815674
0.0777791962027549,0.2405765652656555,0.0290119461715221,-0.2599819004535675,0.1514227986335754,-0.0948162227869033,0.0,0.0,0.1263772249221801,0.1792607307434082
0.0778995528817176,0.2353837341070175,0.0164551325142383,-0.2303496301174163,0.1470123082399368,-0.0882097780704498,0.0,0.0,-0.7476321458816528,0.0654070377349853
0.0779929161071777,0.2300776094198227,0.0133497742936015,-0.2354354560375213,0.143009141087532,-0.0800633803009986,0.0,0.0,-0.7167156934738159,-0.1387102603912353
0.0780593901872634,0.224658265709877,0.0102507956326007,-0.2405209094285965,0.1394178420305252,-0.0718257576227188,0.0,0.0,-0.5491252541542053,-0.5453163981437683
0.0780554786324501,0.2191217541694641,0.0016847180668264,-0.245873361825943,0.1373429298400879,-0.0414982587099075,0.0,0.0,-0.2774366736412048,0.4125137329101562
0.0780249610543251,0.2134718000888824,-0.0013908941764384,-0.2509577572345733,0.1356882452964782,-0.033093687146902,0.0,0.0,-0.4625672101974487,-0.0796305537223815
0.0779680237174034,0.2077083438634872,-0.0044495188631117,-0.2560419738292694,0.1344576030969619,-0.0246131774038076,0.0,0.0,-0.2492291927337646,0.6840587854385376
0.0779276862740516,0.2018411755561828,-0.0021333768963813,-0.2605907320976257,0.1325647830963134,-0.0378565229475498,0.0,0.0,0.6568863391876221,0.1023039817810058
0.0776657089591026,0.1966026425361633,-0.0241322331130504,-0.2326418906450271,0.1305073052644729,-0.0411491468548774,0.0,0.0,-0.5230960845947266,-0.323016881942749
0.0773781761527061,0.191250666975975,-0.0271195955574512,-0.2377261817455291,0.1288838386535644,-0.0324696600437164,0.0,0.0,0.1923978328704834,-0.0156843066215515
0.0770345702767372,0.1863614618778228,-0.0332523174583911,-0.2172029465436935,0.127783864736557,-0.0219998881220817,0.0,0.0,-0.7584278583526611,0.3469141721725464
0.0766662582755088,0.1813587546348571,-0.0361759513616561,-0.2222869396209716,0.1271232962608337,-0.0132108647376298,0.0,0.0,-0.3211820125579834,0.7585680484771729
0.0763422027230262,0.1762591153383255,-0.0304094888269901,-0.226482093334198,0.1251429915428161,-0.0396063216030597,0.0,0.0,0.0412665605545043,-0.0079958438873291
0.0759464278817176,0.1718055158853531,-0.0381070226430892,-0.1978134512901306,0.1236797496676445,-0.029264798387885,0.0,0.0,0.2689857482910156,-0.485214352607727
0.0755459815263748,0.1676041632890701,-0.0392414703965187,-0.186661347746849,0.1228887438774108,-0.0158202666789293,0.0,0.0,-0.3211873173713684,-0.0346727967262268
0.0751225501298904,0.1632892489433288,-0.0420006178319454,-0.1917452365159988,0.1225455328822135,-0.0068643665872514,0.0,0.0,0.1189107894897461,0.3802782297134399
