x_pos,y_pos,x_vel,y_vel,angle,ang_vel,leg_1,leg_2,main_booster,lat_booster
-0.0014763831859454,1.4030057191848757,-0.1493835002183914,-0.3517438173294067,0.0015621341299265,0.0307997353374958,0.0,0.0,-0.2838501930236816,0.5648775100708008
-0.0028581619262695,1.3944934606552124,-0.1383147239685058,-0.3783254325389862,0.0016909214900806,0.0025767991319298,0.0,0.0,0.3843574523925781,0.2613418102264404
-0.0040832520462572,1.385870099067688,-0.1229985803365707,-0.3832620978355407,0.002174683380872,0.0096760466694831,0.0,0.0,-0.235093891620636,0.3515157699584961
-0.0052640913054347,1.3766279220581057,-0.1183933764696121,-0.4107629656791687,0.0024734046310186,0.0059752291999757,0.0,0.0,-0.0819184184074401,0.5727002620697021
-0.0063474653288722,1.366769313812256,-0.1070589572191238,-0.4381632208824157,0.0012111427495256,-0.0252477787435054,0.0,0.0,0.1271164417266845,0.5410785675048828
-0.007243919186294,1.3568472862243652,-0.0872946232557296,-0.4409773647785187,-0.0011043949052691,-0.0463153421878814,0.0,0.0,-0.6346697807312012,-0.3890792727470398
-0.0081002237275242,1.346306562423706,-0.0830980986356735,-0.4684756398200989,-0.0036082915030419,-0.0500825531780719,0.0,0.0,0.4555035829544067,-0.0730060935020446
-0.0087844850495457,1.336001753807068,-0.0663236305117607,-0.4579996168613434,-0.0056742848828434,-0.0413241051137447,0.0,0.0,-0.8140859007835388,-0.2799110412597656
-0.0094318389892578,1.3250782489776611,-0.0624595507979393,-0.4855002164840698,-0.0079308496788144,-0.0451356060802936,0.0,0.0,-0.5934385657310486,-0.6416369676589966
-0.0100950244814157,1.313540816307068,-0.0651242583990097,-0.512779176235199,-0.0091049214825034,-0.0234836414456367,0.0,0.0,-0.6841311454772949,-0.4234876036643982
-0.010725307278335,1.3013849258422852,-0.061640877276659,-0.5402727127075195,-0.0104706659913063,-0.0273176245391368,0.0,0.0,-0.7030664682388306,-0.6564735770225525
-0.0113704679533839,1.288609743118286,-0.0640945360064506,-0.5677869915962219,-0.0108788311481475,-0.0081641320139169,0.0,0.0,-0.5043031573295593,-0.6274022459983826
-0.012025642208755,1.2752199172973633,-0.0659023970365524,-0.5951029062271118,-0.0105035947635769,0.0075057307258248,0.0,0.0,0.451369047164917,-0.7464274168014526
-0.0126428604125976,1.2616722583770752,-0.0635197609663009,-0.6021028161048889,-0.0087230624631047,0.0356136076152324,0.0,0.0,-0.7156346440315247,-0.5660074949264526
-0.0132702831178903,1.2475123405456543,-0.0652342364192009,-0.6293145418167114,-0.0062739583663642,0.0489867590367794,0.0,0.0,-0.401461124420166,-0.6682797074317932
-0.0139198303222656,1.2327265739440918,-0.0683339238166809,-0.6571333408355713,-0.0029307252261787,0.0668707638978958,0.0,0.0,-0.1415563821792602,-0.6371552348136902
-0.0145896915346384,1.2173300981521606,-0.0711522549390792,-0.6842866539955139,0.0011978077236562,0.0825780555605888,0.0,0.0,0.073079228401184,-0.1317837238311767
-0.0151514057070016,1.201680302619934,-0.0605984851717948,-0.6955501437187195,0.005570899695158,0.0874695926904678,0.0,0.0,-0.079521894454956,-0.0226067900657653
-0.015700340270996,1.1854121685028076,-0.0591168627142906,-0.7230480909347534,0.0097558964043855,0.0837074741721153,0.0,0.0,-0.5516496300697327,0.3237588405609131
-0.0162391662597656,1.1685256958007812,-0.0579291954636573,-0.7505432963371277,0.0137544889003038,0.0799790024757385,0.0,0.0,-0.266369879245758,0.4495232105255127
-0.0167710296809673,1.1510207653045654,-0.0570430271327495,-0.778037428855896,0.0175679363310337,0.0762757882475853,0.0,0.0,-0.7321540117263794,0.6425012350082397
-0.0172471050173044,1.1328949928283691,-0.0499647632241249,-0.8056175112724304,0.0198965687304735,0.0465770438313484,0.0,0.0,0.5053026676177979,0.3667590618133545
-0.0176137927919626,1.1148982048034668,-0.0394098870456218,-0.7998964786529541,0.0225941017270088,0.0539556555449962,0.0,0.0,0.232997179031372,0.1001394987106323
-0.0179359428584575,1.096633791923523,-0.0350126735866069,-0.811794102191925,0.0253530908375978,0.0551850013434886,0.0,0.0,0.1160413026809692,0.4146063327789306
-0.0183704383671283,1.0783990621566772,-0.0456168428063392,-0.8104677796363831,0.0274893958121538,0.0427299365401268,0.0,0.0,0.7375845909118652,0.7673894166946411
-0.0189407356083393,1.0606342554092407,-0.0571238100528717,-0.7895489931106567,0.0275838896632194,0.0018899620044976,0.0,0.0,0.7501046657562256,-0.4244562983512878
-0.0195398330688476,1.0434049367904663,-0.0598396360874176,-0.7657505869865417,0.0275234896689653,-0.0012081611203029,0.0,0.0,0.0197678804397583,-0.4053165912628174
-0.0202481262385845,1.0263173580169678,-0.0702152699232101,-0.7594352960586548,0.0269183069467544,-0.0121037783101201,0.0,0.0,0.280259370803833,-0.823616087436676
-0.0211706161499023,1.0095106363296509,-0.0930155962705612,-0.7469740509986877,0.0276680048555135,0.0149939758703112,0.0,0.0,0.331952691078186,0.2087349891662597
-0.0221416465938091,0.9926742911338806,-0.0976043567061424,-0.7482993006706238,0.0281716883182525,0.0100737679749727,0.0,0.0,0.2329837083816528,-0.7587750554084778
-0.0231982227414846,0.9761733412742616,-0.1075414195656776,-0.7334163784980774,0.0300355516374111,0.0372771471738815,0.0,0.0,-0.438408613204956,0.557581901550293
-0.0242424961179494,0.9590520858764648,-0.1051703691482544,-0.760955810546875,0.0307701714336872,0.0146923093125224,0.0,0.0,0.215329885482788,-0.7062721252441406
-0.0254580490291118,0.9421972632408142,-0.1234749555587768,-0.7491409778594971,0.0326584875583648,0.0377663001418113,0.0,0.0,-0.1875004172325134,0.07476806640625
-0.0267051700502634,0.924723982810974,-0.1264527142047882,-0.7766323685646057,0.0343867167830467,0.0345647633075714,0.0,0.0,0.2284939289093017,0.643812894821167
-0.0279376991093158,0.9073358178138732,-0.1235654130578041,-0.7728127837181091,0.0346971824765205,0.0062093040905892,0.0,0.0,0.1901464462280273,0.2734119892120361
-0.0292120929807424,0.8901463747024536,-0.1276589930057525,-0.7639738917350769,0.034911710768938,0.004290469456464,0.0,0.0,-0.2933051586151123,0.1826496124267578
-0.0305248256772756,0.8723384737968445,-0.1313308179378509,-0.7914650440216064,0.0349714122712612,0.0011941469274461,0.0,0.0,-0.2392970323562622,0.1650615930557251
-0.0318778976798057,0.853911817073822,-0.135208711028099,-0.818956196308136,0.0348779670894146,-0.0018690500874072,0.0,0.0,0.8104181289672852,0.4597877264022827
-0.0333484634757041,0.8362485766410828,-0.1466042846441269,-0.7850251793861389,0.0344334691762924,-0.0088900830596685,0.0,0.0,0.1215541362762451,0.4629199504852295
-0.0348581299185752,0.8185861706733704,-0.1504483073949813,-0.7849803566932678,0.0339277386665344,-0.0101146465167403,0.0,0.0,0.2087163925170898,0.8961853981018066
-0.036452580243349,0.8011656999588013,-0.1569410860538482,-0.7741841077804565,0.0314445979893207,-0.049662597477436,0.0,0.0,-0.5339378714561462,0.026538610458374
-0.0380945205688476,0.7831267714500427,-0.1615190654993057,-0.8016758561134338,0.0288145393133163,-0.0526015162467956,0.0,0.0,0.6450209617614746,0.925633668899536
-0.0396121032536029,0.7649352550506592,-0.1472354233264923,-0.8084312677383423,0.0243494249880313,-0.0893021672964096,0.0,0.0,0.2629821300506592,0.2187401056289672
-0.0411136634647846,0.7467341423034668,-0.1458443105220794,-0.8088740706443787,0.0200913827866315,-0.0851609334349632,0.0,0.0,0.7061376571655273,0.7935312986373901
-0.0426558479666709,0.728361964225769,-0.1480786800384521,-0.8164697885513306,0.0140255987644195,-0.1213157027959823,0.0,0.0,0.8000577688217163,0.3795222043991089
-0.0442055687308311,0.7099187970161438,-0.1489158719778061,-0.8196505904197693,0.0080501595512032,-0.1195087283849716,0.0,0.0,0.903999924659729,-0.4651908874511719
-0.0457425117492675,0.6916308403015137,-0.1478322297334671,-0.8127758502960205,0.0022601417731493,-0.1158004850149154,0.0,0.0,0.8024470806121826,0.4095467329025268
-0.0474585518240928,0.6740888953208923,-0.165023922920227,-0.7796455025672913,-0.004235500935465,-0.1299127489328384,0.0,0.0,0.0954062938690185,-0.2995549440383911
-0.0493156425654888,0.6567133665084839,-0.1785763651132583,-0.7722800374031067,-0.0112750530242919,-0.140790969133377,0.0,0.0,-0.1998324990272522,-0.5211824178695679
-0.0512715354561805,0.6387192606925964,-0.1894072592258453,-0.7998025417327881,-0.0173773895949125,-0.1220470890402793,0.0,0.0,0.4748951196670532,0.7996575832366943
-0.0530689246952533,0.6208660006523132,-0.1720346510410308,-0.7935815453529358,-0.0249906368553638,-0.1522648483514785,0.0,0.0,0.5639547109603882,0.1952259540557861
-0.0549610145390033,0.603442907333374,-0.1811010092496872,-0.774514377117157,-0.0329886488616466,-0.1599603593349456,0.0,0.0,-0.5600364208221436,-0.2157230973243713
-0.0569111816585063,0.5854021906852722,-0.1867819875478744,-0.8020116686820984,-0.0411178134381771,-0.1625833958387375,0.0,0.0,0.8463869094848633,0.8509652614593506
-0.058811854571104,0.5680835843086243,-0.1800040155649185,-0.7700210809707642,-0.0510608926415443,-0.1988618820905685,0.0,0.0,-0.2289290428161621,0.5525914430618286
-0.0607172027230262,0.5501417517662048,-0.1789670884609222,-0.7978467345237732,-0.0625040903687477,-0.2288638651371002,0.0,0.0,0.3341002464294433,-0.2473217248916626
-0.0627354606986045,0.532160222530365,-0.1897697895765304,-0.7997271418571472,-0.0744305476546287,-0.2385292053222656,0.0,0.0,0.9350404739379884,-0.1425443887710571
-0.0646344199776649,0.5149460434913635,-0.1782438308000564,-0.7656933069229126,-0.0859722942113876,-0.2308349311351776,0.0,0.0,0.472090482711792,0.4127513170242309
-0.0664196982979774,0.4979974031448364,-0.1673302352428436,-0.7539529800415039,-0.0970681458711624,-0.2219169586896896,0.0,0.0,0.642011284828186,-0.1080607771873474
-0.0681124702095985,0.4816427826881408,-0.1583148092031479,-0.7276175618171692,-0.1079415753483772,-0.2174684256315231,0.0,0.0,-0.5109344720840454,0.3853555917739868
-0.0698661804199218,0.4646714031696319,-0.1643113493919372,-0.7551200985908508,-0.1189342141151428,-0.2198526114225387,0.0,0.0,0.2278840541839599,-0.5951579809188843
-0.071654126048088,0.4474888145923614,-0.1688815653324127,-0.7644916772842407,-0.1287833750247955,-0.1969832926988601,0.0,0.0,0.7244608402252197,-0.0710588097572326
-0.073513314127922,0.4307984113693237,-0.1754254847764969,-0.7427338361740112,-0.139231875538826,-0.2089699208736419,0.0,0.0,0.4792767763137817,-0.9030765891075134
-0.0753170028328895,0.4141652584075928,-0.1717209219932556,-0.740079939365387,-0.1478482186794281,-0.1723270118236541,0.0,0.0,0.8219094276428223,-0.8221237659454346
-0.0771188735961914,0.3979267477989197,-0.1731632202863693,-0.7224277257919312,-0.1548746228218078,-0.1405280232429504,0.0,0.0,0.9165104627609252,-0.9266082644462584
-0.0789746269583702,0.3817673921585083,-0.1803037822246551,-0.7187524437904358,-0.1601410657167434,-0.1053288131952285,0.0,0.0,0.8756649494171143,0.0165495872497558
-0.0809245109558105,0.3660173416137695,-0.1889711618423462,-0.7006639242172241,-0.166163370013237,-0.1204461455345153,0.0,0.0,0.979743719100952,0.2155617475509643
-0.0827420204877853,0.3511601090431213,-0.1757505238056183,-0.6610051989555359,-0.1721697598695755,-0.1201274171471595,0.0,0.0,0.8352351188659668,-0.2870991230010986
-0.0844767540693283,0.3361415863037109,-0.1678005456924438,-0.668157160282135,-0.1778546124696731,-0.1136970296502113,0.0,0.0,0.931004285812378,-0.805072546005249
-0.0861252769827842,0.3219949901103973,-0.1607815027236938,-0.629230797290802,-0.1819431632757187,-0.0817707553505897,0.0,0.0,0.5758379697799683,-0.4573050141334533
-0.0878434181213378,0.307920753955841,-0.1672319173812866,-0.626090407371521,-0.1865411549806594,-0.0919602066278457,0.0,0.0,0.9023356437683104,-0.5275556445121765
-0.0896307975053787,0.2944225966930389,-0.1747984588146209,-0.6004206538200378,-0.1904978156089782,-0.0791332721710205,0.0,0.0,0.9336555004119872,-0.0796126723289489
-0.0913079231977462,0.2813688218593597,-0.1638644635677337,-0.580666720867157,-0.1943755447864532,-0.0775546208024025,0.0,0.0,0.9080779552459716,0.4914861917495727
-0.0930059403181076,0.2691755592823028,-0.1651754826307296,-0.5425355434417725,-0.1990255862474441,-0.0930004268884658,0.0,0.0,0.6888799667358398,-0.2367766499519348
-0.0945767387747764,0.2572099864482879,-0.1527335345745086,-0.5323965549468994,-0.2034085839986801,-0.0876597389578819,0.0,0.0,0.8268630504608154,0.1457475423812866
-0.0961600318551063,0.2452729344367981,-0.1537339240312576,-0.5311769247055054,-0.2080406099557876,-0.0926402807235717,0.0,0.0,0.6403036117553711,0.4875843524932861
-0.0976738929748535,0.2331704497337341,-0.1470352262258529,-0.5385058522224426,-0.2124329060316085,-0.0878461524844169,0.0,0.0,0.8620731830596924,0.7776808738708496
-0.0991495102643966,0.2209962904453277,-0.1415112316608429,-0.5419583916664124,-0.218546837568283,-0.1222785338759422,0.0,0.0,0.967986822128296,-0.6173987984657288
-0.1005408316850662,0.2096123546361923,-0.1342169791460037,-0.5066858530044556,-0.2235065549612045,-0.099194623529911,0.0,0.0,0.9747858047485352,-0.7464309930801392
-0.1017345413565635,0.1990289241075515,-0.1161496639251709,-0.4708666205406189,-0.2267740666866302,-0.0653502494096756,0.0,0.0,0.8624320030212402,-0.9105120897293092
-0.1029893904924392,0.1892541795969009,-0.1237831860780716,-0.4346967339515686,-0.2284981459379196,-0.0344818420708179,0.0,0.0,0.4539660215377807,0.3343099355697632
-0.1043524742126464,0.1793255656957626,-0.1340392678976059,-0.4416227638721466,-0.2307995706796646,-0.0460284315049648,0.0,0.0,0.728543758392334,-0.3481725454330444
-0.1055486649274826,0.1699718832969665,-0.1174925565719604,-0.4160545170307159,-0.2329515516757965,-0.0430396683514118,0.0,0.0,0.8640060424804688,-0.7654768228530884
-0.1068381294608116,0.1610113680362701,-0.1280407607555389,-0.3983880877494812,-0.2338699996471405,-0.0183689258992671,0.0,0.0,0.6917428970336914,0.1403324604034423
-0.1080845817923545,0.1524647027254104,-0.1234537586569786,-0.38004270195961,-0.235083982348442,-0.0242797583341598,0.0,0.0,0.1232674121856689,-0.4700533151626587
-0.1092915534973144,0.1439959406852722,-0.1194283738732338,-0.3765917122364044,-0.236366331577301,-0.0256470795720815,0.0,0.0,0.923332929611206,-0.4583001136779785
-0.1103043556213378,0.1358606964349746,-0.1004554852843284,-0.3616966605186462,-0.2372047007083892,-0.0167674012482166,0.0,0.0,0.8994255065917969,-0.760718584060669
-0.1113185882568359,0.1276843100786209,-0.1021502390503883,-0.3632813096046448,-0.2364691644906997,0.0147107448428869,0.0,0.0,0.1846445798873901,-0.3432128429412842
-0.1122636795043945,0.1192869991064071,-0.0955170020461082,-0.3730517625808716,-0.2354409396648407,0.0205644778907299,0.0,0.0,0.667587161064148,-0.6495732665061951
-0.1130306273698806,0.1110733598470687,-0.0793428868055343,-0.364628791809082,-0.2327454537153244,0.0539098307490348,0.0,0.0,0.936307430267334,-0.8129871487617493
-0.1136437430977821,0.1028705239295959,-0.0659526064991951,-0.3638471364974975,-0.2280436605215072,0.0940354689955711,0.0,0.0,0.991955041885376,-0.5680405497550964
-0.1141650229692459,0.0953945964574813,-0.0578812472522258,-0.3313828110694885,-0.2222134470939636,0.1166042536497116,0.0,0.0,0.820945143699646,-0.0060887336730957
-0.1145314201712608,0.088512547314167,-0.0425672978162765,-0.3049883842468261,-0.216218888759613,0.1198909431695938,0.0,0.0,0.8279823064804077,0.066825270652771
-0.1146674156188964,0.0820494294166565,-0.0201830845326185,-0.2863026559352875,-0.2095749527215957,0.1328789889812469,0.0,0.0,0.4497303962707519,-0.1915637254714965
-0.114719770848751,0.0753609240055084,-0.0122477486729621,-0.2962891459465027,-0.2025042623281479,0.1414137184619903,0.0,0.0,0.8173134326934814,-0.1718703508377075
-0.11477842181921,0.0688949450850486,-0.0126460473984479,-0.2864657342433929,-0.1956782639026641,0.1365198791027069,0.0,0.0,0.7336485385894775,0.3112108707427978
-0.1146362274885177,0.0631171092391014,0.0070011490024626,-0.2558534741401672,-0.1884134709835052,0.1452957391738891,0.0,0.0,0.545111894607544,0.1241587400436401
-0.1144777312874794,0.0575117915868759,0.0086762942373752,-0.2482330799102783,-0.1812164634466171,0.1439404785633087,0.0,0.0,0.7575943470001221,0.3056951761245727
-0.1143589988350868,0.0525728091597557,0.0052748778834939,-0.2187174260616302,-0.1745935678482055,0.1324579566717147,0.0,0.0,0.5782880783081055,0.4030241966247558
-0.1141043677926063,0.0479789339005947,0.0184275023639202,-0.2033620327711105,-0.1675428450107574,0.1410142183303833,0.0,0.0,0.4835476875305176,0.0073357820510864
-0.1138463988900184,0.0437755212187767,0.0189230926334857,-0.1860627084970474,-0.1606664210557937,0.1375280767679214,0.0,0.0,0.2930740118026733,0.8771947622299194
-0.1135603934526443,0.0398289524018764,0.0234826914966106,-0.174857348203659,-0.1555480808019638,0.1023669466376304,0.0,0.0,0.6022248268127441,0.77956223487854
-0.1132266968488693,0.0359689332544803,0.0298042148351669,-0.1711870729923248,-0.1519809663295745,0.0713423937559127,0.0,0.0,0.4709727764129638,0.2867438793182373
-0.1129756942391395,0.0323078967630863,0.0219457931816577,-0.1623942404985427,-0.1488324254751205,0.0629703924059867,0.0,0.0,0.615020751953125,0.678978681564331
-0.112815573811531,0.0288100093603134,0.0144978072494268,-0.155312106013298,-0.1473177075386047,0.0302947200834751,0.0,0.0,0.5423991680145264,0.6097602844238281
-0.1124633774161338,0.0256581641733646,0.0346057936549186,-0.1400226801633834,-0.1467073410749435,0.0122076841071248,0.0,0.0,0.4819152355194092,0.3852185010910034
-0.1120688468217849,0.0223666280508041,0.0385101661086082,-0.1461976617574691,-0.1457681357860565,0.0187842268496751,0.0,0.0,0.5669010877609253,0.4215483665466308
-0.1114933043718338,0.0195002406835556,0.0558955073356628,-0.1272324621677398,-0.1441144794225692,0.0330730639398098,0.0,0.0,0.3835916519165039,0.275486946105957
-0.1109033599495887,0.0169840436428785,0.0573487766087055,-0.1116720288991928,-0.1424677073955536,0.0329353287816047,0.0,0.0,0.098932147026062,-0.3773744106292724
-0.1101983040571212,0.0146729089319705,0.0683283060789108,-0.1025111898779869,-0.1402966976165771,0.0434202067553997,0.0,0.0,-0.3565913438796997,-0.3048593401908874
-0.1094729453325271,0.0124536845833063,0.053218275308609,-0.0969607457518577,-0.1209565252065658,0.3869310021400451,1.0,0.0,0.5410144329071045,-0.3448790907859802
-0.1086610779166221,0.0107553815469145,0.0617707073688507,-0.0740334093570709,-0.1016439348459243,0.3862963616847992,1.0,0.0,0.3051570653915405,-0.0829569101333618
-0.1077307686209678,0.0093741510063409,0.0729346498847007,-0.0601445212960243,-0.0817085355520248,0.3987316787242889,1.0,0.0,-0.1977035403251648,-0.1541177034378051
-0.1068073287606239,0.007369790226221,0.0726088732481002,-0.0881215035915374,-0.0621744655072689,0.3906812965869903,1.0,0.0,0.3009593486785888,0.0465353727340698
-0.1059495955705642,0.0054897046647965,0.0664696842432022,-0.0828689113259315,-0.0430857054889202,0.3817750811576843,1.0,0.0,0.5063902139663696,0.8159487247467041
-0.1051376312971115,0.003700885688886,0.0637090057134628,-0.0790882408618927,-0.0258158650249242,0.3453968167304992,0.0,0.0,0.203514814376831,0.9500360488891602
-0.1043170914053917,0.0019101714715361,0.0663841366767883,-0.0793924331665039,-0.0103485137224197,0.3093471825122833,0.0,0.0,-0.0025007128715515,0.9141714572906494
-0.1034796684980392,-0.0004992032190784,0.0699052214622497,-0.1070445477962493,0.0033171460963785,0.2733132541179657,0.0,0.0,0.5313917398452759,0.998833179473877
-0.1026211753487587,-0.0019658349920064,0.0783703550696373,-0.0652196481823921,0.0107121979817748,0.1479274481534958,1.0,1.0,-0.7342351675033569,-0.8995960354804993
-0.1019408255815506,-0.0029231691733002,0.0605806224048137,-0.0426198430359363,0.0180722195655107,0.1472012847661972,1.0,1.0,-0.6876820921897888,-0.7377191781997681
-0.1014554053544998,-0.0034719132818281,0.0442883186042308,-0.0244464892894029,0.0222758576273918,0.0840726941823959,1.0,1.0,-0.5963283777236938,-0.1905901432037353
