x_pos,y_pos,x_vel,y_vel,angle,ang_vel,leg_1,leg_2,main_booster,lat_booster
-0.0015661239158362,1.403038740158081,-0.1590894162654876,-0.3502841889858246,0.0022178404033184,0.0437827110290527,0.0,0.0,-0.0231431722640991,0.7056856155395508
-0.0031132698059082,1.3945915699005127,-0.1557928323745727,-0.3754321932792663,0.0032816296443343,0.0212787352502346,0.0,0.0,0.4619309902191162,0.9088568687438964
-0.004495620727539,1.3860888481140137,-0.1380802392959594,-0.3779021203517914,0.003134120022878,-0.0029505877755582,0.0,0.0,-0.3797549605369568,0.9570714235305786
-0.00585517892614,1.3769973516464231,-0.1346904933452606,-0.4040669798851013,0.0018826823215931,-0.0250307060778141,0.0,0.0,0.0748697519302368,0.5701375007629395
-0.0071132658049464,1.367958664894104,-0.1239759549498558,-0.4017170071601867,7.926583202788606e-05,-0.0360719189047813,0.0,0.0,0.2429258823394775,0.7265655994415283
-0.0082321166992187,1.3589459657669067,-0.1091992631554603,-0.4005627632141113,-0.0025817900896072,-0.053225852549076,0.0,0.0,0.2724450826644897,0.2610491514205932
-0.0093998908996582,1.3500149250030518,-0.114416018128395,-0.3969454765319824,-0.0049136173911392,-0.0466407835483551,0.0,0.0,-0.0392631888389587,0.0673478841781616
-0.0105985645204782,1.340497970581055,-0.1179244518280029,-0.4229824841022491,-0.0068357889540493,-0.0384471528232097,0.0,0.0,0.5662758350372314,0.8319754600524902
-0.0117682460695505,1.3315938711166382,-0.11375143378973,-0.3957557380199432,-0.0100202290341258,-0.0636949762701988,0.0,0.0,-0.5885222554206848,0.2858577966690063
-0.0129655841737985,1.3221038579940796,-0.116918072104454,-0.4217996001243591,-0.0127999456599354,-0.0555994510650634,0.0,0.0,0.24219810962677,0.7436950206756592
-0.0140512464568018,1.3126966953277588,-0.1047715097665786,-0.4181346595287323,-0.0165568348020315,-0.0751444846391677,0.0,0.0,0.0522948503494262,0.126094102859497
-0.0151105877012014,1.3032071590423584,-0.1027537137269973,-0.4217953085899353,-0.0197039078921079,-0.0629473477602005,0.0,0.0,-0.4801361560821533,-0.1780802607536316
-0.0161926262080669,1.2931318283081057,-0.105417862534523,-0.4478308856487274,-0.0224600974470376,-0.0551287531852722,0.0,0.0,-0.1588585376739502,0.6843280792236328
-0.0172356609255075,1.2824623584747314,-0.1003835573792457,-0.4742590487003326,-0.0263433288782835,-0.0776716917753219,0.0,0.0,0.1386729478836059,-0.5104661583900452
-0.0182168968021869,1.2720617055892944,-0.0958218649029731,-0.4622880220413208,-0.0286113023757934,-0.0453637093305587,0.0,0.0,-0.7422266602516174,0.3340432643890381
-0.0192160606384277,1.2610752582550049,-0.0980013757944107,-0.4883285760879516,-0.030506482347846,-0.0379069522023201,0.0,0.0,-0.3404802083969116,-0.0926123261451721
-0.0202317237854003,1.2495028972625732,-0.1000232100486755,-0.5143595337867737,-0.0320344269275665,-0.0305615961551666,0.0,0.0,-0.5242404341697693,0.4824893474578857
-0.0212624557316303,1.2373446226119995,-0.1018917113542556,-0.5403916835784912,-0.0332029573619365,-0.0233727302402257,0.0,0.0,0.2468054294586181,-0.6117628216743469
-0.0222538951784372,1.2255128622055054,-0.0996868386864662,-0.5258463621139526,-0.0326572805643081,0.0109144719317555,0.0,0.0,0.2889285087585449,-0.2897136211395263
-0.0233059879392385,1.2137601375579834,-0.1058122515678405,-0.5223350524902344,-0.0320638865232467,0.0118690021336078,0.0,0.0,-0.5902277231216431,0.2190713882446289
-0.0243689529597759,1.2014213800430298,-0.1072436794638633,-0.5483700037002563,-0.0311364810913801,0.0185499805957078,0.0,0.0,-0.4786596298217773,-0.0054758191108703
-0.0254416465759277,1.188496708869934,-0.1085364073514938,-0.5744020938873291,-0.0298856161534786,0.0250195655971765,0.0,0.0,-0.2709013223648071,-0.5905804634094238
-0.0265593528747558,1.1749870777130127,-0.1142903342843055,-0.6003804802894592,-0.0274007078260183,0.0497028082609176,0.0,0.0,-0.3829379081726074,0.796149492263794
-0.0276143066585063,1.1608798503875732,-0.1065237149596214,-0.6269689202308655,-0.0263815261423587,0.0203855838626623,0.0,0.0,0.6875073909759521,0.1132669448852539
-0.0288029666990041,1.1471781730651855,-0.1195114701986312,-0.6089495420455933,-0.025743355974555,0.0127644632011652,0.0,0.0,-0.5748589634895325,0.6309398412704468
-0.0299591068178415,1.132871150970459,-0.1155733913183212,-0.6358733773231506,-0.0257774330675601,-0.0006817468674853,0.0,0.0,0.3500750064849853,-0.514078676700592
-0.0311409942805767,1.1188730001449585,-0.1194694191217422,-0.622117817401886,-0.024515176191926,0.0252452604472637,0.0,0.0,-0.9360222816467284,0.7534912824630737
-0.0322790145874023,1.104295253753662,-0.1141494512557983,-0.6478976607322693,-0.0241733789443969,0.0068361209705471,0.0,0.0,-0.8701276779174805,0.012562870979309
-0.0334190353751182,1.089131474494934,-0.1145936250686645,-0.6739293336868286,-0.0235933829098939,0.011600000783801,0.0,0.0,-0.6819950342178345,-0.3497053980827331
-0.0345603004097938,1.0733821392059326,-0.1149381175637245,-0.6999610662460327,-0.0227899234741926,0.0160689540207386,0.0,0.0,-0.6847108602523804,0.4744737148284912
-0.0357018485665321,1.0570470094680786,-0.115188680589199,-0.7259928584098816,-0.0217784084379673,0.0202302951365709,0.0,0.0,0.0477569103240966,0.0284852981567382
-0.0368865020573139,1.040544509887695,-0.1194465160369873,-0.7334327101707458,-0.0208030808717012,0.019506424665451,0.0,0.0,-0.5127042531967163,0.023679494857788
-0.038070011883974,1.02345609664917,-0.1195269450545311,-0.7594645619392395,-0.0196523293852806,0.0230151731520891,0.0,0.0,0.0793659687042236,0.0555016994476318
-0.0392890945076942,1.006136775016785,-0.1230362802743911,-0.7697387933731079,-0.0185360554605722,0.0223255287855863,0.0,0.0,0.3705430030822754,-0.0713881850242614
-0.0404829010367393,0.9890115857124328,-0.120718777179718,-0.7611047029495239,-0.0172170959413051,0.026379395276308,0.0,0.0,0.7394402027130127,-0.4146652221679687
-0.0416412353515625,0.9724944829940796,-0.1173914670944213,-0.7340782880783081,-0.0156877599656581,0.0305867828428745,0.0,0.0,-0.2246908545494079,-0.1220600605010986
-0.0427968017756938,0.9553915858268738,-0.1172046810388565,-0.7601105570793152,-0.0140555435791611,0.0326441563665866,0.0,0.0,-0.0088769197463989,-0.1804896593093872
-0.0439491271972656,0.937703013420105,-0.1169666051864624,-0.7861427664756775,-0.0123400380834937,0.0343101657927036,0.0,0.0,0.5507917404174805,0.3930832147598266
-0.0451251044869422,0.9206156730651855,-0.1192253604531288,-0.7594224810600281,-0.0107323015108704,0.032154768705368,0.0,0.0,-0.5477503538131714,0.6749234199523926
-0.0462414734065532,0.902942717075348,-0.111886978149414,-0.7854668498039246,-0.0104870814830064,0.0049043474718928,0.0,0.0,-0.1982852816581726,-0.4739394783973694
-0.0473541244864463,0.8846837878227234,-0.1115327104926109,-0.8114988803863525,-0.0102203004062175,0.0053357686847448,0.0,0.0,0.8687756061553955,-0.4812762141227722
-0.0483172424137592,0.8667253255844116,-0.0972394496202468,-0.798147439956665,-0.0093076825141906,0.0182524267584085,0.0,0.0,0.7002829313278198,0.2096755504608154
-0.0491735450923442,0.8486639857292175,-0.0870078206062316,-0.8027228116989136,-0.0079543050378561,0.0270675309002399,0.0,0.0,0.5860860347747803,0.6442675590515137
-0.049867533147335,0.8307748436927795,-0.0696525797247886,-0.7950698137283325,-0.0076964036561548,0.0051578041166067,0.0,0.0,0.7234970331192017,-0.0773800611495971
-0.050597857683897,0.8127612471580505,-0.0730351954698562,-0.8006010055541992,-0.0077010309323668,-9.24110208870843e-05,0.0,0.0,0.5898622274398804,0.2064259052276611
-0.0512782111763954,0.7946438193321228,-0.0681505054235458,-0.8052183389663696,-0.0075901639647781,0.0022171973250806,0.0,0.0,0.8163609504699707,-0.3379759788513183
-0.0518847480416297,0.7766768932342529,-0.0609663538634777,-0.7985298037528992,-0.0072809210978448,0.0061847292818129,0.0,0.0,0.4430148601531982,-0.342678427696228
-0.0525814071297645,0.7592176795005798,-0.0693842023611068,-0.7759684324264526,-0.00756062194705,-0.0055938549339771,0.0,0.0,0.6205811500549316,-0.1085231900215148
-0.0534001365303993,0.7423337697982788,-0.0808120518922805,-0.7504002451896667,-0.0086001390591263,-0.0207902025431394,0.0,0.0,-0.3218790888786316,-0.7462636232376099
-0.0542780868709087,0.7248627543449402,-0.0881175249814987,-0.7764842510223389,-0.0082842884585261,0.0063169188797473,0.0,0.0,-0.1611344814300537,0.6078145503997803
-0.0550951957702636,0.7068052887916565,-0.0803083032369613,-0.8025650382041931,-0.009668618440628,-0.0276865325868129,0.0,0.0,0.6298990249633789,-0.0554088950157165
-0.0559613220393657,0.689253032207489,-0.0847157463431358,-0.780112624168396,-0.0115420436486601,-0.0374685190618038,0.0,0.0,0.4894510507583618,0.233582854270935
-0.0567241683602333,0.6717145442962646,-0.0745980069041252,-0.7794997096061707,-0.013208394870162,-0.0333269536495208,0.0,0.0,0.8242167234420776,0.4505641460418701
-0.0574724189937114,0.654911458492279,-0.0728812962770462,-0.7468221783638,-0.0151295196264982,-0.0384224578738212,0.0,0.0,-0.0876833200454711,0.364712119102478
-0.0582220070064067,0.6375227570533752,-0.0727192908525466,-0.7728549838066101,-0.0173435658216476,-0.0442809090018272,0.0,0.0,0.6751351356506348,0.6571848392486572
-0.0590186119079589,0.6202635169029236,-0.0755315274000167,-0.7671290040016174,-0.0214200541377067,-0.081529676914215,0.0,0.0,0.5792655944824219,-0.2455233931541443
-0.059712029993534,0.6035585403442383,-0.0652917474508285,-0.7425079345703125,-0.0254164244979619,-0.0799275264143943,0.0,0.0,0.5746448040008545,0.4022759199142456
-0.060261346399784,0.5872270464897156,-0.0511496663093566,-0.7259145975112915,-0.0291605852544307,-0.0748828500509262,0.0,0.0,0.8097817897796631,-0.6391274929046631
-0.0607515349984169,0.5716673135757446,-0.046362217515707,-0.6915991902351379,-0.0317882783710956,-0.0525536611676216,0.0,0.0,-0.6337385177612305,-0.7686575055122375
-0.0613159164786338,0.5555319786071777,-0.0551190488040447,-0.7171527743339539,-0.0330886803567409,-0.0260083265602588,0.0,0.0,0.8979610204696655,0.4648590087890625
-0.0618143081665039,0.5394460558891296,-0.0483686402440071,-0.7149645686149597,-0.034531682729721,-0.0288603547960519,0.0,0.0,0.8492677211761475,0.4267228841781616
-0.062405489385128,0.523957371711731,-0.0566953942179679,-0.6884415149688721,-0.0369268804788589,-0.0479038842022419,0.0,0.0,0.8997957706451416,0.4793847799301147
-0.0628416985273361,0.5087669491767883,-0.0414101257920265,-0.6751891374588013,-0.0391156487166881,-0.0437750481069088,0.0,0.0,-0.6865172982215881,0.6214425563812256
-0.0632369071245193,0.492989033460617,-0.0355364717543125,-0.7013492584228516,-0.0430563613772392,-0.078814223408699,0.0,0.0,0.6053332090377808,-0.5371841788291931
-0.0636610984802246,0.4772078394889831,-0.0390423350036144,-0.7014883756637573,-0.0463914051651954,-0.0667008906602859,0.0,0.0,0.464766263961792,-0.8482731580734253
-0.0642639175057411,0.4616401493549347,-0.0579423792660236,-0.6919694542884827,-0.0486986339092254,-0.046144962310791,0.0,0.0,0.8616616725921631,0.4827542304992676
-0.0648093223571777,0.4469302892684936,-0.0517893619835376,-0.6538659334182739,-0.0514081232249736,-0.0541899725794792,0.0,0.0,0.2903900146484375,0.8658090829849243
-0.0652163475751876,0.4319561123847961,-0.0357492677867412,-0.6656965017318726,-0.0563089586794376,-0.0980166420340538,0.0,0.0,0.8314065933227539,0.0144858360290527
-0.0655564293265342,0.4178117215633392,-0.0286410357803106,-0.6288529634475708,-0.0616128928959369,-0.1060786992311477,0.0,0.0,0.9076921939849854,-0.4660535454750061
-0.0659887343645095,0.4039107859134674,-0.0368002392351627,-0.6180959343910217,-0.0679739341139793,-0.1272209584712982,0.0,0.0,0.5268549919128418,-0.922099769115448
-0.0665657073259353,0.3903826475143432,-0.0524363704025745,-0.601498007774353,-0.0731773823499679,-0.1040690392255783,0.0,0.0,0.7500321865081787,0.3135418891906738
-0.0670820251107215,0.3772524297237396,-0.0459462702274322,-0.583856463432312,-0.0788080692291259,-0.1126135811209678,0.0,0.0,0.9399913549423218,-0.317354679107666
-0.0676925629377365,0.3650383651256561,-0.0540619008243083,-0.5432318449020386,-0.0857272446155548,-0.1383835226297378,0.0,0.0,-0.9580325484275818,-0.5152759552001953
-0.0683614760637283,0.3522444367408752,-0.0602160021662712,-0.5690158605575562,-0.0923438519239425,-0.1323320567607879,0.0,0.0,0.081084132194519,-0.3913390636444092
-0.0690527930855751,0.3392514586448669,-0.0617543533444404,-0.5779390335083008,-0.099670834839344,-0.1465396434068679,0.0,0.0,0.3072179555892944,-0.9216954112052916
-0.0697556510567665,0.3260499835014343,-0.0641671568155288,-0.5871520638465881,-0.1057395860552787,-0.1213749274611473,0.0,0.0,0.6211285591125488,-0.9846686124801636
-0.070563219487667,0.3127690553665161,-0.0759534537792205,-0.5906150937080383,-0.1105143055319786,-0.0954943522810936,0.0,0.0,0.4409523010253906,-0.1475781202316284
-0.0713299736380577,0.2999361455440521,-0.0712034851312637,-0.5707650780677795,-0.1159563139081001,-0.1088399663567543,0.0,0.0,0.6555279493331909,-0.9439487457275392
-0.0720156654715538,0.2877434492111206,-0.0644711032509803,-0.5422221422195435,-0.12003093957901,-0.0814921557903289,0.0,0.0,0.7642371654510498,-0.9879656434059144
-0.0728379264473915,0.2763140201568603,-0.0792829915881156,-0.5082159638404846,-0.1229637712240219,-0.0586566850543022,0.0,0.0,0.6285989284515381,-0.1870575547218322
-0.0737792029976844,0.2648095786571502,-0.0899214521050453,-0.511658787727356,-0.1271404922008514,-0.0835347920656204,0.0,0.0,0.2758629322052002,-0.924702525138855
-0.0747126564383506,0.2536442875862121,-0.0903705358505249,-0.4964934587478637,-0.1301063746213913,-0.0593177191913127,0.0,0.0,-0.1211960315704345,0.4951754808425903
-0.0756811127066612,0.2418945580720901,-0.0932067185640335,-0.5225335359573364,-0.1337375193834304,-0.0726224556565284,0.0,0.0,-0.0913798213005065,-0.5378430485725403
-0.0767318755388259,0.2295719236135482,-0.1019250974059104,-0.5479567050933838,-0.1368654817342758,-0.0625593662261962,0.0,0.0,0.5524077415466309,0.333152174949646
-0.0777416229248046,0.217643603682518,-0.0971081480383873,-0.5305057764053345,-0.1407205015420913,-0.0771007090806961,0.0,0.0,0.9195928573608398,-0.1424038410186767
-0.0785951614379882,0.2061137557029724,-0.0812763646245002,-0.5128298997879028,-0.1447862535715103,-0.0813151225447654,0.0,0.0,0.9748635292053224,-0.7899694442749023
-0.0794619545340538,0.194606140255928,-0.0835661441087722,-0.5117565989494324,-0.1478909999132156,-0.0620949566364288,0.0,0.0,0.8734169006347656,-0.7800142168998718
-0.0802510231733322,0.1831741482019424,-0.0769123956561088,-0.5082846879959106,-0.1498795449733734,-0.0397709682583808,0.0,0.0,0.9304879903793336,-0.5038414597511292
-0.08084287494421,0.1721156388521194,-0.0580574460327625,-0.4916016757488251,-0.1510018110275268,-0.0224450249224901,0.0,0.0,0.883560299873352,-0.7122560143470764
-0.0812971144914627,0.1611081510782241,-0.0454330369830131,-0.4892223179340362,-0.1509903520345688,0.0002292461285833,0.0,0.0,0.9701423645019532,-0.1913930773735046
-0.0816681832075119,0.1508463025093078,-0.0363926067948341,-0.4561537206172943,-0.1517065465450287,-0.0143236052244901,0.0,0.0,0.9613869190216064,-0.481282114982605
-0.0819129943847656,0.1413270980119705,-0.0232299976050853,-0.4232014119625091,-0.1529517620801925,-0.024904366582632,0.0,0.0,0.5304064750671387,-0.9630576968193054
-0.0820560455322265,0.1321306973695755,-0.0144244851544499,-0.4087166786193847,-0.152834340929985,0.0023482758551836,0.0,0.0,0.8161278963088989,-0.8808549046516418
-0.0821413993835449,0.12286077439785,-0.0099286129698157,-0.4118546545505523,-0.1514452993869781,0.0277807805687189,0.0,0.0,0.9360474348068236,-0.7330079674720764
-0.0823093429207801,0.1139175742864608,-0.0187916103750467,-0.3972740173339844,-0.149453192949295,0.0398422703146934,0.0,0.0,0.9201816320419312,-0.4982103109359741
-999.0,0.1058554947376251,0.0010962536325678,-0.358140617609024,-0.1477130353450775,0.034802921116352,0.0,0.0,0.444250226020813,-0.7770273089408875
-0.0823138207197189,0.097965657711029,-0.0058425273746252,-0.3504099249839782,-0.1451616734266281,0.0510270372033119,0.0,0.0,0.385782241821289,-0.731348991394043
-0.0824738517403602,0.090526282787323,-0.0191393587738275,-0.3303371071815491,-0.1420350819826126,0.0625319927930831,0.0,0.0,0.6007936000823975,-0.4661545157432556
-0.0825076103210449,0.0834887325763702,-0.0061931242235004,-0.3125137984752655,-0.1392294019460678,0.056113488972187,0.0,0.0,0.4953850507736206,-0.7148374319076538
-0.0826094597578048,0.0769037306308746,-0.0136139737442135,-0.2923503816127777,-0.1358017027378082,0.0685539990663528,0.0,0.0,0.3791279792785644,-0.4319996833801269
-0.0827495604753494,0.0706773623824119,-0.0164146777242422,-0.2765106856822967,-0.1334064304828643,0.0479051247239112,0.0,0.0,-0.0171144008636474,0.3573575019836426
-0.0829448699951171,0.0638666227459907,-0.0212308056652545,-0.3025512099266052,-0.1317248344421386,0.0336320772767066,0.0,0.0,0.672440767288208,0.5097332000732422
-0.0832012146711349,0.0573939904570579,-0.0252255890518426,-0.287706196308136,-0.1321246325969696,-0.0079958327114582,0.0,0.0,0.8531432151794434,0.3357189893722534
-0.0836040526628494,0.0512438639998436,-0.0383806563913822,-0.2735098302364349,-0.1340200304985046,-0.0379083901643753,0.0,0.0,0.9148385524749756,0.5185362100601196
-0.0837830528616905,0.0457162223756313,-0.0146327670663595,-0.245969608426094,-0.1372795850038528,-0.0651909783482551,0.0,0.0,0.8474408388137817,0.285507321357727
-0.0838954895734787,0.0402033179998397,-0.0075721740722656,-0.2453599870204925,-0.140937253832817,-0.073153369128704,0.0,0.0,0.8380923271179199,-0.3423572778701782
-0.0837871581315994,0.0353327840566635,0.0144681809470057,-0.216817244887352,-0.1445640623569488,-0.072536364197731,0.0,0.0,0.7596944570541382,-0.2193393111228943
-0.0836426764726638,0.0311102010309696,0.0189189407974481,-0.1881080716848373,-0.1490193009376526,-0.0891045406460762,0.0,0.0,0.4785599708557129,0.109595775604248
-0.0833174735307693,0.0274096112698316,0.0371094308793544,-0.1649389117956161,-0.1535994261503219,-0.0916026532649993,0.0,0.0,0.4801157712936401,-0.7237257361412048
-0.0829540267586708,0.0238904803991317,0.0400527939200401,-0.1567936241626739,-0.1573141813278198,-0.074295237660408,0.0,0.0,0.2610259056091308,-0.4493873715400696
-0.0825583487749099,0.0207118839025497,0.0440296530723571,-0.1417486667633056,-0.1617694646120071,-0.0891055613756179,0.0,0.0,0.1460890769958496,-0.5387020707130432
-0.0821303352713584,0.017761955037713,0.0467952191829681,-0.1315513104200363,-0.1657721102237701,-0.0800529718399047,0.0,0.0,0.2173601388931274,-0.6746649146080017
-0.0816160216927528,0.0155194858089089,0.0362944714725017,-0.0980732813477516,-0.150562435388565,0.3042885065078735,1.0,0.0,0.3719410896301269,-0.0781314969062805
-0.0810370445251464,0.014061365276575,0.0285847522318363,-0.0621281787753105,-0.1212715208530426,0.585921049118042,1.0,0.0,0.1368724107742309,-0.1665431261062622
-0.0805215835571289,0.0125456666573882,0.0235547460615634,-0.0653251186013221,-0.0934784188866615,0.555861234664917,1.0,0.0,0.0572733879089355,0.1665849685668945
-0.079985424876213,0.0109950639307498,0.0256044678390026,-0.067395344376564,-0.0657497197389602,0.5545749068260193,0.0,0.0,0.2751543521881103,0.8827345371246338
-0.0793897658586502,0.0094742514193058,0.0339940786361694,-0.0666642859578132,-0.040475346148014,0.5054880380630493,0.0,0.0,-0.0915066599845886,0.9453861713409424
-0.0787639617919921,0.0073613859713077,0.0400380119681358,-0.0934451296925544,-0.0182040780782699,0.445425808429718,0.0,0.0,0.3935496807098388,0.8572814464569092
-0.0780270546674728,0.0055333711206912,0.05346654728055,-0.0811225026845932,0.0017558910185471,0.3991992473602295,0.0,0.0,-0.1117860078811645,0.8227579593658447
-0.0772830992937088,0.0031322573777288,0.0566248819231987,-0.1068277731537818,0.0193011313676834,0.350905030965805,0.0,0.0,0.6610151529312134,0.969068169593811
