x_pos,y_pos,x_vel,y_vel,angle,ang_vel,leg_1,leg_2,main_booster,lat_booster
-0.0014963150024414,1.403117060661316,-0.1513993442058563,-0.3468031287193298,0.0015859210398048,0.031270507723093,0.0,0.0,-0.1493459939956665,0.6584964990615845
-0.0029074668418616,1.3948266506195068,-0.1410680413246154,-0.3684633374214172,0.001532417605631,-0.0010694912634789,0.0,0.0,-0.1831527352333068,0.3080126047134399
-0.0042881965637207,1.386028289794922,-0.1378146708011627,-0.3910392522811889,0.0012768127489835,-0.0051125446334481,0.0,0.0,0.0639402866363525,0.731286883354187
-0.0056681632995605,1.3772026300430298,-0.1359620988368988,-0.3922524452209472,-0.0007275014650076,-0.0400901846587657,0.0,0.0,0.060165524482727,0.5985004901885986
-0.0068747522309422,1.368498921394348,-0.1173356920480728,-0.386836439371109,-0.0040077636949718,-0.0656115189194679,0.0,0.0,-0.0416520833969116,0.3050175905227661
-0.0080469129607081,1.3592878580093384,-0.1136454492807388,-0.4093931019306183,-0.0075405961833894,-0.0706632435321807,0.0,0.0,-0.5246710777282715,0.4645555019378662
-0.0091835977509617,1.3495696783065796,-0.1098274588584899,-0.431944876909256,-0.0113425459712743,-0.076045736670494,0.0,0.0,-0.0862120985984802,-0.2572377324104309
-0.010283756069839,1.3393442630767822,-0.1058888807892799,-0.4544982314109802,-0.0154295526444911,-0.0817474573850631,0.0,0.0,-0.3109983801841736,0.1358801126480102
-0.0113464351743459,1.3286118507385254,-0.1018369942903518,-0.4770525097846985,-0.0198174081742763,-0.087765023112297,0.0,0.0,0.8044896125793457,0.8329644203186035
-0.0122902868315577,1.3185654878616333,-0.087960809469223,-0.4466024339199066,-0.0261734668165445,-0.127132773399353,0.0,0.0,-0.2683372497558594,0.1218891143798828
-0.013194846920669,1.3080122470855713,-0.0836968719959259,-0.4691686928272247,-0.0328598096966743,-0.133739024400711,0.0,0.0,-0.6279298663139343,-0.8626121878623962
-0.0141193391755223,1.2969533205032349,-0.0868685096502304,-0.4916352033615112,-0.0383827127516269,-0.1104682832956314,0.0,0.0,0.3247276544570923,-0.7170425653457642
-0.0149212833493947,1.2862284183502195,-0.0758786350488662,-0.476777583360672,-0.0426572002470493,-0.0854972451925277,0.0,0.0,-0.7094080448150635,-0.8040314316749573
-0.0157382003962993,1.27499258518219,-0.0784191414713859,-0.4994725883007049,-0.0458949320018291,-0.0647605806589126,0.0,0.0,-0.2959432601928711,-0.4937117099761963
-0.0165129657834768,1.2632496356964111,-0.0738270133733749,-0.5220245718955994,-0.0495203621685504,-0.0725148469209671,0.0,0.0,-0.607707142829895,-0.7126737833023071
-0.0172916408628225,1.2509945631027222,-0.0749562829732894,-0.5447614789009094,-0.0523896813392639,-0.0573915913701057,0.0,0.0,-0.5510939359664917,-0.9476569890975952
-0.0180843360722064,1.238248348236084,-0.0774205103516578,-0.5665740966796875,-0.0542184226214885,-0.0365783013403415,0.0,0.0,-0.6910223364830017,-0.8868695497512817
-0.0188871379941701,1.2249914407730105,-0.0793621689081192,-0.5892239809036255,-0.0551283583045005,-0.0182006023824214,0.0,0.0,0.0467915534973144,-0.84746253490448
-0.0196123123168945,1.2119967937469482,-0.072869673371315,-0.5775244832038879,-0.0547727271914482,0.0071133389137685,0.0,0.0,-0.5438541769981384,-0.1171821355819702
-0.0202930457890033,1.1984951496124268,-0.0679836943745613,-0.6000850796699524,-0.0548649504780769,-0.0018448153277859,0.0,0.0,-0.6624199748039246,-0.5146510004997253
-0.0209609977900981,1.184492588043213,-0.0670497715473175,-0.6223234534263611,-0.0546072572469711,0.0051544858142733,0.0,0.0,-0.5490341186523438,-0.8012336492538452
-0.0216460227966308,1.1699833869934082,-0.069867804646492,-0.6447965502738953,-0.0532562434673309,0.0270225945860147,0.0,0.0,-0.6286121606826782,-0.7239960432052612
-0.0223305709660053,1.1549699306488037,-0.0704828202724456,-0.6671963930130005,-0.0512535609304904,0.0400574877858161,0.0,0.0,-0.3581218719482422,-0.4058687090873718
-0.0229695327579975,1.1394493579864502,-0.0654328763484954,-0.6897517442703247,-0.0497373156249523,0.0303277019411325,0.0,0.0,-0.5372243523597717,-0.8700072765350342
-0.0236476901918649,1.1234304904937744,-0.0709999948740005,-0.7118465900421143,-0.0465760342776775,0.0632312521338462,0.0,0.0,-0.5391138792037964,-0.0979126691818237
-0.0242803581058979,1.10688316822052,-0.0659573152661323,-0.7353550791740417,-0.0439180210232734,0.0531602725386619,0.0,0.0,-0.4702720642089844,0.3988676071166992
-0.0248667709529399,1.0898287296295166,-0.0608135350048542,-0.7579085826873779,-0.0417700074613094,0.0429601892828941,0.0,0.0,-0.0866826176643371,0.0789238214492797
-0.0254067424684762,1.0722672939300537,-0.0556473731994628,-0.780461847782135,-0.0401389189064502,0.0326215662062168,0.0,0.0,-0.2387879490852356,-0.3937913179397583
-0.0259000770747661,1.054198980331421,-0.0504618398845195,-0.803014874458313,-0.03903129696846,0.0221524909138679,0.0,0.0,0.3791671991348266,-0.8973609209060669
-0.0264219287782907,1.0362353324890137,-0.054562896490097,-0.7983205914497375,-0.0366874597966671,0.0468764565885067,0.0,0.0,0.1012647151947021,-0.4118419885635376
-0.026863956823945,1.0186100006103516,-0.0460877306759357,-0.7833054065704346,-0.0348212979733943,0.0373232252895832,0.0,0.0,0.2752912044525146,-0.1358129978179931
-0.0273074153810739,1.0009876489639282,-0.0454029887914657,-0.7831874489784241,-0.0337736532092094,0.0209526233375072,0.0,0.0,0.0326502323150634,-0.4345338344573974
-0.0277386661618948,0.9836120009422302,-0.0433913171291351,-0.7722453474998474,-0.0335105583071708,0.0052618863992393,0.0,0.0,-0.1032707691192627,-0.2744948267936706
-0.0281230919063091,0.9657291769981384,-0.0381514728069305,-0.7947978973388672,-0.0337979979813098,-0.0057486342266201,0.0,0.0,-0.392328679561615,-0.8785606026649475
-0.0285283084958791,0.9473444819450378,-0.0413876101374626,-0.8170779943466187,-0.0329398438334465,0.0171629916876554,0.0,0.0,0.690813422203064,0.1115072965621948
-0.0288426391780376,0.929612159729004,-0.0318200699985027,-0.7880942821502686,-0.03255470469594,0.0077027706429362,0.0,0.0,-0.2462472915649414,-0.2247520089149475
-0.0291101448237895,0.911372721195221,-0.0265793111175298,-0.8106468319892883,-0.0327324755489826,-0.0035551197361201,0.0,0.0,-0.0095323920249938,-0.5495172142982483
-0.0293718334287405,0.8926323056221008,-0.0264426730573177,-0.8328999876976013,-0.0324522741138935,0.0056039434857666,0.0,0.0,0.7075328826904297,0.5637565851211548
-0.0295574180781841,0.8746965527534485,-0.0170168131589889,-0.7971773743629456,-0.0339773558080196,-0.0305017121136188,0.0,0.0,0.0414372682571411,-0.8214680552482605
-0.0297276489436626,0.8568314909934998,-0.0165646243840456,-0.7940157651901245,-0.0344354435801506,-0.0091615142300724,0.0,0.0,0.3721233606338501,-0.6281537413597107
-0.0299763679504394,0.8394415974617004,-0.0249028541147708,-0.7728859186172485,-0.0344076752662658,0.000555321923457,0.0,0.0,0.2010378837585449,-0.4876839518547058
-0.0300763137638568,0.8221103549003601,-0.0098530258983373,-0.770278811454773,-0.0345430374145507,-0.002707362640649,0.0,0.0,-0.5997177958488464,-0.4721345901489258
-0.0301302913576364,0.8042720556259155,-0.0046774102374911,-0.7928314208984375,-0.0352589711546897,-0.0143183972686529,0.0,0.0,-0.5762943029403687,-0.3082308173179626
-0.0301386825740337,0.7859265804290771,0.0004787680227309,-0.8153842091560364,-0.0365576110780239,-0.0259726643562316,0.0,0.0,0.4956575632095337,0.1500017642974853
-0.0301286689937114,0.7674757242202759,0.0030835319776088,-0.8200902342796326,-0.0386111289262771,-0.0410703718662261,0.0,0.0,-0.6826464533805847,-0.7638291120529175
-0.0301294326782226,0.7485132813453674,0.0011729738907888,-0.8428090810775757,-0.039848618209362,-0.0247499477118253,0.0,0.0,0.5866692066192627,-0.4303692579269409
-0.0300097465515136,0.7296835780143738,0.0135468393564224,-0.8369211554527283,-0.0414031259715557,-0.0310900602489709,0.0,0.0,-0.1217082142829895,-0.7374798655509949
-0.0299144741147756,0.7103589773178101,0.0099403103813529,-0.8588830232620239,-0.041804950684309,-0.0080364514142274,0.0,0.0,-0.3645795583724975,-0.183260440826416
-0.0297748558223247,0.6905272006988525,0.0149619225412607,-0.8814362287521362,-0.0427974425256252,-0.0198498256504535,0.0,0.0,0.1112300157546997,-0.2161630988121032
-0.0295909885317087,0.6707021594047546,0.020058337599039,-0.8811644315719604,-0.0444475188851356,-0.0330016799271106,0.0,0.0,0.6816017627716064,-0.1342853307723999
-0.0291918758302927,0.6512312293052673,0.0414951667189598,-0.8654194474220276,-0.0460148751735687,-0.0313470140099525,0.0,0.0,0.4551558494567871,-0.549967885017395
-0.0288180354982614,0.6322360038757324,0.0385980904102325,-0.8442667722702026,-0.0472107827663421,-0.0239182449877262,0.0,0.0,-0.459233283996582,-0.623956561088562
-0.0284420009702444,0.6127333045005798,0.0383897945284843,-0.8668149709701538,-0.0479852110147476,-0.0154888778924942,0.0,0.0,0.4705172777175903,-0.6643635034561157
-0.0280388835817575,0.5937969088554382,0.0403566285967826,-0.8416164517402649,-0.0480250604450702,-0.0007970661972649,0.0,0.0,0.3107671737670898,-0.5072545409202576
-0.0274874679744243,0.5749249458312988,0.05445222184062,-0.8387352824211121,-0.0473536550998687,0.0134282875806093,0.0,0.0,0.0729589462280273,-0.760688066482544
-0.0270122531801462,0.556010365486145,0.0459652654826641,-0.8405982255935669,-0.0458111800253391,0.0308496113866567,0.0,0.0,0.5796524286270142,-0.4851004481315613
-0.0263715740293264,0.537724494934082,0.0626872330904007,-0.8126650452613831,-0.0444478578865528,0.0272664465010166,0.0,0.0,-0.3741555213928222,-0.5459352731704712
-0.0257240291684865,0.5189359784126282,0.0631339699029922,-0.8349961638450623,-0.0428418330848217,0.0321205407381057,0.0,0.0,0.4898209571838379,-0.9032392501831056
-0.025000000372529,0.5007622241973877,0.0694660544395446,-0.8076446652412415,-0.0399433746933937,0.0579691752791404,0.0,0.0,0.6364090442657471,-0.7418587803840637
-0.0243473052978515,0.4832629859447479,0.0616118982434272,-0.7776526212692261,-0.0363247282803058,0.0723726823925972,0.0,0.0,0.214146614074707,-0.5349760055541992
-0.0236475951969623,0.4656600952148437,0.0657453164458274,-0.782251238822937,-0.0321526676416397,0.0834414809942245,0.0,0.0,0.5312740802764893,-0.455845296382904
-0.0229823105037212,0.4485295116901397,0.0633450224995613,-0.7612968683242798,-0.02900349535048,0.0629833489656448,0.0,0.0,0.7689497470855713,-0.5860906839370728
-0.0221686363220214,0.4317165017127991,0.077216662466526,-0.7471696734428406,-0.0249083172529935,0.0819035172462463,0.0,0.0,0.7552461624145508,-0.6127952933311462
-0.0213240627199411,0.415374755859375,0.079601339995861,-0.7262256145477295,-0.0201173909008502,0.0958183854818344,0.0,0.0,0.3765110969543457,-0.4115774631500244
-0.020430851727724,0.3990267515182495,0.0850375592708587,-0.726527214050293,-0.0158863719552755,0.0846204757690429,0.0,0.0,0.7421799898147583,-0.6464725136756897
-0.019685173407197,0.3831113576889038,0.0699154585599899,-0.7073068618774414,-0.0112980771809816,0.0917656421661377,0.0,0.0,0.6782269477844238,-0.4363335371017456
-0.0188739784061908,0.3679925203323364,0.0769611820578575,-0.6719248294830322,-0.0071961865760385,0.0820379853248596,0.0,0.0,0.6571943759918213,-0.6645617485046387
-0.0179907791316509,0.3527982532978058,0.0832164511084556,-0.675285279750824,-0.0021579028107225,0.1007655709981918,0.0,0.0,0.4394741058349609,-0.4033982157707214
-0.0170501712709665,0.3382124900817871,0.0894359573721885,-0.648255467414856,0.0024054842069745,0.09126777946949,0.0,0.0,0.5925770998001099,-0.5296337008476257
-0.0162185672670602,0.3238012194633484,0.078323595225811,-0.6405150890350342,0.0071851289831101,0.095593124628067,0.0,0.0,0.8079133033752441,0.0500061511993408
-0.0154622076079249,0.3099930584430694,0.0718474015593528,-0.6137171387672424,0.0109202563762664,0.0747026354074478,0.0,0.0,0.5089032649993896,-0.2695961594581604
-0.0146544454619288,0.2965306639671325,0.0774437710642814,-0.5983583331108093,0.0142080457881093,0.0657559260725975,0.0,0.0,0.7965055704116821,-0.4785751104354858
-0.0139711378142237,0.2839352190494537,0.0662333369255065,-0.5598200559616089,0.0162731502205133,0.0413019508123397,0.0,0.0,0.2050364017486572,-0.4357113838195801
-0.0132135394960641,0.2714652419090271,0.0740001648664474,-0.5542392134666443,0.018014270812273,0.0348224341869354,0.0,0.0,0.6458032131195068,-0.7720316648483276
-0.0125342365354299,0.2590634822845459,0.065255582332611,-0.5512247085571289,0.0206528175622224,0.0527710132300853,0.0,0.0,0.7518490552902222,-0.0407842993736267
-0.0117643354460597,0.2466734051704406,0.0745575800538063,-0.550706684589386,0.0230593439191579,0.0481305383145809,0.0,0.0,0.748438835144043,-0.4888033270835876
-0.0110113145783543,0.234313279390335,0.0735817775130271,-0.5493648648262024,0.0247491300106048,0.0337959639728069,0.0,0.0,0.7909891605377197,-0.6071537733078003
-0.0103138927370309,0.2227384448051452,0.0674060508608818,-0.51447993516922,0.0270625725388526,0.0462686754763126,0.0,0.0,0.5485544204711914,-0.4770353436470032
-0.0095394132658839,0.2118056118488311,0.0753144174814224,-0.4859445989131927,0.0291689839214086,0.0421282909810543,0.0,0.0,0.3830951452255249,-0.8166570663452148
-0.0089339260011911,0.2013919204473495,0.0574587881565094,-0.4628947973251343,0.0322172753512859,0.0609657950699329,0.0,0.0,0.6271576881408691,-0.7184454798698425
-0.0085146902129054,0.1909428983926773,0.0382346212863922,-0.4644847810268402,0.0358682386577129,0.0730191767215728,0.0,0.0,0.7847945690155029,0.3633073568344116
-0.0080628395080566,0.1812688410282135,0.0418288707733154,-0.4300411343574524,0.0391811728477478,0.0662587136030197,0.0,0.0,0.6103229522705078,-0.2861409187316894
-0.0077131269499659,0.1719222366809845,0.0326204188168048,-0.4154695570468902,0.0415032245218753,0.0464407429099082,0.0,0.0,0.8636715412139893,-0.1677085757255554
-0.0074394224211573,0.1632100641727447,0.0258453227579593,-0.3872524499893188,0.0430111549794673,0.0301588419824838,0.0,0.0,0.8063546419143677,-0.2571826577186584
-0.0071951868012547,0.1551350504159927,0.0234893262386322,-0.3589150607585907,0.0439370088279247,0.0185170285403728,0.0,0.0,0.8887097835540771,-0.4090465307235718
-0.0068651200272142,0.1475556939840316,0.0321272760629653,-0.3368879556655884,0.0448093153536319,0.017445994541049,0.0,0.0,0.5190794467926025,-0.8722363710403442
-0.0065788268111646,0.1399286389350891,0.0264635235071182,-0.3390438854694366,0.0469436347484588,0.0426863767206668,0.0,0.0,0.5153591632843018,-0.7719422578811646
-0.0062629701569676,0.1323441416025161,0.0282210167497396,-0.3371999561786651,0.0502725876867771,0.0665789917111396,0.0,0.0,0.6288450956344604,-0.0729369521141052
-0.0058180810883641,0.125106394290924,0.0409422665834426,-0.3218008577823639,0.0537819042801857,0.0701864287257194,0.0,0.0,0.1834006309509277,-0.8787502646446228
-0.0053302766755223,0.1177812442183494,0.043890256434679,-0.3257433176040649,0.0586169771850109,0.0967013388872146,0.0,0.0,0.0709180831909179,-0.8759546279907227
-0.004934215452522,0.1106778979301452,0.0334293358027935,-0.315958559513092,0.0647220388054847,0.1221011281013488,0.0,0.0,-0.0517284274101257,-0.4599011540412903
-0.0045286179520189,0.1030672192573547,0.0348549894988536,-0.3385101556777954,0.0703663304448127,0.1128857359290123,0.0,0.0,0.5872538089752197,0.0719337463378906
-0.0040400503203272,0.0959207415580749,0.0430511608719825,-0.3179074823856354,0.0761147737503051,0.114968791604042,0.0,0.0,0.3299794197082519,-0.9211690425872804
-0.003542709397152,0.0886526703834533,0.0424496382474899,-0.3234134912490845,0.0833316668868064,0.1443378627300262,0.0,0.0,0.6698741912841797,0.3796749114990234
-0.0031341551803052,0.0816400870680809,0.0342489331960678,-0.3120521008968353,0.0898789390921592,0.1309453547000885,0.0,0.0,0.4821524620056152,0.1439040899276733
-0.0027132988907396,0.075286753475666,0.0355428420007228,-0.282777726650238,0.0963675379753112,0.1297717690467834,0.0,0.0,0.0796382427215576,-0.7548695802688599
-0.0023997307289391,0.0689700469374656,0.0237096436321735,-0.2812537848949432,0.1039537861943245,0.1517249941825866,0.0,0.0,0.3044096231460571,0.6224846839904785
-0.0022059441544115,0.0630794838070869,0.0135668236762285,-0.2622175514698028,0.1097195819020271,0.1153161376714706,0.0,0.0,0.46642005443573,0.9393177032470704
-0.0019150733714923,0.0576361753046512,0.025443073362112,-0.2421963810920715,0.1133343279361724,0.0722948759794235,0.0,0.0,0.233267068862915,0.2275739908218383
-0.0017240524757653,0.0525130853056907,0.0160010699182748,-0.2279348820447921,0.1164204403758049,0.0617220699787139,0.0,0.0,0.3467745780944824,0.7227680683135986
-0.0016196251381188,0.0477933995425701,0.0092309722676873,-0.2098550200462341,0.1176235228776931,0.024061344563961,0.0,0.0,0.271648645401001,0.9477214813232422
-0.0015055655967444,0.0431430898606777,0.0124210026115179,-0.2066032141447067,0.1166216880083084,-0.0200368594378232,0.0,0.0,0.2498219013214111,0.2640162706375122
-0.0015304565895348,0.0386472791433334,-0.0007873355643823,-0.199679747223854,0.1149286702275276,-0.0338606461882591,0.0,0.0,0.4499510526657104,0.8492059707641602
-0.001688003540039,0.034312829375267,-0.0118959285318851,-0.1923498809337616,0.1110939159989357,-0.0766949281096458,0.0,0.0,0.7077449560165405,0.8757035732269287
-0.0017379760975018,0.0306151732802391,0.0006665846449322,-0.1639288365840912,0.1054723337292671,-0.1124318614602088,0.0,0.0,0.5059223175048828,0.7698743343353271
-0.0017003059620037,0.0269248113036155,0.0110851898789405,-0.1635157167911529,0.0982078462839126,-0.1452898234128952,0.0,0.0,0.4089236259460449,-0.0533564686775207
-0.0016036033630371,0.0237169601023197,0.0166145898401737,-0.1421336829662323,0.0913289114832878,-0.137578547000885,0.0,0.0,0.1065083742141723,-0.3860523700714111
-0.0015699386131018,0.0207763295620679,0.0105371149256825,-0.1302713751792907,0.0842189714312553,-0.1421988308429718,0.0,0.0,-0.2522045373916626,-0.0483518242835998
-0.0015371323097497,0.0173289403319358,0.0105986958369612,-0.1528256982564926,0.0769762769341468,-0.1448540389537811,0.0,0.0,0.2622262239456177,-0.0726298689842224
-0.001481246901676,0.0140436263754963,0.0127457426860928,-0.1456615328788757,0.0698985606431961,-0.1415547281503677,0.0,0.0,0.1258527040481567,-0.4122359752655029
-0.0014701843028888,0.0110836122184991,0.0083601018413901,-0.1312359869480133,0.0627221465110778,-0.1435279250144958,0.0,0.0,-0.006865918636322,-0.5336722731590271
-0.0014984130393713,0.0076178405433893,0.0035083822440356,-0.1537818312644958,0.056453239172697,-0.1253780424594879,0.0,0.0,0.5633091926574707,-0.252325177192688
-0.001476478530094,0.0043013072572648,0.0082028452306985,-0.14718659222126,0.0505198873579502,-0.1186671108007431,0.0,0.0,0.6836678981781006,-0.3584417104721069
-0.0016789436340332,0.0019014095887541,-0.0007105283439159,-0.1061354503035545,0.031161205843091,-0.3872546553611755,0.0,1.0,0.557807207107544,0.2584608793258667
-0.0020179748535156,-0.0002790117287077,-0.0137529401108622,-0.0966158732771873,0.0112407738342881,-0.3984435200691223,0.0,1.0,0.1728875637054443,0.3503003120422363
-0.0023771286942064,-0.0023616575635969,-0.015658926218748,-0.0925330072641372,-0.0087514603510499,-0.3998448848724365,1.0,1.0,0.8958644866943359,0.3204905986785888
-0.002653217408806,-0.0036029838956892,-0.0176313333213329,-0.0554500147700309,-0.0178827214986085,-0.1817110925912857,1.0,1.0,0.4643545150756836,-0.0953043699264526
-0.0027596473228186,-0.0039912248030304,-0.0078741135075688,-0.0173049960285425,-0.0205868240445852,-0.054046768695116,1.0,1.0,-0.737201988697052,-0.2406129240989685
-0.0027869225014001,-0.0038644098676741,-0.0038984466809779,0.0056654675863683,-0.019429275766015,0.0231477860361337,1.0,1.0,-0.7705997824668884,-0.1427914500236511
-0.0027790069580078,-0.0033311867155134,-0.0032742426265031,0.023742202669382,-0.015411022119224,0.0803798660635948,1.0,1.0,-0.2970732450485229,0.4366765022277832
-0.0027466774918138,-0.0025249861646443,-0.0028510456904768,0.0358790010213851,-0.0093957381322979,0.1203158646821975,1.0,1.0,-0.0886588096618652,0.4251186847686767
