x_pos,y_pos,x_vel,y_vel,angle,ang_vel,leg_1,leg_2,main_booster,lat_booster
-0.0015279769431799,1.4030262231826782,-0.1553400754928589,-0.3508372008800506,0.0022764150053262,0.0449423715472221,0.0,0.0,0.777057233360201,-0.83401805955358
-0.0030668259132653,1.3952977657318115,-0.158420905470848,-0.3435031175613403,0.0067715980112552,0.0899127051234245,0.0,0.0,-0.3731217243241069,-0.6955858464012119
-0.004654788877815,1.386965274810791,-0.1649282127618789,-0.3703695833683014,0.0128345005214214,0.121269479393959,0.0,0.0,0.772708809352527,0.6651140314152238
-0.0063432692550122,1.3788354396820068,-0.1737992912530899,-0.3613781332969665,0.0177249517291784,0.0978183001279831,0.0,0.0,-0.357426905701026,-0.9556065749685564
-0.0080999378114938,1.3701093196868896,-0.1826180219650268,-0.3879286348819732,0.0245997533202171,0.137508362531662,0.0,0.0,0.7283835269421552,-0.7320024912855193
-0.0097818374633789,1.361640691757202,-0.1774617135524749,-0.3765639066696167,0.0337742902338504,0.1835078299045562,0.0,0.0,0.9535714871119684,0.916956758936184
-0.0114556308835744,1.3536007404327393,-0.1752530634403228,-0.3575287461280823,0.0415660925209522,0.1558502316474914,0.0,0.0,-0.8281556445993989,-0.6803870312739272
-0.0131825450807809,1.3449631929397583,-0.1820852756500244,-0.3841787278652191,0.0508651882410049,0.1859992295503616,0.0,0.0,0.663563799845351,0.8402879000530363
-0.0149140357971191,1.3370041847229004,-0.1813345849514007,-0.3540264666080475,0.0589617006480693,0.161945179104805,0.0,0.0,-0.1897389900952417,-0.6566496830711746
-0.0167129524052143,1.3284478187561035,-0.1898624449968338,-0.3807044327259063,0.0688502416014671,0.1977886706590652,0.0,0.0,-0.638553949778023,-0.5219088227951736
-0.0185637474060058,1.3192919492721558,-0.1964346468448639,-0.407483160495758,0.0801107808947563,0.2252312153577804,0.0,0.0,-0.4095172269408318,0.8268765674961183
-0.020359992980957,1.309546947479248,-0.1896079331636428,-0.4336715936660766,0.0900202170014381,0.1982067972421646,0.0,0.0,0.8391566654531901,0.8527272735351521
-0.0220198631286621,1.300403714179993,-0.1750707328319549,-0.4069336950778961,0.0990344285964965,0.1803010404109954,0.0,0.0,0.9446633628840956,-0.8814936092400706
-0.0237215049564838,1.2912828922271729,-0.181665614247322,-0.4061705768108368,0.1104636117815971,0.2286044359207153,0.0,0.0,-0.6365217093295448,0.6681326135199575
-0.0253812782466411,1.2815837860107422,-0.1762741208076477,-0.4318685531616211,0.1207210123538971,0.2051665037870407,0.0,0.0,-0.9143516582529064,0.5867945917304345
-0.027009392157197,1.2712913751602173,-0.1721929907798767,-0.4582201838493347,0.130070224404335,0.1870008558034896,0.0,0.0,0.1882163538088879,0.6177363884128044
-0.0285847671329975,1.2613558769226074,-0.1663314700126648,-0.4423674941062927,0.1388332098722458,0.1752758771181106,0.0,0.0,-0.7733173194702883,-0.5323686368867273
-0.030217457562685,0.0,-0.1733119785785675,-0.4695457220077514,0.1488691419363021,0.200736790895462,0.0,0.0,0.8729247426813678,0.6270153280533914
-0.0318471901118755,1.241066813468933,-0.1725156754255294,-0.4341367781162262,0.1584167927503585,0.1909701526165008,0.0,0.0,0.5833491137344877,-0.6264224010682609
-0.0337225906550884,1.2314963340759275,-0.1985697299242019,-0.4265698194503784,0.1694717556238174,0.2211188524961471,0.0,0.0,-0.0303755454198477,0.8539413934913124
-0.0355480201542377,1.2213565111160278,-0.1919256150722503,-0.4517501592636108,0.1788933724164962,0.1884491443634033,0.0,0.0,0.4386016826115018,-0.7926299521048878
-0.0375226959586143,1.2111718654632568,-0.208870530128479,-0.4540704488754272,0.1903584748506546,0.2293227612972259,0.0,0.0,0.2018627649096012,-0.6129070166639075
-0.0395491607487201,1.2009903192520142,-0.2158328592777252,-0.4542576670646667,0.2036540806293487,0.2659353613853454,0.0,0.0,0.3868411474968771,0.7182344976147119
-0.0415417663753032,1.1906280517578125,-0.2115063220262527,-0.4622863829135895,0.2160355597734451,0.2476517260074615,0.0,0.0,0.657210990318408,-0.7974784180285068
-0.0439229011535644,1.1805479526519775,-0.2520502805709839,-0.450104147195816,0.2301494777202606,0.2823039293289184,0.0,0.0,0.7349160808779114,-0.9895694573741104
-0.0467497818171978,1.1708521842956543,-0.298720508813858,-0.4335085749626159,0.2464306205511093,0.3256229758262634,0.0,0.0,0.1106599621528678,0.7940523816858884
-0.0496700294315815,1.1613019704818726,-0.306802898645401,-0.4270046949386596,0.26149782538414,0.3013442456722259,0.0,0.0,0.1676872388985244,0.999554531401398
-0.0528106689453125,1.1520007848739624,-0.3271785080432892,-0.4157832562923431,0.2749260663986206,0.2685653567314148,0.0,0.0,-0.1212535988616678,0.6812398385965579
-0.055950928479433,1.142127513885498,-0.3264021575450897,-0.441191166639328,0.2876372337341308,0.2542228400707245,0.0,0.0,0.6272575814643795,0.6336294158420656
-0.0592408180236816,1.132359504699707,-0.3403633236885071,-0.4364227056503296,0.2993707060813904,0.2346686124801635,0.0,0.0,-0.3257993847216538,0.552477229782879
-0.0625302344560623,1.1220219135284424,-0.3394873142242431,-0.4616498649120331,0.310283362865448,0.2182529717683792,0.0,0.0,-0.8436498641967773,0.9974932670593262
-0.065795324742794,1.1111148595809937,-0.3356492519378662,-0.4867427051067352,0.319762647151947,0.1895854175090789,0.0,0.0,-0.6228516101837158,0.9950711727142334
-0.0690414458513259,1.099652647972107,-0.3323278725147247,-0.5111607909202576,0.3277952671051025,0.1606528460979461,0.0,0.0,-0.3054167032241821,0.9944019317626952
-0.0722633376717567,1.0876193046569824,-0.3284357190132141,-0.5362433195114136,0.3343212902545929,0.1305204033851623,0.0,0.0,-0.4410873055458069,0.98720121383667
-0.0754550918936729,1.0750306844711304,-0.3237070739269256,-0.5605491995811462,0.3390549719333648,0.0946735292673111,0.0,0.0,-0.6949155330657959,0.9697279930114746
-0.0786202400922775,1.0618913173675537,-0.3193236589431762,-0.5846375226974487,0.3420019149780273,0.0589387230575084,0.0,0.0,-0.7211952209472656,0.991299033164978
-0.0817605033516883,1.0481877326965332,-0.3152251839637756,-0.6093364953994751,0.3432614207267761,0.0251898802816867,0.0,0.0,-0.4021421670913696,0.9762922525405884
-0.0848730057477951,1.0339351892471311,-0.3106376528739929,-0.633298933506012,0.3426156044006347,-0.0129165751859545,0.0,0.0,-0.7991653680801392,0.9891114234924316
-0.0879679694771766,1.0191322565078735,-0.3072518706321716,-0.6573721170425415,0.3402735590934753,-0.0468413010239601,0.0,0.0,-0.7227197885513306,0.9957783222198486
-0.0910349860787391,1.003774642944336,-0.3025979101657867,-0.6816047430038452,0.3359851539134979,-0.0857682302594184,0.0,0.0,-0.8682476282119751,0.998833417892456
-0.0940927490592002,0.9878597259521484,-0.3002138435840606,-0.7060476541519165,0.3301743865013122,-0.1162160411477088,0.0,0.0,-0.7356595396995544,0.9965372085571288
-0.0971114188432693,0.9713916778564452,-0.294073611497879,-0.7301552891731262,0.3220583200454712,-0.1623214185237884,0.0,0.0,-0.6758735179901123,0.9993076324462892
-0.1000925078988075,0.9543601870536804,-0.2881494462490082,-0.7547819018363953,0.311709463596344,-0.2069773972034454,0.0,0.0,-0.0663508772850036,0.9997824430465698
-0.1030383110046386,0.9367725849151612,-0.2823871970176697,-0.7790988683700562,0.2990904450416565,-0.2523802816867828,0.0,0.0,-0.0192066431045532,0.9999047517776488
-0.1059645637869834,0.9186108112335204,-0.2786404490470886,-0.804382860660553,0.2846647500991821,-0.2885147929191589,0.0,0.0,-0.4252738952636719,0.9995709657669068
-0.108861543238163,0.8998801112174988,-0.2735715508460998,-0.8294197916984558,0.2681191861629486,-0.330911248922348,0.0,0.0,0.1366306543350219,0.9996142387390136
-0.1117695793509483,0.8810459971427917,-0.2726333737373352,-0.8338597416877747,0.2495731860399246,-0.3709204494953155,0.0,0.0,-0.0735776424407959,0.9976688623428344
-0.1146726608276367,0.8616525530815125,-0.2704498767852783,-0.8586838245391846,0.229384109377861,-0.4037819802761078,0.0,0.0,-0.0745671987533569,0.9394305944442748
-0.1175768822431564,0.8416943550109863,-0.2689755856990814,-0.8838398456573486,0.2076934427022934,-0.4338133931159973,0.0,0.0,0.2544723749160766,0.9743165969848632
-0.1205600723624229,0.8217267394065857,-0.2747789919376373,-0.8843178153038025,0.1839972287416458,-0.4739249348640442,0.0,0.0,0.1553606986999511,0.9790292978286744
-0.1234807968139648,0.8018112778663635,-0.2663902044296264,-0.882151186466217,0.158266007900238,-0.5146243572235107,0.0,0.0,0.7110769748687744,0.9532594680786132
-0.126571848988533,0.7824454307556152,-0.2812088429927826,-0.8579784035682678,0.130438357591629,-0.556553304195404,0.0,0.0,0.3477462530136108,0.7958767414093018
-0.1296056807041168,0.7630587220191956,-0.2737961411476135,-0.8593025803565979,0.1010318100452423,-0.5881315469741821,0.0,0.0,0.6958463191986084,0.9607133865356444
-0.1327018737792968,0.744329035282135,-0.277877539396286,-0.8305924534797668,0.0695726424455642,-0.6291840076446533,0.0,0.0,0.7803231477737427,0.8229823112487793
-0.1356521546840667,0.725822925567627,-0.2617185711860657,-0.8212730288505554,0.0366509854793548,-0.6584333181381226,0.0,0.0,0.9292402267456056,0.7927327156066895
-0.138740062713623,0.7075521349906921,-0.2733960151672363,-0.8115456700325012,0.0017025080742314,-0.6989704370498657,0.0,0.0,0.975195050239563,0.3692278861999511
-0.1417761743068695,0.69012850522995,-0.2685231268405914,-0.774698793888092,-0.032932560890913,-0.692702054977417,0.0,0.0,0.3770499229431152,-0.8350220322608948
-0.144788458943367,0.672965407371521,-0.2677923738956451,-0.7638788223266602,-0.0659832954406738,-0.6610150337219238,0.0,0.0,0.5555696487426758,-0.285247802734375
-0.147738367319107,0.6563718914985657,-0.26170215010643,-0.7392835021018982,-0.0989585891366005,-0.6595062017440796,0.0,0.0,0.5596444606781006,-0.0737363100051879
-0.1507454812526703,0.6403132677078247,-0.2669179737567901,-0.7162991762161255,-0.1325368285179138,-0.6715651750564575,0.0,0.0,0.8711793422698975,0.9730992317199708
-0.1536164283752441,0.6242600679397583,-0.2513158023357391,-0.7170491814613342,-0.1682501882314682,-0.7142680883407593,0.0,0.0,0.9514601230621338,0.7687668800354004
-0.1564732491970062,0.608873188495636,-0.2480014264583587,-0.6885659098625183,-0.2061011493206024,-0.757020115852356,0.0,0.0,0.9571597576141356,-0.9841480255126952
-0.1591803580522537,0.5937779545783997,-0.2352132350206375,-0.6762465834617615,-0.2420304715633392,-0.7185865640640259,0.0,0.0,0.986910343170166,-0.9438549876213074
-0.1618104875087738,0.5791919231414795,-0.2294100821018219,-0.6541655659675598,-0.2763406634330749,-0.6862043142318726,0.0,0.0,0.9788105487823486,-0.9915891885757446
-0.1644344329833984,0.5647369623184204,-0.2307025492191314,-0.6487696170806885,-0.308990865945816,-0.6530041098594666,0.0,0.0,0.9758143424987792,-0.9988061785697936
-0.1671327650547027,0.5508195757865906,-0.2397966682910919,-0.6252514123916626,-0.340249091386795,-0.6251651644706726,0.0,0.0,0.9605766534805298,-0.9979955554008484
-0.1695947647094726,0.5377894043922424,-0.2181261777877807,-0.5860270261764526,-0.3697984516620636,-0.5909870266914368,0.0,0.0,0.9741806983947754,-0.9952181577682496
-0.1719633042812347,0.5246343612670898,-0.2107742577791214,-0.5916591882705688,-0.3975469172000885,-0.5549691915512085,0.0,0.0,0.9052622318267822,-0.9652444124221802
-0.174044132232666,0.5122878551483154,-0.1838124245405197,-0.5557490587234497,-0.4236510992050171,-0.52208411693573,0.0,0.0,0.8936283588409424,-0.995818853378296
-0.1761420220136642,0.5002133846282959,-0.187149778008461,-0.5436517596244812,-0.448300838470459,-0.4929946959018707,0.0,0.0,0.6541461944580078,-0.984237790107727
-0.1781663000583648,0.4885878562927246,-0.1814052313566208,-0.523614227771759,-0.4714470207691192,-0.4629237055778503,0.0,0.0,0.9273366928100586,-0.993781328201294
-0.1799526214599609,0.477370411157608,-0.1593579947948455,-0.5052591562271118,-0.4929030537605285,-0.4291203916072845,0.0,0.0,0.6475889682769775,-0.9830308556556702
-0.1815906465053558,0.4668425619602203,-0.1460540443658828,-0.4743969738483429,-0.5128896236419678,-0.3997310698032379,0.0,0.0,0.684464693069458,-0.9899355173110962
-0.1829922646284103,0.456488162279129,-0.124099276959896,-0.4663390517234802,-0.5311676263809204,-0.3655599951744079,0.0,0.0,0.621030330657959,-0.9980880618095398
-0.1843602210283279,0.4461196660995483,-0.1222778186202049,-0.4666067957878113,-0.5478580594062805,-0.3338099122047424,0.0,0.0,0.5951170921325684,-0.9934623837471008
-0.1856296509504318,0.4355546236038208,-0.1139986887574195,-0.474901407957077,-0.5628774166107178,-0.3003877103328705,0.0,0.0,0.431599497795105,-0.9977826476097108
-0.1868963241577148,0.4248493313789367,-0.115225575864315,-0.4806723594665527,-0.576295793056488,-0.2683680057525635,0.0,0.0,0.4142594337463379,-0.9924803376197816
-0.1879196166992187,0.4144824743270874,-0.0923544541001319,-0.4651194810867309,-0.5880834460258484,-0.2357525825500488,0.0,0.0,-0.2154726386070251,-0.9961962103843688
-0.1890531480312347,0.4035867154598236,-0.1045833677053451,-0.4881912469863891,-0.5985127091407776,-0.2085854262113571,0.0,0.0,0.2905088663101196,-0.9834007024765016
-0.1900281906127929,0.393047571182251,-0.0901332944631576,-0.4717835783958435,-0.6073381900787354,-0.1765090823173523,0.0,0.0,-0.3466296195983886,-0.9949036240577698
-0.1911416947841644,0.381986916065216,-0.1057463660836219,-0.4941989481449127,-0.6140984296798706,-0.1352042853832245,0.0,0.0,0.7631344795227051,-0.9746915102005004
-0.1918453276157379,0.3713976144790649,-0.0661357566714286,-0.472632348537445,-0.6192111372947693,-0.1022540479898452,0.0,0.0,-0.5418568849563599,-0.9730241894721984
-0.1926774978637695,0.3602912127971649,-0.0805848687887191,-0.4948712289333343,-0.6224004626274109,-0.0637861043214798,0.0,0.0,0.5630648136138916,-0.9963847398757936
-0.1933009177446365,0.3494949340820312,-0.0610121488571167,-0.4804719388484955,-0.6240095496177673,-0.032181441783905,0.0,0.0,-0.2486305236816406,-0.9716774225234984
-0.1940401047468185,0.3381759226322174,-0.0739260911941528,-0.5030632615089417,-0.6240088939666748,1.313781558565097e-05,0.0,0.0,0.0337228775024414,-0.9437639117240906
-0.1946279555559158,0.3267134428024292,-0.0599769055843353,-0.5088716149330139,-0.6225572228431702,0.0290340147912502,0.0,0.0,0.1719890832901001,-0.919058322906494
-0.19517382979393,0.3149910569190979,-0.0569555573165416,-0.5198683738708496,-0.6196848154067993,0.0574477016925811,0.0,0.0,-0.0876340270042419,-0.955895721912384
-0.1958268135786056,0.3027240037918091,-0.0686450451612472,-0.5436194539070129,-0.6156314611434937,0.0810670256614685,0.0,0.0,0.4466865062713623,-0.8467622995376587
-0.1961788237094879,0.2904068529605865,-0.0397291257977485,-0.5453023314476013,-0.6101599931716919,0.1094293594360351,0.0,0.0,0.3794325590133667,-0.9578502774238586
-0.1963477134704589,0.2778441905975342,-0.0227336622774601,-0.5556333661079407,-0.6031367182731628,0.1404650509357452,0.0,0.0,0.362249493598938,-0.9191392064094543
-0.196275994181633,0.2655241787433624,0.0001060325739672,-0.5443344712257385,-0.5946895480155945,0.1689432561397552,0.0,0.0,0.1788362264633178,-0.8543822765350342
-0.1959814131259918,0.2533234357833862,0.0212637186050415,-0.5385986566543579,-0.5849543213844299,0.1947041302919387,0.0,0.0,-0.0715572834014892,-0.8942530751228333
-0.195779412984848,0.2405782788991928,0.0111485999077558,-0.5624945163726807,-0.5742620229721069,0.2138449847698211,0.0,0.0,0.4967777729034424,-0.746510922908783
-0.1954298913478851,0.227571353316307,0.0248230211436748,-0.5737690329551697,-0.5624032020568848,0.2371770143508911,0.0,0.0,0.5340228080749512,-0.6868602633476257
-0.1949646025896072,0.2146559059619903,0.035652257502079,-0.5695035457611084,-0.5497540235519409,0.2529836893081665,0.0,0.0,0.6979210376739502,-0.5527791380882263
-0.1940345764160156,0.2022487223148346,0.0812974050641059,-0.5467146039009094,-0.5362589359283447,0.2699017822742462,0.0,0.0,0.6217719316482544,-0.9269598126411438
-0.1929454803466797,0.1900447458028793,0.0959209501743316,-0.5373287200927734,-0.5214052200317383,0.2970744371414184,0.0,0.0,0.5577425956726074,-0.9413355588912964
-0.1916988343000412,0.1783860027790069,0.1104306951165199,-0.5127989649772644,-0.5052576065063477,0.3229519724845886,0.0,0.0,0.7381224632263184,-0.8929603099822998
-0.19010591506958,0.1670805960893631,0.1436280012130737,-0.4967885017395019,-0.4876525402069092,0.3521013259887695,0.0,0.0,0.6910133361816406,-0.9839548468589784
-0.188309758901596,0.1563058495521545,0.1625090390443802,-0.4729532897472381,-0.4686238467693329,0.3805736303329468,0.0,0.0,0.4409887790679931,-0.9184672236442566
-0.1863884925842285,0.1459251195192337,0.1736927628517151,-0.4552825391292572,-0.4483197033405304,0.4060827791690826,0.0,0.0,0.4318997859954834,-0.8856081962585449
-0.1843980848789215,0.1355966180562973,0.1792901158332824,-0.4528665840625763,-0.426786333322525,0.430668294429779,0.0,0.0,0.6749331951141357,-0.9081594347953796
-0.1823704689741134,0.1256386786699295,0.1817784458398819,-0.4363855421543121,-0.4041388630867004,0.452949583530426,0.0,0.0,0.3671756982803345,-0.8603717684745789
-0.1803933084011078,0.1158114299178123,0.1755447685718536,-0.4306292235851288,-0.3804395496845245,0.4739870131015777,0.0,0.0,0.4909039735794067,-0.909500002861023
-0.1781658232212066,0.1062840074300766,0.1990429311990738,-0.417324960231781,-0.3553443849086761,0.5019024610519409,0.0,0.0,0.2957485914230346,-0.8833231329917908
-0.1758764237165451,0.0965766310691833,0.2038191556930542,-0.4254472553730011,-0.3290073871612549,0.526739776134491,0.0,0.0,0.8394184112548828,-0.8972411751747131
-0.1732300817966461,0.0874429568648338,0.2378013134002685,-0.4000788629055023,-0.3011259138584137,0.5576296448707581,0.0,0.0,0.8493810892105103,-0.9660127758979796
-0.1704427748918533,0.079022467136383,0.2503587901592254,-0.3686423003673553,-0.2719180583953857,0.58415687084198,0.0,0.0,0.8684511184692383,-0.9451308846473694
-0.1673091948032379,0.0713821724057197,0.2831673622131347,-0.3342532813549042,-0.2410982996225357,0.6163951754570007,0.0,0.0,0.7855815887451172,-0.96920245885849
-0.1640242636203766,0.0640656054019928,0.2966060936450958,-0.3202831447124481,-0.2087967097759246,0.6460322141647339,0.0,0.0,0.9264194965362548,-0.9648744463920592
-0.1606350839138031,0.0575996972620487,0.3054926991462707,-0.2830038666725158,-0.1751733124256134,0.6724678874015808,0.0,0.0,0.8711605072021484,-0.9752232432365416
-0.1570982933044433,0.0518786534667015,0.3185847997665405,-0.2505094707012176,-0.1400813311338424,0.7018402814865112,0.0,0.0,0.8869268894195557,-0.96878319978714
-0.1534690856933593,0.0463450066745281,0.3261481821537018,-0.2428903132677078,-0.1035033538937568,0.7315598726272583,0.0,0.0,0.8013026714324951,-0.9804816246032716
-0.1499987542629242,0.0412749163806438,0.3089877963066101,-0.223134383559227,-0.0658054873347282,0.7539577484130859,0.0,0.0,0.7584917545318604,-0.7471855878829956
-0.1467011421918869,0.0364650338888168,0.2910603582859039,-0.2125161439180374,-0.0275537353008985,0.7650356292724609,0.0,0.0,0.7128546237945557,-0.537581741809845
-0.1434520781040191,0.0319556333124637,0.2857694029808044,-0.2001507580280304,0.0110817942768335,0.7727110385894775,0.0,0.0,0.7047299146652222,-0.3982881307601928
-0.1401782929897308,0.0276936385780572,0.2887662053108215,-0.1901489049196243,0.0492190346121788,0.7627453804016113,0.0,0.0,0.6465380191802979,0.1786754131317138
-0.1367855072021484,0.0233988147228956,0.3007436394691467,-0.1925838887691497,0.0873345360159874,0.7623103857040405,0.0,0.0,0.4922138452529907,0.6607964038848877
-0.1332897245883941,0.019468842074275,0.312940388917923,-0.1772090345621109,0.123701311647892,0.7273362874984741,0.0,1.0,0.9890744686126708,0.9079704284667968
-0.1298563033342361,0.0170147269964218,0.3239064812660217,-0.1110740453004837,0.1418548375368118,0.3614910840988159,0.0,1.0,-0.0435044765472412,0.8333995342254639
-0.126451775431633,0.0146648976951837,0.3419259190559387,-0.1043702214956283,0.140184998512268,-0.0336687788367271,0.0,1.0,-0.7281162738800049,-0.8736174702644348
