x_pos,y_pos,x_vel,y_vel,angle,ang_vel,leg_1,leg_2,main_booster,lat_booster
-0.0014857292408123,1.4029207229614258,-0.1501068025827407,-0.3555230796337127,0.0013746146578341,0.0270867347717285,0.0,0.0,-0.0734253212316151,0.6515400396040734
-0.0028822899330407,1.394237995147705,-0.1392192989587783,-0.3859029710292816,0.0009450333309359,-0.0085917860269546,0.0,0.0,-0.3431537191458409,0.6278540580410001
-0.0041893003508448,1.384846568107605,-0.1283677518367767,-0.4173971116542816,-0.0013675917871296,-0.0462568998336792,0.0,0.0,-0.0187379028672241,0.7608281969442438
-0.0054238317534327,1.374748945236206,-0.1195209026336669,-0.4487896263599396,-0.0052519077435135,-0.0776937156915664,0.0,0.0,0.714151798255209,0.9727345645117464
-0.0064083100296556,1.364964246749878,-0.0924406498670578,-0.4349084794521332,-0.0111914416775107,-0.118801511824131,0.0,0.0,0.6379570150194958,-0.5561692206166318
-0.0072695733979344,1.3552813529968262,-0.0812811106443405,-0.4303985238075256,-0.0159860774874687,-0.0959018096327781,0.0,0.0,-0.3215805124024602,-0.7401539141410611
-0.0081813810393214,1.3448963165283203,-0.0875204056501388,-0.4615948796272278,-0.0196139942854642,-0.0725645646452903,0.0,0.0,-0.0592425828395168,0.5788823908135248
-0.0090316776186227,1.3338083028793335,-0.0795587450265884,-0.4928844273090362,-0.025019597262144,-0.108121857047081,0.0,0.0,0.5767837331035317,-0.5810591342412629
-0.0099202152341604,1.323223114013672,-0.0841761082410812,-0.4705364406108856,-0.0296464096754789,-0.0925448015332222,0.0,0.0,-0.4312364381712146,-0.5823630627244036
-0.0108598712831735,1.3119401931762695,-0.090120255947113,-0.5015462040901184,-0.0334542877972126,-0.0761644393205642,0.0,0.0,-0.0918313383244737,0.7948025230905531
-0.0117383953183889,1.2999513149261477,-0.0818449482321739,-0.5329911708831787,-0.0393928959965705,-0.1187828555703163,0.0,0.0,-0.2559675522157596,0.993001828251758
-0.0125447269529104,1.2872521877288818,-0.0720836967229843,-0.5646469593048096,-0.0478535294532775,-0.1692283749580383,0.0,0.0,-0.2961307481012762,0.6028340994641848
-0.0133131984621286,1.2738498449325562,-0.0665120258927345,-0.5960214734077454,-0.0580827035009861,-0.20460245013237,0.0,0.0,0.532236363184309,-0.8837932252717016
-0.0140851018950343,1.2602299451828003,-0.0684298053383827,-0.6056854724884033,-0.0667657777667045,-0.1736768782138824,0.0,0.0,-0.9266555168766368,-0.7491767804575091
-0.0149312019348144,1.2459198236465454,-0.0766951218247413,-0.6363736987113953,-0.0746086984872818,-0.1568725556135177,0.0,0.0,-0.2050213614613367,0.608538412437325
-0.0157547947019338,1.2308940887451172,-0.0727177858352661,-0.6683224439620972,-0.0841746628284454,-0.1913369596004486,0.0,0.0,0.6925610564370692,-0.967304335931739
-0.0164601318538188,1.2164766788482666,-0.0627683028578758,-0.6412278413772583,-0.091873399913311,-0.1539885252714157,0.0,0.0,-0.7882050402896679,0.7990720838460055
-0.0171302799135446,1.2013392448425293,-0.0570129752159118,-0.6734179854393005,-0.1018161475658416,-0.1988727748394012,0.0,0.0,-0.1903650856279954,-0.9526216707732892
-0.0179086681455373,1.1855183839797974,-0.069171018898487,-0.7037631869316101,-0.1104290410876274,-0.1722736060619354,0.0,0.0,0.2872934276276557,0.5823908573764816
-0.018710995092988,1.1696562767028809,-0.0700232312083244,-0.7057654857635498,-0.1205984726548194,-0.2034071683883667,0.0,0.0,0.8184389394561775,0.5840086321869078
-0.0192717555910348,1.1542935371398926,-0.0448702499270439,-0.6837339401245117,-0.1317679584026336,-0.223409816622734,0.0,0.0,-0.1919858719239424,-0.7005040006648569
-0.0199431423097848,1.138235569000244,-0.0570899918675422,-0.7146074771881104,-0.1418057978153228,-0.2007743865251541,0.0,0.0,0.268867829468276,0.96353384914448
-0.0204250328242778,1.1220548152923584,-0.0360388532280921,-0.7203401327133179,-0.1539485305547714,-0.2428764402866363,0.0,0.0,-0.5984108511853896,0.8238722617718246
-0.0208986289799213,1.1051474809646606,-0.0331721492111682,-0.7529714703559875,-0.1681515276432037,-0.2840856313705444,0.0,0.0,0.7758386411238356,-0.5802758016340286
-0.0215276721864938,1.0886164903640747,-0.0492789410054683,-0.7363097667694092,-0.1818308979272842,-0.2736117541790008,0.0,0.0,0.7408949955762125,0.875663541943712
-0.0221919063478708,1.072490692138672,-0.0505871884524822,-0.7187296152114868,-0.1977468281984329,-0.3183187544345855,0.0,0.0,0.193814704136376,0.5199752608362531
-0.0227795597165823,1.0564274787902832,-0.0417746901512146,-0.7162855267524719,-0.2148872911930084,-0.342809110879898,0.0,0.0,0.070474314111246,-0.6853188185937658
-0.0234716422855854,1.0405033826828003,-0.0533807761967182,-0.710121214389801,-0.2309139668941497,-0.3205336332321167,0.0,0.0,0.0672024314890382,0.7567857098313006
-0.0241592414677143,1.0246297121047974,-0.0512710884213447,-0.7083473801612854,-0.2486891001462936,-0.355502724647522,0.0,0.0,-0.9203090964109946,0.8850070642322351
-0.0248584747314453,1.008029222488403,-0.0506543926894664,-0.7411834597587585,-0.268351137638092,-0.3932407796382904,0.0,0.0,0.8800652829285305,0.7886131443280333
-0.0252958294004201,0.9920990467071532,-0.022947534918785,-0.7119647860527039,-0.2897016108036041,-0.4270097613334656,0.0,0.0,-0.8867312073707581,-0.9650563597679138
-0.0258960723876953,0.9755024313926696,-0.041348360478878,-0.7414543032646179,-0.3089818954467773,-0.3856057226657867,0.0,0.0,-0.3488698601722717,-0.9642775058746338
-0.026657486334443,0.9582549929618835,-0.0596214644610881,-0.7701663374900818,-0.3261470198631286,-0.3433023989200592,0.0,0.0,-0.431231141090393,-0.9402719140052797
-0.0275808330625295,0.9403388500213624,-0.0778133422136306,-0.7996171712875366,-0.341315746307373,-0.3033746182918548,0.0,0.0,-0.6189043521881104,-0.9829816222190856
-0.0286584850400686,0.9217619299888612,-0.0950817167758941,-0.8287030458450317,-0.3546319305896759,-0.2663232386112213,0.0,0.0,-0.063976764678955,-0.946698784828186
-0.0298873893916606,0.9025278687477112,-0.1119569689035415,-0.8575831055641174,-0.366153746843338,-0.2304365336894989,0.0,0.0,0.2961552143096924,-0.9704084396362304
-0.0311695095151662,0.8831415772438049,-0.1191118210554122,-0.8639686703681946,-0.3757826089859009,-0.1925771832466125,0.0,0.0,0.1776318550109863,-0.9746221899986268
-0.0323794372379779,0.8638415336608887,-0.1137532815337181,-0.859704315662384,-0.383474200963974,-0.15383180975914,0.0,0.0,-0.0495679974555969,-0.8807950019836426
-0.0337435714900493,0.8438891768455505,-0.1309600621461868,-0.8882524967193604,-0.3892861604690552,-0.1162383556365966,0.0,0.0,0.1624002456665039,-0.9689722657203674
-0.0350831039249897,0.8238583207130432,-0.1303253769874572,-0.8912560939788818,-0.3931557238101959,-0.0773913338780403,0.0,0.0,0.0291248559951782,-0.8722056746482849
-0.0364607796072959,0.8038875460624695,-0.135813221335411,-0.888135552406311,-0.3952498435974121,-0.0418820604681968,0.0,0.0,0.051634669303894,-0.9829061627388
-0.0377857200801372,0.7836624979972839,-0.1323465257883072,-0.8989261388778687,-0.395406037569046,-0.0031240966636687,0.0,0.0,0.3817213773727417,-0.917431890964508
-0.0390845313668251,0.7630758881568909,-0.1315333396196365,-0.9145036339759828,-0.3936370015144348,0.0353809259831905,0.0,0.0,0.2396008968353271,-0.9264280200004578
-0.0403108596801757,0.7423256039619446,-0.1260982155799865,-0.921283721923828,-0.389945238828659,0.0738353282213211,0.0,0.0,0.0330681800842285,-0.980872392654419
-0.0416623130440712,0.7211782336235046,-0.140503317117691,-0.9384291172027588,-0.3842321932315826,0.1142611354589462,0.0,0.0,0.5299938917160034,-0.9938337206840516
-0.0430206283926963,0.6997654438018799,-0.1431556791067123,-0.9497286677360536,-0.3764402568340301,0.1558389514684677,0.0,0.0,0.768782377243042,-0.9837204217910768
-0.0443013198673725,0.6783146262168884,-0.1374322324991226,-0.950937032699585,-0.3665211498737335,0.1983822584152221,0.0,0.0,0.9450945854187012,-0.9394189119338988
-0.0455263145267963,0.6576636433601379,-0.1335285604000091,-0.9150420427322388,-0.3548897504806518,0.2326280623674392,0.0,0.0,0.5639052391052246,-0.751807689666748
-0.0467694289982318,0.6374695301055908,-0.1366657018661499,-0.8945242762565613,-0.3419196903705597,0.2594019770622253,0.0,0.0,0.437943696975708,0.3760818243026733
-0.047975443303585,0.6172084808349609,-0.1329575479030609,-0.8976110219955444,-0.3289968371391296,0.2584568858146667,0.0,0.0,0.508661150932312,-0.6678363680839539
-0.049021054059267,0.5969420075416565,-0.1185969337821006,-0.8976030349731445,-0.314382255077362,0.2922924757003784,0.0,0.0,0.878279447555542,0.4452618360519409
-0.0499640479683876,0.5771995186805725,-0.1081777811050415,-0.8745049834251404,-0.3000156283378601,0.2873323857784271,0.0,0.0,0.6377072334289551,0.4959244728088379
-0.050767995417118,0.5573394298553467,-0.0948611870408058,-0.8797594904899597,-0.285084992647171,0.2986124455928802,0.0,0.0,0.965461254119873,0.4973142147064209
-0.0513958930969238,0.5381426215171814,-0.07742290943861,-0.8504041433334351,-0.2700663805007934,0.300372302532196,0.0,0.0,0.9307284355163574,0.5849034786224365
-0.0517438873648643,0.5189736485481262,-0.0489001013338565,-0.8494186997413635,-0.2556448876857757,0.2884295582771301,0.0,0.0,0.9364283084869384,-0.3154447674751282
-0.0521555915474891,0.4999473094940185,-0.0549019649624824,-0.8432836532592773,-0.2416567057371139,0.2797638475894928,0.0,0.0,0.9581851959228516,0.1411110162734985
-0.0523282065987587,0.4815555214881897,-0.0316377133131027,-0.8151185512542725,-0.2270617634057998,0.2918989360332489,0.0,0.0,0.8775374889373779,-0.1230422854423523
-0.0522706992924213,0.4635298550128937,-0.0094882156699895,-0.7988634705543518,-0.2116438299417495,0.3083580136299133,0.0,0.0,0.6303960084915161,0.3363372087478637
-0.052065659314394,0.4459718465805053,0.0047694318927824,-0.7781789302825928,-0.1957814991474151,0.3172460794448852,0.0,0.0,0.7481167316436768,0.4482166767120361
-0.0518733039498329,0.4289600551128387,0.0037181980442255,-0.7541027665138245,-0.1801832318305969,0.3119660019874573,0.0,0.0,0.8417574167251587,0.8100543022155762
-0.0515788085758686,0.4118155241012573,0.0152728278189897,-0.7603174448013306,-0.165974348783493,0.2841776013374328,0.0,0.0,0.9711790084838868,0.7889318466186523
-0.0513078682124614,0.3952283859252929,0.0146365063264966,-0.7358621954917908,-0.1535151302814483,0.2491845190525055,0.0,0.0,0.9469258785247804,0.5228476524353027
-0.0508462898433208,0.3787965774536133,0.0341314636170864,-0.7291026711463928,-0.1415216326713562,0.2398702353239059,0.0,0.0,0.9232902526855468,0.1165482997894287
-0.0503525733947753,0.362716794013977,0.0370795540511608,-0.7135361433029175,-0.1292749643325805,0.2449332773685455,0.0,0.0,0.9673815965652466,0.5759022235870361
-0.0498382560908794,0.3466300964355469,0.0401174873113632,-0.7140235900878906,-0.1180229932069778,0.2250395715236663,0.0,0.0,0.9599976539611816,0.1508328914642334
-0.0494827255606651,0.3309115767478943,0.0247724615037441,-0.6977868676185608,-0.1073180958628654,0.2140979766845703,0.0,0.0,0.9942320585250854,0.1774040460586547
-0.0490862838923931,0.3160271048545837,0.0285988803952932,-0.660771906375885,-0.0963588580489158,0.2191848456859588,0.0,0.0,0.962329626083374,0.695602536201477
-0.0485931411385536,0.3009276390075683,0.0392612591385841,-0.6704696416854858,-0.0863909795880317,0.1993578374385833,0.0,0.0,0.98954176902771,0.3749699592590332
-0.0480741485953331,0.286657840013504,0.0415452122688293,-0.6336473226547241,-0.0761349722743034,0.2051201164722442,0.0,0.0,0.9528180360794068,0.5050394535064697
-0.0476851463317871,0.2725290358066559,0.0297701098024845,-0.627508819103241,-0.0671043694019317,0.180612027645111,0.0,0.0,0.9747142791748048,0.7736365795135498
-0.0473945625126361,0.2589177191257477,0.0216174032539129,-0.6046324372291565,-0.059747390449047,0.1471399366855621,0.0,0.0,0.823959469795227,0.7389862537384033
-0.047062586992979,0.245624840259552,0.0270194672048091,-0.5905583500862122,-0.053640529513359,0.1221370473504066,0.0,0.0,0.9496842622756958,0.2888181209564209
-0.0469237342476844,0.2331337481737136,0.0082763889804482,-0.5549675822257996,-0.0480988882482051,0.1108326688408851,0.0,0.0,0.883622407913208,0.8021796941757202
-0.0466930381953716,0.2209145426750183,0.0187467448413372,-0.542941689491272,-0.0438241101801395,0.085495613515377,0.0,0.0,0.9540297985076904,0.4837403297424316
-0.0465762130916118,0.208687737584114,0.0074001913890242,-0.5432954430580139,-0.0395988710224628,0.0845047980546951,0.0,0.0,0.9396435022354126,0.6880297660827637
-0.0463983528316021,0.1963138133287429,0.0145425917580723,-0.5498700737953186,-0.0363960042595863,0.0640571787953376,0.0,0.0,0.977475881576538,0.4821836948394775
-0.0463374145328998,0.1838474869728088,0.0028960497584193,-0.5539875030517578,-0.0332380980253219,0.0631583854556083,0.0,0.0,0.9786916971206664,0.7346577644348145
-0.0462910644710063,0.172105923295021,0.00281334342435,-0.5218058228492737,-0.0314400717616081,0.0359604582190513,0.0,0.0,0.95603346824646,0.1382542848587036
-0.0462130531668663,0.1611043512821197,0.0054215183481574,-0.4889096021652221,-0.029080769047141,0.047185830771923,0.0,0.0,0.8983545303344727,0.8165912628173828
-0.0462767593562603,0.1508188992738723,-0.0069405524991452,-0.4571231007575989,-0.0285199955105781,0.011215491220355,0.0,0.0,0.8068442344665527,0.757042646408081
-0.0465174689888954,0.1403690874576568,-0.0228850524872541,-0.464457243680954,-0.0296830032020807,-0.0232602171599864,0.0,0.0,0.9117687940597534,0.6383552551269531
-0.0467225089669227,0.1305883973836898,-0.0182866882532835,-0.4347422420978546,-0.0318759083747863,-0.0438579358160495,0.0,0.0,0.8667831420898438,0.5153048038482666
-0.0470791831612587,0.1210829317569732,-0.0321573093533515,-0.4225440621376037,-0.0353484004735946,-0.0694498792290687,0.0,0.0,0.6554789543151855,0.477397084236145
-0.047558307647705,0.1118950471282005,-0.0442283973097801,-0.4084416329860687,-0.0389788411557674,-0.0726090297102928,0.0,0.0,0.7739386558532715,0.5005526542663574
-0.048072911798954,0.1031301617622375,-0.0468354485929012,-0.3896781504154205,-0.0435552224516868,-0.0915278419852256,0.0,0.0,0.7704329490661621,0.519074559211731
-0.0485105514526367,0.0945871472358703,-0.0384538248181343,-0.3798518776893616,-0.0488000027835369,-0.1048956736922264,0.0,0.0,0.907940149307251,-0.4556475877761841
-0.0489913932979106,0.085931122303009,-0.0429841130971908,-0.3848877847194671,-0.0538444891571998,-0.1008897572755813,0.0,0.0,0.9677863121032716,-0.3562560677528381
-0.0494254119694232,0.0772811770439148,-0.0388840064406394,-0.3846134841442108,-0.0583127178251743,-0.0893645212054252,0.0,0.0,0.9619477987289428,0.2144933938980102
-0.0497341156005859,0.06892791390419,-0.0272313542664051,-0.3714012801647186,-0.0619166269898414,-0.0720781162381172,0.0,0.0,0.9372158050537108,0.2392895221710205
-0.0499391555786132,0.0605482682585716,-0.017667818814516,-0.3725454211235046,-0.0647178217768669,-0.0560240857303142,0.0,0.0,0.9856607913970948,0.2437257766723632
-0.0501797683537006,0.0528173558413982,-0.0212403945624828,-0.3437200784683227,-0.0675138533115387,-0.0559206828474998,0.0,0.0,0.9887847900390624,0.6110692024230957
-0.0503572449088096,0.0457453355193138,-0.0138283520936965,-0.3144970238208771,-0.0713893845677375,-0.077510692179203,0.0,0.0,0.9249099493026732,-0.0536427497863769
-0.0504201874136924,0.0391170606017112,-0.0030728292185813,-0.2947454750537872,-0.0745785161852836,-0.0637826696038246,0.0,0.0,0.936720609664917,-0.181662917137146
-0.0504215247929096,0.0323444455862045,0.0025307885371148,-0.3011370599269867,-0.0772169753909111,-0.0527692846953868,0.0,0.0,0.9455714225769044,0.5427262783050537
-0.050483226776123,0.0257663819938898,-0.0022053732536733,-0.2925675809383392,-0.0811367109417915,-0.078394740819931,0.0,0.0,0.9180437326431274,0.0943783521652221
-0.0504486076533794,0.0199705213308334,0.0069826357066631,-0.2577896416187286,-0.0846222788095474,-0.069711223244667,0.0,0.0,0.9663403034210204,0.1336150169372558
-0.0504661574959754,0.0144872283563017,0.0019256274681538,-0.2439164817333221,-0.0882692337036132,-0.0729389861226081,0.0,0.0,0.973780870437622,0.4360641241073608
-0.050628662109375,0.0097401831299066,-0.0118305860087275,-0.211244523525238,-0.0926499292254448,-0.0876141414046287,0.0,0.0,0.8260684013366699,0.6551704406738281
-0.0505632385611534,0.0061842538416385,-0.00698704412207,-0.1572619378566742,-0.0792386680841445,0.2682282626628876,1.0,0.0,0.5813220739364624,0.7740062475204468
-0.050323199480772,0.0036648011300712,-0.0058141481131315,-0.1106773763895034,-0.0496863760054111,0.5911120176315308,1.0,0.0,0.3818826675415039,0.3298927545547485
-0.050056554377079,0.0017703748308122,-0.0131471259519457,-0.0833619460463523,-0.010308957658708,0.7876270413398743,1.0,0.0,0.8620913028717041,0.9827017784118652
-0.0497644431889057,-1.2972354852536228e-05,-0.0070266560651361,-0.079399824142456,0.0254566632211208,0.7153127193450928,1.0,1.0,0.752388596534729,0.949106216430664
-0.0496192947030067,-0.0009920501615852,-0.0054450100287795,-0.0441636890172958,0.0444131568074226,0.3781503140926361,0.0,1.0,-0.7279565930366516,0.9455703496932985
-999.0,-0.002010288182646,0.0090850014239549,-0.0452195145189762,0.0431082993745803,-0.0261177867650985,0.0,1.0,-0.250583291053772,0.1229399442672729
-0.0495684631168842,-0.0031301998533308,0.0158645678311586,-0.049347024410963,0.0247414857149124,-0.3673667311668396,0.0,1.0,0.079526662826538,0.1650639772415161
-0.0495506301522254,-0.003421630943194,0.0159048251807689,-0.0127945160493254,0.0108410408720374,-0.2779544591903686,1.0,1.0,-0.0030641555786132,-0.2688241004943847
-0.0495306029915809,-0.0033572579268366,0.0110941659659147,0.0028977456968277,0.0019205355783924,-0.1783586740493774,1.0,1.0,-0.2783093452453613,-0.4175742864608764
-0.0494720451533794,-0.0030572796240448,0.0099543388932943,0.0133358938619494,-0.0021407888270914,-0.0812316089868545,1.0,1.0,-0.5205163359642029,-0.2187586426734924
-0.0493648536503315,-0.0025196217466145,0.0108043393120169,0.0238854009658098,-0.0022124145179986,-0.0014119229745119,1.0,1.0,-0.5495632290840149,-0.01785409450531
-0.04923677444458,-0.0017441058298572,0.011161214672029,0.0344672091305255,-0.0005731128039769,0.0328008569777011,1.0,1.0,-0.6144722700119019,0.0764623880386352
-0.0491113662719726,-0.0007676386740058,0.0111192977055907,0.0433949306607246,0.0008341812645085,0.028157478198409,1.0,1.0,-0.893638551235199,-0.0276305079460144
-0.0489890091121196,-0.0005218410515226,0.0110073192045092,0.0109214605763554,0.0020534575451165,0.0243853237479925,1.0,1.0,-0.7885230183601379,0.0730679035186767
-0.0489202514290809,-0.0005250597023405,0.0068762735463678,-0.0001420147455064,0.002051644725725,-3.524147177813575e-05,1.0,1.0,-0.6045238971710205,0.1076606512069702
-0.0489102378487587,-0.0005267763044685,0.0010226500453427,-7.849999383324757e-05,0.0020364716183394,-0.0002950802736449,1.0,1.0,-0.5846109390258789,0.1837437152862548
-0.0489255897700786,-0.0005268478416837,-0.0015817561652511,-2.044723714789143e-06,0.0020606045145541,0.0004699408600572,1.0,1.0,-0.7514064908027649,0.2387375831604004
-0.0489390380680561,-0.0005268478416837,-0.0013671716442331,-1.1554836873983731e-06,0.0020814414601773,0.0004060925857629,1.0,1.0,-0.8017569184303284,0.2167608737945556
-0.0489426627755165,-0.0005268478416837,-0.0003764531284105,-4.65111526182227e-07,0.0020871916785836,0.0001117956126108,1.0,1.0,-0.5960612297058105,0.1454876661300659
-0.0489407554268837,-0.0005268478416837,0.0002005946589633,2.498094886504987e-07,0.0020841292571276,-5.957622124697082e-05,1.0,1.0,-0.6899281740188599,-0.037073016166687
-0.0489381775259971,-0.0005268478416837,0.0002539695124141,3.155887213779352e-07,0.0020802493672817,-7.5426789408084e-05,1.0,1.0,-0.6448962092399597,-0.0457907319068908
-0.0489371307194232,-0.0005268478416837,0.0001003834913717,1.2745667277158645e-07,0.0020787089597433,-2.9821156203979623e-05,1.0,1.0,-0.6617215275764465,0.3575696945190429
