x_pos,y_pos,x_vel,y_vel,angle,ang_vel,leg_1,leg_2,main_booster,lat_booster
-0.001501178718172,1.4031779766082764,-0.1517830491065979,-0.3440905511379242,0.0014861786039546,0.0292957965284585,0.0,0.0,-0.2135681509971618,0.488176941871643
-0.0029798508621752,1.395012617111206,-0.1490620970726013,-0.3629031479358673,0.0026652105152606,0.0235837213695049,0.0,0.0,-0.1777520179748535,0.9724620580673218
-0.004342365078628,1.3863937854766846,-0.1347963958978653,-0.3830603957176208,0.0012282280949875,-0.0287420954555273,0.0,0.0,0.1447596549987793,0.0124835968017578
-0.0057647703215479,1.377847671508789,-0.1401197910308838,-0.3798306882381439,-0.000868716801051,-0.0419429205358028,0.0,0.0,-0.3443728685379028,0.4993157386779785
-0.0071640014648437,1.3688549995422363,-0.1375326812267303,-0.3996752500534057,-0.0032289221417158,-0.0472084432840347,0.0,0.0,-0.1806885004043579,-0.0732089281082153
-0.0085398675873875,1.3594162464141846,-0.1349350661039352,-0.4195142984390259,-0.0058502051979303,-0.0524306669831275,0.0,0.0,-0.0638132691383361,0.7591025829315186
-0.0098347663879394,1.3495304584503174,-0.1251134276390075,-0.4393830895423889,-0.0101765654981136,-0.0865353420376777,0.0,0.0,-0.1683292388916015,0.6377772092819214
-0.0110433576628565,1.3391999006271362,-0.114634059369564,-0.4591955840587616,-0.0163334775716066,-0.1231496110558509,0.0,0.0,0.6899991035461426,-0.2154585123062133
-0.0122265815734863,1.3297075033187866,-0.1117767542600631,-0.4219667017459869,-0.0228015109896659,-0.1293725073337555,0.0,0.0,-0.1424866318702697,-0.3598465323448181
-0.0133858676999807,1.319769263267517,-0.1091364845633506,-0.4418210387229919,-0.0295194163918495,-0.1343704760074615,0.0,0.0,-0.0898553133010864,-0.0984388589859008
-0.0145212169736623,1.3093852996826172,-0.1064890772104263,-0.461660772562027,-0.0364836975932121,-0.1392986178398132,0.0,0.0,-0.5223057270050049,0.3529490232467651
-0.015632439404726,1.2985559701919556,-0.1038356572389602,-0.4815048277378082,-0.0436907559633255,-0.1441544145345688,0.0,0.0,-0.3903514146804809,-0.8661255836486816
-0.0167727470397949,1.2872886657714844,-0.1078736409544944,-0.5009580850601196,-0.0497892051935195,-0.1219802349805831,0.0,0.0,-0.4082729816436767,0.3210699558258056
-0.0178888328373432,1.2755757570266724,-0.1052139550447464,-0.5208026170730591,-0.0561232306063175,-0.1266920119524002,0.0,0.0,-0.4355272650718689,-0.8616021275520325
-0.0190321914851665,1.26343035697937,-0.1090381294488906,-0.5400078892707825,-0.0613755024969577,-0.1050547584891319,0.0,0.0,-0.7752150893211365,-0.7867147922515869
-0.0202022548764944,1.2508342266082764,-0.1127717718482017,-0.5600026249885559,-0.0655780658125877,-0.0840586572885513,0.0,0.0,0.327046275138855,-0.964055359363556
-0.0212505348026752,1.2388266324996948,-0.1023816838860511,-0.5337769389152527,-0.0680021122097969,-0.0484850220382213,0.0,0.0,-0.4466405510902405,-0.8306387066841125
-0.0223247520625591,1.2263708114624023,-0.1060221344232559,-0.553655743598938,-0.069383904337883,-0.0276383999735116,0.0,0.0,-0.6824758052825928,-0.2781094312667846
-0.0233743675053119,1.2134687900543213,-0.1033607944846153,-0.5734937787055969,-0.070976011455059,-0.0318448841571807,0.0,0.0,-0.651081383228302,-0.1657702922821045
-0.0243995673954486,1.2001209259033203,-0.1006973758339881,-0.5933346152305603,-0.0727719441056251,-0.0359219573438167,0.0,0.0,-0.2362921833992004,-0.4382647275924682
-0.0253999717533588,1.1863266229629517,-0.0980321913957595,-0.6131769418716431,-0.0747653990983963,-0.0398729220032691,0.0,0.0,-0.2735001444816589,-0.5995944142341614
-0.0264221187680959,1.1720881462097168,-0.1011971086263656,-0.6328791975975037,-0.075780488550663,-0.0203036498278379,0.0,0.0,0.5137684345245361,-0.2116199731826782
-0.0272632595151662,1.1581358909606934,-0.0834528058767318,-0.6201307773590088,-0.0764262750744819,-0.0129168583080172,0.0,0.0,-0.2980800271034241,0.0544016361236572
-0.0280794147402048,1.1437373161315918,-0.0807905048131942,-0.6399784088134766,-0.0772478505969047,-0.0164330285042524,0.0,0.0,-0.3722008466720581,-0.6986507177352905
-0.0289385803043842,1.1289024353027344,-0.0866621360182762,-0.6592910289764404,-0.0765165612101554,0.0146270561963319,0.0,0.0,-0.6591898202896118,-0.0378046035766601
-0.0297739990055561,1.1135997772216797,-0.0841130912303924,-0.6800836324691772,-0.0759444236755371,0.0114429397508502,0.0,0.0,-0.1488833427429199,-0.3682953715324402
-0.0305842403322458,1.0978511571884155,-0.0814538821578025,,-0.0755217596888542,0.0084531595930457,0.0,0.0,-0.0043867826461791,-0.4538505673408508
-0.0313693061470985,1.0816560983657837,-0.0787963718175888,-0.7197626233100891,-0.0752388760447502,0.0056577618233859,0.0,0.0,0.0561658143997192,-0.1954985857009887
-0.0321751609444618,1.0657649040222168,-0.0803460925817489,-0.7062851190567017,-0.0754714831709861,-0.0046523208729922,0.0,0.0,-0.8628491163253784,-0.8183586597442627
-0.0330225937068462,1.0494322776794434,-0.08609389513731,-0.7258383631706238,-0.0741373896598815,0.0266819093376398,0.0,0.0,0.6397883892059326,-0.2618986368179321
-0.0337638854980468,1.0339078903198242,-0.0754517689347267,-0.6898986101150513,-0.0728253722190857,0.0262400694191455,0.0,0.0,0.1507879495620727,-0.0573278665542602
-0.0345114693045616,1.0184001922607422,-0.0757340416312217,-0.6891912221908569,-0.071860671043396,0.0192941091954708,0.0,0.0,-0.4689892530441284,-0.2444456815719604
-0.0352334976196289,1.002445936203003,-0.0730906128883361,-0.7090303897857666,-0.0709808394312858,0.0175966955721378,0.0,0.0,-0.3168603777885437,-0.3678431510925293
-0.0359297767281532,0.98604553937912,-0.0704512074589729,-0.7288694977760315,-0.0701737776398658,0.0161414537578821,0.0,0.0,0.3479804992675781,-0.1236809492111206
-0.0365512855350971,0.9699631929397584,-0.0629645437002182,-0.7147347927093506,-0.0693656355142593,0.0161628536880016,0.0,0.0,0.0042072534561157,-0.4805705547332763
-0.037104032933712,0.9541212916374208,-0.0560956820845603,-0.7040479779243469,-0.0685540065169334,0.0162326674908399,0.0,0.0,-0.2214159965515136,-0.3780525922775268
-0.037630844861269,0.93783301115036,-0.0534709505736827,-0.7238866686820984,-0.0677770599722862,0.0155390696600079,0.0,0.0,-0.1946999430656433,-0.7659614086151123
-0.0381881706416606,0.9211100935935974,-0.0579339787364006,-0.7431422472000122,-0.0655916705727577,0.043707687407732,0.0,0.0,0.0242576599121093,0.1697393655776977
-0.0387094505131244,0.9047251343727112,-0.0542161539196968,-0.7281292676925659,-0.0635273903608322,0.0412856079638004,0.0,0.0,-0.5523166060447693,0.0005114078521728
-0.0392045974731445,0.8878938555717468,-0.05161052942276,-0.7479680776596069,-0.0614579692482948,0.0413883961737155,0.0,0.0,0.0012235641479492,0.1368292570114135
-0.0397092811763286,0.8713288307189941,-0.0522686652839183,-0.7361565828323364,-0.0596692785620689,0.0357737615704536,0.0,0.0,-0.5206201672554016,0.1180993318557739
-0.0401876457035541,0.8543171882629395,-0.0496786125004291,-0.7559952139854431,-0.0578485801815986,0.0364137552678585,0.0,0.0,-0.2851318120956421,0.1944103240966797
-0.0406397804617881,0.836859405040741,-0.047097310423851,-0.7758338451385498,-0.055982518941164,0.0373210161924362,0.0,0.0,-0.0378917455673217,0.2088544368743896
-0.0410655960440635,0.8189552426338196,-0.0445254817605018,-0.7956724166870117,-0.0540578588843345,0.0384932458400726,0.0,0.0,-0.1354985237121582,-0.0512000918388366
-0.0414649955928325,0.8006046414375305,-0.0419638976454734,-0.8155109286308289,-0.0520615056157112,0.0399271622300148,0.0,0.0,0.6361081600189209,-0.0391672849655151
-0.0417754165828228,0.7822996973991394,-0.0333598032593727,-0.8134691119194031,-0.0497701205313205,0.0458275601267814,0.0,0.0,-0.1229059696197509,-0.215160846710205
-0.0420594215393066,0.7635485529899597,-0.0308212749660015,-0.8333078026771545,-0.0473815761506557,0.0477710887789726,0.0,0.0,0.1158689260482788,0.7823119163513184
-0.0423156730830669,0.7452049255371094,-0.0265161842107772,-0.8152437806129456,-0.0464993827044963,0.0176438950002193,0.0,0.0,0.4809489250183105,0.4514045715332031
-0.0426315292716026,0.7274816036224365,-0.0320415422320365,-0.7876830697059631,-0.046045858412981,0.0090702380985021,0.0,0.0,-0.4076113700866699,-0.0098069906234741
-0.0429209694266319,0.7093119621276855,-0.0295451786369085,-0.8075210452079773,-0.0454592928290367,0.0117313172668218,0.0,0.0,-0.3056524991989136,0.1413050889968872
-0.0431842803955078,0.6906960010528564,-0.027065297588706,-0.827359139919281,-0.044728472828865,0.0146163720637559,0.0,0.0,0.3876752853393554,0.3741052150726318
-0.0434419624507427,0.6725639700889587,-0.0264395177364349,-0.8058494329452515,-0.0440663360059261,0.0132429525256156,0.0,0.0,0.429011583328247,0.1592645645141601
-0.0435620322823524,0.6545554399490356,-0.0132978437468409,-0.8003415465354919,-0.0428014211356639,0.0252982974052429,0.0,0.0,0.1974391937255859,0.1159802675247192
-0.0436291694641113,0.6369668841362,-0.0081800734624266,-0.7816776633262634,-0.0413505025207996,0.0290182828903198,0.0,0.0,-0.2675250172615051,0.1429829597473144
-0.0436704643070697,0.6189315319061279,-0.0057815806940197,-0.8015157580375671,-0.0397148989140987,0.0327122434973716,0.0,0.0,0.4817100763320923,-0.0496246814727783
-0.0437548644840717,0.6010885834693909,-0.0098903737962245,-0.7929871082305908,-0.038282036781311,0.0286573208868503,0.0,0.0,0.585729718208313,-0.3740906715393066
-0.0436943061649799,0.5839405059814453,0.0039809299632906,-0.7620850205421448,-0.0362295471131801,0.0410493649542331,0.0,0.0,0.0788847208023071,0.5932185649871826
-0.0434446334838867,0.5670006275177002,0.0237202160060405,-0.7528560161590576,-0.035000130534172,0.0245883874595165,0.0,0.0,-0.1610616445541381,-0.3708811402320862
-0.0431699752807617,0.5496141910552979,0.0260047763586044,-0.7726939916610718,-0.0335528142750263,0.0289463642984628,0.0,0.0,0.1872483491897583,0.0889312028884887
-0.0429061874747276,0.5326306223869324,0.0249367170035839,-0.7547913789749146,-0.0321335718035697,0.0283847190439701,0.0,0.0,0.4587960243225097,-0.1340311169624328
-0.0425622947514057,0.5156887173652649,0.0325058437883853,-0.7529345750808716,-0.0302733425050973,0.0372046157717704,0.0,0.0,0.6208958625793457,-0.6838793158531189
-0.0423348434269428,0.499343067407608,0.0194779075682163,-0.7264093160629272,-0.0270428005605936,0.0646104365587234,0.0,0.0,0.383817195892334,-0.4313232898712158
-0.041968535631895,0.4831965267658233,0.0326321050524711,-0.7175578474998474,-0.023089425638318,0.079067625105381,0.0,0.0,0.1305650472640991,-0.5733442306518555
-0.0415966026484966,0.4672346711158752,0.031746782362461,-0.7093433737754822,-0.0177158340811729,0.1074718385934829,0.0,0.0,0.098084807395935,0.3508198261260986
-0.0411919578909873,0.4512261748313904,0.0347373075783252,-0.7114309072494507,-0.0120629323646426,0.1130580455064773,0.0,0.0,0.6668503284454346,0.4994449615478515
-0.0408827774226665,0.4356682896614074,0.0255196597427129,-0.6914266347885132,-0.0067275152541697,0.1067083925008773,0.0,0.0,0.4399131536483764,0.6465203762054443
-0.0404749885201454,0.4207899570465088,0.0363613776862621,-0.6612463593482971,-0.0023719517048448,0.0871114283800125,0.0,0.0,0.043137788772583,0.6742687225341797
-0.0399333015084266,0.405733972787857,0.0507870130240917,-0.6691544055938721,0.0009691194281913,0.0668214410543441,0.0,0.0,0.4076356887817383,0.1999170780181884
-0.0393488891422748,0.3913227915763855,0.054676167666912,-0.6405028700828552,0.0046903225593268,0.0744239836931228,0.0,0.0,0.6236991882324219,0.3661108016967773
-0.0388393402099609,0.3771626651287079,0.0473280921578407,-0.6293565630912781,0.0082612009719014,0.0714176297187805,0.0,0.0,-0.0108250975608825,0.6599558591842651
-0.0382667556405067,0.3625595569610595,0.0544806644320488,-0.6490432620048523,0.0110009368509054,0.0547948591411113,0.0,0.0,0.8110194206237793,-0.1719217300415039
-0.0376500114798545,0.3485341072082519,0.0584570951759815,-0.6233816146850586,0.014181463047862,0.0636105015873909,0.0,0.0,0.6281354427337646,0.4179444313049316
-0.0371548645198345,0.3353079557418823,0.0465960353612899,-0.5878569483757019,0.0170628186315298,0.0576272122561931,0.0,0.0,0.7553409337997437,0.3745691776275635
-0.0365759842097759,0.3225578963756561,0.0543053038418293,-0.5667148232460022,0.0205965805798769,0.0706752166152,0.0,0.0,0.384316086769104,0.6671079397201538
-0.0359672531485557,0.3098485767841339,0.0584055073559284,-0.5648958683013916,0.0230418909341096,0.0489062219858169,0.0,0.0,0.4014995098114013,0.1889047622680664
-0.0352931022644043,0.2971085906028747,0.0643623173236846,-0.5662724375724792,0.0260512270033359,0.0601866319775581,0.0,0.0,0.8117988109588623,-0.408857524394989
-0.0346506126224994,0.2844792604446411,0.0610683858394622,-0.561362624168396,0.0292001981288194,0.0629794374108314,0.0,0.0,0.898942232131958,0.4328900575637817
-0.0340326316654682,0.2727702856063843,0.0583464689552784,-0.5204673409461975,0.0326072201132774,0.0681405588984489,0.0,0.0,0.4153971672058105,0.3976461887359619
-0.0333585739135742,0.2616664469242096,0.0633280351758003,-0.4935983717441559,0.0366365425288677,0.0805864483118057,0.0,0.0,-0.2623471617698669,0.6733353137969971
-0.0326322540640831,0.2501256465911865,0.0693418011069297,-0.513005793094635,0.0398825854063034,0.0649206787347793,0.0,0.0,0.2480990886688232,0.7625696659088135
-0.0319583900272846,0.2385029643774032,0.0654551908373832,-0.5166170001029968,0.0417963303625583,0.0382746532559394,0.0,0.0,0.8861002922058105,0.3342666625976562
-0.0312698371708393,0.227789506316185,0.0663930252194404,-0.4762243032455444,0.0442351885139942,0.0487770475447177,0.0,0.0,0.5800280570983887,-0.720092236995697
-0.030763816088438,0.217443898320198,0.0465683750808239,-0.4599288702011108,0.0482136085629463,0.0795684233307838,0.0,0.0,0.6397891044616699,0.8432931900024414
-0.030280590057373,0.207664281129837,0.0457780212163925,-0.4347365200519562,0.0507307015359401,0.0503418035805225,0.0,0.0,0.6141788959503174,0.637138843536377
-0.0297922138124704,0.1984681040048599,0.0472819432616233,-0.4087721705436706,0.0522685945034027,0.0307578407227993,0.0,0.0,0.3400101661682129,-0.3953238129615783
-0.0292570106685161,0.1895381957292556,0.0513049773871898,-0.3969613015651703,0.0544536635279655,0.0437014177441597,0.0,0.0,0.5755670070648193,0.3814811706542969
-0.0287176128476858,0.1806530803442001,0.0512955486774444,-0.3949931561946869,0.057065088301897,0.0522287264466285,0.0,0.0,0.6359720230102539,0.4029399156570434
-0.0281112678349018,0.1719268858432769,0.0572411119937896,-0.3879637122154236,0.0604249350726604,0.0671968907117843,0.0,0.0,0.7070858478546143,-0.8376467227935791
-0.0274419784545898,0.1636473685503006,0.0612123906612396,-0.3682202994823456,0.0660730376839637,0.1129619479179382,0.0,0.0,0.3276132345199585,-0.3281093835830688
-0.0266864784061908,0.1554077714681625,0.0689854472875595,-0.3665111362934112,0.0725658759474754,0.1298571079969406,0.0,0.0,0.1288635730743408,-0.9204073548316956
-0.0260515213012695,0.1474891006946563,0.0547476895153522,-0.3523904383182525,0.0812170207500457,0.1730228215456009,0.0,0.0,-0.1153805255889892,0.5116220712661743
-0.0253815650939941,0.1391343474388122,0.0590120367705822,-0.3717765808105469,0.0891247168183326,0.1581545770168304,0.0,0.0,0.3181413412094116,0.0653510093688964
-0.0246682167053222,0.1311428695917129,0.0625535249710083,-0.3557204902172088,0.0978226065635681,0.1739577949047088,0.0,0.0,-0.1232098340988159,-0.0735746026039123
-0.0239644050598144,0.1227065622806549,0.0612853094935417,-0.3755680620670318,0.1068521589040756,0.1805909872055053,0.0,0.0,-0.0326804518699646,0.526120662689209
-0.0232332237064838,0.113830029964447,0.0646630674600601,-0.3951438069343567,0.1152571663260459,0.1681002825498581,0.0,0.0,0.7835648059844971,0.6793384552001953
-0.0224695205688476,0.105930671095848,0.0687122866511344,-0.3516923487186432,0.1228689178824424,0.1522351801395416,0.0,0.0,0.4710992574691772,-0.6033831834793091
-0.0218501091003417,0.0983277186751365,0.0527940168976783,-0.3386885523796081,0.1319705247879028,0.1820319592952728,0.0,0.0,0.210315465927124,0.6894402503967285
-0.0213686935603618,0.0911433324217796,0.0401856526732444,-0.3200321495532989,0.1398900598287582,0.1583908647298813,0.0,0.0,0.4815281629562378,0.8996422290802002
-0.0208312980830669,0.0844812244176864,0.0471712872385978,-0.2967263460159302,0.1464463323354721,0.1311252862215042,0.0,0.0,0.4964829683303833,0.337626576423645
-0.0204558372497558,0.0783717930316925,0.0308647211641073,-0.2722012102603912,0.1531150192022323,0.1333738565444946,0.0,0.0,0.2314400672912597,0.8209161758422852
-0.0201873779296875,0.0726491063833236,0.0215451009571552,-0.2548982501029968,0.1584156453609466,0.1060126051306724,0.0,0.0,0.4404604434967041,0.915618658065796
-0.0199561119079589,0.0671323388814926,0.0193380210548639,-0.2455955296754837,0.1621983796358108,0.0756546482443809,0.0,0.0,0.5453134775161743,0.9520628452301024
-0.0198805816471576,0.0619920119643211,0.0054844105616211,-0.2286877632141113,0.1642769426107406,0.0415713973343372,0.0,0.0,0.7698379755020142,0.9293899536132812
-0.0200185775756835,0.0572082363069057,-0.0140717579051852,-0.2126423269510269,0.1645534187555313,0.0055294255726039,0.0,0.0,0.6542659997940063,0.9701225757598876
-0.0200993530452251,0.0530974492430686,-0.0069000152871012,-0.1825708597898483,0.1633713394403457,-0.0236418601125478,0.0,0.0,0.067297339439392,0.9265362024307252
-0.0201176647096872,0.0489152781665325,0.0008633085526525,-0.1855808794498443,0.1606719195842743,-0.0539884679019451,0.0,0.0,0.3171379566192627,0.988673210144043
-0.0200431831181049,0.0452468022704124,0.0117373624816536,-0.1625859439373016,0.1563860327005386,-0.085717424750328,0.0,0.0,0.022923469543457,0.9307442903518676
-0.0200077053159475,0.0418657884001731,0.0093617690727114,-0.1496661752462387,0.1505775153636932,-0.1161697134375572,0.0,0.0,0.0993192195892334,0.9215948581695556
-0.0198953635990619,0.0389351695775985,0.0185670144855976,-0.129527747631073,0.1432612836360931,-0.1463245898485183,0.0,0.0,-0.1433478593826294,0.8381845951080322
-0.0197291374206542,0.0355756841599941,0.0255133993923664,-0.1484788060188293,0.1343961209058761,-0.1773030459880828,0.0,0.0,0.1315116882324218,0.891143798828125
-0.0195950511842966,0.0326247550547122,0.0237756017595529,-0.1302524209022522,0.1240837052464485,-0.2062484323978424,0.0,0.0,-0.1702563166618347,0.5013737678527832
-0.0194386485964059,0.0292420238256454,0.026782888919115,-0.1494564116001129,0.1130063384771347,-0.2215470969676971,0.0,0.0,-0.0339246988296508,0.4268655776977539
-0.0193032268434762,0.0254149064421653,0.0243615545332431,-0.1693083792924881,0.10226771235466,-0.2147727459669113,0.0,0.0,0.3586317300796509,0.0860506296157836
-0.0193408969789743,0.0218868348747491,0.0071894549764692,-0.1560912281274795,0.0914021730422973,-0.217310756444931,0.0,0.0,0.2902997732162475,0.6422317028045654
-0.0194965358823537,0.0185051057487726,-0.0034545876551419,-0.1496031880378723,0.079404279589653,-0.2399576902389526,0.0,0.0,0.5955067873001099,0.4348576068878174
-0.0197376254945993,0.0154907321557402,-0.0122349020093679,-0.1333815455436706,0.0676476955413818,-0.2351318299770355,0.0,0.0,0.0611462593078613,0.3932943344116211
-0.0200070384889841,0.012546525336802,-0.015470084734261,-0.1303723007440567,0.056305181235075,-0.2268503159284591,0.0,0.0,-0.0978956818580627,-0.0175141096115112
-0.0202983859926462,0.0091578932479023,-0.0179933793842792,-0.1502231955528259,0.045298907905817,-0.2201256453990936,0.0,0.0,0.5216977596282959,0.0425786972045898
-0.0205504409968853,0.0062743760645389,-0.0148341078311204,-0.1278717964887619,0.0350433364510536,-0.2051111906766891,0.0,0.0,0.2692718505859375,-0.0537878274917602
-0.0208271984010934,0.003876051865518,-0.0177221875637769,-0.1063887253403663,0.0252114068716764,-0.196638599038124,0.0,0.0,-0.202746570110321,0.4549983739852905
-0.0211262702941894,0.0010327314957976,-0.0202878005802631,-0.1262360662221908,0.0157130490988492,-0.1899669766426086,0.0,0.0,0.3953942060470581,0.456076979637146
