x_pos,y_pos,x_vel,y_vel,angle,ang_vel,leg_1,leg_2,main_booster,lat_booster
-0.0016145706176757,1.4033259153366089,-0.1635331511497497,-0.3375274240970611,0.0018533156253397,0.0365654751658439,0.0,0.0,0.0304288220982222,0.8109961722744086
-0.0032197951804846,1.3958837985992432,-0.1607744544744491,-0.3307582139968872,0.0020989801269024,0.0049145780503749,0.0,0.0,-0.6373989959904529,-0.6528336112726116
-0.004956436343491,1.3881374597549438,-0.1749657392501831,-0.3442798256874084,0.0033791090827435,0.0256053246557712,0.0,0.0,0.7558402962942867,-0.8565655866467734
-0.0069936751388013,1.380885124206543,-0.2064937651157379,-0.3223330080509186,0.0061131194233894,0.0546853132545948,0.0,0.0,0.4249550220703977,-0.7882522692726042
-0.0090633388608694,1.3741809129714966,-0.2115575820207595,-0.2979940772056579,0.0106441788375377,0.0906297117471695,0.0,0.0,-0.999905876387194,0.5470672861428201
-0.0111719127744436,1.367177963256836,-0.2141267508268356,-0.3112640082836151,0.0138889867812395,0.0649021118879318,0.0,0.0,-0.8243002714539733,-0.932762803136606
-0.0134478565305471,1.359875202178955,-0.2328708916902542,-0.324626475572586,0.019099561497569,0.1042209416627883,0.0,0.0,0.3008288296137595,0.7699648960307193
-0.01563186571002,1.3530458211898804,-0.222360223531723,-0.3035883903503418,0.023022036999464,0.0784568339586258,0.0,0.0,0.8547683076690962,0.7753879890329887
-0.0178824421018362,1.3473364114761353,-0.227508470416069,-0.2537888288497925,0.0254360344260931,0.0482843741774559,0.0,0.0,-0.4774797987503216,-0.9418911262775151
-0.020298670977354,1.3413313627243042,-0.246016651391983,-0.2669718861579895,0.0297866258770227,0.0870195850729942,0.0,0.0,0.4211623982398593,-0.673261974591378
-0.0227925293147563,1.335796594619751,-0.255367249250412,-0.2461210191249847,0.0357056520879268,0.1183916106820106,0.0,0.0,0.3668287955343459,-0.7741607189887749
-0.0253882408142089,1.3306174278259275,-0.2672892808914184,-0.230389654636383,0.0433375090360641,0.1526511013507843,0.0,0.0,-0.2706029740549904,-0.5385652515912358
-0.0281082149595022,1.3251409530639648,-0.280648410320282,-0.2436721324920654,0.0518939718604087,0.1711450517177581,0.0,0.0,-0.4218343729616132,0.5806325212793761
-0.030867863446474,1.3193652629852295,-0.2834092378616333,-0.2569717466831207,0.059262603521347,0.1473858654499054,0.0,0.0,0.9662585614628584,-0.8933800336435923
-0.033662986010313,1.314780354499817,-0.289212018251419,-0.2041853964328766,0.0688825249671936,0.1924160420894622,0.0,0.0,0.8927352051711124,-0.5178008486092229
-0.0364796631038188,1.310410976409912,-0.2929318845272064,-0.1947463303804397,0.080045074224472,0.2232712060213089,0.0,0.0,-0.7164188454207538,0.522678541540343
-0.039336584508419,1.305756688117981,-0.2957712709903717,-0.2074245661497116,0.0900471061468124,0.2000585794448852,0.0,0.0,-0.7175952831151651,0.9563235631278504
-0.042190171778202,1.300809383392334,-0.2931861281394958,-0.2203674167394638,0.0978271290659904,0.1556142419576645,0.0,0.0,-0.3062463363480403,-0.6680535073780338
-0.0451777465641498,1.2955642938613892,-0.3078589141368866,-0.2337341606616974,0.1068557128310203,0.1805882751941681,0.0,0.0,0.2092242823483965,0.7868021164084957
-0.0483044609427452,1.290638089179993,-0.3202410936355591,-0.2194978594779968,0.1143928617238998,0.1507568657398224,0.0,0.0,-0.7039184574215598,-0.6792361466567134
-0.0515625961124897,1.2854118347167969,-0.334618866443634,-0.2329721003770828,0.123147539794445,0.1751093715429306,0.0,0.0,-0.7797884562717412,-0.7842118057450154
-0.0549697875976562,1.2798727750778198,-0.3512013256549835,-0.2470770329236984,0.1335967928171157,0.2090037167072296,0.0,0.0,-0.70788431646494,-0.5151260159799516
-0.0584974288940429,1.2740298509597778,-0.36419877409935,-0.2607548832893371,0.1450205296278,0.2284949570894241,0.0,0.0,0.6054290428896212,0.5065109183053982
-0.0620453841984272,1.2683589458465576,-0.3655793070793152,-0.2531212866306305,0.1558084487915039,0.2157774716615677,0.0,0.0,-0.6634608809932663,0.742909068783465
-0.0656371116638183,1.2624034881591797,-0.3690058588981628,-0.2657435536384582,0.165644109249115,0.1967306137084961,0.0,0.0,0.7191481647421973,-0.528734619708175
-0.0696359649300575,1.2571663856506348,-0.4105100035667419,-0.2339818477630615,0.1762858927249908,0.212835818529129,0.0,0.0,0.1813673172078607,-0.6220075292007823
-0.0738588348031044,1.2523914575576782,-0.4343282282352447,-0.2136929184198379,0.1883791238069534,0.2418648451566696,0.0,0.0,0.661149030380658,0.8671267890019393
-0.0784010887145996,1.2485297918319702,-0.4644936025142669,-0.1729704886674881,0.198705717921257,0.2065314948558807,0.0,0.0,0.4451983987329784,-0.7101198710910488
-0.0833428353071212,1.2453196048736572,-0.5058203339576721,-0.1442804634571075,0.2104534655809402,0.2349549829959869,0.0,0.0,-0.7809780160331894,0.8888486918717208
-0.0883032828569412,1.2418310642242432,-0.5061937570571899,-0.1565297394990921,0.2207031995058059,0.2049946337938308,0.0,0.0,0.1471451496378522,-0.9953350121122146
-0.0935408622026443,1.238896727561951,-0.536065936088562,-0.1323082149028778,0.2331788539886474,0.2495132237672805,0.0,0.0,-0.7069370150566101,0.9950723648071288
-0.0987953171133995,1.235684156417847,-0.5362517833709717,-0.144525870680809,0.2441515922546386,0.2194547653198242,0.0,0.0,-0.634357213973999,0.9982483386993408
-0.1040692329406738,1.2322088479995728,-0.5366907715797424,-0.1560323238372802,0.2536239922046661,0.1894481182098388,0.0,0.0,-0.5435596108436584,0.9968938827514648
-0.1093565002083778,1.2284544706344604,-0.5364984273910522,-0.1682287007570266,0.261556476354599,0.158649668097496,0.0,0.0,-0.7427675127983093,0.9956903457641602
-0.1146484389901161,1.2244361639022827,-0.535182774066925,-0.1796741783618927,0.2676787078380584,0.1224448829889297,0.0,0.0,-0.7083951234817505,0.99826979637146
-0.1199449524283409,1.2201597690582275,-0.5338495969772339,-0.1908358931541443,0.2719789743423462,0.086005225777626,0.0,0.0,-0.8124324679374695,0.9983953237533568
-0.125248521566391,1.215611219406128,-0.5329297780990601,-0.2026386708021164,0.2746233940124511,0.0528885051608085,0.0,0.0,-0.660767138004303,0.9983763694763184
-0.1305523812770843,1.210806369781494,-0.5311397910118103,-0.2136852145195007,0.2753895223140716,0.0153224784880876,0.0,0.0,-0.8263334631919861,0.9997801780700684
-0.1358660757541656,1.205744743347168,-0.530534565448761,-0.2248086482286453,0.274537593126297,-0.0170386545360088,0.0,0.0,-0.8215542435646057,0.9962618350982666
-0.1411783248186111,1.2004201412200928,-0.5286102294921875,-0.2361633628606796,0.2718631029129028,-0.0534899905323982,0.0,0.0,-0.7402941584587097,0.9978724718093872
-0.1465060263872146,1.1948323249816897,-0.5288203954696655,-0.2476254850625991,0.2678158581256866,-0.0809447020292282,0.0,0.0,-0.560138463973999,0.9706461429595948
-0.1518196165561676,1.188981533050537,-0.5253753066062927,-0.2589529752731323,0.2617061138153076,-0.1221949085593223,0.0,0.0,-0.7576432228088379,0.9687814712524414
-0.1571192741394043,1.182857871055603,-0.5220658183097839,-0.2707700431346893,0.2536388039588928,-0.1613470613956451,0.0,0.0,-0.4664218425750732,0.982785940170288
-0.1624037772417068,1.176469802856445,-0.5185558795928955,-0.2822411358356476,0.2435733526945114,-0.2013096809387207,0.0,0.0,-0.601610541343689,0.9180359840393066
-0.1676917076110839,1.1697993278503418,-0.5175130367279053,-0.2946333289146423,0.2321078479290008,-0.2293102294206619,0.0,0.0,-0.2051506638526916,0.4353059530258178
-0.1730491667985916,1.1628329753875732,-0.5247381329536438,-0.3079254031181335,0.2209660410881042,-0.2228364497423172,0.0,0.0,0.2352292537689209,0.8578705787658691
-0.1784293204545974,1.1560945510864258,-0.5256503820419312,-0.2976807057857513,0.2084638625383377,-0.2500434517860412,0.0,0.0,-0.0975736379623413,0.97468900680542
-0.1838157624006271,1.14909029006958,-0.524964451789856,-0.3094325363636017,0.1946909874677658,-0.2754574716091156,0.0,0.0,-0.077560007572174,0.950223445892334
-0.1892095506191253,1.1418159008026123,-0.5245332717895508,-0.3214136362075805,0.1797591745853424,-0.2986363768577575,0.0,0.0,0.1026445627212524,0.8392603397369385
-0.1946766823530197,1.1347590684890747,-0.5304597020149231,-0.311753362417221,0.1634774208068847,-0.3256354928016662,0.0,0.0,0.072759985923767,0.9545176029205322
-0.2000797241926193,1.1280021667480469,-0.5224061608314514,-0.2984394431114197,0.1456002742052078,-0.3575429618358612,0.0,0.0,-0.4610621929168701,0.958045482635498
-0.2054729461669922,1.120972990989685,-0.519978404045105,-0.3106317520141601,0.1263298839330673,-0.3854081034660339,0.0,0.0,-0.6200371980667114,0.9776437282562256
-0.2108299285173416,1.1136629581451416,-0.5143333077430725,-0.3232178688049316,0.1050998643040657,-0.4246006906032562,0.0,0.0,-0.7102556824684143,0.9234771728515624
-0.2161667346954345,1.106081247329712,-0.5107462406158447,-0.3355120420455932,0.0823612064123153,-0.4547735154628753,0.0,0.0,-0.8443540334701538,0.8956819772720337
-0.2214647233486175,1.0982162952423096,-0.5049223303794861,-0.3483735918998718,0.0577450171113014,-0.4923240542411804,0.0,0.0,-0.900360643863678,0.9437787532806396
-0.2267463207244873,1.0900624990463257,-0.5020034909248352,-0.3615841865539551,0.031897384673357,-0.5169528722763062,0.0,0.0,-0.8820659518241882,0.9921917915344238
-0.2319808453321457,1.0816333293914795,-0.495311826467514,-0.3742685616016388,0.0041153384372591,-0.5556412935256958,0.0,0.0,-0.91099613904953,0.6611876487731934
-0.2371912002563476,1.0729193687438965,-0.4916097521781921,-0.3874668776988983,-0.0249345172196626,-0.5809974074363708,0.0,0.0,-0.961597740650177,0.8370456695556641
-0.2423637807369232,1.0639241933822632,-0.4863049983978271,-0.4005841016769409,-0.0555070973932743,-0.6114519834518433,0.0,0.0,-0.9369902610778807,0.8242714405059814
-0.2475122958421707,1.0546454191207886,-0.4828617572784424,-0.4138810038566589,-0.0871642008423805,-0.6331424713134766,0.0,0.0,-0.9163048267364502,-0.15610933303833
-0.2526903748512268,1.0450806617736816,-0.4862472116947174,-0.4272374212741852,-0.1184755563735961,-0.6262272596359253,0.0,0.0,-0.8927788734436035,0.5477654933929443
-0.2578580379486084,1.0352262258529663,-0.4847617149353027,-0.4408226013183594,-0.1503532230854034,-0.6375538110733032,0.0,0.0,-0.880044162273407,-0.725952684879303
-0.2630930542945862,1.025093674659729,-0.4931315779685974,-0.4536863267421722,-0.1807360649108886,-0.6076571345329285,0.0,0.0,-0.8325662016868591,0.5423099994659424
-0.2683022618293762,1.014662742614746,-0.4899393618106842,-0.467668205499649,-0.2119101136922836,-0.6234816312789917,0.0,0.0,-0.5630237460136414,-0.1257543563842773
-0.2735257744789123,1.0039446353912354,-0.4918978214263916,-0.4810174405574798,-0.2427486181259155,-0.6167703866958618,0.0,0.0,-0.0832265615463256,-0.5188095569610596
-0.2788074612617492,0.9929566383361816,-0.4995122849941253,-0.4933553636074066,-0.2719920873641968,-0.5848695635795593,0.0,0.0,-0.0056895017623901,-0.0955361723899841
-0.284095823764801,0.9816794991493224,-0.5007255673408508,-0.5066924691200256,-0.3009076416492462,-0.5783108472824097,0.0,0.0,0.1914585828781128,-0.3838837742805481
-0.2892679572105407,0.9703887701034546,-0.4899245202541351,-0.5077135562896729,-0.3292256593704223,-0.5663612484931946,0.0,0.0,0.4328596591949463,-0.6460427045822144
-0.2942218780517578,0.9598776698112488,-0.4699774384498596,-0.47318235039711,-0.3558470606803894,-0.532427966594696,0.0,0.0,0.4649553298950195,-0.4061537981033325
-0.299103170633316,0.9497087001800536,-0.4628992080688476,-0.4584286510944366,-0.3825403749942779,-0.5338665246963501,0.0,0.0,0.7148020267486572,-0.6323193311691284
-0.303854763507843,0.9403138160705566,-0.4514676034450531,-0.4241115152835846,-0.4078598022460937,-0.5063884854316711,0.0,0.0,0.5079514980316162,-0.7798834443092346
-0.308396428823471,0.9314273595809937,-0.4325491487979889,-0.4013665318489074,-0.43121138215065,-0.4670318961143493,0.0,0.0,0.8206362724304199,-0.1980187892913818
-0.3126629292964935,0.9236043095588684,-0.4049344062805176,-0.3545387089252472,-0.4549224078655243,-0.4742205739021301,0.0,0.0,0.7130098342895508,-0.5435044765472412
-0.3166128695011139,0.916268229484558,-0.3750091791152954,-0.332726776599884,-0.476992666721344,-0.4414053857326507,0.0,0.0,0.8751915693283081,-0.6043227910995483
-0.3204171657562256,0.9092851877212524,-0.3619505763053894,-0.3168662786483764,-0.4976226985454559,-0.4125997424125671,0.0,0.0,0.7877683639526367,-0.6164872646331787
-0.3240037858486175,0.9024420380592346,-0.3419462144374847,-0.3103124797344208,-0.516491711139679,-0.3773805201053619,0.0,0.0,0.8672046661376953,-0.3864847421646118
-0.3274043202400207,0.8958294987678528,-0.3235989511013031,-0.3002439737319946,-0.5352556705474854,-0.3752791583538055,0.0,0.0,0.9220139980316162,-0.636896550655365
-0.3303529620170593,0.890161395072937,-0.2799837589263916,-0.2579008936882019,-0.5524203777313232,-0.3432946801185608,0.0,0.0,0.9832361936569214,-0.8053216934204102
-0.3327160477638244,0.8854202628135681,-0.2234535217285156,-0.2160825580358505,-0.5673834085464478,-0.299261063337326,0.0,0.0,0.8802552223205566,-0.725806713104248
-0.334704726934433,0.8817203640937805,-0.1874172985553741,-0.1693634539842605,-0.5808358192443848,-0.2690476775169372,0.0,0.0,0.9061330556869508,-0.9310377240180968
-0.3366471827030182,0.8783882856369019,-0.1845474541187286,-0.1523783504962921,-0.5923285484313965,-0.2298545092344284,0.0,0.0,0.8717591762542725,-0.8822548985481262
-0.3380610048770904,0.8758932948112488,-0.1336133927106857,-0.1144009456038475,-0.6015965938568115,-0.1853608042001724,0.0,0.0,0.2567640542984009,-0.8974615931510925
-0.3393147587776184,0.8737747073173523,-0.1194189041852951,-0.0969049483537674,-0.6087408661842346,-0.1428854316473007,0.0,0.0,0.4849362373352051,-0.9129543900489808
-0.3402772545814514,0.87221759557724,-0.0920971557497978,-0.071146085858345,-0.6137457489967346,-0.1000982373952865,0.0,0.0,-0.1521399021148681,-0.8660597205162048
-0.3412467539310455,0.8704231977462769,-0.0945617407560348,-0.0808775722980499,-0.6166344881057739,-0.0577734783291816,0.0,0.0,-0.6822589039802551,-0.9235761761665344
-0.3422169089317322,0.8683819770812988,-0.0961973816156387,-0.0911078080534935,-0.6176261305809021,-0.0198332630097866,0.0,0.0,-0.2966057062149048,-0.1149928569793701
-0.3431358337402344,0.8660406470298767,-0.0912205576896667,-0.104374460875988,-0.6184422373771667,-0.016321625560522,0.0,0.0,-0.1181827187538147,-0.6928884983062744
-0.3440408110618591,0.8634349703788757,-0.0909976959228515,-0.115571305155754,-0.617834210395813,0.0121609177440404,0.0,0.0,-0.3676730990409851,-0.8023118376731873
-0.3449293971061706,0.8605701327323914,-0.0905698761343956,-0.1265169084072113,-0.6157628297805786,0.0414273180067539,0.0,0.0,-0.1899058818817138,-0.7735143303871155
-0.3458015322685241,0.8574408888816833,-0.0900999009609222,-0.1377235502004623,-0.6122772097587585,0.0697124823927879,0.0,0.0,0.3089319467544555,-0.6084900498390198
-0.3463144898414612,0.8547912836074829,-0.0553847439587116,-0.1158549040555954,-0.6073523759841919,0.0984961837530136,0.0,0.0,0.4635076522827148,-0.3238711357116699
-0.3463619649410248,0.8526466488838196,-0.0090497341006994,-0.0933361500501632,-0.6021906733512878,0.1032339483499527,0.0,0.0,-0.5255621671676636,-0.8856907486915588
-0.3463923037052154,0.8502519726753235,-0.0087025696411728,-0.1038466989994049,-0.5954121351242065,0.1355705559253692,0.0,0.0,-0.8526999950408936,-0.7621892094612122
-0.3464043736457824,0.8475934863090515,-0.008112670853734,-0.1150561198592186,-0.5871997475624084,0.164247378706932,0.0,0.0,-0.4996787905693054,-0.8153727054595947
-0.3464112281799316,0.8446922898292542,-0.0093020815402269,-0.1251614093780517,-0.5770204067230225,0.2035873234272003,0.0,0.0,-0.1620746850967407,-0.3273226618766784
-0.3463536202907562,0.8414930701255798,-0.0029476922936737,-0.1384415626525879,-0.566792368888855,0.204560324549675,0.0,0.0,-0.3356362581253052,-0.6741750836372375
-0.3462765216827392,0.8380399942398071,-0.0023699472658336,-0.1492377072572708,-0.5550339221954346,0.2351687401533126,0.0,0.0,-0.6163881421089172,-0.3744282126426697
-0.3461329042911529,0.8342897295951843,0.0041933390311896,-0.16252201795578,-0.5432605147361755,0.2354679405689239,0.0,0.0,-0.5313053727149963,-0.0958043336868286
-0.3459219932556152,0.830242395401001,0.0108513990417122,-0.1758071780204773,-0.5314896106719971,0.2354179918766021,0.0,0.0,-0.0399928092956543,0.097303032875061
-0.3456431031227112,0.8258979320526123,0.0175974797457456,-0.189093142747879,-0.519739031791687,0.2350114583969116,0.0,0.0,0.1190412044525146,-0.4473509192466736
-0.3450923562049866,0.8219587206840515,0.0449802838265895,-0.1712649017572403,-0.50828617811203,0.2290576249361038,0.0,0.0,-0.1016085147857666,-0.794378399848938
-0.3445294797420501,0.8177679181098938,0.0446115992963314,-0.1819856911897659,-0.4951463341712951,0.2627969682216644,0.0,0.0,0.0333966016769409,-0.565628707408905
-0.3438284397125244,0.8138676285743713,0.0574471466243267,-0.1688582599163055,-0.4809960126876831,0.2830062508583069,0.0,0.0,-0.1932970285415649,-0.0395200252532959
-0.3430570065975189,0.8096715211868286,0.064480185508728,-0.1821519285440445,-0.4669405519962311,0.2811094224452972,0.0,0.0,-0.3749911785125732,-0.1448898315429687
-0.3422147631645202,0.8051798343658447,0.0715721994638443,-0.1954460889101028,-0.4529991149902344,0.2788287699222564,0.0,0.0,-0.5463669300079346,-0.5059886574745178
-0.341334730386734,0.800412118434906,0.074527233839035,-0.2075993418693542,-0.4382478594779968,0.2950253188610077,0.0,0.0,-0.3805060386657715,0.3537396192550659
-0.3403832018375397,0.7953490614891052,0.0817207545042038,-0.2208963930606842,-0.4236494302749634,0.291968822479248,0.0,0.0,-0.6190707683563232,-0.0431355237960815
-0.3393599987030029,0.7899909615516663,0.0889587476849556,-0.2341937273740768,-0.4092232584953308,0.288523256778717,0.0,0.0,-0.3975963592529297,-0.1844230890274047
-0.3382650017738342,0.78433758020401,0.0962367504835128,-0.2474912106990814,-0.3949888050556183,0.2846890389919281,0.0,0.0,-0.4670698046684265,0.133042573928833
-0.3370980322360992,0.7783890962600708,0.10355044901371,-0.2607887983322143,-0.3809654116630554,0.2804676294326782,0.0,0.0,-0.7079254388809204,0.5030860900878906
-0.3358215391635895,0.7721280455589294,0.1156062632799148,-0.2751029431819916,-0.3681907057762146,0.2554941773414612,0.0,0.0,0.1147876977920532,0.1025542020797729
-0.3342435956001282,0.7662931084632874,0.1457491368055343,-0.2562814354896545,-0.3554761111736297,0.2542926371097564,0.0,0.0,-0.3513312339782715,-0.2793539762496948
-0.3325936198234558,0.7601627707481384,0.1531462967395782,-0.2695770859718323,-0.3430296182632446,0.2489301860332489,0.0,0.0,-0.390693724155426,-0.3610021471977234
-0.3308717310428619,0.7537369132041931,0.1605631113052368,-0.2828725278377533,-0.3308697640895843,0.243196964263916,0.0,0.0,-0.560128927230835,-0.1769028306007385
-0.3290779590606689,0.7470154166221619,0.1679958403110504,-0.296167641878128,-0.3190148174762726,0.2370993643999099,0.0,0.0,-0.6655555367469788,-0.1590621471405029
-0.3272124230861664,0.739998459815979,0.1754408627748489,-0.3094624280929565,-0.3074826002120971,0.2306446135044098,0.0,0.0,-0.8176032900810242,-0.109915018081665
-0.3252752721309662,0.7326856851577759,0.1828945577144622,-0.3227567970752716,-0.2962905764579773,0.2238407582044601,0.0,0.0,-0.6760913133621216,-0.1990613937377929
-0.3232666552066803,0.725077211856842,0.1903534233570099,-0.3360506892204284,-0.2854557037353515,0.2166966646909713,0.0,0.0,-0.8069422841072083,-0.3417637944221496
-0.3211866915225982,0.7171730399131775,0.1978139579296112,-0.3493441045284271,-0.2749946117401123,0.209221675992012,0.0,0.0,-0.6996897459030151,-0.5022044777870178
-0.3190712332725525,0.708993136882782,0.2007575929164886,-0.3615649938583374,-0.2639429867267608,0.2210323512554168,0.0,0.0,-0.7264032959938049,-0.4095401763916015
