x_pos,y_pos,x_vel,y_vel,angle,ang_vel,leg_1,leg_2,main_booster,lat_booster
-0.00149431230966,1.4029091596603394,-0.1514338105916977,-0.3560414612293243,0.0018021104624494,0.0355512015521526,0.0,0.0,-0.7506650686264038,0.1385930776596069
-0.0029588700272142,1.3942060470581057,-0.1482881158590316,-0.3868050873279571,0.0036075271200388,0.0361125096678733,0.0,0.0,0.5087151527404785,0.9027791023254396
-0.0041862488724291,1.3853352069854736,-0.1230072826147079,-0.3942621052265167,0.0038663316518068,0.0051767216064035,0.0,0.0,-0.0121030211448669,0.8739398717880249
-0.005328559782356,1.3757463693618774,-0.1131367310881614,-0.4261700510978699,0.0027861134149134,-0.0216064471751451,0.0,0.0,0.168262243270874,0.4458413124084472
-0.0063508986495435,1.3661342859268188,-0.1016294583678245,-0.4272011518478393,0.0021908497437834,-0.0119067346677184,0.0,0.0,0.3678970336914062,0.3764926195144653
-0.0072305677458643,1.356481671333313,-0.0879602134227752,-0.4290041625499725,0.0021856040693819,-0.0001050233113346,0.0,0.0,-0.7091382741928101,-0.2848341464996338
-0.0080801965668797,1.346113681793213,-0.0850151926279068,-0.4607977569103241,0.0022271224297583,0.0008306656964123,0.0,0.0,0.0015691518783569,0.0812268257141113
-0.0088104251772165,1.3356192111968994,-0.073543295264244,-0.4664259552955627,0.0027471326757222,0.0104011492803692,0.0,0.0,-0.4381319284439087,-0.2590945363044739
-0.0095108989626169,1.3244091272354126,-0.0706222876906395,-0.4982219636440277,0.0033130224328488,0.011318820528686,0.0,0.0,-0.7152038216590881,-0.5783389806747437
-0.010227489285171,1.3124873638153076,-0.0734414085745811,-0.5298629999160767,0.0050720442086458,0.0351837202906608,0.0,0.0,-0.6294971108436584,-0.3744549751281738
-0.0109148975461721,1.2998502254486084,-0.0705614015460014,-0.561654269695282,0.0068758549168705,0.0360794253647327,0.0,0.0,-0.548582136631012,-0.7521544098854065
-0.0116255758330225,1.2864959239959717,-0.0742695927619934,-0.5935449600219727,0.0100408438593149,0.0633055865764617,0.0,0.0,-0.0523754358291626,-0.6620749235153198
-0.0123485568910837,1.2724292278289795,-0.0765810385346412,-0.6252208948135376,0.0142784770578145,0.0847603753209114,0.0,0.0,-0.5662513971328735,-0.3164815902709961
-0.0130432127043604,1.2576475143432615,-0.0737903043627739,-0.6570138335227966,0.0185597129166126,0.0856325179338455,0.0,0.0,-0.5683533549308777,-0.3594491481781006
-0.0137097360566258,1.2421507835388184,-0.0710337907075882,-0.6888065338134766,0.0228845532983541,0.0865049362182617,0.0,0.0,-0.1112132668495178,0.3210339546203613
-0.014348697848618,1.22593891620636,-0.0683149546384811,-0.720599353313446,0.027252409607172,0.0873651057481765,0.0,0.0,-0.3203680515289306,0.2544136047363281
-0.0149605749174952,1.2090120315551758,-0.0656370371580123,-0.7523924708366394,0.0316628850996494,0.0882176607847213,0.0,0.0,-0.201922059059143,0.1529736518859863
-0.0155455591157078,1.191370129585266,-0.063003122806549,-0.784185528755188,0.036115612834692,0.0890624821186065,0.0,0.0,-0.2447031736373901,0.930262327194214
-0.0160192493349313,1.173026442527771,-0.0497405268251895,-0.8153313994407654,0.0384635999798774,0.0469641089439392,0.0,0.0,0.1260740756988525,0.12107515335083
-0.0165368076413869,1.1545426845550537,-0.0539137311279773,-0.8215596675872803,0.0405972488224506,0.0426769815385341,0.0,0.0,0.4197907447814941,0.6043463945388794
-0.0168879516422748,1.1363266706466677,-0.0363621562719345,-0.8096400499343872,0.0418275482952594,0.0246085245162248,0.0,0.0,0.3317875862121582,0.1178784370422363
-0.0172197334468364,1.117930293083191,-0.034515656530857,-0.8176543116569519,0.0431429520249366,0.02631033398211,0.0,0.0,0.5144230127334595,0.0838648080825805
-0.017430018633604,1.099574089050293,-0.0229591485112905,-0.8158784508705139,0.0450521558523178,0.038187988102436,0.0,0.0,-0.3152327537536621,0.1314681768417358
-0.0176167488098144,1.08050274848938,-0.020643388852477,-0.8476743698120117,0.0470010489225387,0.0389813408255577,0.0,0.0,0.744758129119873,0.6361839771270752
-0.0179239269345998,1.061728596687317,-0.0310495607554912,-0.8344201445579529,0.0473270155489444,0.0065198927186429,0.0,0.0,-0.0351437330245971,0.0716286897659301
-0.0182082168757915,1.0422176122665403,-0.0287903733551502,-0.8671683073043823,0.0476931035518646,0.0073215486481785,0.0,0.0,0.7255033254623413,0.0913681983947753
-0.0185029990971088,1.0231283903121948,-0.0299028549343347,-0.8484222888946533,0.0481168814003467,0.0084753204137086,0.0,0.0,0.7961809635162354,0.2091792821884155
-0.0189618114382028,1.0046581029891968,-0.0456896945834159,-0.8208988308906555,0.0479223802685737,-0.0038901572115719,0.0,0.0,0.8731931447982788,0.5453368425369263
-0.0195567123591899,0.98678457736969,-0.0577783212065696,-0.7943212389945984,0.0462313219904899,-0.0338208451867103,0.0,0.0,0.7247005701065063,-0.8640499711036682
-0.0202481262385845,0.9689489603042604,-0.0691712349653244,-0.7926966547966003,0.0462568067014217,0.0005096248351037,0.0,0.0,0.2488675117492675,-0.0961420536041259
-0.0209362991154193,0.9513580799102784,-0.0689537078142166,-0.7818248867988586,0.046385683119297,0.0025774769019335,0.0,0.0,0.9437648057937622,0.6561287641525269
-0.021676730364561,0.933817446231842,-0.0726281255483627,-0.7795426845550537,0.0449925512075424,-0.027862574905157,0.0,0.0,0.1206467151641845,-0.7801666855812073
-0.0225507728755474,0.91637521982193,-0.08755574375391,-0.7752183675765991,0.0451413430273532,0.0029755909927189,0.0,0.0,0.7192447185516357,0.4242492914199829
-0.0234917644411325,0.8987755179405212,-0.0939749181270599,-0.7822020053863525,0.0450200624763965,-0.002425686456263,0.0,0.0,0.0695650577545166,0.4523423910140991
-0.0244250297546386,0.8810697793960571,-0.0932908579707145,-0.7869184017181396,0.044983834028244,-0.0007247405592352,0.0,0.0,0.6205418109893799,-0.1887502074241638
-0.0253591537475585,0.863761842250824,-0.0935017839074134,-0.7692482471466064,0.0450659282505512,0.0016420021420344,0.0,0.0,-0.2165828943252563,0.4435791969299316
-0.0262796394526958,0.8457385897636414,-0.0921611711382865,-0.8010377287864685,0.0451833866536617,0.0023491792380809,0.0,0.0,0.3989657163619995,0.6374688148498535
-0.0271306037902832,0.827976644039154,-0.0840365588665008,-0.7893876433372498,0.0441353917121887,-0.0209600590169429,0.0,0.0,0.8552870750427246,0.2625225782394409
-0.0280553810298442,0.8109146356582642,-0.0912449583411216,-0.7582817673683167,0.0429171957075595,-0.0243639126420021,0.0,0.0,0.4289112091064453,0.0376850366592407
-0.0289670936763286,0.7939267158508301,-0.0900854393839836,-0.7549875974655151,0.0418457053601741,-0.0214297696948051,0.0,0.0,-0.0280843377113342,0.0246132612228393
-0.0298684127628803,0.7762235999107361,-0.0890848413109779,-0.786777138710022,0.0408072546124458,-0.0207687579095363,0.0,0.0,0.7427780628204346,0.4017999172210693
-0.0306527130305767,0.758640706539154,-0.0780215114355087,-0.7814449667930603,0.0404034480452537,-0.0080761546269059,0.0,0.0,-0.0168932080268859,0.8156580924987793
-0.0313532836735248,0.7403383255004883,-0.0677686035633087,-0.813381552696228,0.0381482020020484,-0.0451047830283641,0.0,0.0,-0.2090658545494079,0.3488808870315552
-0.0320460312068462,0.7213206887245178,-0.0670224726200103,-0.8451713919639587,0.0359239839017391,-0.0444842092692852,0.0,0.0,0.9846956729888916,0.5141606330871582
-0.0327552780508995,0.7021116614341736,-0.0675080642104148,-0.8536599278450012,0.0325512439012527,-0.0674549266695976,0.0,0.0,0.8948519229888916,0.6582393646240234
-0.0333620086312294,0.6827605366706848,-0.0561095252633094,-0.8599509000778198,0.028043370693922,-0.0901577025651931,0.0,0.0,0.9846543073654176,-0.6639907956123352
-0.0339524261653423,0.6634969711303711,-0.056049145758152,-0.8561089038848877,0.0250904280692338,-0.059058528393507,0.0,0.0,0.912091851234436,-0.4021075963973999
-0.0346926674246788,0.6449602842330933,-0.070444218814373,-0.8237952589988708,0.0215637013316154,-0.0705346390604972,0.0,0.0,0.9549126625061036,0.6342031955718994
-0.0355670936405658,0.6271090507507324,-0.0821725279092788,-0.7933236360549927,0.0163539797067642,-0.1041943877935409,0.0,0.0,0.9195573329925536,0.0691816806793212
-0.0364728942513465,0.6094285249710083,-0.0852197036147117,-0.7857484817504883,0.0110568236559629,-0.1059430837631225,0.0,0.0,0.8517782688140869,-0.1167969703674316
-0.0372229591012001,0.591995894908905,-0.0704169422388076,-0.7747595906257629,0.006528862286359,-0.0905591771006584,0.0,0.0,0.4090853929519653,0.4297469854354858
-0.03802490234375,0.5747901797294617,-0.0753947347402572,-0.7646839022636414,0.001798341050744,-0.0946104153990745,0.0,0.0,0.7146942615509033,0.525109052658081
-0.0386643409729003,0.5575591921806335,-0.058461457490921,-0.7658243775367737,-0.0036173581611365,-0.1083140596747398,0.0,0.0,0.2333570718765258,0.248552918434143
-0.0392993912100791,0.5405065417289734,-0.0580468289554119,-0.7579174041748047,-0.0089991930872201,-0.1076367124915123,0.0,0.0,0.9163590669631958,-0.6135447025299072
-0.0397937782108783,0.5235829949378967,-0.0457461476325988,-0.7521817088127136,-0.0126415286213159,-0.072846695780754,0.0,0.0,0.857331395149231,-0.1849055886268615
-0.0403902046382427,0.5067410469055176,-0.0554742701351642,-0.7485740184783936,-0.0167597811669111,-0.0823650360107421,0.0,0.0,0.8324148654937744,0.1210583448410034
-0.040869615972042,0.4905071556568146,-0.0442756824195385,-0.7215536236763,-0.0203755795955657,-0.0723159164190292,0.0,0.0,0.508781909942627,0.1789132356643676
-0.041213035583496,0.4744779169559479,-0.0312909558415412,-0.7124542593955994,-0.0233892370015382,-0.0602731630206108,0.0,0.0,0.844343900680542,-0.0673922896385192
-0.041454792022705,0.4591088593006134,-0.021528361365199,-0.6831104159355164,-0.0259988419711589,-0.0521919801831245,0.0,0.0,0.8792619705200195,0.1414606571197509
-0.0417634956538677,0.4443683624267578,-0.0278474390506744,-0.6551896333694458,-0.0289919525384902,-0.0598621740937233,0.0,0.0,-0.0935174226760864,-0.1481305360794067
-0.0420764908194541,0.4289126992225647,-0.0282881893217563,-0.6869797110557556,-0.0319686718285083,-0.0595344826579093,0.0,0.0,0.8832933902740479,0.1664991378784179
-0.0424829497933387,0.413946121931076,-0.0371063239872455,-0.665260374546051,-0.0354587212204933,-0.0698008239269256,0.0,0.0,0.9046730995178224,-0.4143456220626831
-0.0427309982478618,0.3991506099700928,-0.0219573229551315,-0.6576480269432068,-0.0382756032049655,-0.0563374944031238,0.0,0.0,0.9771037101745604,0.3140745162963867
-0.0429284088313579,0.3847378492355346,-0.0170313734561204,-0.6406418085098267,-0.0409484542906284,-0.0534571297466754,0.0,0.0,0.9510047435760498,-0.1066935062408447
-0.043103028088808,0.370318740606308,-0.0148175107315182,-0.6409244537353516,-0.0435659065842628,-0.0523489229381084,0.0,0.0,0.8389773368835449,-0.5084583163261414
-0.043441392481327,0.3561826944351196,-0.0317884758114814,-0.6283277273178101,-0.0455894283950328,-0.0404705293476581,0.0,0.0,0.8610632419586182,-0.1673052906990051
-0.0437182411551475,0.3427743911743164,-0.0257548037916421,-0.5959856510162354,-0.0474901981651783,-0.0380155332386493,0.0,0.0,0.9315178394317628,0.6372227668762207
-0.0438326820731163,0.3291445970535278,-0.0085259648039937,-0.6058627367019653,-0.0503790751099586,-0.0577775128185749,0.0,0.0,0.7597782611846924,-0.5908222794532776
-0.043924044817686,0.3161699473857879,-0.0074867447838187,-0.5767101049423218,-0.0520015396177768,-0.0324493870139122,0.0,0.0,0.8634037971496582,-0.579786479473114
-0.0441536903381347,0.303289532661438,-0.0221964586526155,-0.5724863409996033,-0.0527731999754905,-0.0154328942298889,0.0,0.0,0.7830052375793457,0.3431258201599121
-0.0444512367248535,0.2907964587211609,-0.0285113994032144,-0.5552942156791687,-0.0539957992732524,-0.0244521740823984,0.0,0.0,0.9550294876098632,-0.2549867630004883
-0.0446800217032432,0.2786881923675537,-0.0218174327164888,-0.5381833910942078,-0.0550433322787284,-0.0209508817642927,0.0,0.0,0.8952968120574951,0.1697093248367309
-0.045010469853878,0.2673279941082001,-0.031300351023674,-0.5049654245376587,-0.0567686818540096,-0.0345071032643318,0.0,0.0,0.5823272466659546,-0.0710271000862121
-0.045246697962284,0.2560747861862182,-0.0222154799848794,-0.500196635723114,-0.0581635050475597,-0.0278963651508092,0.0,0.0,0.4364421367645263,-0.1407794952392578
-0.0454998984932899,0.2446181178092956,-0.0237745977938175,-0.5092474818229675,-0.0596896857023239,-0.0305237583816051,0.0,0.0,0.6516554355621338,0.045843482017517
-0.0456731803715229,0.2329266220331192,-0.0161055792123079,-0.5196685194969177,-0.0608979277312755,-0.024164717644453,0.0,0.0,0.6257443428039551,-0.7755227088928223
-0.0459291450679302,0.2210210412740707,-0.0258766058832407,-0.5291262269020081,-0.0606243312358856,0.0054719313047826,0.0,0.0,0.8642439842224121,0.1735963821411132
-0.046147346496582,0.2097411006689071,-0.02205759473145,-0.5013204216957092,-0.0603924207389354,0.00463806418702,0.0,0.0,0.907829761505127,-0.2915207147598266
-0.046223260462284,0.199147954583168,-0.0082617178559303,-0.4707770645618438,-0.0597316548228263,0.0132153006270527,0.0,0.0,0.4133745431900024,-0.4047780036926269
-0.0463598258793354,0.1888951808214187,-0.0138795403763651,-0.4556711614131927,-0.0595143772661685,0.0043455259874463,0.0,0.0,0.460841417312622,-0.3479524850845337
-0.0465994849801063,0.1783758550882339,-0.0236513204872608,-0.4675377011299133,-0.0598263554275035,-0.0062397313304245,0.0,0.0,0.6790287494659424,-0.1840574741363525
-0.0467561706900596,0.1683404594659805,-0.0155388563871383,-0.446021020412445,-0.059949405491352,-0.0024610213004052,0.0,0.0,0.3575968742370605,0.2292370796203613
-0.046973131597042,0.1583054214715957,-0.0211804397404193,-0.4460228681564331,-0.0604589879512786,-0.0101916380226612,0.0,0.0,0.2127039432525634,-0.1087228655815124
-0.0472052581608295,0.1483037024736404,-0.0225112345069646,-0.4445495307445526,-0.0611567199230194,-0.0139541644603014,0.0,0.0,0.1481784582138061,0.1159062385559082
-0.0474205985665321,0.1383150219917297,-0.0207919627428054,-0.4439693391323089,-0.0618954747915267,-0.0147752184420824,0.0,0.0,0.8593697547912598,0.0922290086746215
-0.0475015640258789,0.1285823136568069,-0.0078121582046151,-0.4325761198997497,-0.0621834695339202,-0.0057595400139689,0.0,0.0,0.8083978891372681,-0.1391329169273376
-0.0475370399653911,0.1186928376555442,-0.003365283133462,-0.4395376145839691,-0.0623551644384861,-0.0034337129909545,0.0,0.0,0.9476770162582396,-0.595752477645874
-0.0474765785038471,0.1087879762053489,0.0046963575296103,-0.4401625096797943,-0.061023075133562,0.0266420450061559,0.0,0.0,0.9884538650512696,-0.5561745762825012
-0.0472329147160053,0.099183589220047,0.0213484168052673,-0.4267410933971405,-0.0580401457846164,0.0596585497260093,0.0,0.0,0.9670906066894532,-0.7064730525016785
-0.0468409545719623,0.0895512402057647,0.0343130454421043,-0.4279226958751678,-0.0532153435051441,0.0964958816766738,0.0,0.0,0.9944343566894532,-0.1858704090118408
-0.0464083664119243,0.0805629789829254,0.0384122356772422,-0.3993154764175415,-0.048428039997816,0.095746025443077,0.0,0.0,0.9575241804122924,-0.3802761435508728
-0.0458956733345985,0.0722035765647888,0.046259306371212,-0.3713722229003906,-0.0434774719178676,0.0990115851163864,0.0,0.0,0.9157323837280272,-0.1229482293128967
-0.045204259455204,0.0642791092395782,0.0634617656469345,-0.3520446717739105,-0.0378656648099422,0.1122359484434127,0.0,0.0,0.9045180082321168,-0.8840247392654419
-0.0444392189383506,0.0561915002763271,0.068809375166893,-0.3592760264873504,-0.0302605349570512,0.1521025896072387,0.0,0.0,0.973546266555786,0.4030910730361938
-0.0437158569693565,0.0483041629195213,0.0649375841021537,-0.3504143357276916,-0.0229534432291984,0.1461418569087982,0.0,0.0,0.9934104681015016,0.0132362842559814
-0.0428629890084266,0.0412600375711917,0.0774225518107414,-0.3129750788211822,-0.0151821048930287,0.1554267108440399,0.0,0.0,0.9570931196212769,0.2786155939102173
-0.0420228950679302,0.0345131009817123,0.0762765407562255,-0.2998021841049194,-0.0075470618903636,0.1527007520198822,0.0,0.0,0.9611260890960692,0.1374787092208862
-0.0413177497684955,0.0284697636961936,0.0634770840406417,-0.2685748636722564,-0.0006042534369044,0.1388562321662902,0.0,0.0,0.931121826171875,0.6720888614654541
-0.0404428467154502,0.0229384750127792,0.0815344527363777,-0.2458452731370926,0.0052702710963785,0.1174904480576515,0.0,0.0,0.9185112714767456,0.1613668203353881
-0.0396270751953125,0.0179987046867609,0.0759320557117462,-0.2195765823125839,0.0108476122841238,0.1115471124649047,0.0,0.0,0.6206903457641602,0.3498702049255371
-0.0388915054500103,0.0134444572031497,0.068294733762741,-0.2024578154087066,0.0160396452993154,0.1038403138518333,0.0,0.0,0.6756298542022705,0.5881435871124268
-0.0381346717476844,0.0089311935007572,0.0716897770762443,-0.2006363123655319,0.0199835523962974,0.078878030180931,0.0,0.0,0.5680234432220459,0.7411496639251709
-0.0374415405094623,0.0045576905831694,0.0670567899942398,-0.1944107115268707,0.0222162809222936,0.0446543470025062,0.0,0.0,0.7580771446228027,0.2961428165435791
-0.0369085296988487,0.0002994155802298,0.0518079213798046,-0.1892797946929931,0.0236975569278001,0.0296252630650997,0.0,0.0,0.7456419467926025,0.8393490314483643
-0.0362873077392578,-0.0028048299718648,0.0814158171415329,-0.1378170400857925,0.004480923525989,-0.3845440447330475,0.0,1.0,0.7202593088150024,0.1077464818954467
-0.0356331840157508,-0.004724970087409,0.0842500105500221,-0.0855359882116317,-0.0145099721848964,-0.380311906337738,1.0,1.0,0.9067542552947998,-0.9446659684181212
-0.0349352844059467,-0.0049194837920367,0.0844742208719253,-0.0088738119229674,-0.0289575848728418,-0.2888956069946289,1.0,1.0,0.2678072452545166,-0.8443259596824646
-0.0341913215816021,-0.004288163036108,0.0696307644248008,0.0281339026987552,-0.0242333356291055,0.0945186764001846,1.0,1.0,-0.6436048746109009,-0.9889383912086488
-0.0335898399353027,-0.0034747386816889,0.0540165118873119,,-0.0181616712361574,0.1214552745223045,1.0,1.0,-0.6473257541656494,-0.9453719854354858
-0.0331357941031456,-0.0026308083906769,0.0390150658786296,0.037568349391222,-0.0118407104164361,0.1264341026544571,1.0,1.0,-0.6606818437576294,-0.447336196899414
-0.0327465049922466,-0.0019045376684516,0.0333777666091918,0.0323118530213832,-0.0063589406199753,0.1096487790346145,1.0,1.0,-0.6988895535469055,0.0032358169555664
-0.0324213020503521,-0.0013497495092451,0.0282489694654941,0.0246666315943002,-0.0021263225935399,0.0846662670373916,1.0,1.0,-0.534532368183136,0.1556459665298462
-0.0321544632315635,-0.0013471031561493,0.026693781837821,0.0001158224113169,-0.0021256695035845,2.738218790909741e-05,1.0,1.0,-0.466834008693695,-0.1938350796699524
-0.031954575330019,-0.0013507509138435,0.0200113616883754,-0.000164939861861,-0.0021283077076077,-3.891997039318085e-05,1.0,1.0,-0.4725168943405151,-0.3017984628677368
-0.0318223014473915,-0.0013507509138435,0.0132331503555178,-3.0573705771530517e-06,-0.0021288567222654,-7.435912152686797e-07,1.0,1.0,-0.2536269426345825,-0.0293686985969543
-0.0317581184208393,-0.0012553000124171,0.0056025190278887,0.0042389007285237,-0.0012970205862075,0.0166536960750818,1.0,1.0,-0.6235092878341675,0.1230647563934326
-0.0317604057490825,-0.001254012575373,-0.0002176515263272,5.793665695819072e-05,-0.0012944473419338,5.667016375809908e-05,1.0,1.0,-0.5014663338661194,0.0510183572769165
-0.031778622418642,-0.0012546563521027,-0.001862870529294,-3.0434754080488347e-05,-0.0012669406132772,0.0005411457968875,1.0,1.0,-0.6936289668083191,0.1900839805603027
-0.0317896828055381,-0.0012546563521027,-0.0011361420620232,-1.708797640276316e-06,-0.0012503041652962,0.0003280094533693,1.0,1.0,-0.7871387600898743,0.2317372560501098
-0.0317910201847553,-0.0012546563521027,-0.0001326951169176,8.98799825677088e-08,-0.0012485206825658,3.826035390375182e-05,1.0,1.0,-0.6922484636306763,-0.0448213219642639
-0.0317881591618061,-0.0012546563521027,0.000281940359855,2.4339550463992055e-07,-0.0012528640218079,-8.134581003105268e-05,1.0,1.0,-0.8723700046539307,0.2910091876983642
