x_pos,y_pos,x_vel,y_vel,angle,ang_vel,leg_1,leg_2,main_booster,lat_booster
-0.001530933426693,1.403118371963501,-0.1543512493371963,-0.3467444479465484,0.0011340135242789,0.0223224945366382,0.0,0.0,0.6729865433706224,0.5420521792362891
-0.0029706954956054,1.3955317735671997,-0.1435407400131225,-0.3371796011924743,0.0006966431974433,-0.0087473662570118,0.0,0.0,0.0113444395482225,0.6681933325125514
-0.0042718886397778,1.3878047466278076,-0.1278146207332611,-0.3434237539768219,-0.001580425305292,-0.0455454811453819,0.0,0.0,0.2236636013645956,-0.509931162523636
-0.005715656094253,1.3801252841949463,-0.1422543376684188,-0.3413094878196716,-0.0036793160252273,-0.0419814139604568,0.0,0.0,0.9622272349660868,0.952967968937722
-0.0069191930815577,1.373103380203247,-0.1160598993301391,-0.312105119228363,-0.0079271271824836,-0.0849643796682357,0.0,0.0,-0.00158338200464,-0.6195617230258315
-0.0081669809296727,1.365574836730957,-0.1208634153008461,-0.3346224725246429,-0.011806889437139,-0.0776021033525466,0.0,0.0,-0.2273546191102966,0.7598295493625122
-0.0093638421967625,1.3575397729873655,-0.1137246638536453,-0.3571700155735016,-0.017700707539916,-0.1178873032331466,0.0,0.0,-0.868341599543135,0.5932127437286707
-0.0105088232085108,1.3489997386932373,-0.1064932197332382,-0.3796758353710174,-0.0256087724119424,-0.1581763327121734,0.0,0.0,-0.7247781328868808,0.5850404890332298
-0.0116146085783839,1.3399591445922852,-0.1008953303098678,-0.4019896388053894,-0.0351846478879451,-0.191535547375679,0.0,0.0,0.990938497083127,-0.8759843261897362
-0.0127654075622558,1.331735372543335,-0.1066285967826843,-0.3657231032848358,-0.0435413941740989,-0.167150005698204,0.0,0.0,0.5902528052303804,0.96227807950981
-0.0137274740263819,1.323853850364685,-0.0854612216353416,-0.3506383895874023,-0.0541828721761703,-0.2128493338823318,0.0,0.0,-0.6595590887729708,0.9944611246782332
-0.0146077154204249,1.3154592514038086,-0.074574626982212,-0.3736327290534973,-0.0675048008561134,-0.2664630115032196,0.0,0.0,0.2404824243589629,-0.5483103508368226
-0.015393828973174,1.307343602180481,-0.0660368874669075,-0.3613094985485077,-0.0799659863114357,-0.2492463141679763,0.0,0.0,0.2952710553787658,0.923310648043412
-0.0160283092409372,1.299116134643555,-0.0486479625105857,-0.3665203750133514,-0.0946541652083396,-0.2937906086444855,0.0,0.0,-0.3776767887384449,-0.9726663970791256
-0.0167253501713275,1.290404200553894,-0.0560015849769115,-0.388125866651535,-0.1082683280110359,-0.2723077237606048,0.0,0.0,-0.7034091099478033,-0.7260623928887355
-0.0174740795046091,1.2811881303787231,-0.0619918331503868,-0.4105911552906036,-0.1210929453372955,-0.2565156817436218,0.0,0.0,-0.4395939277418823,0.5748225872291515
-0.0181713104248046,1.271465539932251,-0.0550826489925384,-0.4333715140819549,-0.1356857270002365,-0.291882187128067,0.0,0.0,0.1902102149548881,0.8729466929319978
-0.0186506267637014,1.2615962028503418,-0.031303908675909,-0.4402317702770233,-0.1522909104824066,-0.3321341872215271,0.0,0.0,-0.228121524106061,-0.5404954519960172
-0.0191683769226074,1.2512381076812744,-0.0357803143560886,-0.4620798230171203,-0.1682989001274109,-0.3201886117458343,0.0,0.0,0.1503190434678736,0.7891673785359974
-0.0196255687624216,1.240960955619812,-0.0278687924146652,-0.4588766396045685,-0.1862220764160156,-0.3584960103034973,0.0,0.0,-0.4230815468725728,0.6095160577137007
-0.0200276374816894,1.2301712036132812,-0.0207089688628911,-0.4821199774742126,-0.2058777809143066,-0.3931494653224945,0.0,0.0,0.6776495665554805,-0.865454825765898
-0.020394992083311,1.2195522785186768,-0.0188127420842647,-0.4745529592037201,-0.2240038067102432,-0.3625534474849701,0.0,0.0,-0.2468745949535946,-0.6428776952444142
-0.0208035465329885,1.2084438800811768,-0.0238090138882398,-0.4963865578174591,-0.2413145303726196,-0.3462455868721008,0.0,0.0,0.9165818408599636,0.763860086069575
-0.0209849365055561,1.1973000764846802,0.0003226916596759,-0.4984164535999298,-0.2601453363895416,-0.3766503036022186,0.0,0.0,0.3641336336495528,0.6573678645036622
-0.0211057662963867,1.1864573955535889,0.0079314615577459,-0.4855809807777405,-0.2806725203990936,-0.4105815291404724,0.0,0.0,0.1746424595550313,-0.6428304034268936
-0.0212526321411132,1.1758873462677002,0.0042407112196087,-0.4735383689403534,-0.3001657724380493,-0.3898649513721466,0.0,0.0,0.8743828191455645,0.7192286235554453
-0.0210976600646972,1.1659748554229736,0.0357929766178131,-0.4448835253715515,-0.3211881220340729,-0.4204478859901428,0.0,0.0,-0.2947409487561716,-0.8200536197322361
-0.0210161209106445,1.1556066274642944,0.0263836719095706,-0.464966207742691,-0.340215265750885,-0.380543053150177,0.0,0.0,-0.3994433910107418,0.9851482754950402
-0.0208762176334857,1.1447148323059082,0.0336126014590263,-0.4888525605201721,-0.3608339130878448,-0.4123731553554535,0.0,0.0,-0.2732688056236787,-0.7909066565811521
-0.0207976344972848,1.1333528757095337,0.0257459133863449,-0.5095875859260559,-0.3797658681869507,-0.3786388337612152,0.0,0.0,-0.6465676017687667,0.6546146263594301
-0.0206680297851562,1.121466875076294,0.0319695807993412,-0.5334596037864685,-0.4000412225723266,-0.4055078625679016,0.0,0.0,-0.6379117965698242,-0.983633816242218
-0.0206200592219829,1.1091246604919434,0.0214585922658443,-0.5533504486083984,-0.4179592132568359,-0.3583600223064422,0.0,0.0,-0.3221810460090637,-0.969486653804779
-0.0206483844667673,1.0963399410247805,0.01149467471987,-0.5725286602973938,-0.4334814250469208,-0.3104440867900848,0.0,0.0,-0.4711034297943115,-0.9698514342308044
-0.02075538598001,1.0830960273742676,0.0013801576569676,-0.5924052596092224,-0.4466598927974701,-0.2635692059993744,0.0,0.0,-0.3202418088912964,-0.9593236446380616
-0.0209275241941213,1.0693960189819336,-0.0071245543658733,-0.6121527552604675,-0.4577371180057525,-0.2215436398983001,0.0,0.0,-0.8743760585784912,-0.9892024993896484
-0.0211647991091012,1.0552465915679932,-0.015655867755413,-0.6315418481826782,-0.4666203260421753,-0.1776649057865142,0.0,0.0,-0.752836287021637,-0.9951066970825196
-0.0214758869260549,1.0406407117843628,-0.0252218507230281,-0.6511382460594177,-0.4731326997280121,-0.1302482038736343,0.0,0.0,-0.8310660719871521,-0.9802619814872742
-0.0218481067568063,1.0255836248397827,-0.0333140566945076,-0.6705523729324341,-0.4774803519248962,-0.0869526043534278,0.0,0.0,-0.8253424763679504,-0.9501044750213624
-0.0222869869321584,1.0100826025009155,-0.0421244576573371,-0.689535915851593,-0.4794360697269439,-0.0391137339174747,0.0,0.0,-0.7964242100715637,-0.976179540157318
-0.0227893833070993,0.9941253662109376,-0.0504886806011199,-0.7091239094734192,-0.4791617095470428,0.0054870909079909,0.0,0.0,-0.8616272807121277,-0.9096349477767944
-0.023362923413515,0.9777249693870544,-0.0598992928862571,-0.7280291318893433,-0.4763307869434356,0.0566187426447868,0.0,0.0,-0.3470355272293091,-0.9764672517776488
-0.0239901542663574,0.9608563780784608,-0.0670241564512252,-0.7482376098632812,-0.4715565741062164,0.0954840630292892,0.0,0.0,-0.8507553339004517,-0.951790690422058
-0.0246750824153423,0.943513572216034,-0.0746117681264877,-0.7687323689460754,-0.464786946773529,0.1353924870491027,0.0,0.0,-0.6724374294281006,-0.9076042771339417
-0.0254121776670217,0.9257014393806458,-0.0816061720252037,-0.789036750793457,-0.4560768008232116,0.1742029339075088,0.0,0.0,-0.5728060007095337,-0.8729677200317383
-0.026215935125947,0.907421052455902,-0.0904318392276763,-0.8092142343521118,-0.4450593590736389,0.2203487604856491,0.0,0.0,-0.6733738780021667,-0.8071988821029663
-0.0270729064941406,0.8886644840240479,-0.0975660756230354,-0.8299046158790588,-0.4321071207523346,0.2590447962284088,0.0,0.0,-0.5919650197029114,-0.4707260131835937
-0.0279273986816406,0.8694016337394714,-0.0977779775857925,-0.8523953557014465,-0.4187477231025696,0.2671877443790436,0.0,0.0,-0.7208027243614197,-0.1899071335792541
-0.028779411688447,0.8496326804161072,-0.0979909226298332,-0.8748868107795715,-0.4049659371376037,0.2756364345550537,0.0,0.0,-0.6893817186355591,-0.0445352792739868
-0.0296286586672067,0.8293578028678894,-0.0982047468423843,-0.8973792791366577,-0.3907472789287567,0.2843732833862304,0.0,0.0,-0.6210529804229736,0.1026539802551269
-0.0304751396179199,0.8085771799087524,-0.0984192639589309,-0.91987282037735,-0.3760782182216644,0.2933813333511352,0.0,0.0,-0.2865388393402099,0.6160337924957275
-0.0312629714608192,0.7872573733329773,-0.091587096452713,-0.9442307353019714,-0.3625172078609466,0.2712202668190002,0.0,0.0,0.4503822326660156,0.0663392543792724
-0.0318654999136924,0.7663654685020447,-0.0733681097626686,-0.9252713918685912,-0.3487148284912109,0.2760481238365173,0.0,0.0,0.0258783102035522,0.5375304222106934
-0.0322606079280376,0.7452937960624695,-0.0522034838795661,-0.9335057735443116,-0.3354175686836242,0.2659458816051483,0.0,0.0,0.6324267387390137,-0.2782247066497803
-0.0323901176452636,0.7248307466506958,-0.026185005903244,-0.9064481854438782,-0.3216087222099304,0.2761768400669098,0.0,0.0,0.3547372817993164,0.1980721950531005
-0.0322739593684673,0.704373300075531,-0.0027094620745629,-0.9061095714569092,-0.3067280650138855,0.2976134419441223,0.0,0.0,0.0326123237609863,0.0963115692138671
-0.0321222320199012,0.6838585734367371,0.0005451224860735,-0.9087434411048888,-0.2916078567504883,0.3024042844772339,0.0,0.0,0.7989170551300049,0.4330974817276001
-0.0316192619502544,0.6640416979789734,0.0346306674182415,-0.8777011632919312,-0.2754898071289062,0.3223606050014496,0.0,0.0,-0.2276633977890014,-0.2319244146347046
-0.0311123840510845,0.6437201499938965,0.034419797360897,-0.900202214717865,-0.2588396668434143,0.3330028355121612,0.0,0.0,0.8618265390396118,0.1305855512619018
-0.030282687395811,0.6242075562477112,0.0657200291752815,-0.8642804622650146,-0.2412606030702591,0.3515813052654266,0.0,0.0,-0.182163119316101,0.0563596487045288
-0.0294488910585641,0.6041913628578186,0.0655110403895378,-0.8867868185043335,-0.2231353968381881,0.3625040054321289,0.0,0.0,0.5143802165985107,-0.0485579967498779
-0.0284901615232229,0.5841526389122009,0.0771776884794235,-0.8878875374794006,-0.2042407989501953,0.3778920471668243,0.0,0.0,0.6659553050994873,-0.065603494644165
-0.0274826996028423,0.564680814743042,0.0818824544548988,-0.8629236817359924,-0.1852557957172393,0.3797001242637634,0.0,0.0,0.8278329372406006,0.1574418544769287
-0.0262312889099121,0.545512318611145,0.1050216406583786,-0.84954434633255,-0.1650754064321518,0.4036076962947845,0.0,0.0,0.3622891902923584,0.4751760959625244
-0.024873161688447,0.526585042476654,0.114953875541687,-0.8390293121337891,-0.1442370563745498,0.4167667329311371,0.0,0.0,0.6874771118164062,0.5064811706542969
-0.0234041213989257,0.5077496767044067,0.1264014691114425,-0.8352651596069336,-0.1238171607255935,0.4083981513977051,0.0,0.0,0.8691821098327637,0.4730110168457031
-0.0219871513545513,0.4894341230392456,0.1212193146347999,-0.8124507069587708,-0.103468619287014,0.4069713950157165,0.0,0.0,0.6671929359436035,0.5570633411407471
-0.0204091072082519,0.4719015061855316,0.1377469003200531,-0.7779563665390015,-0.083587996661663,0.3976126313209533,0.0,0.0,0.4494284391403198,0.7689471244812012
-0.0186653137207031,0.4542239606380462,0.1551374346017837,-0.7847049832344055,-0.0645346567034721,0.3810673058032989,0.0,0.0,0.8780791759490967,0.2928997278213501
-0.0168237686157226,0.4374944865703583,0.1641375124454498,-0.7427898645401001,-0.0447530820965766,0.3956315815448761,0.0,0.0,0.6465415954589844,0.9551277160644532
-0.0149869918823242,0.4209682047367096,0.1651207059621811,-0.734050989151001,-0.0264208875596523,0.3666441440582275,0.0,0.0,0.2995846271514892,0.6521003246307373
-0.013160228729248,0.4047423601150512,0.164961963891983,-0.7209283709526062,-0.0089310463517904,0.3497969508171081,0.0,0.0,0.5678579807281494,0.7354716062545776
-0.0112334247678518,0.3889002799987793,0.1757784783840179,-0.7040745615959167,0.0077490839175879,0.3336027562618255,0.0,0.0,0.6843047142028809,0.746261715888977
-0.0093939779326319,0.3738545179367065,0.168249636888504,-0.668857216835022,0.0232490394264459,0.309999018907547,0.0,0.0,0.3591599464416504,0.3260008096694946
-0.007500743959099,0.3590207099914551,0.1727423816919326,-0.6596187949180603,0.039623811841011,0.3274954557418823,0.0,0.0,0.748570442199707,0.7917499542236328
-0.0055958749726414,0.3443000912666321,0.1749775111675262,-0.6547309756278992,0.0549435093998909,0.3063940703868866,0.0,0.0,0.4402258396148681,0.7275440692901611
-0.0035788535606116,0.3295037448406219,0.1869638264179229,-0.658223032951355,0.0695240572094917,0.2916111350059509,0.0,0.0,0.8064447641372681,0.5414669513702393
-0.0015769004821777,0.3147550821304321,0.1860564798116684,-0.6562102437019348,0.0835215076804161,0.2799490690231323,0.0,0.0,0.8597488403320312,0.6413196325302124
0.0003951072576455,0.3008490204811096,0.1837939321994781,-0.6188496351242065,0.0968106240034103,0.2657821774482727,0.0,0.0,0.9066009521484376,0.6459906101226807
0.002429676009342,0.28787362575531,0.1905081123113632,-0.5775728225708008,0.1096622794866561,0.2570330500602722,0.0,0.0,0.5786066055297852,0.6007552146911621
0.0043146135285496,0.2755541503429413,0.1764461994171142,-0.5484578013420105,0.1216364800930023,0.2394841164350509,0.0,0.0,0.3935693502426147,0.6319718360900879
0.0061014173552393,0.2631282210350036,0.1675387173891067,-0.5532103776931763,0.1327132880687713,0.2215360105037689,0.0,0.0,0.3059685230255127,0.7651458978652954
0.0079048154875636,0.2511537075042724,0.1701291054487228,-0.5331435203552246,0.1428972035646438,0.2036782950162887,0.0,0.0,0.0535387992858886,0.7921798229217529
0.0096482280641794,0.2392175793647766,0.1651567667722702,-0.5314009189605713,0.1520574986934662,0.1832056492567062,0.0,0.0,0.4376329183578491,0.8311846256256104
0.0113183017820119,0.2276582568883896,0.1589873880147934,-0.5145880579948425,0.1600744426250457,0.1603393256664276,0.0,0.0,0.2104803323745727,0.7319581508636475
0.0129582406952977,0.2163686603307724,0.1568715870380401,-0.5025418400764465,0.1672012656927108,0.1425360590219497,0.0,0.0,0.0420852899551391,0.7991886138916016
0.0146672250702977,0.2051495909690857,0.1647756099700927,-0.4993265569210052,0.1733361035585403,0.1226963549852371,0.0,0.0,0.3755688667297363,0.7652397155761719
0.0164139755070209,0.1938612759113311,0.1694672554731369,-0.5023205280303955,0.1785566210746765,0.1044105514883995,0.0,0.0,0.6546988487243652,0.194446325302124
0.0181851387023925,0.1826886981725692,0.1709108352661132,-0.4973177909851074,0.1847879290580749,0.1246258988976478,0.0,0.0,0.3182551860809326,0.5060427188873291
0.0200416557490825,0.1717297583818435,0.1795826256275177,-0.4878321290016174,0.190876767039299,0.1217766553163528,0.0,0.0,0.3273216485977173,0.1724131107330322
0.0219525340944528,0.1607653200626373,0.1839511543512344,-0.4882464408874511,0.1980580240488052,0.1436252295970916,0.0,0.0,0.694476842880249,-0.1723823547363281
0.0237107276916503,0.1504284441471099,0.1681514829397201,-0.4604611098766327,0.2057831585407257,0.1545025706291198,0.0,0.0,0.6175888776779175,0.4703021049499511
0.0253515243530273,0.1406876593828201,0.1557112336158752,-0.4341063797473907,0.2142151296138763,0.168639525771141,0.0,0.0,0.4371917247772217,-0.4456827640533447
0.0269792564213275,0.1313286125659942,0.1533780544996261,-0.4173495173454284,0.2237105369567871,0.1899081319570541,0.0,0.0,0.2280797958374023,0.2454473972320556
0.0286306384950876,0.1218462586402893,0.1548781096935272,-0.4230290353298187,0.2341104000806808,0.2079971581697464,0.0,0.0,0.6712143421173096,0.5491831302642822
0.0301539413630962,0.1126062273979187,0.1427893042564392,-0.4122175872325897,0.2438075095415115,0.1939421892166137,0.0,0.0,0.5438904762268066,0.3559165000915527
0.0315638557076454,0.1040653586387634,0.1305674165487289,-0.38135427236557,0.2544180154800415,0.2122098505496978,0.0,0.0,0.4775488376617431,0.7647936344146729
0.0328858382999897,0.0957743227481842,0.1228352561593055,-0.3701458573341369,0.2639878094196319,0.1913959681987762,0.0,0.0,0.6328024864196777,0.4734869003295898
0.0338884368538856,0.0880705192685127,0.0909377858042717,-0.3440984785556793,0.273525059223175,0.1907451301813125,0.0,0.0,0.6307864189147949,0.7632894515991211
0.034857653081417,0.0809248313307762,0.0884390920400619,-0.3191922605037689,0.2822152078151703,0.1738030165433883,0.0,0.0,0.4185159206390381,0.5952737331390381
0.0356476791203022,0.0742067173123359,0.0713266879320144,-0.3000849485397339,0.2901114821434021,0.1579253375530243,0.0,0.0,0.2227513790130615,0.604196310043335
0.0362631790339946,0.0677772834897041,0.0547030866146087,-0.2871330678462982,0.2971780598163605,0.1413323283195495,0.0,0.0,0.4686005115509033,0.9306615591049194
0.0368000976741313,0.0614974126219749,0.0482067242264747,-0.2802375257015228,0.3028405904769897,0.113250732421875,0.0,0.0,0.8618483543395996,0.8311996459960938
0.0370636954903602,0.0556496232748031,0.0223201978951692,-0.2607500255107879,0.3070323765277862,0.0838348418474197,0.0,0.0,0.777984619140625,0.9851781129837036
0.037062931805849,0.0500547513365745,-0.0024349470622837,-0.2491611540317535,0.3094667494297027,0.0486872047185897,0.0,0.0,0.9192663431167604,0.9835159778594972
0.0370147712528705,0.0452518090605735,-0.0059065599925816,-0.2136948704719543,0.3105940222740173,0.0225455071777105,0.0,0.0,0.8807631731033325,0.9511595964431764
0.0369892120361328,0.0406066514551639,-0.0023681193124502,-0.206410601735115,0.3103951811790466,-0.0039766691625118,0.0,0.0,0.753186821937561,0.9977147579193116
0.0369581207633018,0.0367362610995769,-0.0016107953852042,-0.171700581908226,0.3088463842868805,-0.0309761948883533,0.0,0.0,0.783210277557373,0.9655187129974364
0.0367209427058696,0.0335882753133773,-0.0207208935171365,-0.1392732560634613,0.3057427108287811,-0.0620735511183738,0.0,0.0,0.7083485126495361,0.8523675203323364
0.0364015586674213,0.0319927558302879,-0.0157826673239469,-0.0676031336188316,0.2890547215938568,-0.3337648808956146,0.0,1.0,0.0827409029006958,0.9487440586090088
0.0361016280949115,0.0304988007992506,-0.0118515267968177,-0.062913067638874,0.2704249620437622,-0.3725953698158264,0.0,1.0,0.5594437122344971,0.9335503578186036
0.0356568321585655,0.0296530108898878,-0.0243844389915466,-0.0340051427483558,0.2498865723609924,-0.4107681214809418,0.0,1.0,0.2677932977676391,0.7829807996749878
0.0351712219417095,0.0292346570640802,-0.0268317405134439,-0.0150522952899336,0.2278164625167846,-0.4414024353027344,0.0,0.0,-0.9949921369552612,0.7332350015640259
0.0347531326115131,0.0283369403332471,-0.0187560804188251,-0.036507599055767,0.2045154273509979,-0.4660210013389587,0.0,0.0,-0.9823569655418396,0.3855910301208496
0.0343380942940712,0.0269411895424127,-0.0187776461243629,-0.0590517297387123,0.1816462576389312,-0.4573835432529449,0.0,0.0,-0.9536319375038148,0.5367488861083984
0.0339590087532997,0.0250549893826246,-0.0146565157920122,-0.0811499506235122,0.1583524197340011,-0.4658767580986023,0.0,0.0,-0.9206515550613404,0.0475026369094848
0.0335830673575401,0.0226705409586429,-0.0146771920844912,-0.1036925390362739,0.1354696899652481,-0.4576548635959625,0.0,0.0,-0.7968447208404541,0.3511290550231933
0.0332101806998252,0.0197875592857599,-0.0146978599950671,-0.1262328326702118,0.1129871979355812,-0.4496496617794037,0.0,0.0,-0.480994701385498,0.0030298233032226
0.0328403487801551,0.0164056867361068,-0.0147184384986758,-0.1487708836793899,0.0908938869833946,-0.4418661594390869,0.0,0.0,-0.0608044862747192,-0.3538340330123901
0.0324737541377544,0.0125246383249759,-0.0147388549521565,-0.1713068187236786,0.069178432226181,-0.4343089461326599,0.0,0.0,0.3734519481658935,-0.6613355278968811
0.0320343971252441,0.0091502405703067,-0.0237188301980495,-0.149159625172615,0.0491860546171665,-0.3998477756977081,0.0,0.0,0.282149076461792,-0.4658951163291931
0.0316357612609863,0.0056415535509586,-0.0202249269932508,-0.1554116159677505,0.0297766383737325,-0.3881881833076477,0.0,0.0,0.3382480144500732,-0.6581127047538757
