x_pos,y_pos,x_vel,y_vel,angle,ang_vel,leg_1,leg_2,main_booster,lat_booster
-0.0015266418922692,1.4032433032989502,-0.1546472012996673,-0.3411918580532074,0.0017775711603462,0.0350655391812324,0.0,0.0,0.5594956489267882,0.7550866417583714
-0.0029436112381517,1.3958581686019895,-0.1420461237430572,-0.3282261192798614,0.0021281156223267,0.007012166082859,0.0,0.0,-0.5037324307979181,-0.6214714745468997
-0.0044012069702148,1.3880866765975952,-0.1470879167318344,-0.3454037308692932,0.0034390711225569,0.0262216478586196,0.0,0.0,0.6063425649648533,0.6699590944049685
-0.005936527159065,1.380660057067871,-0.1532305777072906,-0.3300703465938568,0.0031328385230153,-0.0061250827275216,0.0,0.0,0.6964961299118193,0.8404026035330499
-0.0072636604309082,1.373860239982605,-0.1310103833675384,-0.302212655544281,0.0014469522284343,-0.0337208956480026,0.0,0.0,0.3129218651099941,0.7723265326437656
-0.0084098819643259,1.367325782775879,-0.1115560382604599,-0.2904165387153625,-0.001590356696397,-0.0607517436146736,0.0,0.0,-0.4728123378242765,-0.7236934662610008
-0.0096172336488962,1.360410451889038,-0.1191696897149086,-0.3073516190052032,-0.0031380299478769,-0.0309560485184192,0.0,0.0,0.2153159429028832,0.8464972886209954
-0.0106318471953272,1.3538295030593872,-0.0983178913593292,-0.2924970984458923,-0.0062509039416909,-0.0622634217143058,0.0,0.0,-0.7611774335071222,0.6745909362303583
-0.011596011929214,1.3468742370605469,-0.0919555127620697,-0.3091464936733246,-0.0106692062690854,-0.0883737727999687,0.0,0.0,-0.9347460790739428,0.8526321905343734
-0.012494659051299,1.3395425081253052,-0.0836909189820289,-0.3259099423885345,-0.0167709123343229,-0.1220455020666122,0.0,0.0,0.5995336800623032,0.6364748197419696
-0.0132441520690917,1.3326902389526367,-0.0677226483821868,-0.3046392798423767,-0.0239148344844579,-0.1428916007280349,0.0,0.0,0.3495740656570063,0.6597088763691633
-0.0138687137514352,1.326099157333374,-0.0540236756205558,-0.2930964827537536,-0.0322434864938259,-0.1665884405374527,0.0,0.0,-0.7312095398861949,-0.9708777666920616
-0.0145539287477731,1.3191354274749756,-0.0616369545459747,-0.3096627593040466,-0.0390589721500873,-0.1363222002983093,0.0,0.0,-0.5064331396022166,0.7427101517284447
-0.015175056643784,1.311780571937561,-0.0535610429942607,-0.3271260261535644,-0.0475159063935279,-0.1691539585590362,0.0,0.0,-0.2581550631117406,-0.6624086111378049
-0.0158364288508892,1.304055094718933,-0.0586263947188854,-0.3436102867126465,-0.0549611039459705,-0.1489176452159881,0.0,0.0,-0.61708170091979,0.959128988280212
-0.0164095871150493,1.2959308624267578,-0.0475228987634182,-0.3614674210548401,-0.0646579414606094,-0.1939542591571808,0.0,0.0,0.4005205756746226,-0.6648132748867683
-0.0168596263974905,1.2885119915008545,-0.0368059501051902,-0.3300908505916595,-0.0727824494242668,-0.1625050157308578,0.0,0.0,-0.4340966859338477,0.6375325548203342
-0.0172480586916208,1.280700922012329,-0.0290779173374176,-0.347665935754776,-0.0824748948216438,-0.1938663721084594,0.0,0.0,-0.1288067464054292,-0.8425245199907072
-0.0176918990910053,1.272524356842041,-0.0360272750258445,-0.3638751804828644,-0.0907568335533142,-0.1656535565853119,0.0,0.0,0.083009973358207,0.992119571235628
-0.0180870052427053,1.2645196914672852,-0.0292067825794219,-0.3564227819442749,-0.1009963452816009,-0.2048092633485794,0.0,0.0,-0.7768966548634546,-0.7180839594104365
-0.0185261722654104,1.2561466693878174,-0.0347437188029289,-0.3727694451808929,-0.1101045906543731,-0.1821809262037277,0.0,0.0,-0.1717624480967849,-0.6439754240308933
-0.019014835357666,1.2473982572555542,-0.0409750416874885,-0.3894199728965759,-0.1179563254117965,-0.1570490300655365,0.0,0.0,0.7207260064607837,0.718847003409431
-0.0192337036132812,1.239077091217041,-0.0128757981583476,-0.370560348033905,-0.1269232332706451,-0.1793538630008697,0.0,0.0,0.4338451496342626,-0.8766481227926304
-0.0194191932678222,1.230769157409668,-0.0113829374313354,-0.3698696792125702,-0.1340661644935608,-0.1428715288639068,0.0,0.0,0.4554673376009657,-0.6399208880554714
-0.0197141654789447,1.2229626178741455,-0.0233398284763097,-0.3475174009799957,-0.1402106583118438,-0.1229004710912704,0.0,0.0,0.9822554958674484,-0.6266077499653091
-0.0201262477785348,1.21606183052063,-0.0358026400208473,-0.3072254359722137,-0.1456087678670883,-0.1079623326659202,0.0,0.0,-0.9575829214375122,-0.6984316438092127
-0.0205918308347463,1.2087963819503784,-0.0425310209393501,-0.3233091533184051,-0.1496199816465377,-0.0802241712808609,0.0,0.0,0.2850037969624281,0.6914376846516719
-0.0210185050964355,1.2021223306655884,-0.0370946750044822,-0.2971912324428558,-0.1551839858293533,-0.1112799867987632,0.0,0.0,0.1049611001088359,0.8060076523855798
-0.0214005466550588,1.195850849151611,-0.0309751816093921,-0.2795081734657287,-0.1624153554439544,-0.1446273028850555,0.0,0.0,0.1527300464313259,-0.7077389454975909
-0.0217987056821584,1.189717173576355,-0.0339839495718479,-0.2732534408569336,-0.1682537943124771,-0.1167688816785812,0.0,0.0,-0.9398620568741364,0.8896921850417518
-0.0221233367919921,1.183194637298584,-0.024808632209897,-0.2907732725143432,-0.1759286522865295,-0.1534970104694366,0.0,0.0,-0.6391262999877394,0.69058258705394
-0.0224008560180664,1.1762757301330566,-0.0188865792006254,-0.3085910081863403,-0.1848166137933731,-0.1777591854333877,0.0,0.0,-0.0131502951876778,0.8188685624953349
-0.0226213447749614,1.168968915939331,-0.0118003534153103,-0.3260608911514282,-0.1951226592063903,-0.2061212956905365,0.0,0.0,0.7778672965948463,0.9123156490691812
-0.0227706916630268,1.16184663772583,-0.0027472304645925,-0.3181893229484558,-0.2073958665132522,-0.2454642504453659,0.0,0.0,-0.988609511014005,-0.8082851347649227
-0.0229791644960641,1.154366135597229,-0.0102650793269276,-0.333995908498764,-0.2180926352739334,-0.2139351069927215,0.0,0.0,0.3841486436331616,-0.8089105871037194
-0.0230941772460937,1.1474546194076538,-0.0025473157875239,-0.3085245192050934,-0.2271416634321212,-0.1809804737567901,0.0,0.0,-0.445851251904541,-0.7456369759304365
-0.0232683178037405,1.1401798725128174,-0.0100221764296293,-0.3244759738445282,-0.2346326559782028,-0.1498202681541443,0.0,0.0,-0.93184901183639,0.983111705427588
-0.0233596805483102,1.1325037479400637,0.0003090378013439,-0.3427022695541382,-0.2442332208156585,-0.1920112371444702,0.0,0.0,0.6234111799634132,-0.6219451516291332
-0.0233367923647165,1.1256922483444214,0.0105982981622219,-0.3041381239891052,-0.2526766657829284,-0.1688689887523651,0.0,0.0,-0.3480184189544317,-0.8286143000581525
-0.0233725551515817,1.1185246706008911,0.0031397971324622,-0.3197309076786041,-0.2595310509204864,-0.1370874643325805,0.0,0.0,-0.955677420567876,0.8744608958971987
-0.02335100248456,1.1109619140625,0.0102938935160636,-0.3375804722309112,-0.2678429186344147,-0.1662375777959823,0.0,0.0,0.0490583181381225,-0.9973099827766418
-0.023225212469697,1.1034913063049316,0.0187808703631162,-0.3331807255744934,-0.2741973996162414,-0.1270893365144729,0.0,0.0,-0.7703028917312622,-0.9975765943527222
-0.0231637954711914,1.0956560373306274,0.0107033234089612,-0.3490957021713257,-0.2788756489753723,-0.0935647711157798,0.0,0.0,0.830270528793335,-0.9825884103775024
-0.0228967666625976,1.088263750076294,0.0291514303535223,-0.329018622636795,-0.2813922464847564,-0.0503318384289741,0.0,0.0,-0.1597543954849243,-0.9990594983100892
-0.0227116588503122,1.0805139541625977,0.0188741721212863,-0.3445037305355072,-0.281766265630722,-0.0074801547452807,0.0,0.0,-0.4083051681518554,-0.993249535560608
-0.0225968360900878,1.0724035501480105,0.0100489286705851,-0.3601866364479065,-0.2802985906600952,0.0293528251349926,0.0,0.0,-0.7370092868804932,-0.9930080771446228
-0.0225496292114257,1.0639362335205078,0.0015427534235641,-0.3757238686084747,-0.2770363092422485,0.0652462467551231,0.0,0.0,-0.8213976621627808,-0.9959535598754884
-0.0225889198482036,1.0551364421844482,-0.0094478167593479,-0.3900663554668426,-0.2713781297206878,0.1131635308265686,0.0,0.0,-0.908675253391266,-0.9974674582481384
-0.0227179527282714,1.046003341674805,-0.0208379905670881,-0.4044708013534546,-0.2632564604282379,0.1624333560466766,0.0,0.0,-0.8942033052444458,-0.9672094583511353
-0.0229227058589458,1.0365183353424072,-0.0303931981325149,-0.41981041431427,-0.2531222403049469,0.2026841640472412,0.0,0.0,-0.867396354675293,-0.3410996198654175
-0.0231263153254985,1.026653528213501,-0.0303049236536026,-0.4367586076259613,-0.2429997771978378,0.202449232339859,0.0,0.0,-0.8964967727661133,-0.9844104051589966
-0.0234105102717876,1.0164461135864258,-0.0405174233019351,-0.4517049491405487,-0.2307062745094299,0.2458700388669967,0.0,0.0,-0.9091134667396544,-0.0555696487426757
-0.0236936565488576,1.0058597326278689,-0.0404456183314323,-0.4686571359634399,-0.2184250354766845,0.2456247061491012,0.0,0.0,-0.9864335060119628,0.1386295557022094
-0.0239759441465139,0.9948939681053162,-0.040382370352745,-0.4856093227863312,-0.2061562687158584,0.2453753054141998,0.0,0.0,-0.8767232894897461,0.6880929470062256
-0.0241915695369243,0.9835256934165956,-0.0320185497403144,-0.5038377046585083,-0.1956278681755066,0.2105679810047149,0.0,0.0,-0.99430912733078,0.5782381296157837
-0.0243693348020315,0.9717639088630676,-0.0272670723497867,-0.5215250849723816,-0.1860911399126052,0.1907344758510589,0.0,0.0,-0.9553331136703492,0.3371126651763916
-0.0245468132197856,0.9596221446990968,-0.0272327158600091,-0.5384723544120789,-0.1765673607587814,0.1904755532741546,0.0,0.0,-0.9551224708557128,0.6567590236663818
-0.0246608741581439,0.9470861554145812,-0.0192859657108783,-0.5562417507171631,-0.1686734855175018,0.1578779071569442,0.0,0.0,-0.9799059629440308,-0.1725199222564697
-0.0247748382389545,0.9341699481010436,-0.0192751325666904,-0.5731866955757141,-0.160792738199234,0.157614603638649,0.0,0.0,-0.931190013885498,-0.3915219306945801
-0.0248888973146677,0.9208731651306152,-0.0192774981260299,-0.5901315808296204,-0.1529252976179123,0.1573491990566253,0.0,0.0,-0.938136875629425,-0.1080526709556579
-0.025003146380186,0.9071963429450988,-0.0192937720566988,-0.6070765256881714,-0.1450712084770202,0.157082051038742,0.0,0.0,-0.9138174653053284,0.6315779685974121
-0.0250762943178415,0.8931331038475037,-0.0141201522201299,-0.6243809461593628,-0.13828144967556,0.1357949078083038,0.0,0.0,-0.9361053705215454,0.3316988945007324
-0.0251498222351074,0.8786894083023071,-0.0141660394147038,-0.6413244605064392,-0.1315051913261413,0.1355256140232086,0.0,0.0,-0.9472927451133728,0.4309480190277099
-0.0252242088317871,0.8638651371002197,-0.0142278913408517,-0.6582680940628052,-0.1247423961758613,0.135255679488182,0.0,0.0,-0.9633240699768066,0.5423243045806885
-0.0252566337585449,0.8486482501029968,-0.008926136419177,-0.675841212272644,-0.1190918609499931,0.1130107641220092,0.0,0.0,-0.9061596393585204,-0.2369799613952636
-0.0252901073545217,0.8330507874488831,-0.0090215941891074,-0.6927835941314697,-0.1134548336267471,0.1127408370375633,0.0,0.0,-0.9135425686836244,0.7351406812667847
-0.0252643581479787,0.8170706629753113,-0.0015583578497171,-0.7099180221557617,-0.1093469634652137,0.0821576863527298,0.0,0.0,-0.925869345664978,0.6238692998886108
-0.0251848213374614,0.8006930351257324,0.0052541019394993,-0.7277005314826965,-0.106669582426548,0.0535475313663482,0.0,0.0,-0.9361597895622252,-0.2891075015068054
-0.0251069068908691,0.783934473991394,0.0051038609817624,-0.7446408867835999,-0.1040055751800537,0.0532802455127239,0.0,0.0,-0.8233560919761658,-0.4364157915115356
-0.0250308997929096,0.7667948007583618,0.0049341986887156,-0.7615812420845032,-0.1013548374176025,0.0530144982039928,0.0,0.0,-0.840925931930542,0.0426868200302124
-0.0249568931758403,0.7492740154266357,0.0047446540556848,-0.7785215973854065,-0.0987173169851303,0.0527506656944751,0.0,0.0,-0.6620914340019226,0.1117547750473022
-0.0248849876224994,0.7313722968101501,0.004534806124866,-0.7954619526863098,-0.0960928797721862,0.0524891018867492,0.0,0.0,-0.4072948694229126,0.3246536254882812
-0.0248156543821096,0.7130895256996155,0.0043042693287134,-0.8124021887779236,-0.0934813693165779,0.0522301867604255,0.0,0.0,-0.4879409074783325,0.4045977592468261
-0.0247488971799612,0.694425642490387,0.004052703268826,-0.8293424844741821,-0.090882658958435,0.0519742853939533,0.0,0.0,-0.6301901936531067,0.2331013679504394
-0.0246850010007619,0.6753808259963989,0.0037798080593347,-0.8462827205657959,-0.0882965698838234,0.0517217628657817,0.0,0.0,-0.0662838220596313,0.1765507459640503
-0.0246242526918649,0.655954897403717,0.0034853275865316,-0.8632229566574097,-0.0857229232788086,0.0514729991555213,0.0,0.0,-0.2020788192749023,-0.0164840817451477
-0.0245667453855276,0.6361479163169861,0.0031690516043454,-0.8801631927490234,-0.0831614881753921,0.0512283667922019,0.0,0.0,0.4662704467773437,-0.1801353096961975
-0.0244616512209177,0.6170130968093872,0.0079752309247851,-0.8502958416938782,-0.0806464701890945,0.0503003410995006,0.0,0.0,-0.1961849331855774,0.0623598098754882
-0.0243602748960256,0.5974973440170288,0.0076149231754243,-0.8672360777854919,-0.07814322412014,0.0500649698078632,0.0,0.0,0.448219895362854,-0.3455618619918823
-0.0243048667907714,0.5786833167076111,0.0034805331379175,-0.8360706567764282,-0.0761065259575843,0.0407338961958885,0.0,0.0,0.3989243507385254,-0.2329282760620117
-0.0243415832519531,0.5599202513694763,-0.0052028140053153,-0.833838164806366,-0.074587844312191,0.0303736217319965,0.0,0.0,0.56025230884552,-0.2731201648712158
-0.0242890361696481,0.5418884754180908,0.0035571835469454,-0.8013279438018799,-0.0729038715362548,0.0336794294416904,0.0,0.0,-0.132817268371582,-0.6135882139205933
-0.0242975242435932,0.5234817862510681,-0.0039908229373395,-0.8179245591163635,-0.0698031261563301,0.0620150454342365,0.0,0.0,0.2902741432189941,0.347065806388855
-0.0243166927248239,0.5054907202720642,-0.004838460125029,-0.7994707822799683,-0.0669106990098953,0.0578483752906322,0.0,0.0,0.5388404130935669,-0.0655068755149841
-0.0243082996457815,0.4880944490432739,-0.0020336559973657,-0.7730400562286377,-0.0640797913074493,0.0566182546317577,0.0,0.0,-0.050611674785614,0.2597885131835937
-0.024305248633027,0.4703172743320465,-0.0025478249881416,-0.7899804711341858,-0.0612584352493286,0.0564271435141563,0.0,0.0,0.8314836025238037,-0.1737998723983764
-0.0242581367492675,0.4527247846126556,0.0017407408449798,-0.7817729115486145,-0.0583247244358062,0.058674406260252,0.0,0.0,0.8554840087890625,-0.4953820705413818
-0.0240863803774118,0.4354192316532135,0.0137350503355264,-0.7690036296844482,-0.0549178645014762,0.068137377500534,0.0,0.0,0.8614883422851562,-0.6600537896156311
-0.0237589832395315,0.4186859130859375,0.0275222212076187,-0.7435199022293091,-0.0497599653899669,0.1031580343842506,0.0,0.0,0.8240669965744019,-0.0596472024917602
-0.0232622139155864,0.4022127687931061,0.0437433421611785,-0.7319552898406982,-0.0438980385661125,0.1172383204102516,0.0,0.0,0.5994212627410889,-0.1156754493713378
-0.0227452274411916,0.3864491879940033,0.0457970798015594,-0.7004429697990417,-0.0380689613521099,0.1165815144777298,0.0,0.0,0.7315579652786255,0.1249446868896484
-0.0221719741821289,0.3714947700500488,0.051276933401823,-0.6645011901855469,-0.0320968367159366,0.1194424629211425,0.0,0.0,0.4319862127304077,-0.022667646408081
-0.0214789398014545,0.3570212721824646,0.0627612769603729,-0.6431385278701782,-0.025631844997406,0.1292998045682907,0.0,0.0,0.1856759786605835,-0.0732623934745788
-0.0207142829895019,0.3425158262252807,0.069583922624588,-0.6445865035057068,-0.0188379734754562,0.135877639055252,0.0,0.0,0.4938044548034668,-0.3263201117515564
-0.0199954025447368,0.328321635723114,0.0652319267392158,-0.6307828426361084,-0.0122691979631781,0.1313753277063369,0.0,0.0,0.5203201770782471,0.1120675802230835
-0.0191961284726858,0.3149363398551941,0.0729207769036293,-0.5948610305786133,-0.0053449547849595,0.13848477602005,0.0,0.0,0.1164960861206054,-0.1018322706222534
-0.018417740240693,0.301747590303421,0.0708978697657585,-0.5861586332321167,0.0015022013103589,0.1369429975748062,0.0,0.0,0.436327576637268,0.4082834720611572
-0.0177561752498149,0.2892153859138489,0.0597403347492218,-0.5570060610771179,0.0078453598544001,0.1268631815910339,0.0,0.0,0.5002081394195557,0.3008923530578613
-0.0170280449092388,0.2772540152072906,0.0660179257392883,-0.5316659808158875,0.0145511617884039,0.1341159641742706,0.0,0.0,-0.0472387671470642,0.6096174716949463
-0.0162638667970895,0.2649174332618713,0.0707525238394737,-0.5483595728874207,0.0201498586684465,0.1119740381836891,0.0,0.0,0.3371884822845459,0.6379218101501465
-0.0155431749299168,0.2531127035617828,0.0678188651800155,-0.5247153639793396,0.0243424717336893,0.0838520228862762,0.0,0.0,0.356370210647583,0.1943053007125854
-0.0148609159514307,0.2415394335985183,0.0640740543603897,-0.5144410729408264,0.0284397210925817,0.0819451957941055,0.0,0.0,0.4402041435241699,-0.272731065750122
-0.0143033983185887,0.2303670048713684,0.0520765781402587,-0.496629536151886,0.0320664085447788,0.0725335702300071,0.0,0.0,0.0878516435623169,0.4941993951797485
-0.0138643262907862,0.2193257361650467,0.040700577199459,-0.4907928705215454,0.035235334187746,0.063378557562828,0.0,0.0,0.3973791599273681,0.6315014362335205
-0.0133068086579442,0.2088262140750885,0.0536110587418079,-0.4666983783245086,0.0373422987759113,0.0421394407749176,0.0,0.0,0.5416171550750732,-0.4763218760490417
-0.0127135273069143,0.198464885354042,0.0569220259785652,-0.4605656862258911,0.0397161394357681,0.0474769361317157,0.0,0.0,0.8254045248031616,-0.4603099822998047
-0.012002277188003,0.1889954656362533,0.0679727345705032,-0.4209500849246979,0.0428341887891292,0.0623608455061912,0.0,0.0,0.6538668870925903,-0.9750670790672302
-0.0114361764863133,0.1803109049797058,0.0515248365700244,-0.3861379027366638,0.0478622503578662,0.1005614250898361,0.0,0.0,0.0019466876983642,-0.3477506637573242
-0.0108171459287405,0.1720280945301056,0.0563955381512641,-0.3683082163333893,0.0532950907945632,0.1086570173501968,0.0,0.0,0.0736341476440429,-0.4906405806541443
-0.0101777072995901,0.1639327555894851,0.0582091212272644,-0.3600075840950012,0.0589626282453537,0.1133508905768394,0.0,0.0,0.4147645235061645,-0.0029197931289672
-0.0095947263762354,0.1565031111240387,0.052594356238842,-0.330442726612091,0.0646078214049339,0.1129039078950882,0.0,0.0,0.0679583549499511,0.3648632764816284
-0.0090145114809274,0.1494585573673248,0.0521206855773925,-0.3133552968502044,0.0704414770007133,0.11667300760746,0.0,0.0,0.0535835027694702,-0.2428010702133178
-0.0084128379821777,0.1424763053655624,0.0540223941206932,-0.3106243908405304,0.0765207633376121,0.1215859428048133,0.0,0.0,-0.1664053797721862,0.34907066822052
-0.0078205112367868,0.135113388299942,0.0530876591801643,-0.3275671601295471,0.0826089009642601,0.1217629685997963,0.0,0.0,0.0627119541168212,-0.5301569700241089
-0.0073977471329271,0.1278470307588577,0.0352141186594963,-0.3233569264411926,0.0896064937114715,0.1399516761302948,0.0,0.0,-0.223764955997467,-0.0077656507492065
-0.0069844247773289,0.1202001646161079,0.0342650786042213,-0.3403006494045257,0.096614696085453,0.1401642262935638,0.0,0.0,0.2390749454498291,0.6702032089233398
-0.0065445899963378,0.112779676914215,0.0382170230150222,-0.3301858007907867,0.1023312658071518,0.1143312081694603,0.0,0.0,0.1410807371139526,0.4870932102203369
-0.0060500144027173,0.1053628325462341,0.0432712063193321,-0.3300717771053314,0.1084774732589721,0.1229241490364074,0.0,0.0,0.2787413597106933,-0.7232321500778198
-0.0055952072143554,0.0983624756336212,0.0377169847488403,-0.3117125928401947,0.1161937564611435,0.1543256789445877,0.0,0.0,0.2238866090774536,0.3082690238952636
-0.0052007674239575,0.0918752551078796,0.0315766409039497,-0.2889523506164551,0.1240100786089897,0.156326413154602,0.0,0.0,0.1887568235397339,0.2656840085983276
-0.004798412322998,0.085350401699543,0.0321567617356777,-0.2906872630119324,0.1320533901453018,0.1608658730983734,0.0,0.0,0.5277742147445679,0.4886332750320434
