x_pos,y_pos,x_vel,y_vel,angle,ang_vel,leg_1,leg_2,main_booster,lat_booster
-0.0015170096885412,1.4032361507415771,-0.153676301240921,-0.341511458158493,0.0017671816749498,0.0348596349358558,0.0,0.0,-0.4787548990343058,0.7884370493204005
-0.002960205078125,1.3951833248138428,-0.1443438529968261,-0.3579053282737732,0.0017956554656848,0.0005700027686543,0.0,0.0,-0.1370586922523942,-0.7264385168002037
-0.0044409753754734,1.3867361545562744,-0.1492315530776977,-0.3754312396049499,0.0029417735058814,0.0229244288057088,0.0,0.0,-0.6296069985575099,-0.9292689411425452
-0.0060022352263331,1.3778972625732422,-0.1595095545053482,-0.3928521871566772,0.0062858085148036,0.0668868124485015,0.0,0.0,-0.0095749560437632,0.4149793048513973
-0.0075566293671727,1.3686702251434326,-0.1588129550218582,-0.410113662481308,0.0096263382583856,0.0668166950345039,0.0,0.0,-0.1608814893550008,-0.7078690309258984
-0.0091470722109079,1.359053134918213,-0.1635067164897918,-0.4274553060531616,0.0140468040481209,0.0884172022342681,0.0,0.0,0.3373599461092789,0.2366637184696831
-0.0107552530243992,1.349748969078064,-0.1651956886053085,-0.4135729968547821,0.018375888466835,0.0865896716713905,0.0,0.0,-0.8618027762380533,-0.6313751210066504
-0.0123937604948878,1.340057134628296,-0.1691762059926986,-0.4308170080184936,0.0236420296132564,0.1053326278924942,0.0,0.0,0.4265243560586726,-0.6596216782388463
-0.0141057018190622,1.331066012382507,-0.177816241979599,-0.3997226357460022,0.0301857814192771,0.1308872997760772,0.0,0.0,0.97260035978334,0.7579676935848098
-0.0157781597226858,1.3229947090148926,-0.1723377555608749,-0.3588440716266632,0.0352193415164947,0.1006803512573242,0.0,0.0,0.7932550175335709,-0.7855506685154512
-0.0174257270991802,1.315505027770996,-0.1716318279504776,-0.3330467641353607,0.0420271717011928,0.1361691355705261,0.0,0.0,-0.401968529206308,0.675969897860476
-0.0190065391361713,1.3076298236846924,-0.1634432822465896,-0.3501670658588409,0.0473310425877571,0.1060868129134178,0.0,0.0,0.4686666727546891,0.8616644473240073
-0.0204113963991403,1.300316572189331,-0.1442954093217849,-0.3251489698886871,0.0510987639427185,0.0753614455461502,0.0,0.0,0.9707737957495528,0.6587483686685337
-0.0216901786625385,1.2932544946670532,-0.1306082904338836,-0.3139707148075104,0.0537942163646221,0.0539141409099102,0.0,0.0,-0.2150553589794466,-0.9765827730220316
-0.0230210311710834,1.2858093976974487,-0.1372925192117691,-0.3310510218143463,0.0579673647880554,0.0834706053137779,0.0,0.0,0.0941687456192692,0.2743714103648174
-0.0242834091186523,1.2782772779464722,-0.1307864785194397,-0.3349418938159942,0.0624754168093204,0.09016914665699,0.0,0.0,0.910144420505992,-0.644868270890887
-0.0254806522279977,1.2718565464019775,-0.1260154545307159,-0.2856401801109314,0.0687119960784912,0.1247428208589553,0.0,0.0,-0.0947855664050663,-0.7931687329761336
-0.0267178528010845,1.2650362253189087,-0.1312296092510223,-0.3034895658493042,0.0761467665433883,0.1487089097499847,0.0,0.0,0.2902477069001017,-0.0077857861096694
-0.0279198642820119,1.2587745189666748,-0.1280528903007507,-0.2787108421325683,0.0839297920465469,0.155674859881401,0.0,0.0,-0.5714431104183051,0.7221002656784157
-0.0290654189884662,1.2521309852600098,-0.1211332529783248,-0.2956543564796448,0.0904615595936775,0.1306470036506652,0.0,0.0,-0.5398290833262496,-0.083131220637041
-0.0302035324275493,1.2450995445251465,-0.1203900575637817,-0.3129166066646576,0.096987172961235,0.130524069070816,0.0,0.0,0.946755263290252,-0.6012437901244928
-0.0314172729849815,1.238450527191162,-0.129182294011116,-0.2960308790206909,0.1047453060746193,0.1551767587661743,0.0,0.0,0.4910918061885434,-0.1777194011510099
-0.0325585380196571,1.2321653366088867,-0.1224739700555801,-0.2799461185932159,0.1130405366420745,0.165919691324234,0.0,0.0,-0.1030716721544851,0.2412174599626327
-0.0336926467716693,1.2254925966262815,-0.1217346414923667,-0.2972173988819122,0.1213282644748687,0.1657694280147552,0.0,0.0,0.4419879632272396,0.1277480484406111
-0.035010527819395,1.2192461490631104,-0.1395228803157806,-0.278263658285141,0.1290342211723327,0.15413299202919,0.0,0.0,-0.2495426814734638,-0.0852728335288423
-0.0363191589713096,1.2125908136367798,-0.1385980546474456,-0.2964807152748108,0.1367339342832565,0.1539941430091858,0.0,0.0,-0.4815819893844524,0.7371955569226276
-0.0375626571476459,1.205564260482788,-0.1305810213088989,-0.3128726780414581,0.1429427862167358,0.1241766437888145,0.0,0.0,0.50640751746923,0.6729101043129779
-0.0389832481741905,1.1992573738098145,-0.146668329834938,-0.2807541787624359,0.1475374102592468,0.0918928086757659,0.0,0.0,-0.8622671347597022,0.1898860345629324
-0.0403964035212993,1.192562460899353,-0.1459124088287353,-0.298015147447586,0.1521261632442474,0.0917748436331749,0.0,0.0,-0.444972355616952,-0.2529385129248089
-0.0418021194636821,1.1854792833328247,-0.1451585292816162,-0.3152760565280914,0.1567090898752212,0.0916588380932807,0.0,0.0,-0.6932701517864803,-0.5859975060027716
-0.0432454124093055,1.178004503250122,-0.150044709444046,-0.332833468914032,0.162418931722641,0.1141969412565231,0.0,0.0,-0.9488764405250548,0.978356122970581
-0.0446143150329589,1.1701520681381226,-0.1408845484256744,-0.3494336009025574,0.1664205938577652,0.0800331383943557,0.0,0.0,-0.9560176730155944,0.8600351810455322
-0.0459189414978027,1.16193425655365,-0.1329585909843444,-0.3655260503292084,0.1689255684614181,0.0500995032489299,0.0,0.0,-0.9582975506782532,0.9928241968154908
-0.0471458435058593,1.153336763381958,-0.1234247535467147,-0.3821927905082702,0.1696521937847137,0.0145324198529124,0.0,0.0,-0.9827678799629213,0.9478704929351808
-0.0482899658381938,1.1443722248077393,-0.1131787672638893,-0.3982771933078766,0.1684221029281616,-0.0246020630002021,0.0,0.0,-0.9760379195213318,0.9886360168457032
-0.0493483543395996,1.135047197341919,-0.1025540232658386,-0.4140813648700714,0.1651422381401062,-0.0655977055430412,0.0,0.0,-0.7666885852813721,0.903083086013794
-0.0503314957022666,1.125346302986145,-0.0933115258812904,-0.4306039810180664,0.1601304709911346,-0.1002351269125938,0.0,0.0,-0.930708646774292,0.920485019683838
-0.0512320511043071,1.1152830123901367,-0.0830645561218261,-0.4465211033821106,0.1531508862972259,-0.1395916640758514,0.0,0.0,-0.9191293120384216,0.720299482345581
-0.0520736686885356,1.1048521995544434,-0.0758154839277267,-0.4627527296543121,0.1448156237602234,-0.1667056232690811,0.0,0.0,-0.9761261343955994,0.2858012914657593
-0.0529082305729389,1.09403395652771,-0.0750984624028205,-0.4800176620483398,0.1364763081073761,-0.166786253452301,0.0,0.0,-0.9734534621238708,0.7551751136779785
-0.053687859326601,1.0828449726104736,-0.0683318004012107,-0.4964427053928375,0.1268885433673858,-0.1917551457881927,0.0,0.0,-0.9348201751708984,-0.4898558259010315
-0.0544605255126953,1.0712686777114868,-0.0676261782646179,-0.5137096047401428,0.1172972694039344,-0.1918255537748336,0.0,0.0,-0.938059389591217,0.2784427404403686
-0.0552264228463172,1.0593053102493286,-0.0669270306825637,-0.5309764742851257,0.107702724635601,-0.1918907463550567,0.0,0.0,-0.7906854748725891,0.2187882661819458
-0.0559854507446289,1.0469549894332886,-0.0662347450852394,-0.5482433438301086,0.0981052368879318,-0.1919494867324829,0.0,0.0,-0.6249868869781494,-0.0766361355781555
-0.0567378029227256,1.034217357635498,-0.0655497014522552,-0.565510094165802,0.0885050445795059,-0.1920034885406494,0.0,0.0,-0.9847735166549684,-0.9697628021240234
-0.0575533881783485,1.0210732221603394,-0.0736745446920394,-0.5837389826774597,0.0806905478239059,-0.1562898308038711,0.0,0.0,-0.9968330264091492,-0.5536594986915588
-0.0584013946354389,1.0075335502624512,-0.0779140144586563,-0.601402997970581,0.0738659277558326,-0.1364925950765609,0.0,0.0,-0.946995198726654,-0.2946964502334595
-0.0592430122196674,0.9936062693595886,-0.0772535353899002,-0.6186659932136536,0.0670394822955131,-0.1365290880203247,0.0,0.0,-0.3661618828773498,-0.8249509334564209
-0.0601577758789062,0.9792904257774352,-0.0866076573729515,-0.6360525488853455,0.0622139126062393,-0.0965113192796707,0.0,0.0,-0.9882658123970032,-0.2769923210144043
-0.0610662475228309,0.964586615562439,-0.0859654024243354,-0.6533136963844299,0.0573871694505214,-0.0965349078178405,0.0,0.0,-0.9628487229347228,-0.8109449744224548
-0.0620172508060932,0.9494900107383728,-0.0914559513330459,-0.670819103717804,0.0537891276180744,-0.0719609409570694,0.0,0.0,-0.9629982113838196,0.359462022781372
-0.0629620552062988,0.9340052604675292,-0.0908334329724311,-0.6880794167518616,0.0501905791461467,-0.0719708949327468,0.0,0.0,-0.9741114377975464,-0.996066689491272
-0.06396484375,0.9181219935417176,-0.0982876271009445,-0.7058566212654114,0.048215065151453,-0.0395102053880691,0.0,0.0,-0.1072914004325866,-0.1300102472305297
-0.0649617165327072,0.9018505215644836,-0.097686544060707,-0.7231160998344421,0.0462397746741771,-0.0395059064030647,0.0,0.0,-0.95029616355896,-0.7453306913375854
-0.0659969300031662,0.8851847648620605,-0.1026516780257225,-0.7406720519065857,0.0453815124928951,-0.0171653348952531,0.0,0.0,-0.76922607421875,0.1563585996627807
-0.0670263320207595,0.8681308031082153,-0.1020736917853355,-0.7579312920570374,0.044524185359478,-0.0171463452279567,0.0,0.0,-0.2149068117141723,-0.0699016451835632
-0.0680501013994216,0.8506883978843689,-0.1015078872442245,-0.775190532207489,0.0436681918799877,-0.0171199813485145,0.0,0.0,0.1829379796981811,0.8321738243103027
-0.0689098387956619,0.8335965275764465,-0.0835141316056251,-0.7595669627189636,0.0412352792918682,-0.048658225685358,0.0,0.0,-0.3178626298904419,-0.0328257083892822
-0.0697641372680664,0.8161165118217468,-0.0829738974571228,-0.7768266797065735,0.0388044379651546,-0.0486167594790458,0.0,0.0,0.7428170442581177,-0.3259329199790954
-0.0707255378365516,0.799485981464386,-0.0933120995759964,-0.7390645742416382,0.036004364490509,-0.0560011491179466,0.0,0.0,-0.758142352104187,-0.1705641746520996
-0.0716818794608116,0.7824670672416687,-0.0927990525960922,-0.7563244700431824,0.0332071483135223,-0.0559444613754749,0.0,0.0,0.054405927658081,0.1892576217651367
-0.0727119445800781,0.7657280564308167,-0.099881388247013,-0.7438919544219971,0.0301170796155929,-0.0618012174963951,0.0,0.0,-0.1910328269004821,-0.0572726130485534
-0.0737372413277626,0.7486008405685425,-0.0993970334529876,-0.7611520886421204,0.0270306281745433,-0.0617293119430542,0.0,0.0,0.4525138139724731,-0.0520297884941101
-0.0747515708208084,0.7318941950798035,-0.0984081849455833,-0.7424638271331787,0.0240439567714929,-0.0597334429621696,0.0,0.0,-0.1515694260597229,0.2750576734542846
-0.0757613182067871,0.7147994041442871,-0.0979538932442665,-0.7597237229347229,0.021061623468995,-0.059646476060152,0.0,0.0,-0.0208049416542053,0.9382803440093994
-0.0767076462507247,0.6973188519477844,-0.0901156738400459,-0.7768561244010925,0.0166014898568391,-0.0892025902867317,0.0,0.0,0.8253989219665527,0.6578035354614258
-0.0775877982378006,0.6808781027793884,-0.0822432041168212,-0.7306478023529053,0.0109007833525538,-0.1140142306685447,0.0,0.0,-0.1132676005363464,-0.1336606740951538
-0.0784638375043869,0.6640494465827942,-0.0818361416459083,-0.7479097843170166,0.0052055362612009,-0.1139047369360923,0.0,0.0,0.4965680837631225,-0.7088274955749512
-0.0793690681457519,0.6480006575584412,-0.0862363055348396,-0.7132700085639954,0.0009754255297593,-0.0846023336052894,0.0,0.0,0.4248710870742798,0.7230930328369141
-0.0803037658333778,0.6321730613708496,-0.087578073143959,-0.7034558653831482,-0.0048371548764407,-0.1162517219781875,0.0,0.0,-0.6768724918365479,0.212410569190979
-0.081234835088253,0.6159576773643494,-0.0872202664613723,-0.7207178473472595,-0.0106431823223829,-0.1161207407712936,0.0,0.0,0.3351852893829345,0.4690397977828979
-0.0821320563554763,0.6001083254814148,-0.0839727148413658,-0.7044681310653687,-0.0163273531943559,-0.1136834621429443,0.0,0.0,-0.0823436975479126,-0.4732328653335571
-0.0830260291695594,0.5838710069656372,-0.0836484283208847,-0.7217299938201904,-0.0220042970031499,-0.1135388389229774,0.0,0.0,0.440972089767456,-0.2082054018974304
-0.0838417038321495,0.5679989457130432,-0.0761242285370826,-0.7055119872093201,-0.0273772608488798,-0.1074591875076294,0.0,0.0,0.00275719165802,0.2195603847503662
-0.0846683531999588,0.5520957708358765,-0.0771329253911972,-0.7069193124771118,-0.0328370109200477,-0.1091949567198753,0.0,0.0,0.2534801959991455,0.0520581007003784
-0.0854324325919151,0.5361717939376831,-0.0711337700486183,-0.7078555822372437,-0.0380499102175235,-0.1042580604553222,0.0,0.0,0.5784263610839844,0.829653263092041
-0.0861496925354003,0.5203360319137573,-0.0647381395101547,-0.7040061950683594,-0.0449589751660823,-0.1381812244653701,0.0,0.0,0.3516328334808349,0.2740108966827392
-0.086842156946659,0.5050854086875916,-0.0622312650084495,-0.6780321598052979,-0.0518909059464931,-0.1386384665966034,0.0,0.0,0.5214030742645264,-0.4943025112152099
-0.087419606745243,0.4905667304992676,-0.0510930940508842,-0.6455243229866028,-0.0584728308022022,-0.1316385120153427,0.0,0.0,-0.4385722875595093,-0.8954697847366333
-0.0880784019827842,0.4756763279438019,-0.0613815486431121,-0.6619769930839539,-0.0629291608929634,-0.0891266018152237,0.0,0.0,0.85296630859375,0.56101393699646
-0.0888221710920333,0.46095871925354,-0.0683161839842796,-0.6543812155723572,-0.0689253062009811,-0.1199225783348083,0.0,0.0,0.3039861917495727,0.6094892024993896
-0.0894377678632736,0.4467838704586029,-0.0543474033474922,-0.6303423047065735,-0.0760577842593193,-0.1426495611667633,0.0,0.0,0.2010891437530517,0.6475335359573364
-0.0900507941842079,0.4328507483005523,-0.0526764690876007,-0.6197112798690796,-0.0845935493707656,-0.1707157492637634,0.0,0.0,-0.0335332155227661,-0.9543499946594238
-0.0907439216971397,0.4185445010662079,-0.0628128796815872,-0.636216402053833,-0.0910433828830719,-0.1289965212345123,0.0,0.0,0.6013810634613037,-0.841113805770874
-0.0914529785513877,0.4048779010772705,-0.066077284514904,-0.6077072620391846,-0.0958254039287567,-0.0956406369805336,0.0,0.0,0.8126881122589111,0.0370073318481445
-0.0920042991638183,0.3917626142501831,-0.0507767125964164,-0.5831891894340515,-0.1001541540026664,-0.0865748077630996,0.0,0.0,-0.1013797521591186,-0.8954284191131592
-0.0926229506731033,0.3782604932785034,-0.0592345967888832,-0.6002709269523621,-0.1027601212263107,-0.0521191880106925,0.0,0.0,0.9098179340362548,-0.6635117530822754
-0.0931306853890419,0.3650501668453216,-0.0497831851243972,-0.587197482585907,-0.1037414819002151,-0.0196271855384111,0.0,0.0,0.4678751230239868,-0.7250410914421082
-0.0934981331229209,0.3521945774555206,-0.0374758057296276,-0.571307897567749,-0.1030144169926643,0.0145413056015968,0.0,0.0,0.7014278173446655,0.0115950107574462
-0.0936801880598068,0.3395344913005829,-0.0196280125528574,-0.5625714659690857,-0.1016118451952934,0.0280513763427734,0.0,0.0,0.8294262886047363,0.0814329385757446
-0.0937836617231369,0.3277285397052765,-0.0117358630523085,-0.5246177315711975,-0.1002267152070999,0.027702247723937,0.0,0.0,0.0739636421203613,0.7277815341949463
-0.0937566757202148,0.3162634372711181,0.0027382345870137,-0.5095597505569458,-0.1002605557441711,-0.000676930649206,0.0,0.0,0.651422381401062,-0.398423433303833
-0.0935386642813682,0.3053865432739258,0.0212425608187913,-0.4833819568157196,-0.0997068062424659,0.01107485499233,0.0,0.0,0.3148313760757446,-0.7586216330528259
-0.0932649597525596,0.2944965362548828,0.0251599792391061,-0.483852356672287,-0.0975135937333107,0.0438641533255577,0.0,0.0,-0.0750339031219482,-0.1790871620178222
-0.0929911583662033,0.2832183241844177,0.0251604914665222,-0.5011119246482849,-0.0953084006905555,0.0441036634147167,0.0,0.0,0.6682525873184204,-0.2002591490745544
-0.0925493240356445,0.2728404700756073,0.0415533557534217,-0.4610721170902252,-0.0926958844065666,0.052250362932682,0.0,0.0,-0.1972516179084777,-0.5030596852302551
-0.0921486839652061,0.2620799541473388,0.0363667197525501,-0.478019505739212,-0.0890299379825592,0.0733188539743423,0.0,0.0,-0.1479472517967224,0.1563888788223266
-0.0917482376098632,0.2509312629699707,0.0363385044038295,-0.4952797889709472,-0.0853518843650817,0.0735608786344528,0.0,0.0,0.3600977659225464,0.4988285303115845
-0.0912275314331054,0.2402438968420028,0.0480061471462249,-0.4747681617736816,-0.0813302993774414,0.0804316997528076,0.0,0.0,0.2735511064529419,0.3730497360229492
-0.0907012969255447,0.2300380617380142,0.0487416423857212,-0.4533867239952087,-0.0774875432252883,0.0768550932407379,0.0,0.0,-0.050805389881134,-0.1515729427337646
-0.0901754349470138,0.2194440513849258,0.0486898720264434,-0.4706471562385559,-0.0736327096819877,0.0770966783165931,0.0,0.0,0.5903003215789795,-0.1965973973274231
-0.0896386131644249,0.2091816216707229,0.0498833693563938,-0.4559266269207001,-0.0698766186833381,0.0751218125224113,0.0,0.0,0.4573316574096679,0.2712799310684204
-0.0891679748892784,0.1993355602025985,0.043739765882492,-0.4374507963657379,-0.0665846094489097,0.0658402293920517,0.0,0.0,0.2866168022155761,0.300363540649414
-0.0887876525521278,0.1897234469652176,0.0352400355041027,-0.4270839095115661,-0.063822790980339,0.0552363581955432,0.0,0.0,-0.0472064018249511,0.2815320491790771
-0.0884079933166503,0.1797230988740921,0.0351650267839431,-0.4443437159061432,-0.0610491596162319,0.0554725602269172,0.0,0.0,0.7242988348007202,0.6001720428466797
-0.0878895744681358,0.169895201921463,0.050061147660017,-0.4367265403270721,-0.0592851899564266,0.0352791845798492,0.0,0.0,0.3853688240051269,0.1474870443344116
-0.0872124657034874,0.1606260687112808,0.065343476831913,-0.4118699729442596,-0.0569470785558223,0.0467623248696327,0.0,0.0,-0.1946080327033996,-0.6388052105903625
-0.0865882858633995,0.1509784758090973,0.0587039105594158,-0.428644061088562,-0.0532768480479717,0.0734047591686248,0.0,0.0,0.6146218776702881,-0.6758947372436523
-0.0858216285705566,0.1421936303377151,0.0712512582540512,-0.3902519941329956,-0.0479225665330886,0.1070855036377906,0.0,0.0,-0.0227157473564147,-0.3354186415672302
-0.0850556343793869,0.1330209076404571,0.0711600109934806,-0.4075135886669159,-0.0425572656095027,0.1073061376810073,0.0,0.0,0.822840690612793,0.0767703056335449
-0.0842601805925369,0.1248107776045799,0.0741452574729919,-0.3647524118423462,-0.0372179821133613,0.1067858189344406,0.0,0.0,-0.1090137958526611,-0.5836999416351318
-0.0835068672895431,0.116220124065876,0.0688560977578163,-0.3816565573215484,-0.0308232977986335,0.1278935074806213,0.0,0.0,0.7729669809341431,0.5436208248138428
-0.0826040282845497,0.1079704388976097,0.0846295654773712,-0.3665493726730346,-0.0252446383237838,0.1115731000900268,0.0,0.0,0.4259811639785766,0.2451241016387939
-0.0817941650748252,0.1001370251178741,0.0758252739906311,-0.3480751812458038,-0.0201442837715148,0.1020070761442184,0.0,0.0,0.3241276741027832,0.7520673274993896
-0.0810328498482704,0.0925338566303253,0.0726329386234283,-0.3378730416297912,-0.0166871398687362,0.0691427364945411,0.0,0.0,0.3067224025726318,-0.8119599223136902
-0.0803483948111534,0.0852130055427551,0.0633135139942169,-0.3253228366374969,-0.0116270054131746,0.1012026667594909,0.0,0.0,0.5341439247131348,0.8966965675354004
-0.0795608535408973,0.0782436206936836,0.0753853172063827,-0.3097264170646667,-0.0083064781501889,0.0664107277989387,0.0,0.0,-0.088810920715332,0.4893198013305664
-0.0787741690874099,0.0708860754966735,0.0752977281808853,-0.3269866704940796,-0.0049772257916629,0.0665851309895515,0.0,0.0,0.6287146806716919,-0.5496381521224976
-0.0779252052307128,0.0641535148024559,0.0801357254385948,-0.2992149293422699,-0.0002791513106785,0.0939614400267601,0.0,0.0,0.4068586826324463,0.9734619855880736
-0.0769750624895095,0.0580724813044071,0.0921786278486251,-0.2702706158161163,0.0025090898852795,0.0557649545371532,0.0,0.0,-0.092612624168396,0.8894789218902588
-0.0759478583931922,0.0515936240553855,0.1018687710165977,-0.2879539728164673,0.0033491041976958,0.0168003663420677,0.0,0.0,0.6975741386413574,-0.4599298238754272
