x_pos,y_pos,x_vel,y_vel,angle,ang_vel,leg_1,leg_2,main_booster,lat_booster
-0.0015136718284338,1.4033046960830688,-0.1524783074855804,-0.338466465473175,0.0009903033496811,0.0194774456322193,0.0,0.0,-0.8495813171022975,-0.1076144867479158
-0.0030166625510901,1.3953925371170044,-0.1504898965358734,-0.3516542613506317,0.0011804143432527,0.0038033202290534,0.0,0.0,-0.71289320415504,-0.3772162858799945
-0.0045078275725245,1.3871599435806274,-0.1485252380371093,-0.3658935725688934,0.000596806698013,-0.0116737307980656,0.0,0.0,-0.5339688720522962,0.7578571049645635
-0.0059383390471339,1.3786051273345947,-0.1404639929533004,-0.380220353603363,-0.0019638612866401,-0.051218181848526,0.0,0.0,0.6043315728445673,0.4850808092042692
-0.0072285654023289,1.3706798553466797,-0.1262608170509338,-0.3522363305091858,-0.0046982299536466,-0.0546921007335186,0.0,0.0,-0.4742134304320944,-0.4993468478424924
-0.0085041048005223,1.3624348640441897,-0.1240101903676986,-0.3664606809616089,-0.0082076219841837,-0.0701942220330238,0.0,0.0,-0.0365057227816603,0.2598948949560655
-0.0097640994936227,1.3538703918457031,-0.1216661110520362,-0.3806745409965515,-0.0124913686886429,-0.0856827497482299,0.0,0.0,-0.4138495916276921,-0.1264276662556189
-0.0110074998810887,1.3449864387512207,-0.119230069220066,-0.394891619682312,-0.0175498481839895,-0.1011788472533226,0.0,0.0,0.7995112947946295,0.5322708643983272
-0.0121895791962742,1.33715558052063,-0.1111945882439613,-0.3481435179710388,-0.0244784858077764,-0.1385856866836547,0.0,0.0,0.9985994452280432,0.7451089927614065
-0.0132739068940281,1.3303256034851074,-0.099154807627201,-0.3037239611148834,-0.033659741282463,-0.1836419999599456,0.0,0.0,0.2616261683876588,0.3475381279467132
-0.0142579078674316,1.3238545656204224,-0.0886501744389534,-0.2878473699092865,-0.0433026812970638,-0.1928764283657074,0.0,0.0,0.4557885261909442,0.6223751971692522
-0.015084552578628,1.3177542686462402,-0.0710439831018447,-0.2714975476264953,-0.0548043251037597,-0.2300539463758468,0.0,0.0,0.6591960925411322,-0.6554525229911491
-0.0157612804323434,1.3123842477798462,-0.05693094804883,-0.2390894740819931,-0.065440334379673,-0.2127397060394287,0.0,0.0,-0.8114725299163037,-0.5952793425882019
-0.0164577476680278,1.3066951036453247,-0.0591988191008567,-0.2533429563045501,-0.0758057162165641,-0.2073262184858322,0.0,0.0,0.7875792058751163,-0.4495618134179542
-0.016911793500185,1.3020050525665283,-0.0349062532186508,-0.2090077698230743,-0.0862249433994293,-0.2084032744169235,0.0,0.0,-0.7498966282868573,-0.531369032164434
-0.0173769947141408,1.2969954013824463,-0.0361166968941688,-0.2232783734798431,-0.0965546146035194,-0.2066120356321334,0.0,0.0,0.4295640535579805,0.1561092273388717
-0.0176279060542583,1.2927563190460205,-0.0144845275208354,-0.1891174912452697,-0.1070961356163024,-0.2108494788408279,0.0,0.0,0.1256909031986928,-0.1042061775489288
-0.0177300460636615,1.288565158843994,0.0006970253307372,-0.1870958656072616,-0.1179536804556846,-0.2171702682971954,0.0,0.0,0.3152807308394825,0.4415226345555495
-0.0176545139402151,1.2849949598312378,0.0188657566905021,-0.1595983803272247,-0.1292190849781036,-0.2253285646438598,0.0,0.0,-0.1885886030962633,-0.7478875806929547
-0.0176188461482524,1.2811204195022583,0.0139244152233004,-0.1731346994638443,-0.1395617872476577,-0.2068725824356079,0.0,0.0,-0.8914679608496849,-0.0545193498042875
-0.0175561904907226,1.2769289016723633,0.0173854548484087,-0.1873667389154434,-0.1506722122430801,-0.2222281694412231,0.0,0.0,0.099894574970484,-0.3101575068180516
-0.0174138061702251,1.2728557586669922,0.0260676331818103,-0.1822641193866729,-0.1625113189220428,-0.236803337931633,0.0,0.0,0.9600113277086656,0.817629904533319
-0.016909122467041,1.269365310668945,0.0643076077103614,-0.1567098796367645,-0.176387071609497,-0.2775397896766662,0.0,0.0,0.7861021914320496,-0.7465272151712832
-0.0162940025329589,1.2660428285598757,0.0744188576936721,-0.149252787232399,-0.1893555223941803,-0.2593925595283508,0.0,0.0,-0.0892776914774682,0.0674087088573822
-0.0156490318477153,1.2624046802520752,0.0781188607215881,-0.1634992957115173,-0.2030836045742035,-0.2745864689350128,0.0,0.0,0.1628597445233404,-0.3453091992504408
-0.0149772642180323,1.259189248085022,0.0820048674941062,-0.145007386803627,-0.2180429846048355,-0.2991873323917389,0.0,0.0,0.4101587719238371,0.1160476285138367
-0.0141375539824366,1.256566286087036,0.099487766623497,-0.1189405173063278,-0.233741894364357,-0.3139783442020416,0.0,0.0,-0.7875127487363578,0.2124896167329325
-0.0132662774994969,1.2536293268203735,0.1032983660697937,-0.1331894546747207,-0.250191867351532,-0.3289996087551117,0.0,0.0,0.9016804797214336,0.1551026049493641
-0.0122879026457667,1.2517303228378296,0.115358829498291,-0.0874896273016929,-0.2680836319923401,-0.357835441827774,0.0,0.0,-0.3680479832583527,-0.2789182632228066
-0.0112770078703761,1.2495182752609253,0.1192527040839195,-0.1017462834715843,-0.2867180109024048,-0.3726869523525238,0.0,0.0,-0.0673124607233073,-0.0259526968795068
-0.010232925415039,1.246993899345398,0.1231847777962684,-0.1160059869289398,-0.3060900270938873,-0.3874402642250061,0.0,0.0,-0.684561014175415,-0.9996699690818788
-0.0092411041259765,1.2441916465759275,0.1163422092795372,-0.1282631754875183,-0.3239017724990845,-0.3562349677085876,0.0,0.0,-0.9298776388168336,-0.9988752603530884
-0.0082980152219533,1.2411279678344729,0.1098458990454673,-0.1397320181131363,-0.3401105999946594,-0.3241766095161438,0.0,0.0,-0.6010228991508484,-0.9995254278182985
-0.0074046133086085,1.2377853393554688,0.1033301576972007,-0.1519253402948379,-0.354787141084671,-0.2935306429862976,0.0,0.0,-0.8333617448806763,-0.9992915987968444
-0.006547546479851,1.2341704368591309,0.0983897000551223,-0.1638527959585189,-0.368179053068161,-0.2678383290767669,0.0,0.0,-0.6742324829101562,-0.9950571656227112
-0.0057245255447924,1.230289101600647,0.0937222242355346,-0.1754918098449707,-0.3802824020385742,-0.242067813873291,0.0,0.0,-0.5918389558792114,-0.999556303024292
-0.0049435617402195,1.2261335849761963,0.0881000757217407,-0.1873852163553238,-0.3909390270709991,-0.2131323516368866,0.0,0.0,-0.9480107426643372,-0.9995266199111938
-0.0041930200532078,1.221712350845337,0.0838467329740524,-0.1989496350288391,-0.4003397524356842,-0.1880144327878952,0.0,0.0,-0.9425057172775269,-0.9997464418411256
-0.0034806251060217,1.2170346975326538,0.0785649195313453,-0.2099873125553131,-0.4082001447677612,-0.1572083532810211,0.0,0.0,-0.9897517561912536,-0.9989223480224608
-0.0028002739418298,1.212086796760559,0.0741152614355087,-0.2216722518205642,-0.4147527813911438,-0.1310525834560394,0.0,0.0,-0.9435940384864808,-0.996889591217041
-0.0021656036842614,1.2068862915039062,0.067885011434555,-0.2324357479810714,-0.4195138812065124,-0.0952221602201461,0.0,0.0,-0.9933552145957948,-0.9933091402053832
-0.0015514374244958,1.201405644416809,0.0648952424526214,-0.2446332573890686,-0.4232791662216186,-0.0753056854009628,0.0,0.0,-0.9636324644088744,-0.9992800951004028
-0.0009634971502237,1.19563889503479,0.0612546727061271,-0.2570371031761169,-0.4259445071220398,-0.0533070340752601,0.0,0.0,-0.9676071405410768,-0.9996650815010072
-0.0003986358642578,1.1895946264266968,0.0579107329249382,-0.2690700590610504,-0.4274877905845642,-0.0308658722788095,0.0,0.0,-0.999673068523407,-0.9985535740852356
0.0001241683930857,1.1832748651504517,0.0522235408425331,-0.2808558642864227,-0.4274243414402008,0.0012688047718256,0.0,0.0,-0.9061802625656128,-0.9999608397483826
0.000615787517745,1.176674485206604,0.0478780455887317,-0.2929655015468597,-0.426029235124588,0.0279017984867095,0.0,0.0,-0.995284616947174,-0.965351402759552
0.0010818481678143,1.1697947978973389,0.0441782996058464,-0.3050371706485748,-0.4233929514884949,0.0527256317436695,0.0,0.0,-0.9912851452827454,-0.9907090067863464
0.0015051842201501,1.162664532661438,0.0381175689399242,-0.3156378865242004,-0.418833315372467,0.0911924690008163,0.0,0.0,-0.9078412055969238,-0.9979858994483948
0.0018823624122887,1.155283808708191,0.0316025353968143,-0.3262307345867157,-0.4122442901134491,0.1317812502384185,0.0,0.0,-0.9817593097686768,-0.9968701601028442
0.002223300980404,1.147632718086243,0.0264360252767801,-0.3378421068191528,-0.4040053188800812,0.1647796779870987,0.0,0.0,-0.9892820715904236,-0.9957002997398376
0.0025485039222985,1.139699935913086,0.0238031670451164,-0.3501119017601013,-0.3946556448936462,0.1869934499263763,0.0,0.0,-0.9919624924659728,-0.9902212619781494
0.0028364181052893,1.1315059661865234,0.0183212589472532,-0.36131152510643,-0.3834865987300873,0.2233805358409881,0.0,0.0,-0.9912466406822203,-0.9978054761886596
0.003103160765022,1.123026728630066,0.0149545762687921,-0.3737527132034302,-0.3710415363311767,0.2489016503095626,0.0,0.0,-0.9882565140724182,-0.9615199565887452
0.0033422471024096,1.1142807006835938,0.0106008145958185,-0.3853249251842499,-0.3569872677326202,0.2810857892036438,0.0,0.0,-0.9993788003921508,-0.9654205441474916
0.0035672187805175,1.10524582862854,0.0080332066863775,-0.3980340957641601,-0.3417824804782867,0.3040957152843475,0.0,0.0,-0.976990520954132,-0.9189921021461488
0.0037530898116528,1.09593403339386,0.0022437213920056,-0.4100823402404785,-0.3247040510177612,0.3415678441524505,0.0,0.0,-0.9911481142044068,-0.932241916656494
0.0039233206771314,1.0863449573516846,-0.0007270401110872,-0.4223029017448425,-0.3062759339809418,0.3685624003410339,0.0,0.0,-0.9809528589248656,-0.9178194999694824
0.0040823938325047,1.0764706134796145,-0.0031139464117586,-0.4349789619445801,-0.2866321504116058,0.3928751945495605,0.0,0.0,-0.996103048324585,-0.6735078692436218
0.0042397500947117,1.0663084983825684,-0.0043825800530612,-0.4478280246257782,-0.265974223613739,0.413158118724823,0.0,0.0,-0.9363198280334472,-0.6747071146965027
0.0043823244050145,1.0558621883392334,-0.0073608816601336,-0.4605043232440948,-0.2439232319593429,0.4410199224948883,0.0,0.0,-0.9859542846679688,-0.759976863861084
0.00451240548864,1.0451167821884155,-0.0099874073639512,-0.4739327728748321,-0.2205850630998611,0.4667635560035705,0.0,0.0,-0.9783166646957396,-0.6142579913139343
0.0046300888061523,1.0340808629989624,-0.0127277094870805,-0.4870161414146423,-0.1958723813295364,0.4942532479763031,0.0,0.0,-0.9946043491363524,-0.3470937013626098
0.0047899247147142,1.0227329730987549,-0.0085956826806068,-0.5012809038162231,-0.1711899042129516,0.493649810552597,0.0,0.0,-0.993569314479828,0.4176838397979736
0.0049921036697924,1.0110735893249512,-0.0044901659712195,-0.515545129776001,-0.1464967280626297,0.4938639104366302,0.0,0.0,-0.9927143454551696,0.7020672559738159
0.0052912710234522,0.9990842342376708,0.0065233604982495,-0.5307250618934631,-0.1231771409511566,0.4663920402526855,0.0,0.0,-0.9627707600593568,-0.2068881392478943
0.0056325914338231,0.9867821335792542,0.0105690686032176,-0.544983446598053,-0.0997657924890518,0.4682268500328064,0.0,0.0,-0.924687922000885,0.9836549758911132
0.0060968399047851,0.9741660356521606,0.0247220396995544,-0.559406578540802,-0.0782502740621566,0.430310308933258,0.0,0.0,-0.9717061519622804,0.8270272016525269
0.0066765784285962,0.9612170457839966,0.0379485450685024,-0.5745823979377747,-0.0584392733871936,0.3962200284004211,0.0,0.0,-0.950545370578766,0.8393296003341675
0.0073676109313964,0.9479565024375916,0.0506140179932117,-0.5887365937232971,-0.0401640720665454,0.3655044436454773,0.0,0.0,-0.9195717573165894,0.938599705696106
0.0081626893952488,0.9343721866607666,0.062350433319807,-0.6033704280853271,-0.0232207104563713,0.3388671576976776,0.0,0.0,-0.0296769142150878,0.9359264373779296
0.0090618133544921,0.920473337173462,0.0740731954574585,-0.6175563931465149,-0.0075754034332931,0.3129060864448547,0.0,0.0,-0.7180098295211792,0.8873926401138306
0.0100759509950876,0.906258225440979,0.0871265605092048,-0.6317635774612427,0.0065278313122689,0.2820651233196258,0.0,0.0,-0.8349794745445251,0.5245370864868164
0.0111636165529489,0.8917322158813477,0.094954140484333,-0.6457159519195557,0.0201556701213121,0.2725568115711212,0.0,0.0,-0.7608907222747803,0.0774933099746704
0.0122917173430323,0.8768891096115112,0.0986306369304657,-0.6599463820457458,0.0341585204005241,0.280056893825531,0.0,0.0,-0.6527127623558044,0.9255441427230836
0.0135293006896972,0.8617250919342041,0.1109314411878585,-0.67430180311203,0.0468278042972087,0.2533857226371765,0.0,0.0,-0.522548258304596,-0.1914117336273193
0.0148065565153956,0.8462435603141785,0.1144772544503212,-0.6885311603546143,0.0599276460707187,0.2619972825050354,0.0,0.0,-0.7138153314590454,0.3999582529067993
0.016123104840517,0.8304449915885925,0.1179511770606041,-0.7027620077133179,0.0734834000468254,0.2711145579814911,0.0,0.0,-0.7128223776817322,0.9748260974884032
0.017553711310029,0.8143465518951416,0.1308260411024093,-0.7161369323730469,0.0856019556522369,0.2423707991838455,0.0,0.0,-0.4219615459442138,0.8855184316635132
0.0191010478883981,0.797949492931366,0.1440174877643585,-0.7294076085090637,0.0962205752730369,0.2123722285032272,0.0,0.0,-0.9033277630805968,0.7628552913665771
0.0207341201603412,0.7812494039535522,0.153332382440567,-0.7429015040397644,0.1061215102672576,0.1980187147855758,0.0,0.0,-0.7740038633346558,0.2473783493041992
0.0224039070308208,0.7642317414283752,0.1564677208662033,-0.7571287155151367,0.1165640130639076,0.2088501453399658,0.0,0.0,-0.2738758325576782,0.7220839262008667
0.024169635027647,0.7469132542610168,0.1670548915863037,-0.7704797983169556,0.1260255426168441,0.1892304718494415,0.0,0.0,-0.7950333952903748,0.5904500484466553
0.0260088928043842,0.7292843461036682,0.1748265773057937,-0.7843010425567627,0.1350823193788528,0.1811351329088211,0.0,0.0,-0.1554165482521057,0.3862960338592529
0.0278821941465139,0.7113378643989563,0.1776486933231353,-0.798528790473938,0.1447303295135498,0.192960113286972,0.0,0.0,0.2016628980636596,0.7665750980377197
0.0297650340944528,0.6938437223434448,0.1795464903116226,-0.7783955335617065,0.1534391790628433,0.1741770207881927,0.0,0.0,0.0811958312988281,0.0309792757034301
0.0316778197884559,0.676609456539154,0.1816852241754531,-0.7669848799705505,0.163030594587326,0.191828578710556,0.0,0.0,-0.7239331603050232,0.8943183422088623
0.0336947441101074,0.6590670943260193,0.1933408081531524,-0.7806029915809631,0.1713965386152267,0.1673192828893661,0.0,0.0,-0.2813985347747803,0.829953670501709
0.0358164794743061,0.6412205100059509,0.2050967663526535,-0.7940168380737305,0.1784888952970504,0.1418473422527313,0.0,0.0,-0.2368576526641845,0.5553563833236694
0.0380200371146202,0.6230705976486206,0.2140221148729324,-0.8074390888214111,0.184848204255104,0.1271863430738449,0.0,0.0,0.1788604259490966,0.7689197063446045
0.0403706543147563,0.6050601601600647,0.2295040190219879,-0.801169216632843,0.1904338002204895,0.1117118969559669,0.0,0.0,0.4380908012390136,0.5615146160125732
0.042660616338253,0.5877102017402649,0.2238989174365997,-0.7717726826667786,0.1955484747886657,0.102293774485588,0.0,0.0,0.0092736482620239,0.6576964855194092
0.0449554435908794,0.5707505345344543,0.2250304222106933,-0.7543553709983826,0.2000379562377929,0.0897892862558364,0.0,0.0,0.3588823080062866,0.4065684080123901
0.0472637191414833,0.5543105006217957,0.225219577550888,-0.7314409613609314,0.2056886106729507,0.113013170659542,0.0,0.0,-0.2472217082977295,-0.0406799912452697
0.0495923049747943,0.5375528931617737,0.2265620976686477,-0.7456697821617126,0.2120338827371597,0.1269058883190155,0.0,0.0,0.0406200885772705,0.7109750509262085
0.0518897995352745,0.5209521055221558,0.2242166101932525,-0.738621711730957,0.2176234424114227,0.1117912083864212,0.0,0.0,0.5513656139373779,0.9002963304519653
0.0541841499507427,0.5052827596664429,0.2248952090740203,-0.6970885396003723,0.2222129702568054,0.0917904153466224,0.0,0.0,-0.0660713911056518,0.197887897491455
0.0564931854605674,0.4892961680889129,0.2256649285554886,-0.7113177180290222,0.2275161445140838,0.1060634851455688,0.0,0.0,0.0337649583816528,0.2049341201782226
0.0586267486214637,0.4736932218074798,0.2077774703502655,-0.6943347454071045,0.2331784665584564,0.1132463812828064,0.0,0.0,0.3070759773254394,0.870002031326294
0.0607862472534179,0.4586342275142669,0.211327314376831,-0.670030415058136,0.2378719747066497,0.093870036303997,0.0,0.0,0.183118462562561,0.9477695226669312
0.0628557205200195,0.4440582394599914,0.2035003900527954,-0.6483805775642395,0.2413693368434906,0.0699471905827522,0.0,0.0,0.0816098451614379,0.8596172332763672
0.0648178085684776,0.429886519908905,0.1937674582004547,-0.6302589774131775,0.2438479959964752,0.0495732501149177,0.0,0.0,0.606682538986206,0.8670740127563477
0.0667080879211425,0.4161144196987152,0.1876252740621566,-0.6123253107070923,0.2452769428491592,0.0285786297172307,0.0,0.0,0.3589409589767456,0.4743275642395019
0.0683876052498817,0.4027098715305328,0.1662528812885284,-0.5960438847541809,0.2470043748617172,0.0345487780869007,0.0,0.0,0.4962364435195923,0.9958443641662598
0.0698767676949501,0.3896472454071045,0.1485885232686996,-0.5806156992912292,0.2473405599594116,0.0067237317562103,0.0,0.0,0.8205833435058594,0.9952995777130128
0.0713720321655273,0.3775013983249664,0.1502470225095749,-0.5396919250488281,0.2465969175100326,-0.0148729281499981,0.0,0.0,0.6559770107269287,0.9005222320556641
0.0729098320007324,0.3656197786331177,0.155455082654953,-0.5277931094169617,0.2448931783437729,-0.0340748950839042,0.0,0.0,0.8469244241714478,0.8639934062957764
0.0744730979204177,0.3547582030296325,0.1586522758007049,-0.4823516309261322,0.2425247877836227,-0.0473675057291984,0.0,0.0,0.653678297996521,0.252997875213623
0.0758194923400878,0.3447020649909973,0.136326789855957,-0.4466628730297088,0.2408097833395004,-0.034299649298191,0.0,0.0,0.580290675163269,-0.2885705828666687
0.0770934075117111,0.3355680406093597,0.1277099996805191,-0.4059065282344818,0.2404881417751312,-0.0064328187145292,0.0,0.0,0.2082409858703613,0.0608570575714111
0.0783084854483604,0.3267540037631988,0.1208203211426734,-0.3918458223342895,0.2411892414093017,0.0140218837186694,0.0,0.0,0.5698254108428955,0.608634352684021
0.0793627724051475,0.3187731206417084,0.1052078977227211,-0.3547418415546417,0.2414067387580871,0.004349841736257,0.0,0.0,0.8794765472412109,-0.0735358595848083
0.0802539810538292,0.3118045926094055,0.0878352597355842,-0.3099250793457031,0.2427128106355667,0.0261216070502996,0.0,0.0,0.645483136177063,-0.409276008605957
0.0810955986380577,0.3052124977111816,0.0817611888051033,-0.2933790981769562,0.2451615184545517,0.0489738509058952,0.0,0.0,0.5418730974197388,-0.2525613307952881
0.0816671401262283,0.2991013526916504,0.0545016154646873,-0.272050529718399,0.2478556483983993,0.0538826771080493,0.0,0.0,0.6538722515106201,-0.0208474993705749
0.0819664970040321,0.2933751046657562,0.0271189901977777,-0.2549804449081421,0.2507306337356567,0.0574995093047618,0.0,0.0,-0.5012229084968567,0.5740830898284912
0.0822855979204177,0.2873475551605224,0.0294219348579645,-0.2683162093162536,0.2532638013362884,0.0506632216274738,0.0,0.0,0.0554162263870239,0.519719123840332
0.0825527161359787,0.2815190851688385,0.0244619622826576,-0.2594309151172638,0.2555566430091858,0.0458567664027214,0.0,0.0,-0.4254218339920044,0.5565826892852783
0.0828467383980751,0.2753888368606567,0.0277286227792501,-0.2727468609809875,0.2572636902332306,0.0341413840651512,0.0,0.0,-0.2585169076919555,0.448038101196289
0.0831137672066688,0.2689416110515594,0.0242626704275608,-0.2869779765605926,0.2597512304782867,0.0497510805726051,0.0,0.0,0.775874137878418,0.6782314777374268
0.0832084640860557,0.2634722590446472,0.0075537031516432,-0.2434235513210296,0.2617096304893493,0.0391680672764778,0.0,0.0,-0.1717182993888855,-0.1754728555679321
0.0832736045122146,0.2576858401298523,0.0038353372365236,-0.2576550841331482,0.264450341463089,0.0548139438033103,0.0,0.0,-0.0276315212249755,0.8652005195617676
