x_pos,y_pos,x_vel,y_vel,angle,ang_vel,leg_1,leg_2,main_booster,lat_booster
-0.0015140533214434,1.4035006761550903,-0.1535811722278595,-0.3297517895698547,0.0019467546371743,0.0384151339530944,0.0,0.0,-0.1216474175453186,0.8459694385528564
-0.0029465674888342,1.3959767818450928,-0.1435265094041824,-0.3343967795372009,0.0022250327747315,0.0055666947737336,0.0,0.0,-0.5644383430480957,0.4937961101531982
-0.0043693543411791,1.3883285522460938,-0.1427822560071945,-0.3399211168289184,0.0027158693410456,0.0098175778985023,0.0,0.0,-0.233004093170166,0.6667354106903076
-0.0057407380081713,1.3805545568466189,-0.1367826163768768,-0.3455128073692322,0.0023752404376864,-0.0068132900632917,0.0,0.0,-0.5754418969154358,0.8822698593139648
-0.007018375210464,1.3726599216461182,-0.1255198270082473,-0.3508744537830353,0.0001587302103871,-0.0443345420062541,0.0,0.0,-0.3497878313064575,0.5899059772491455
-0.0082296375185251,1.3646405935287476,-0.1176941841840744,-0.3564128577709198,-0.0032337312586605,-0.0678558275103569,0.0,0.0,-0.3282693028450012,0.3034592866897583
-0.0094314571470022,1.3564977645874023,-0.1170365065336227,-0.3619145452976227,-0.0063566789031028,-0.0624646060168743,0.0,0.0,-0.3250125050544739,0.2641003131866455
-0.010624217800796,1.3482311964035034,-0.1164052113890647,-0.3674162328243255,-0.0091982902958989,-0.0568373426795005,0.0,0.0,-0.5189934968948364,0.2153208255767822
-0.0118081094697117,1.3398408889770508,-0.115800641477108,-0.3729178011417389,-0.011746653355658,-0.0509719625115394,0.0,0.0,0.1240153312683105,0.4831585884094238
-0.0129776950925588,1.3320680856704712,-0.1146934181451797,-0.3454751372337341,-0.0139934597536921,-0.0449402593076229,0.0,0.0,-0.4482058882713318,0.72198486328125
-0.0140736578032374,1.324170708656311,-0.1059874445199966,-0.3510357141494751,-0.0175608824938535,-0.0713551640510559,0.0,0.0,-0.5612107515335083,0.4183359146118164
-0.0151610374450683,1.3161497116088867,-0.1054604053497314,-0.3565345108509063,-0.0208032596856355,-0.0648534744977951,0.0,0.0,-0.7957648634910583,0.1188039779663086
-0.0162400249391794,1.3080048561096191,-0.1049619168043136,-0.362035721540451,-0.0237125549465417,-0.0581910982728004,0.0,0.0,-0.5171028971672058,0.3809579610824585
-0.017310906201601,1.2997361421585083,-0.1044911742210388,-0.3675372302532196,-0.0262799188494682,-0.0513517744839191,0.0,0.0,-0.8486453294754028,0.4780700206756592
-0.0183738712221384,1.2913436889648438,-0.1040487885475158,-0.3730385601520538,-0.0284973941743373,-0.0443537756800651,0.0,0.0,-0.2962541580200195,0.5894995927810669
-0.0193740837275981,1.2828181982040403,-0.0967536568641662,-0.3789782226085663,-0.0317407697439193,-0.0648734122514724,0.0,0.0,-0.9106128811836244,-0.233251690864563
-0.020366858690977,1.274168848991394,-0.0963638871908187,-0.3844796419143677,-0.0346191376447677,-0.0575722344219684,0.0,0.0,-0.9287926554679872,-0.4341827630996704
-0.0213522911071777,1.2653956413269043,-0.0960026979446411,-0.3899809718132019,-0.0371268652379512,-0.0501591376960277,0.0,0.0,-0.81432044506073,0.1232073307037353
-0.0223305709660053,1.2564985752105713,-0.0956695228815078,-0.3954821228981018,-0.0392576865851879,-0.0426204577088356,0.0,0.0,-0.9264024496078492,0.233351469039917
-0.0233019832521677,1.2474775314331057,-0.095364324748516,-0.4009830057621002,-0.0410060174763202,-0.0349699780344963,0.0,0.0,-0.9432019591331482,-0.344253659248352
-0.0242666248232126,1.2383325099945068,-0.0950868800282478,-0.4064837396144867,-0.0423666723072528,-0.0272158496081829,0.0,0.0,-0.9470681548118592,0.7839655876159668
-0.0251618381589651,1.2290551662445068,-0.0869299918413162,-0.4124049842357635,-0.0449242293834686,-0.0511557646095752,0.0,0.0,-0.9611753225326538,0.2977705001831054
-0.0260506626218557,1.219653606414795,-0.0867023020982742,-0.4179058969020843,-0.0470839962363243,-0.0431989878416061,0.0,0.0,-0.8556496500968933,-0.375205934047699
-0.0269333831965923,1.2101283073425293,-0.0865017250180244,-0.4234066605567932,-0.0488428249955177,-0.0351799242198467,0.0,0.0,-0.903028666973114,-0.0633977055549621
-0.0278103835880756,1.2004790306091309,-0.086327239871025,-0.428907185792923,-0.0501966923475265,-0.0270796176046133,0.0,0.0,-0.6601784825325012,-0.0911900401115417
-0.0286824218928813,1.190684199333191,-0.086249716579914,-0.4353598952293396,-0.0511421635746955,-0.0189092271029949,0.0,0.0,-0.9388863444328308,0.5928919315338135
-0.0295018199831247,1.1807653903961182,-0.0801985785365104,-0.4408952891826629,-0.0528626963496208,-0.0344104096293449,0.0,0.0,-0.9589184522628784,0.397712230682373
-0.0303159710019826,1.1707226037979126,-0.0800997540354728,-0.4463931918144226,-0.0541686490178108,-0.0261187404394149,0.0,0.0,-0.926118552684784,-0.3656803965568542
-0.031125258654356,1.1605558395385742,-0.0800230279564857,-0.4518908858299255,-0.0550572760403156,-0.0177725218236446,0.0,0.0,-0.8717314600944519,-0.4665578603744507
-0.0319295898079872,1.150264859199524,-0.07996766269207,-0.4573884606361389,-0.0555261299014091,-0.0093769384548068,0.0,0.0,-0.9807635545730592,-0.3906452655792236
-0.032729435712099,1.1398500204086304,-0.0799328982830047,,-0.0555729754269123,-0.0009371222695335,0.0,0.0,-0.9890694618225098,-0.2022667527198791
-0.0335248000919818,1.129310965538025,-0.0799179375171661,-0.4683834314346313,-0.0551958605647087,0.0075423852540552,0.0,0.0,-0.94118070602417,0.4931995868682861
-0.0343158729374408,1.1186480522155762,-0.0799219235777854,-0.4738809764385223,-0.0543930195271968,0.0160568077117204,0.0,0.0,-0.9730888605117798,-0.2205025553703308
-0.035102941095829,1.107861042022705,-0.0799439698457717,-0.4793785810470581,-0.0531629286706447,0.0246017631143331,0.0,0.0,-0.8882386088371277,0.3784756660461426
-0.035886000841856,1.0969500541687012,-0.0799831673502922,-0.484876275062561,-0.0515042804181575,0.0331729687750339,0.0,0.0,-0.914172351360321,0.922508716583252
-0.0365899093449115,1.0859160423278809,-0.0705903321504592,-0.4903911352157593,-0.051305916160345,0.0039673503488302,0.0,0.0,-0.8880950212478638,0.4731370210647583
-0.0372900962829589,1.0747580528259275,-0.0706608593463897,-0.495888739824295,-0.0506770014762878,0.0125785414129495,0.0,0.0,-0.9800423383712769,0.136056900024414
-0.0379868522286415,1.0634759664535522,-0.0707455575466156,-0.5013864040374756,-0.0496168211102485,0.0212037526071071,0.0,0.0,-0.9503901600837708,0.5707179307937622
-0.0386378280818462,1.0520732402801514,-0.0655320808291435,-0.5067778825759888,-0.0491851866245269,0.0086324410513043,0.0,0.0,-0.995649755001068,0.5199569463729858
-0.0392424575984478,1.0405439138412476,-0.0602408275008201,-0.5124233365058899,-0.0494045615196228,-0.0043873926624655,0.0,0.0,-0.9718619585037231,-0.4333899021148681
-0.0398438461124897,1.0288904905319214,-0.0603615269064903,-0.5179210305213928,-0.0491917356848716,0.0042568435892462,0.0,0.0,-0.8861989378929138,0.6472316980361938
-0.0403806678950786,1.0171071290969849,-0.0527620129287242,-0.5237375497817993,-0.0500988513231277,-0.0181421320885419,0.0,0.0,-0.9655647277832032,-0.6634242534637451
-0.0409586913883686,1.0051956176757812,-0.0584431290626525,-0.5293765068054199,-0.0494682788848876,0.0126116853207349,0.0,0.0,-0.9938891530036926,0.3642362356185913
-0.041533850133419,0.9931601881980896,-0.0585896298289299,-0.5348742008209229,-0.0484062060713768,0.0212414842098951,0.0,0.0,-0.99363911151886,-0.0260599255561828
-0.0421062484383583,0.98100084066391,-0.058742381632328,-0.5403720140457153,-0.0469132959842681,0.0298582073301076,0.0,0.0,-0.988543689250946,0.5266185998916626
-0.0426310524344444,0.9687089323997498,-0.0532948970794677,-0.5462843775749207,-0.046118963509798,0.015886778011918,0.0,0.0,-0.9756632447242736,0.8808450698852539
-0.0430767051875591,0.9562827944755554,-0.0438487343490123,-0.5522922277450562,-0.0468264482915401,-0.0141497952863574,0.0,0.0,-0.960779070854187,-0.8301655650138855
-0.0435973182320594,0.9437470436096193,-0.0537558197975158,-0.55708909034729,-0.0451444871723651,0.033639095723629,0.0,0.0,-0.970057725906372,0.7189556360244751
-0.0440706238150596,0.931090772151947,-0.0483414717018604,-0.562472939491272,-0.0441502183675766,0.019885404035449,0.0,0.0,-0.9646309018135072,-0.2028883695602417
-0.0445413589477539,0.9183105826377868,-0.0485068783164024,-0.5679709315299988,-0.0427308417856693,0.0283876098692417,0.0,0.0,-0.9983007311820984,0.3463033437728882
-0.0450094230473041,0.9054061770439148,-0.0486710183322429,-0.5734691023826599,-0.0408880710601806,0.0368554815649986,0.0,0.0,-0.9942350387573242,0.8096122741699219
-0.045416735112667,0.8923799395561218,-0.0415532663464546,-0.5789256691932678,-0.0400797389447689,0.0161669794470071,0.0,0.0,-0.9846811890602112,0.2286821603775024
-0.045821476727724,0.879229724407196,-0.0417109727859497,-0.5844237804412842,-0.0388519987463951,0.0245547778904438,0.0,0.0,-0.9660513401031494,-0.4864472150802612
-0.0462235435843467,0.8659554123878479,-0.0418635159730911,-0.5899220108985901,-0.0372071675956249,0.0328967086970806,0.0,0.0,-0.9596670866012572,-0.2973320484161377
-0.0466227531433105,0.8525572419166565,-0.0420095846056938,-0.5954204797744751,-0.0351477414369583,0.0411886945366859,0.0,0.0,-0.962510585784912,-0.1412574052810669
-0.0470192916691303,0.8390353322029114,-0.0421478673815727,-0.6009191274642944,-0.0326764062047004,0.0494266897439956,0.0,0.0,-0.9626464247703552,0.8956623077392578
-0.0473307594656944,0.8253938555717468,-0.0319823250174522,-0.6062758564949036,-0.0318548716604709,0.0164306070655584,0.0,0.0,-0.8695069551467896,-0.469906747341156
-0.0476393699645996,0.8116282820701599,-0.0321010537445545,-0.6117743849754333,-0.0306274741888046,0.0245480798184871,0.0,0.0,-0.9479249119758606,0.1149172782897949
-0.04794492572546,0.7977387309074402,-0.0322080478072166,-0.6172729134559631,-0.028997529298067,0.0325989201664924,0.0,0.0,-0.9586165547370912,0.0430821180343627
-0.0482473373413085,0.7837256193161011,-0.0323019884526729,-0.6227715611457825,-0.0269686020910739,0.0405787117779254,0.0,0.0,-0.9566693305969238,0.1282939910888672
-0.0485466010868549,0.7695887088775635,-0.0323815867304801,-0.6282705068588257,-0.0245444513857364,0.0484829805791378,0.0,0.0,-0.9213277697563172,0.1419830322265625
-0.0488425269722938,0.7553279399871826,-0.0324455425143241,-0.633769690990448,-0.0217290986329317,0.0563071891665458,0.0,0.0,-0.6415300965309143,0.4321188926696777
-0.0491350181400775,0.740943431854248,-0.0324925705790519,-0.6392691135406494,-0.0185267608612775,0.0640467330813407,0.0,0.0,-0.9940158724784852,0.3740463256835937
-0.0494238846004009,0.7264353632926941,-0.032521404325962,-0.6447688937187195,-0.0149419168010354,0.0716969594359397,0.0,0.0,-0.9669541716575624,0.743266224861145
-0.0496495254337787,0.7117964625358582,-0.0250607877969741,-0.6505878567695618,-0.0124768856912851,0.0493006706237793,0.0,0.0,-0.9611176252365112,0.6142721176147461
-0.0498327240347862,0.6970335841178894,-0.020203772932291,-0.6561122536659241,-0.0106094423681497,0.0373487100005149,0.0,0.0,-0.9077799916267396,0.7624897956848145
-0.0499491691589355,0.6821548342704773,-0.0123233376070857,-0.6612719297409058,-0.0099443988874554,0.0133010623976588,0.0,0.0,-0.6743298768997192,-0.6329829096794128
-0.0501048080623149,0.6671454906463623,-0.017700070515275,-0.6670712232589722,-0.0078302193433046,0.0422833785414695,0.0,0.0,-0.9049932956695556,0.2513842582702636
-0.0502559654414653,0.6520124077796936,-0.0176194831728935,-0.6725708842277527,-0.0053594787605106,0.0494147762656211,0.0,0.0,-0.856009304523468,0.3863239288330078
-0.0504025444388389,0.6367557048797607,-0.0175135172903537,-0.6780707240104675,-0.0025380938313901,0.0564276650547981,0.0,0.0,-0.6810692548751831,0.6003201007843018
-0.0505040176212787,0.62137770652771,-0.0123285222798585,-0.6834678649902344,-0.0003839761193376,0.0430821776390075,0.0,0.0,-0.7415298223495483,0.7915389537811279
-0.0505346283316612,0.6058773398399353,-0.003907177131623,-0.6889036893844604,0.0004537286877166,0.0167541559785604,0.0,0.0,-0.6055267453193665,0.4846410751342773
-0.0505599975585937,0.5902533531188965,-0.0037186641711741,-0.6944032311439514,0.0016228208551183,0.0233819875866174,0.0,0.0,-0.1721587181091308,0.7309565544128418
-0.0505148880183696,0.5745057463645935,0.0046431822702288,-0.6998939514160156,0.0014854719629511,-0.0027468602638691,0.0,0.0,0.0310871601104736,0.2045608758926391
-0.0504855141043663,0.5590004324913025,0.0028505271766334,-0.6891235113143921,0.0015681185759603,0.0016527787083759,0.0,0.0,-0.6546493172645569,0.509056806564331
-0.0504054054617881,0.5433660745620728,0.008756342343986,-0.6948564052581787,0.0008341462234966,-0.0146794440224766,0.0,0.0,-0.4262202978134155,0.5917503833770752
-0.0502747520804405,0.5276022553443909,0.0146360415965318,-0.7006151080131531,-0.0007124500116333,-0.0309318304061889,0.0,0.0,0.7507636547088623,-0.1999595165252685
-0.0501458160579204,0.5129755735397339,0.0141981886699795,-0.6500781178474426,-0.0020056015346199,-0.0258628968149423,0.0,0.0,-0.6676107048988342,0.5897995233535767
-0.0499573722481727,0.4982308447360992,0.0212121903896331,-0.6553247570991516,-0.0043410044163465,-0.0467081405222415,0.0,0.0,-0.5707589387893677,-0.4791409373283386
-0.0497620590031147,0.4833625555038452,0.0216245148330926,-0.6608245968818665,-0.0063981907442212,-0.0411439202725887,0.0,0.0,-0.2049291729927063,0.1874459981918335
-0.0495594963431358,0.4683704376220703,0.0220715291798114,-0.6663243174552917,-0.0081856353208422,-0.0357487201690673,0.0,0.0,-0.1209840774536132,0.1145740747451782
-0.0493494048714637,0.4532544910907745,0.0225537158548831,-0.6718238592147827,-0.00971195474267,-0.0305262561887502,0.0,0.0,0.6053249835968018,-0.0306577086448669
-0.049224566668272,0.4388551115989685,0.0142325134947896,-0.639984130859375,-0.0114414319396018,-0.0345896631479263,0.0,0.0,0.3986585140228271,0.8133487701416016
-0.0490730293095111,0.4251959323883056,0.0183649100363254,-0.6071013808250427,-0.014612385071814,-0.0634190142154693,0.0,0.0,0.2854377031326294,-0.2196952104568481
-0.0489146225154399,0.4122293591499328,0.0188645925372838,-0.5763256549835205,-0.0175921861082315,-0.0595960430800914,0.0,0.0,-0.5945579409599304,-0.240524411201477
-0.0487475395202636,0.3991391062736511,0.0194907821714878,-0.5818254351615906,-0.0203469879925251,-0.0550960227847099,0.0,0.0,-0.9219821691513062,-0.6648139953613281
-0.0486223213374614,0.3859201073646545,0.0138046015053987,-0.5875303149223328,-0.0216165594756603,-0.0253911279141902,0.0,0.0,-0.4514374732971191,0.2301183938980102
-0.0484880432486534,0.3725773096084595,0.01450374443084,-0.5930296182632446,-0.0226799137890338,-0.021267058327794,0.0,0.0,0.9417816400527954,0.3761729001998901
-0.0481562614440918,0.3601112365722656,0.0332412831485271,-0.5540454387664795,-0.0227467268705368,-0.001336200395599,0.0,0.0,-0.5056279301643372,-0.0080710649490356
-0.0478148460388183,0.3475215435028076,0.0340131819248199,-0.5595445036888123,-0.0226264335215091,0.0024059251882135,0.0,0.0,0.1652843952178955,0.7489583492279053
-0.0473968498408794,0.3356061577796936,0.0430141985416412,-0.5295902490615845,-0.0238222703337669,-0.0239168591797351,0.0,0.0,-0.223235011100769,-0.8243158459663391
-0.0470304489135742,0.323575496673584,0.0361060015857219,-0.5346883535385132,-0.0232945885509252,0.0105535220354795,0.0,0.0,0.4369058609008789,0.1912087202072143
-0.0465318672358989,0.3122872412204742,0.048659935593605,-0.5016805529594421,-0.0221076551824808,0.0237386133521795,0.0,0.0,-0.4752267599105835,-0.4294478893280029
-0.046022605150938,0.3008752763271332,0.0495744347572326,-0.507179856300354,-0.0207720976322889,0.026711132377386,0.0,0.0,0.0058116912841796,-0.4209060072898865
-0.0455280318856239,0.28980553150177,0.0481201037764549,-0.4919734001159668,-0.0194454714655876,0.0265325605869293,0.0,0.0,0.0921895503997802,-0.295339822769165
-0.0449551567435264,0.2794657349586487,0.0555463023483753,-0.4595246911048889,-0.0177304781973361,0.0342995747923851,0.0,0.0,-0.442371666431427,-0.600604772567749
-0.044420339167118,0.2690033316612243,0.0503694340586662,-0.4649604260921478,-0.0146547416225075,0.061514813452959,0.0,0.0,-0.2443088293075561,0.4107003211975097
-0.0438737869262695,0.2584173381328583,0.0514191463589668,-0.4704605340957641,-0.0114681748673319,0.0637315735220909,0.0,0.0,0.0373405218124389,0.2717337608337402
-0.0432558059692382,0.248364046216011,0.0582137294113636,-0.4467915892601013,-0.0079271607100963,0.070820078253746,0.0,0.0,-0.4311954975128174,-0.6674113869667053
-0.042683221399784,0.2381927520036697,0.0521140471100807,-0.4520392119884491,-0.0028483076021075,0.1015771850943565,0.0,0.0,-0.3833491802215576,0.7702049016952515
-0.0420457832515239,0.2279033064842224,0.0598566643893718,-0.4573076069355011,0.0009931031381711,0.0768278911709785,0.0,0.0,-0.3024244308471679,0.1743371486663818
-0.0413956642150878,0.2174902558326721,0.0610307976603508,-0.4628082811832428,0.0049095097929239,0.0783281102776527,0.0,0.0,0.3209325075149536,0.1896499395370483
-0.0408286079764366,0.2076742202043533,0.0531091168522834,-0.4362825751304626,0.0084609119221568,0.0710281133651733,0.0,0.0,0.3357781171798706,0.0348973274230957
-0.0403738990426063,0.1983682513236999,0.0423877798020839,-0.4136187136173248,0.0115076852962374,0.0609354265034198,0.0,0.0,0.2444515228271484,0.4511958360671997
-0.0398324020206928,0.189751997590065,0.0506299622356891,-0.3829770982265472,0.0149736069142818,0.0693186074495315,0.0,0.0,0.2248388528823852,0.0295723676681518
-0.0392363555729389,0.1814234852790832,0.0558411590754985,-0.370199978351593,0.018692186102271,0.0743714198470115,0.0,0.0,-0.2420535683631897,0.40704345703125
-0.0386268608272075,0.1729713827371597,0.0571520812809467,-0.3757006525993347,0.0224454402923584,0.0750649720430374,0.0,0.0,0.2069929838180542,-0.002406358718872
-0.0380331054329872,0.1652453243732452,0.0556244067847728,-0.3434389531612396,0.0261486787348985,0.074065014719963,0.0,0.0,-0.275768518447876,-0.5302130579948425
-0.0374576561152935,0.1574006825685501,0.0529573261737823,-0.3487362265586853,0.0306762494146823,0.0905515104532241,0.0,0.0,-0.287565529346466,-0.5948200225830078
-0.0369093902409076,0.1494308859109878,0.0491838566958904,-0.354340523481369,0.0362505204975605,0.1114853844046592,0.0,0.0,-0.5023102164268494,0.8714349269866943
-0.0362791046500206,0.1413499861955642,0.0591109618544578,-0.3592483699321747,0.0401178859174251,0.0773472040891647,0.0,0.0,-0.0259922742843627,-0.1185119152069091
-0.0356346145272254,0.1331456452608108,0.0605356693267822,-0.3647491335868835,0.0439861044287681,0.0773645192384719,0.0,0.0,0.075907826423645,-0.2236779928207397
-0.0349364280700683,0.1252686083316803,0.0656649321317672,-0.3502174913883209,0.0480920486152172,0.0821186378598213,0.0,0.0,0.238214373588562,-0.5199906229972839
-0.0343871116638183,0.1179531216621398,0.0499674268066883,-0.3253003060817718,0.053007960319519,0.0983180031180381,0.0,0.0,-0.0236179232597351,-0.2436052560806274
-0.033823013305664,0.1105142459273338,0.0514492094516754,-0.3308016955852508,0.0579080507159233,0.0980018675327301,0.0,0.0,-0.2945144176483154,0.2577769756317138
-0.0332442298531532,0.1029518470168113,0.0529481545090675,-0.3363030850887298,0.0627874135971069,0.0975874215364456,0.0,0.0,0.1758955717086792,0.3772321939468384
-0.0326558127999305,0.095836266875267,0.0538403689861297,-0.3164686560630798,0.0677269324660301,0.0987905785441398,0.0,0.0,0.2975915670394897,0.859443187713623
-0.0318862907588481,0.0890306830406189,0.0736109092831611,-0.3026228547096252,0.0710310637950897,0.0660827830433845,0.0,0.0,-0.0012536644935607,0.6293326616287231
-0.0310441013425588,0.0821104347705841,0.0823851376771926,-0.3076551854610443,0.0728450044989585,0.036279022693634,0.0,0.0,0.1079354286193847,-0.922050952911377
-0.0302794463932514,0.075878769159317,0.0728121399879455,-0.2771433889865875,0.0764568224549293,0.0722367167472839,0.0,0.0,-0.3340258002281189,0.5579116344451904
