x_pos,y_pos,x_vel,y_vel,angle,ang_vel,leg_1,leg_2,main_booster,lat_booster
-0.0016513824230059,1.40291428565979,-0.1674737185239792,-0.355814665555954,0.002086886903271,0.0411900468170642,0.0,0.0,0.9042012825282542,0.805896670425675
-0.0033048628829419,1.3950154781341553,-0.1661692857742309,-0.3510618209838867,0.0029010707512497,0.0162858869880437,0.0,0.0,-0.6031734010286318,-0.7396619106299833
-0.0051337243057787,1.3864002227783203,-0.1850813776254654,-0.3829060792922973,0.0050688064657151,0.0433588437736034,0.0,0.0,0.7789689025343596,-0.924672037341181
-0.0073116300627589,1.3778772354125977,-0.221783235669136,-0.3788171112537384,0.0090173622593283,0.078978382050991,0.0,0.0,0.2662720287196634,0.9663259476893644
-0.0094346050173044,1.3693994283676147,-0.2146240174770355,-0.3768090903759002,0.0113182673230767,0.0460223779082298,0.0,0.0,0.8899207167905148,-0.6146989469425428
-0.0115771293640136,1.3611444234848022,-0.2184886038303375,-0.3669228851795196,0.0155036877840757,0.0837163105607032,0.0,0.0,-0.2957616084399204,0.5770093242112494
-0.013808918185532,1.3521803617477417,-0.2264775335788726,-0.3984359502792358,0.0187742356210947,0.0654166862368583,0.0,0.0,0.5009331141182756,0.8422153968996362
-0.015966510400176,1.3433966636657717,-0.2178020030260086,-0.390419453382492,0.0207911375910043,0.0403419807553291,0.0,0.0,-0.4695628088560373,-0.7315711841061169
-0.0183167457580566,1.3339085578918457,-0.2387342900037765,-0.4217401444911957,0.0244586709886789,0.073357418179512,0.0,0.0,-0.3169055801416531,0.6812035776671357
-0.0207477565854787,1.3237171173095703,-0.2456141412258148,-0.4530035555362701,0.0269433408975601,0.0496977940201759,0.0,0.0,0.6983653320189056,0.7051135444990114
-0.0231777187436819,1.3137383460998535,-0.244484856724739,-0.4435257911682129,0.0284120049327611,0.0293760504573583,0.0,0.0,0.6072014088335833,0.7324953439396032
-0.0256239883601665,1.3038240671157837,-0.2449534684419632,-0.4406425654888153,0.0287383124232292,0.0065270303748548,0.0,0.0,0.4977387081762505,-0.7711935467583065
-0.0281533244997262,1.2941573858261108,-0.2551892399787903,-0.4296766817569732,0.0309698786586523,0.0446354821324348,0.0,0.0,-0.0805526941098739,0.5278511626961597
-0.0307717323303222,1.2837777137756348,-0.2630655765533447,-0.4613445103168487,0.0321761816740036,0.0241283141076564,0.0,0.0,0.4589857090687734,-0.8358187428798179
-0.0334755890071392,1.273791790008545,-0.2736209332942962,-0.443893551826477,0.0353763476014137,0.0640089586377143,0.0,0.0,-0.2989408755961709,-0.5333071702153529
-0.0363498702645301,1.2630877494812012,-0.2916711866855621,-0.4758479297161102,0.0395731069147586,0.0839427858591079,0.0,0.0,-0.889559419626661,0.7888544810960517
-0.0392843261361122,1.2516872882843018,-0.2958723306655884,-0.5067487359046936,0.0419703461229801,0.0479493401944637,0.0,0.0,-0.7216337458727369,0.6035544698728881
-0.0422963127493858,1.2395753860473633,-0.3022484481334686,-0.5383352041244507,0.0430086702108383,0.0207682661712169,0.0,0.0,0.9709387170602556,-0.7801011496789442
-0.0454222671687603,1.228200078010559,-0.3156180083751678,-0.5056588649749756,0.0460046902298927,0.0599255450069904,0.0,0.0,-0.1689980596495881,-0.5545580067126805
-0.0487347617745399,1.2161108255386353,-0.335643857717514,-0.5374391078948975,0.0503607094287872,0.0871278792619705,0.0,0.0,0.4427679215863058,0.8135937833779677
-0.0520283691585063,1.2043156623840332,-0.3324158191680908,-0.5243337154388428,0.053383145481348,0.0604541823267936,0.0,0.0,-0.8043490702429146,-0.6071340717011904
-0.0555060394108295,1.191803216934204,-0.3521147966384887,-0.5562700629234314,0.0576943308115005,0.0862315222620964,0.0,0.0,-0.3591215757817774,0.7909416068898807
-0.0590449348092079,1.1785863637924194,-0.3564144372940063,-0.5875145792961121,0.0601927414536476,0.0499725379049778,0.0,0.0,0.697244772443685,-0.6522204344581936
-0.0627139061689376,1.1651349067687988,-0.3710192441940307,-0.5980165004730225,0.0642709136009216,0.0815709456801414,0.0,0.0,-0.4772874258945272,-0.8375305956649215
-0.0666021332144737,1.150968074798584,-0.3951112627983093,-0.6299237012863159,0.0705010965466499,0.1246147155761718,0.0,0.0,0.9614659510240692,-0.7473778637130979
-0.0709316283464431,1.1372989416122437,-0.4403961598873138,-0.6078848242759705,0.0778688415884971,0.147354856133461,0.0,0.0,0.617896300312117,-0.9608413655263864
-0.0755257606506347,1.1239821910858154,-0.4688695073127746,-0.5923768877983093,0.0872412845492363,0.1874485313892364,0.0,0.0,0.9164110642072868,-0.518116357364597
-0.0805415138602256,1.1113662719726562,-0.5116794109344482,-0.5613342523574829,0.0972513258457183,0.2002012431621551,0.0,0.0,-0.1940517887116564,-0.7161486172665794
-0.0857637375593185,1.098037600517273,-0.5341331362724304,-0.593204140663147,0.1090774461627006,0.2365222722291946,0.0,0.0,-0.2809809735396142,-0.7872467461144412
-0.0911870971322059,1.0839874744415283,-0.5559502243995667,-0.6254969835281372,0.1226081699132919,0.2706144452095032,0.0,0.0,0.4146182953946795,0.746093168348656
-0.0967608466744422,1.070331335067749,-0.5695708990097046,-0.6079913973808289,0.1347491592168808,0.2428194284439087,0.0,0.0,0.2815935611724853,0.9991074800491332
-0.102508544921875,1.056467890739441,-0.5849987864494324,-0.6171071529388428,0.1449489444494247,0.2039955556392669,0.0,0.0,0.4678729772567749,0.9910327196121216
-0.1085027679800987,1.0429607629776,-0.6076520085334778,-0.601141631603241,0.153166189789772,0.1643450558185577,0.0,0.0,0.6598289012908936,0.9875913858413696
-0.1146824806928634,1.0292738676071167,-0.6242039203643799,-0.6089593172073364,0.1593953818082809,0.1245836243033409,0.0,0.0,0.6062208414077759,0.9987738132476808
-0.1210002899169921,1.0158056020736694,-0.6360898613929749,-0.5990592241287231,0.1637119650840759,0.0863315165042877,0.0,0.0,0.5744024515151978,0.999885082244873
-0.1274754554033279,1.0027257204055786,-0.6499072909355164,-0.5815960764884949,0.1661093533039093,0.0479477122426033,0.0,0.0,0.5678839683532715,0.9987286329269408
-0.1341077834367752,0.989582657814026,-0.6636734008789062,-0.5841904878616333,0.1665485054254531,0.0087831644341349,0.0,0.0,0.3140168190002441,0.9948749542236328
-0.1408650428056717,0.9766608476638794,-0.6742571592330933,-0.5741351842880249,0.1650712490081787,-0.0295451674610376,0.0,0.0,0.3804483413696289,0.9931790828704834
-0.1478352546691894,0.964091658592224,-0.6935858130455017,-0.5582500696182251,0.1616430580615997,-0.0685638487339019,0.0,0.0,0.3466440439224243,0.9978063106536864
-0.1549164801836013,0.9515732526779176,-0.7027811408042908,-0.5558088421821594,0.1562962532043457,-0.1069361940026283,0.0,0.0,0.1873652935028076,0.9988337755203248
-0.1622326821088791,0.9391798377037048,-0.7243238091468811,-0.550065815448761,0.1490129381418228,-0.1456663310527801,0.0,0.0,0.155165433883667,0.9928748607635498
-0.1695590019226074,0.9266584515571594,-0.7233994007110596,-0.5556104779243469,0.1398056894540786,-0.1841449588537216,0.0,0.0,-0.0957950353622436,0.999840259552002
-0.176927849650383,0.9134368300437928,-0.7253885269165039,-0.5865959525108337,0.1283529847860336,-0.2290540039539337,0.0,0.0,-0.3712223172187805,0.9998881816864014
-0.1843393296003341,0.8995226621627808,-0.7273672223091125,-0.6172731518745422,0.1146464124321937,-0.2741315960884094,0.0,0.0,-0.3080136775970459,0.9998952150344848
-0.1918103247880935,0.8849024176597595,-0.7315004467964172,-0.6486691832542419,0.0991573333740234,-0.3097815215587616,0.0,0.0,-0.3111481070518493,0.9996156692504884
-0.1993291825056076,0.8695780634880066,-0.7341738939285278,-0.6799978017807007,0.0816021412611007,-0.3511037528514862,0.0,0.0,-0.5016680955886841,0.9998054504394532
-0.2068935334682464,0.8535534739494324,-0.7365638613700867,-0.7112346291542053,0.0619327053427696,-0.3933891654014587,0.0,0.0,0.0852569341659545,0.9999561309814452
-0.2146337479352951,0.8376544713973999,-0.7522166967391968,-0.7058674097061157,0.0403803661465644,-0.4310469627380371,0.0,0.0,0.0978846549987793,0.9999547004699708
-0.2225531041622162,0.8218441605567932,-0.7682080864906311,-0.7022069096565247,0.0169506594538688,-0.4685944020748138,0.0,0.0,0.0756547451019287,0.9999356269836426
-0.2305459082126617,0.8058268427848816,-0.7736251950263977,-0.7117761373519897,-0.0083754630759358,-0.5065228939056396,0.0,0.0,-0.2751532793045044,0.999964714050293
-0.2385703027248382,0.789107620716095,-0.7743828892707825,-0.7434727549552917,-0.0360747464001178,-0.5539860725402832,0.0,0.0,0.545759916305542,0.9999382495880128
-0.2466804087162017,0.7727278470993042,-0.7810076475143433,-0.7289742231369019,-0.0657289251685142,-0.5930839776992798,0.0,0.0,0.4400317668914795,0.9997068643569946
-0.2547042965888977,0.7562062740325928,-0.7706048488616943,-0.7359905242919922,-0.0971992686390876,-0.6294073462486267,0.0,0.0,0.6011359691619873,0.9996774196624756
-0.2626961171627044,0.7401396632194519,-0.7656072378158569,-0.7165972590446472,-0.130556046962738,-0.6671358346939087,0.0,0.0,0.6704367399215698,0.9870271682739258
-0.2705026268959045,0.724058985710144,-0.7455530762672424,-0.7181376218795776,-0.165573850274086,-0.7003567814826965,0.0,0.0,0.5519726276397705,0.9977312088012696
-0.2783823907375335,0.7079415321350098,-0.751106858253479,-0.7208659648895264,-0.2025836557149887,-0.740196943283081,0.0,0.0,0.202268362045288,0.9975286722183228
-0.2861086428165436,0.6919452548027039,-0.7341768741607666,-0.7166768908500671,-0.2414775192737579,-0.7778781056404114,0.0,0.0,0.0990128517150878,0.9980422258377076
-0.2936623990535736,0.6758489012718201,-0.715401828289032,-0.722481906414032,-0.2823050022125244,-0.8165504336357117,0.0,0.0,0.0030289888381958,0.8122923374176025
-0.3010787963867187,0.6597430109977722,-0.7006723284721375,-0.7243025302886963,-0.3246488571166992,-0.8468785285949707,0.0,0.0,-0.3050211668014526,0.8590888977050781
-0.3085510730743408,0.6429287791252136,-0.7055193185806274,-0.7572749257087708,-0.3683944344520569,-0.8749130368232727,0.0,0.0,0.070686936378479,0.8517301082611084
-0.3159509599208832,0.6257001757621765,-0.6974529027938843,-0.777330219745636,-0.4137701094150543,-0.9075153470039368,0.0,0.0,0.3319346904754638,-0.8802266120910645
-0.3233782649040222,0.6086629033088684,-0.7027472257614136,-0.7695436477661133,-0.457254558801651,-0.8696894645690918,0.0,0.0,-0.0983850955963134,-0.9909771680831908
-0.330967903137207,0.5909749269485474,-0.7214072942733765,-0.7990401387214661,-0.4989630877971649,-0.834170937538147,0.0,0.0,0.4991638660430908,-0.9735432267189026
-0.338440477848053,0.5733660459518433,-0.7124729156494141,-0.7957947254180908,-0.5384630560874939,-0.7900002598762512,0.0,0.0,0.4695477485656738,-0.9996324777603148
-0.3458952903747558,0.555569589138031,-0.7134146094322205,-0.8042132258415222,-0.575707197189331,-0.7448827624320984,0.0,0.0,0.8256996870040894,-0.3976304531097412
-0.3532090783119201,0.5380111336708069,-0.6996639370918274,-0.7946143746376038,-0.6134445071220398,-0.7547478079795837,0.0,0.0,0.4485056400299072,-0.999910056591034
-0.3602291941642761,0.5207339525222778,-0.6730201840400696,-0.7819499373435974,-0.6488468647003174,-0.7080469727516174,0.0,0.0,0.9289714097976683,-0.9996742010116576
-0.3671198487281799,0.5031301379203796,-0.6627696752548218,-0.7960949540138245,-0.6817988753318787,-0.6590405702590942,0.0,0.0,0.8456640243530273,-0.9999107718467712
-0.3735310435295105,0.4859861731529236,-0.6173604726791382,-0.7751718759536743,-0.7123445272445679,-0.6109131574630737,0.0,0.0,0.9476568698883056,-0.9996876120567322
-0.3798210024833679,0.4689659476280212,-0.6074952483177185,-0.7691553831100464,-0.7407020330429077,-0.5671514868736267,0.0,0.0,0.9521870613098145,-0.9996041655540466
-0.3858020901679992,0.4523298740386963,-0.5787780284881592,-0.7514447569847107,-0.7668336033821106,-0.5226311087608337,0.0,0.0,0.8749622106552124,-0.9997658133506776
-0.3914040029048919,0.4357918798923492,-0.5430919528007507,-0.7462412714958191,-0.7905170917510986,-0.4736703336238861,0.0,0.0,0.9858849048614502,-0.9996424913406372
-0.3965347707271576,0.4198904037475586,-0.4979170262813568,-0.7171486616134644,-0.8120013475418091,-0.4296855926513672,0.0,0.0,0.9914791584014891,-0.9989426732063292
-0.401223748922348,0.4039758741855621,-0.4558209478855133,-0.7166560888290405,-0.8309262990951538,-0.378498762845993,0.0,0.0,0.9887697696685792,-0.9998909831047058
-0.4057251811027527,0.3879580795764923,-0.4389260709285736,-0.7202188968658447,-0.8474841713905334,-0.3311572074890136,0.0,0.0,0.98302960395813,-0.9998018741607666
-0.4100009799003601,0.3715955317020416,-0.4182542860507965,-0.7343528866767883,-0.8614882230758667,-0.2800813019275665,0.0,0.0,0.9688425064086914,-0.9998628497123718
-0.4141183495521545,0.3550457954406738,-0.4041206836700439,-0.7415199875831604,-0.8730998635292053,-0.2322332113981247,0.0,0.0,0.9853432178497314,-0.9999380111694336
-0.417618840932846,0.3388099372386932,-0.3441342711448669,-0.72634357213974,-0.8822363615036011,-0.1827303022146225,0.0,0.0,0.9937256574630736,-0.999969482421875
-0.4203921854496002,0.322771668434143,-0.2731647193431854,-0.7162044048309326,-0.8887327313423157,-0.1299271136522293,0.0,0.0,0.998032808303833,-0.9998841285705566
-0.4225881993770599,0.3072259426116943,-0.2169305980205536,-0.693120539188385,-0.892920732498169,-0.0837601125240325,0.0,0.0,0.9989091157913208,-0.9999452829360962
-0.4246813654899597,0.2916300892829895,-0.2080888301134109,-0.6941689252853394,-0.8948606252670288,-0.0387982912361621,0.0,0.0,0.9995566606521606,-0.9988871812820436
-0.4260797500610351,0.2762515246868133,-0.1402416974306106,-0.68315589427948,-0.8942175507545471,0.0128611158579587,0.0,0.0,0.9926695823669434,-0.9922942519187928
-0.4271056056022644,0.2610589861869812,-0.1044597029685974,-0.6736716628074646,-0.8912706971168518,0.058938693255186,0.0,0.0,0.9969029426574708,-0.9976515173912048
-0.4276169240474701,0.2461035549640655,-0.0545562803745269,-0.66187983751297,-0.8859156370162964,0.1071009486913681,0.0,0.0,0.999482274055481,-0.998489499092102
-0.4275538921356201,0.2313494831323623,0.001260771183297,-0.6516446471214294,-0.8780732154846191,0.1568489968776703,0.0,0.0,0.9998171329498292,-0.9647200703620912
-0.4269410073757171,0.2165096402168274,0.0545012429356575,-0.6541517376899719,-0.8676431179046631,0.2086015939712524,0.0,0.0,0.99908709526062,-0.982965350151062
-0.4260586202144623,0.2014040797948837,0.0797161757946014,-0.6647353768348694,-0.8547266721725464,0.258328765630722,0.0,0.0,0.999885320663452,-0.9858443737030028
-0.4247876107692718,0.1860086321830749,0.116685964167118,-0.6763789653778076,-0.8391894102096558,0.3107448816299438,0.0,0.0,0.9998948574066162,-0.966611623764038
-0.4229216575622558,0.1704596132040023,0.1741406768560409,-0.6819735169410706,-0.8209555745124817,0.3646768033504486,0.0,0.0,0.9998539686203004,-0.9580658078193665
-0.420628160238266,0.154561772942543,0.2147890329360962,-0.696342408657074,-0.8000732064247131,0.4176470339298248,1.0,0.0,0.999812126159668,-0.9685719013214112
-0.4175991415977478,0.1404863148927688,0.2776769995689392,-0.6105048060417175,-0.7610769271850586,0.7869357466697693,0.0,0.0,0.999908208847046,-0.999015212059021
-0.4136169850826263,0.1274801790714264,0.3530513346195221,-0.5511052012443542,-0.7009444832801819,1.2030181884765625,0.0,0.0,0.9999394416809082,-0.9791601896286012
-0.4087252020835876,0.115254670381546,0.4240528643131256,-0.5094347596168518,-0.6194199323654175,1.6304069757461548,0.0,0.0,0.9999372959136964,-0.3455632328987121
-0.4032717645168304,0.103194959461689,0.4643734395503998,-0.5009947419166565,-0.5239964127540588,1.9086641073226929,0.0,0.0,0.9992885589599608,0.5050437450408936
-0.3974192142486572,0.0914677008986473,0.4972840845584869,-0.4907888770103454,-0.425903707742691,1.962158441543579,0.0,0.0,1.0,0.5985684394836426
-0.3909603655338287,0.0804581269621849,0.5559715032577515,-0.4652473032474518,-0.3301904499530792,1.91433584690094,0.0,1.0,1.0,0.473215103149414
-0.384287416934967,0.0701106637716293,0.5833984613418579,-0.4424151480197906,-0.2439990192651748,1.7231638431549072,0.0,1.0,1.0,-0.3938536047935486
-0.3775307536125183,0.0607667081058025,0.6002596616744995,-0.4024308919906616,-0.1660100370645523,1.5678602457046509,0.0,1.0,1.0,-0.7966079115867615
-0.3706724047660827,0.0554353334009647,0.6895862817764282,-0.2018606066703796,-0.1593357175588607,-0.2016663253307342,0.0,1.0,1.0,-0.7966079115867615
