x_pos,y_pos,x_vel,y_vel,angle,ang_vel,leg_1,leg_2,main_booster,lat_booster
-0.0016036033630371,1.4034106731414795,-0.1620436608791351,-0.3337554037570953,0.0015053207753226,0.0296749230474233,0.0,0.0,0.1357313747784929,0.7747820745316529
-0.003183078719303,1.396182656288147,-0.157580941915512,-0.321248710155487,0.0011480145622044,-0.00714618479833,0.0,0.0,0.4671755229038443,-0.6301206823297295
-0.0047561647370457,1.3892736434936523,-0.158153086900711,-0.3070617318153381,0.0019867038354277,0.0167751368135213,0.0,0.0,-0.7130811035741589,0.7419097360948322
-0.006351756863296,1.3821486234664917,-0.158849760890007,-0.3166722953319549,0.0012897776905447,-0.0139400586485862,0.0,0.0,0.5438308124454765,-0.8796518875410262
-0.0079469680786132,1.375726580619812,-0.1604184955358505,-0.2854249179363251,0.0021720048971474,0.0176461078226566,0.0,0.0,0.227465999555797,-0.9683418368817256
-0.0095606800168752,1.3696945905685425,-0.163870558142662,-0.2680957019329071,0.0046425680629909,0.0494161620736122,0.0,0.0,0.5028362491987575,-0.7450651639132657
-0.0113142970949411,1.3642359972000122,-0.1789099872112274,-0.2426126301288604,0.0081554288044571,0.0702635422348976,0.0,0.0,0.4642023767116254,0.8757542889363858
-0.0129052158445119,1.359429121017456,-0.1606950312852859,-0.2136579006910324,0.0097365099936723,0.0316247008740901,0.0,0.0,-0.6161829203841271,-0.9245087283985816
-0.0146164894104003,1.3544169664382937,-0.1742019802331924,-0.2227808088064193,0.0127771133556962,0.0608177073299884,0.0,0.0,0.7805373293281341,-0.8133234469029433
-0.0164435394108295,1.3503693342208862,-0.1869833618402481,-0.1799411624670028,0.0170078203082084,0.0846215784549713,0.0,0.0,-0.4880311961858878,-0.9616452114504782
-0.0183709152042865,1.346106767654419,-0.1982266157865524,-0.1895185261964798,0.0224446225911378,0.1087459772825241,0.0,0.0,-0.7258242074500802,0.6847824983433479
-0.0202675815671682,1.3416311740875244,-0.1931898146867752,-0.1989701688289642,0.0259289406239986,0.0696927607059478,0.0,0.0,0.5545438612202311,-0.8759833648298625
-0.022136878222227,1.3379359245300293,-0.1919607818126678,-0.1643292754888534,0.0309113934636116,0.0996576026082038,0.0,0.0,0.8826815712833913,0.8058983575825635
-0.0238871574401855,1.3346328735351562,-0.1781753152608871,-0.1468718200922012,0.0340312458574771,0.0624027624726295,0.0,0.0,-0.424727402360243,-0.9249857458561764
-0.025705624371767,1.331122636795044,-0.1859559714794159,-0.1561117321252823,0.0380974635481834,0.0813317224383354,0.0,0.0,-0.0956125998543191,-0.6826016631147134
-0.0275741573423147,1.327388048171997,-0.1916163861751556,-0.1661112308502197,0.0428055003285408,0.094169333577156,0.0,0.0,-0.7063897233920684,-0.8065830906399343
-0.0294925682246685,1.3234457969665527,-0.1973583251237869,-0.1753753870725631,0.0482729636132717,0.1093587875366211,0.0,0.0,0.8223834313987297,0.8755397676006818
-0.0311828609555959,1.3199191093444824,-0.1726353466510772,-0.156864508986473,0.051846794784069,0.0714829117059707,0.0,0.0,0.7009365737560871,-0.8306483219138598
-0.0328599922358989,1.317427635192871,-0.1727005094289779,-0.1109124347567558,0.05678416416049,0.0987560898065567,0.0,0.0,0.1844456565775829,0.6202053917611404
-0.0345586761832237,1.3153280019760132,-0.1729922890663147,-0.093438483774662,0.0598879493772983,0.0620811581611633,0.0,0.0,0.5961419695600094,0.6226126379165927
-0.0360957160592079,1.3141227960586548,-0.1554047167301178,-0.0536332949995994,0.061566311866045,0.0335703939199447,0.0,0.0,0.8093045491626671,0.7067950145352333
-0.0375647544860839,1.3134311437606812,-0.1467051655054092,-0.0307338889688253,0.0613656602799892,-0.0040132580325007,0.0,0.0,0.948856257012798,0.9188358868397928
-0.0387989990413188,1.3135075569152832,-0.1211693435907363,0.0034920601174235,0.0591442100703716,-0.04443334415555,0.0,0.0,0.5896000902206135,-0.8529378827494042
-0.0400045402348041,1.3138108253479004,-0.1196233630180358,0.0135094225406646,0.0582198910415172,-0.0184880401939153,0.0,0.0,-0.1127442447302504,-0.7809486839856069
-0.0412433631718158,1.3138952255249023,-0.1243556961417198,0.0037309646140784,0.0586920864880085,0.0094447825103998,0.0,0.0,-0.7872925974167191,-0.7702129094330061
-0.0425093658268451,1.3137412071228027,-0.1284680664539337,-0.0069125364534556,0.0605395957827568,0.0369501821696758,0.0,0.0,-0.5386383326250612,0.7211024546416674
-0.0436661727726459,1.313382863998413,-0.1155488267540931,-0.0159230101853609,0.0604093968868255,-0.0026038505602627,0.0,0.0,-0.1171618082654375,0.8332369048331437
-0.0447155013680458,1.31282377243042,-0.1029537320137023,-0.0247789230197668,0.0584422796964645,-0.0393421873450279,0.0,0.0,-0.5776670448670205,-0.6541890568483297
-0.0457678809762001,1.3120501041412354,-0.1043065413832664,-0.034347902983427,0.0575180165469646,-0.018485065549612,0.0,0.0,0.942839854595254,-0.939533508138826
-0.0468908324837684,1.3119086027145386,-0.1126463860273361,-0.0063042663969099,0.0578716844320297,0.007073457352817,0.0,0.0,0.6645802658289124,0.6501203017159441
-0.0479243285953998,1.3128437995910645,-0.1018878445029258,0.0416187532246112,0.0564299784600734,-0.0288342330604791,0.0,0.0,-0.2184745899675899,-0.9329514873033504
-0.0489702224731445,1.3135521411895752,-0.1047058552503585,0.0314829871058464,0.0565361939370632,0.0021244052331894,0.0,0.0,-0.7198871874372823,-0.660991610666442
-0.0500022880733013,1.3140476942062378,-0.1042696014046669,0.0219766553491354,0.0575845390558242,0.0209670774638652,0.0,0.0,0.0626245439700456,0.6416201622914424
-0.050966739654541,1.3146708011627195,-0.0956008285284042,0.0277256201952695,0.0567477941513061,-0.0167346484959125,0.0,0.0,0.5218932478349652,-0.8929138139452355
-0.0519387237727642,1.3159420490264893,-0.0976102501153945,0.0564919039607048,0.0571520663797855,0.0080855824053287,0.0,0.0,-0.1384063469820771,-0.7950643222845768
-0.0528904907405376,1.317000150680542,-0.0965711623430252,0.0469641350209713,0.0585307925939559,0.0275748576968908,0.0,0.0,-0.482894182454135,0.6698195583233336
-0.0537077896296978,1.3178448677062988,-0.0812744945287704,0.0375594124197959,0.0580746866762638,-0.0091221164911985,0.0,0.0,-0.9867091711190484,0.7570919990983143
-0.0543760284781456,1.3184866905212402,-0.0641735345125198,0.028626799583435,0.0554532930254936,-0.0524277314543724,0.0,0.0,0.6333150262759215,0.9430309548451958
-0.0549724586308002,1.3201751708984375,-0.0544508174061775,0.07522514462471,0.0503325350582599,-0.1024152263998985,0.0,0.0,-0.6919335294506237,0.9564928523201448
-0.0554001815617084,0.0,-0.035005047917366,0.06610968708992,0.0426547639071941,-0.1535557508468628,0.0,0.0,-0.3962788986575944,-0.6830184492360228
-0.0558005347847938,1.322927474975586,-0.0333132743835449,0.0566321425139904,0.0360108725726604,-0.132877692580223,0.0,0.0,-0.643593966960907,-0.926366090774536
-0.0561664588749408,1.3239786624908447,-0.0307783540338277,0.0468582548201084,0.0302667114883661,-0.1148831248283386,0.0,0.0,-0.7843888998031616,-0.9544628858566284
-0.0565014854073524,1.3248029947280884,-0.0287226438522338,0.0367244407534599,0.0255498439073562,-0.0943373665213584,0.0,0.0,-0.8485537767410278,-0.9627075791358948
-0.0568046569824218,1.3254090547561646,-0.026590708643198,0.0269969534128904,0.0218659061938524,-0.0736786872148513,0.0,0.0,-0.939906656742096,-0.9610590934753418
-0.0570923797786235,1.3257871866226196,-0.0265302564948797,0.0168386697769165,0.0196569450199604,-0.0441794581711292,0.0,0.0,-0.9543572664260864,-0.9524754881858826
-0.0573518760502338,1.325939655303955,-0.0249138157814741,0.0067898598499596,0.0186322517693042,-0.0204939097166061,0.0,0.0,-0.944000005722046,-0.8479185104370117
-0.0575729385018348,1.325871825218201,-0.0220342092216014,-0.0030128140933811,0.0185575280338525,-0.0014944860013201,0.0,0.0,-0.9628106951713562,-0.5309168100357056
-0.0577444061636924,1.3255943059921265,-0.0177641045302152,-0.0123392334207892,0.019170057028532,0.0122505016624927,0.0,0.0,-0.9650090336799622,-0.517045259475708
-0.0578653328120708,1.325106143951416,-0.0134172607213258,-0.0217188876122236,0.0204725041985511,0.0260490272194147,0.0,0.0,-0.9782156944274902,0.0977044105529785
-0.0578851699829101,1.3244038820266724,-0.0027231045532971,-0.0312213208526372,0.0212113503366708,0.0147769246250391,0.0,0.0,-0.9700106978416444,-0.1687332987785339
-0.057802964001894,1.323487639427185,0.0080423010513186,-0.0407236218452453,0.0213876795023679,0.0035265125334262,0.0,0.0,-0.9514527916908264,0.1823220252990722
-0.0576181411743164,1.322357416152954,0.0188728813081979,-0.0502258725464344,0.0210027582943439,-0.0076984530314803,0.0,0.0,-0.9765117168426514,-0.0526902675628662
-0.0573300346732139,1.3210132122039795,0.029762988910079,-0.0597281567752361,0.0200580526143312,-0.0188941545784473,0.0,0.0,-0.9620192646980286,-0.4520592093467712
-0.0569382682442665,1.3194551467895508,0.0407074056565761,-0.0692305564880371,0.0185552332550287,-0.030056620016694,0.0,0.0,-0.9671542048454284,-0.6105890274047852
-0.0564785003662109,1.317679762840271,0.0471423454582691,-0.0788918286561966,0.0174100901931524,-0.0229028221219778,0.0,0.0,-0.962409257888794,-0.7617425322532654
-0.0559837333858013,1.315685153007507,0.0494227036833763,-0.0886469036340713,0.0174661744385957,0.0011214616242796,0.0,0.0,-0.9703413844108582,0.3048527240753174
-0.0553836822509765,1.3134765625,0.0605021491646766,-0.0981493666768074,0.0169703569263219,-0.0099165812134742,0.0,0.0,-0.9343671202659608,0.4065903425216675
-0.0546780601143837,1.311054229736328,0.0716183483600616,-0.1076518520712852,0.0159251168370246,-0.0209044534713029,0.0,0.0,-0.98219096660614,-0.2093921303749084
-0.0538664832711219,1.3084179162979126,0.0827676057815551,-0.1171544790267944,0.0143332341685891,-0.0318375080823898,0.0,0.0,-0.9859222173690796,-0.0963578224182128
-0.0529486648738384,1.305567741394043,0.093946449458599,-0.1266572922468185,0.0121976789087057,-0.042710967361927,0.0,0.0,-0.9633190035820008,-0.3577886819839477
-0.0519243255257606,1.3025037050247192,0.1051516085863113,-0.1361603736877441,0.0095216771587729,-0.0535199046134948,0.0,0.0,-0.9670080542564392,-0.4884089827537536
-0.0507930740714073,1.2992258071899414,0.1163799911737442,-0.145663782954216,0.0063087306916713,-0.0642590895295143,0.0,0.0,-0.9842485785484314,-0.9881851077079772
-0.0496169105172157,1.2957313060760498,0.1198304519057273,-0.1553114801645279,0.0041245957836508,-0.0436827205121517,0.0,0.0,-0.9062583446502686,-0.4278180599212646
-0.0483334548771381,1.2920228242874146,0.1310965865850448,-0.1648149490356445,0.0014113030629232,-0.0542660281062126,0.0,0.0,-0.9330391883850098,-0.8674372434616089
-0.0470102317631244,1.2880940437316897,0.1338770687580108,-0.1746121495962143,-0.0001243295118911,-0.0307125058025121,0.0,0.0,-0.7449921369552612,-0.771113395690918
-0.0456529632210731,1.2839518785476685,0.1359398663043975,-0.1840954422950744,-0.0003316205693408,-0.0041458299383521,0.0,0.0,-0.7297709584236145,-0.7520306706428528
-0.0442452430725097,1.27960467338562,0.1400423943996429,-0.1932073533535003,0.0003878894203808,0.0143902031704783,0.0,0.0,-0.6803245544433594,0.5449475049972534
-0.04268055036664,1.275037169456482,0.1575016975402832,-0.2029983401298523,-0.0006339454557746,-0.0204365942627191,0.0,0.0,-0.6212311387062073,-0.7887264490127563
-0.0410675033926963,1.2702651023864746,0.1613378524780273,-0.2120928615331649,-0.0006621843785978,-0.0005650302045978,0.0,0.0,-0.8255959153175354,-0.6156331896781921
-0.039402674883604,1.2652766704559326,0.1655879765748977,-0.2217124551534652,0.0002266388619318,0.0177764296531677,0.0,0.0,-0.7174625992774963,-0.1976324915885925
-0.0376296043395996,1.2600743770599363,0.1769067347049713,-0.2312157750129699,0.0006233887397684,0.0079350639134645,0.0,0.0,-0.5997430086135864,-0.1396897435188293
-0.0357481949031353,1.2546581029891968,0.1882237792015075,-0.2407190352678299,0.0005347654805518,-0.0017721658805385,0.0,0.0,-0.4700978994369507,-0.3711538910865783
-0.0337585434317588,1.2490280866622925,0.1995368599891662,-0.2502222657203674,-3.210994691471569e-05,-0.0113376323133707,0.0,0.0,-0.8482184410095215,-0.4055201411247253
-0.0316606536507606,1.2431843280792236,0.2108437716960907,-0.2597255408763885,-0.0010697786929085,-0.0207534171640872,0.0,0.0,-0.4093079566955566,-0.4209824204444885
-0.0294544212520122,1.2371265888214111,0.222142294049263,-0.2692288756370544,-0.0025703464634716,-0.0300114601850509,0.0,0.0,-0.6443010568618774,-0.755146324634552
-0.0271929744631052,1.2308473587036133,0.2267773896455764,-0.2790760397911072,-0.003193556331098,-0.0124642727896571,0.0,0.0,-0.8744151592254639,-0.4415093660354614
-0.0248232837766408,1.2243545055389404,0.2380522042512893,-0.2885794341564178,-0.0042626545764505,-0.0213819649070501,0.0,0.0,-0.9217182993888856,-0.2028486132621765
-0.0223454479128122,1.217647671699524,0.2493116855621338,-0.298082947731018,-0.0057684970088303,-0.0301168672740459,0.0,0.0,-0.714712917804718,-0.6739871501922607
-0.0198057182133197,1.210734248161316,0.2547535598278045,-0.3072652220726013,-0.0065393298864364,-0.0154166128486394,0.0,0.0,-0.787108838558197,0.3696999549865722
-0.0171579364687204,1.203607201576233,0.2659750580787658,-0.3167687654495239,-0.0077273570932447,-0.0237602964043617,0.0,0.0,-0.1852567791938781,0.0663833618164062
-0.0144022945314645,1.1962661743164062,0.2771737575531006,-0.3262724280357361,-0.0093221478164196,-0.0318956449627876,0.0,0.0,-0.8288307785987854,-0.0976666212081909
-0.01153907738626,1.188711643218994,0.2883470356464386,-0.3357762098312378,-0.0113128526136279,-0.0398142226040363,0.0,0.0,-0.720478355884552,-0.4314154982566833
-0.0085681919008493,1.180943250656128,0.2994920611381531,-0.3452801704406738,-0.0136882336810231,-0.0475077107548713,0.0,0.0,-0.472732663154602,-0.8105964064598083
-0.0055599212646484,1.1729660034179688,0.3018288016319275,-0.3545527756214142,-0.0146778160706162,-0.0197916068136692,0.0,0.0,-0.8145023584365845,-0.4977693557739258
-0.0024445534218102,1.1647751331329346,0.3129087388515472,-0.3640565574169159,-0.0160283613950014,-0.0270107295364141,0.0,0.0,-0.8295976519584656,-0.6117790341377258
0.0007363319164142,1.1563715934753418,0.3187574446201324,-0.3735000491142273,-0.0166869889944791,-0.0131727727130055,0.0,0.0,-0.2741611003875732,-0.7825716137886047
0.0039643286727368,1.1477481126785278,0.3222876489162445,-0.3832635581493377,-0.0161868128925561,0.0100034782662987,0.0,0.0,-0.5406757593154907,-0.8439297080039978
0.0072419168427586,1.1389060020446775,0.3261514902114868,-0.3929656147956848,-0.0145898405462503,0.0319392755627632,0.0,0.0,-0.8865014314651489,-0.9331817030906676
0.0105697633698582,1.1298511028289795,0.3300606906414032,-0.4024125337600708,-0.0118996836245059,0.0538031868636608,0.0,0.0,-0.8144247531890869,-0.406360387802124
0.0140031818300485,1.1205826997756958,0.3409197926521301,-0.4119166731834411,-0.0095048584043979,0.0478964485228061,0.0,0.0,-0.7351017594337463,-0.7864165306091309
0.0174791328608989,1.1111069917678833,0.3438455164432525,-0.4211162328720093,-0.0058126552030444,0.0738443732261657,0.0,0.0,-0.8418764472007751,-0.8234748244285583
0.0209978111088275,1.1014249324798584,0.3468356430530548,-0.4303130507469177,-0.0008340196800418,0.0995725318789482,0.0,0.0,-0.8427556157112122,-0.8929652571678162
0.0245648380368948,1.091532588005066,0.350482702255249,-0.4396655857563019,0.0053004678338766,0.1226897090673446,0.0,0.0,-0.8472143411636353,-0.9373258948326112
0.0281737335026264,1.0814167261123655,0.3533484637737274,-0.4496374726295471,0.012748978100717,0.14897021651268,0.0,0.0,-0.8858909010887146,-0.9753798246383668
0.0318018905818462,1.0710837841033936,0.3533583283424377,-0.4593586325645447,0.0220833849161863,0.1866879612207412,0.0,0.0,-0.8555428981781006,-0.9488420486450196
0.0354677215218544,1.0605473518371582,0.3557039499282837,-0.4684840142726898,0.0328304395079612,0.2149409353733062,0.0,0.0,-0.94392067193985,-0.967061161994934
0.03915586322546,1.0497945547103882,0.3561084866523742,-0.4782297313213348,0.0453823283314704,0.2510377764701843,0.0,0.0,-0.865363359451294,-0.9621474146842957
0.0428529754281044,1.0388329029083252,0.3548482954502105,-0.4877039194107055,0.0600643679499626,0.2936409413814544,0.0,0.0,-0.8169692754745483,-0.959106981754303
0.0465849861502647,1.027659296989441,0.3568824529647827,-0.4973359107971191,0.0762152224779129,0.3230170607566833,0.0,0.0,-0.7587264776229858,-0.9243478178977966
0.0503364577889442,1.0162732601165771,0.3569661676883697,-0.5070708394050598,0.0942205563187599,0.3601067662239074,0.0,0.0,-0.766205906867981,-0.9825607538223268
0.0540973655879497,1.0046725273132324,0.3558480143547058,-0.5169840455055237,0.114317663013935,0.4019420742988586,0.0,0.0,-0.4846580624580383,-0.8160426020622253
0.0578886978328228,0.9928495287895204,0.3573431968688965,-0.527281641960144,0.1359929889440536,0.4335065484046936,0.0,0.0,-0.5973291397094727,-0.8208402395248413
0.0616988167166709,0.9808040261268616,0.3574297726154327,-0.5376660823822021,0.159522145986557,0.4705832898616791,0.0,0.0,0.1489927768707275,-0.9171799421310424
0.0653527230024337,0.9690436720848083,0.3401830494403839,-0.5255916118621826,0.1847740560770034,0.5050383806228638,0.0,0.0,-0.0405477285385131,-0.5238944292068481
0.069065473973751,0.9570712447166444,0.3453972637653351,-0.5355361104011536,0.2108154296875,0.5208278298377991,0.0,0.0,0.2402900457382202,-0.7953089475631714
0.072802260518074,0.9452904462814332,0.3463732302188873,-0.5277157425880432,0.2384515106678009,0.5527219772338867,0.0,0.0,0.327283501625061,0.3292821645736694
0.0765968337655067,0.9342405796051024,0.3518573343753814,-0.4958266019821167,0.2665803730487823,0.5625773668289185,0.0,0.0,0.7233409881591797,0.6917303800582886
0.0802924185991287,0.924174666404724,0.3436204791069031,-0.4523259997367859,0.2932136356830597,0.5326660871505737,0.0,0.0,0.6305661201477051,0.9260339736938475
0.0840494185686111,0.9152244925498962,0.3516114950180053,-0.4028249680995941,0.3181411027908325,0.4985496997833252,0.0,0.0,0.5949201583862305,0.9434692859649658
0.087865449488163,0.9069391489028932,0.3594459891319275,-0.3732766211032867,0.3412360846996307,0.4618996083736419,0.0,0.0,0.5576385259628296,0.5698590278625488
0.0915403366088867,0.8995585441589355,0.3466618061065674,-0.3331195414066314,0.3631491959095001,0.438262403011322,0.0,0.0,0.2199320793151855,0.9657809734344482
0.0952076911926269,0.8928611874580383,0.3479045331478119,-0.30255326628685,0.3830965161323547,0.3989461064338684,0.0,0.0,0.3955622911453247,0.9731719493865968
0.0989539176225662,0.8865758180618286,0.3577501475811004,-0.2839919626712799,0.401123970746994,0.3605492413043976,0.0,0.0,0.6821944713592529,0.9780722856521606
0.1024727821350097,0.8809141516685486,0.3371140360832214,-0.2558870911598205,0.4170075356960296,0.317670613527298,0.0,0.0,0.2038244009017944,0.971848487854004
0.1058847457170486,0.875533401966095,0.3283331394195556,-0.243007406592369,0.4309337735176086,0.2785249054431915,0.0,0.0,0.6803140640258789,0.8547589778900146
0.1091689094901084,0.87074875831604,0.317238450050354,-0.2161187380552292,0.4431147277355194,0.2436189949512481,0.0,0.0,0.7057652473449707,0.9568636417388916
0.112382985651493,0.8665648102760315,0.3119812905788421,-0.1889682710170745,0.4534217119216919,0.2061395347118377,0.0,0.0,0.8691517114639282,0.7446603775024414
0.1156854629516601,0.8628548979759216,0.3218794465065002,-0.1676294207572937,0.462619811296463,0.1839623749256134,0.0,0.0,0.9095481634140016,0.6090911626815796
0.1188501343131065,0.860108494758606,0.3089189529418945,-0.1245964393019676,0.4709552228450775,0.1667083799839019,0.0,0.0,0.9551753997802734,0.8203648328781128
0.1217278465628624,0.8584981560707092,0.2816570997238159,-0.0736590176820755,0.4777357578277588,0.1356107741594314,0.0,0.0,0.9858582019805908,0.8916194438934326
0.1246324554085731,0.8572719097137451,0.2858006358146667,-0.0561212450265884,0.4829354286193847,0.1039932742714881,0.0,0.0,0.9902133941650392,0.4539635181427002
