x_pos,y_pos,x_vel,y_vel,angle,ang_vel,leg_1,leg_2,main_booster,lat_booster
-0.0015734672779217,1.4035301208496094,-0.1594090610742569,-0.3284377157688141,0.0018358186352998,0.0362192131578922,0.0,0.0,-0.0478842432561152,-0.8538208121597057
-0.003253650618717,1.3960649967193604,-0.1714136898517608,-0.3317917585372925,0.0051960833370685,0.0672123581171035,0.0,0.0,0.5630479145117728,-0.8079802556224658
-0.0048986435867846,1.389073371887207,-0.1697924435138702,-0.3107631504535675,0.0104313157498836,0.1047143340110778,0.0,0.0,0.6981800180766662,0.6909580668212119
-0.0066620828583836,1.3827545642852783,-0.1799497902393341,-0.2808679044246673,0.0140029788017272,0.0714399814605712,0.0,0.0,-0.4880781404508119,0.9724294627783824
-0.0083609577268362,1.376346468925476,-0.1711643040180206,-0.2848159074783325,0.0152598051354289,0.0251386165618896,0.0,0.0,0.5711117969931623,-0.9370770203354296
-0.0100165363401174,1.370619297027588,-0.1689282804727554,-0.2545790374279022,0.0185903161764144,0.0666163489222526,0.0,0.0,-0.832987387918092,0.6743208991464674
-0.011637401767075,1.3647992610931396,-0.1641686260700225,-0.258694052696228,0.0206465777009725,0.0411290861666202,0.0,0.0,-0.5100201468229044,-0.7664425522433469
-0.013313865289092,1.3588860034942627,-0.1708876490592956,-0.2628577947616577,0.0238549467176198,0.0641733184456825,0.0,0.0,0.7710553945682106,-0.6021714427461987
-0.0150770191103219,1.3542282581329346,-0.1807293593883514,-0.2070843279361724,0.0282222256064414,0.0873534902930259,0.0,0.0,-0.3606747536979613,-0.8087510049963275
-0.0169016830623149,1.349478840827942,-0.1885011494159698,-0.2112105935811996,0.0341946184635162,0.1194586306810379,0.0,0.0,0.8781864641842381,0.6090539482293769
-0.0185880661010742,1.345657229423523,-0.1737398654222488,-0.1699792444705963,0.0392485074698925,0.1010868921875953,0.0,0.0,-0.0473066193675617,-0.9316025666167946
-0.0203240402042865,1.34173583984375,-0.180353045463562,-0.1744749248027801,0.0459270104765892,0.1335824131965637,0.0,0.0,0.390966195622288,-0.754881159617206
-0.0220029838383197,1.3386116027832031,-0.1763471364974975,-0.1391307711601257,0.0542851872742176,0.1671791672706604,0.0,0.0,-0.3001686708263891,-0.8215988003235754
-0.0237117763608694,1.3353818655014038,-0.1807578802108764,-0.1439311206340789,0.0640724077820777,0.1957620084285736,0.0,0.0,-0.4040466085726868,-0.96062051336953
-0.0254457481205463,1.3320637941360474,-0.1847130358219146,-0.1479928493499755,0.0752981677651405,0.2245354652404785,0.0,0.0,-0.869989101047357,-0.6519657465995645
-0.0271820072084665,1.3286409378051758,-0.185993805527687,-0.1527952998876571,0.0875609144568443,0.2452772408723831,0.0,0.0,-0.0062272220177592,-0.8887197896759929
-0.0289280898869037,1.3251292705535889,-0.1882931292057037,-0.1569333225488662,0.1011544317007064,0.2718951404094696,0.0,0.0,-0.7252904793459034,-0.6689181766742892
-0.0306634902954101,1.321514129638672,-0.1882100105285644,-0.1617293357849121,0.1157329455018043,0.2915964722633362,0.0,0.0,-0.5812330405864634,-0.8234488333516011
-0.0323982238769531,1.3178060054779053,-0.1894517987966537,-0.166119635105133,0.131646528840065,0.3183009326457977,0.0,0.0,-0.6698504823909701,0.6260186942147079
-0.0340299606323242,1.314014911651611,-0.1779910922050476,-0.1698732227087021,0.1464361548423767,0.2958188951015472,0.0,0.0,-0.4170654899170491,-0.7633042219832527
-0.0356437675654888,1.3101274967193604,-0.1773222833871841,-0.1744162589311599,0.1623797118663787,0.3189000487327575,0.0,0.0,-0.6521196431691401,0.755016907475037
-0.0371270179748535,1.3061591386795044,-0.1626529395580291,-0.1779927313327789,0.1767353862524032,0.287139356136322,0.0,0.0,0.8633528347077739,0.8915759431355494
-0.0384153351187706,1.3030656576156616,-0.1415771543979644,-0.1390572190284729,0.1895490288734436,0.2562959790229797,0.0,0.0,-0.484056482497162,-0.8804980143995207
-0.0396839156746864,1.299852967262268,-0.1410849392414093,-0.1446666121482849,0.2038745731115341,0.2865363657474518,0.0,0.0,-0.3070747138476426,0.8303514948209958
-0.0408214554190635,1.2965657711029053,-0.126603677868843,-0.1479214578866958,0.216862216591835,0.2597763836383819,0.0,0.0,0.0499327968726286,-0.8611609037242582
-0.042139433324337,1.2937684059143066,-0.1462700068950653,-0.1265189349651336,0.2315094321966171,0.292944073677063,0.0,0.0,0.1760569903148634,0.8778301895313523
-0.0434166900813579,1.2916643619537354,-0.1403321027755737,-0.0955466404557228,0.2443197816610336,0.256207138299942,0.0,0.0,0.8115290923735814,-0.8860015157278277
-0.0450428947806358,1.2907114028930664,-0.1766020655632019,-0.0447405949234962,0.2585707604885101,0.2850194573402405,0.0,0.0,-0.8210518918282055,-0.9893743688014685
-0.04666643217206,1.2896387577056885,-0.1785954535007476,-0.0506283119320869,0.2751814126968384,0.3322130143642425,0.0,0.0,-0.75111840433042,-0.816451724692737
-0.0482553467154502,1.288445234298706,-0.1766364276409149,-0.0564867220818996,0.2934379279613495,0.3651302754878998,0.0,0.0,-0.681450020657365,-0.7439896630389998
-0.0497995391488075,1.287145495414734,-0.1734156459569931,-0.0617211461067199,0.3130794763565063,0.3928307294845581,0.0,0.0,0.5374432914500056,-0.9832797925175664
-0.0515172965824604,1.2862591743469238,-0.1924445331096649,-0.0439941622316837,0.3345822691917419,0.4300556778907776,0.0,0.0,-0.2086967747389967,0.8677154054979592
-0.053076647222042,1.285320520401001,-0.1749016940593719,-0.0462431497871875,0.354469895362854,0.3977524638175964,0.0,0.0,0.4813467421430144,0.7900548499565798
-0.0546411499381065,1.2847392559051514,-0.1735968738794326,-0.0301740728318691,0.3725766241550445,0.3621343970298767,0.0,0.0,0.0557788120974627,-0.9658959201676308
-0.0563024505972862,1.284595012664795,-0.1849423944950103,-0.0114373546093702,0.3925870358943939,0.4002082943916321,0.0,0.0,-0.1357116897132353,0.901827383588788
-0.0577879920601844,1.2844088077545166,-0.1653420627117157,-0.013018399477005,0.410592645406723,0.3601123988628387,0.0,0.0,0.964106763380762,0.970993365879092
-0.0593379028141498,1.2848963737487793,-0.16968634724617,0.0173225905746221,0.4264583885669708,0.3173145949840545,0.0,0.0,-0.9754244383998752,0.9835747692601192
-0.0607017502188682,1.285349726676941,-0.148901492357254,0.0162941571325063,0.4400621056556701,0.2720740735530853,0.0,0.0,0.5038503036627726,0.7467883113610189
-0.0622626319527626,1.2867707014083862,-0.1669636666774749,0.0596933476626873,0.4519554674625397,0.2378671169281005,0.0,0.0,-0.9049467319174926,-0.9907660143480964
-0.0637742057442665,1.2880516052246094,-0.1636766046285629,0.0528171882033348,0.4657406806945801,0.2757040858268738,0.0,0.0,0.1362863428859217,0.7668640539457527
-0.0654325485229492,1.2899471521377563,-0.1766860634088516,0.0805587843060493,0.4777760505676269,0.2407075464725494,0.0,0.0,-0.9306117296218872,0.9239529371261596
-0.0668942481279373,1.2918075323104858,-0.1548158228397369,0.0796764865517616,0.4873973429203033,0.1924259662628173,0.0,0.0,-0.9427785873413086,0.7909688949584961
-0.0681702643632888,1.2936171293258667,-0.134410485625267,0.0779952779412269,0.4950194656848907,0.1524422466754913,0.0,0.0,-0.9329535365104676,0.8093881607055664
-0.0692605003714561,1.2953834533691406,-0.1139643788337707,0.0767132267355918,0.5005773305892944,0.1111568361520767,0.0,0.0,-0.9906981587409972,0.3499917984008789
-0.0702293366193771,1.2970556020736694,-0.1017475500702858,0.072528637945652,0.5060549378395081,0.109552301466465,0.0,0.0,-0.857150673866272,0.6599709987640381
-0.0710253715515136,1.2986676692962646,-0.0830668210983276,0.0703650563955307,0.5099620223045349,0.078141950070858,0.0,0.0,-0.9834412336349488,-0.5786402225494385
-0.0717331916093826,1.3001527786254885,-0.0751305893063545,0.0643756464123725,0.5148925185203552,0.0986087620258331,0.0,0.0,-0.9454631805419922,0.0787500143051147
-0.0723176971077919,1.3015434741973877,-0.0627254098653793,0.0601916797459125,0.519741952419281,0.0969882160425186,0.0,0.0,-0.9712980389595032,-0.462710976600647
-0.072778508067131,1.302839756011963,-0.0502680167555809,0.0560078173875808,0.5245100855827332,0.0953641012310981,0.0,0.0,-0.8477953672409058,-0.1358548998832702
-0.0731151551008224,1.3040415048599243,-0.0377630218863487,0.0518240518867969,0.5291969180107117,0.0937370732426643,0.0,0.0,-0.9042007327079772,-0.0804017186164856
-0.0733270645141601,1.3051488399505615,-0.0252146273851394,0.0476403795182704,0.533802330493927,0.0921077355742454,0.0,0.0,-0.92867249250412,0.2450650930404663
-0.0734139457345008,1.306161880493164,-0.0126267150044441,0.0434567928314209,0.5383261442184448,0.0904766023159027,0.0,0.0,-0.9504411220550536,-0.0983088016510009
-0.0733753219246864,1.3070802688598633,-2.839921535269241e-06,0.0392732992768287,0.5427683591842651,0.0888442248106002,0.0,0.0,-0.8715169429779053,-0.1308074593544006
-0.0732109993696212,1.3079040050506592,0.0126537214964628,0.0350898839533329,0.5471289157867432,0.0872110277414321,0.0,0.0,-0.7738776206970215,0.3194046020507812
-0.0729206055402755,1.3086333274841309,0.0253399517387151,0.0309065487235784,0.5514078140258789,0.0855774506926536,0.0,0.0,-0.6320092082023621,0.3586775064468384
-0.0725039467215538,1.3092679977416992,0.0380530692636966,0.0267232973128557,0.5556049942970276,0.0839438289403915,0.0,0.0,-0.7265385389328003,-0.172814130783081
-0.0719606429338455,1.309808373451233,0.0507904961705207,0.0225401185452938,0.559720516204834,0.0823104903101921,0.0,0.0,-0.9058358669281006,0.0470471382141113
-0.0712904930114746,1.3102539777755735,0.0635498240590095,0.018357016146183,0.5637543797492981,0.080677792429924,0.0,0.0,-0.9200678467750548,-0.021437644958496
-0.0704934149980545,1.3106050491333008,0.0763288512825965,0.014173986390233,0.5677067041397095,0.0790459737181663,0.0,0.0,-0.6303223371505737,0.2245380878448486
-0.069569207727909,1.3108614683151243,0.0891254991292953,0.0099910236895084,0.5715774893760681,0.0774153023958206,0.0,0.0,-0.7812467217445374,0.267726182937622
-0.0685175880789756,1.311023473739624,0.1019378304481506,0.005808129440993,0.5753667950630188,0.0757859870791435,0.0,0.0,-0.8344920873641968,-0.0662572979927063
-0.0673384666442871,1.3110908269882202,0.1147640198469162,0.0016252994537353,0.5790746808052063,0.0741582363843917,0.0,0.0,-0.9082727432250975,-0.404637336730957
-0.066031739115715,1.3110636472702026,0.1276023536920547,-0.0025574681349098,0.5827012658119202,0.0725322291254997,0.0,0.0,-0.8931547999382019,-0.0193906426429748
-0.0645972266793251,1.3109415769577026,0.1404511779546737,-0.0067401751875877,0.58624666929245,0.0709081515669822,0.0,0.0,-0.8793052434921265,0.2228751182556152
-0.0630349144339561,1.310725212097168,0.1533089578151703,-0.0109228240326046,0.5897109508514404,0.0692861527204513,0.0,0.0,-0.7415187954902649,0.2874284982681274
-0.0613447204232215,1.310413837432861,0.1661742329597473,-0.0151054160669446,0.5930942893028259,0.0676663964986801,0.0,0.0,-0.8256038427352905,-0.3464047908782959
-0.059526540338993,1.310007929801941,0.1790455281734466,-0.0192879531532526,0.5963967442512512,0.0660489648580551,0.0,0.0,-0.681408703327179,0.5048778057098389
-0.0575411804020404,1.3095401525497437,0.196869358420372,-0.0215550828725099,0.5983925461769104,0.0399158298969268,0.0,0.0,-0.8830939531326294,0.1576316356658935
-0.055427648127079,1.3089773654937744,0.2097481489181518,-0.0257370825856924,0.6003076434135437,0.0383023396134376,0.0,0.0,-0.9160408973693848,0.3369554281234741
-0.0531860366463661,1.3083200454711914,0.2226289808750152,-0.0299190524965524,0.6021421551704407,0.036690317094326,0.0,0.0,-0.887611448764801,0.6697602272033691
-0.0507810600101947,1.3076075315475464,0.2400605231523513,-0.0318653509020805,0.6026667952537537,0.0104924365878105,0.0,0.0,-0.847306489944458,0.7872062921524048
-0.0481956489384174,1.3068560361862185,0.2596687376499176,-0.0328812189400196,0.601323127746582,-0.0268737468868494,0.0,0.0,-0.8084061741828918,0.4565730094909668
-0.0454820618033409,1.3060098886489868,0.2725476026535034,-0.0370630510151386,0.5998988747596741,-0.0284849945455789,0.0,0.0,-0.8010009527206421,0.4657196998596191
-0.0426403991878032,1.305069088935852,0.285423219203949,-0.0412449054419994,0.598393976688385,-0.0300974138081073,0.0,0.0,-0.7337373495101929,0.5440081357955933
-0.0396361351013183,1.3040635585784912,0.3026754260063171,-0.0436640121042728,0.5957086086273193,-0.0537073090672493,0.0,0.0,-0.7404647469520569,0.5439567565917969
-0.0364627838134765,1.302998423576355,0.3207413554191589,-0.0458050183951854,0.5916480422019958,-0.0812117904424667,0.0,0.0,-0.7175648212432861,0.1116204261779785
-0.0331616401672363,1.3018388748168943,0.333600103855133,-0.0499879121780395,0.5875065326690674,-0.0828304141759872,0.0,0.0,-0.4735398292541504,0.5963082313537598
-0.0296968463808298,1.3006268739700315,0.3511216640472412,-0.0518089309334754,0.5820105075836182,-0.109920896589756,0.0,0.0,-0.3650386929512024,-0.452788233757019
-0.0261045452207326,1.2993206977844238,0.3639619946479797,-0.0559928268194198,0.5764331817626953,-0.1115466207265853,0.0,0.0,-0.4166539907455444,0.0040777921676635
-0.0223848335444927,1.2979201078414917,0.3767903447151184,-0.0601768121123313,0.5707743763923645,-0.1131762713193893,0.0,0.0,-0.332568883895874,0.8212523460388184
-0.0184924118220806,1.296458721160889,0.3953070044517517,-0.0623677521944046,0.563666582107544,-0.1421562135219574,0.0,0.0,0.0413134098052978,0.517937421798706
-0.0146831516176462,1.2955937385559082,0.3880206048488617,-0.0354795232415199,0.5554048418998718,-0.1652335673570633,0.0,0.0,0.1713150739669799,0.8152680397033691
-0.0109784128144383,1.2951399087905884,0.3792075514793396,-0.0165913756936788,0.5452811121940613,-0.2024742066860199,0.0,0.0,0.167746901512146,0.9621201753616332
-0.0073722838424146,1.2952332496643066,0.371268481016159,0.0084125781431794,0.5330262184143066,-0.2450973093509674,0.0,0.0,0.0713024139404296,0.4769586324691772
-0.0038772583939135,1.295813798904419,0.3603399395942688,0.0300050377845764,0.5206525921821594,-0.2474723160266876,0.0,0.0,0.0660774707794189,0.3739007711410522
-0.0003944397030863,1.296831727027893,0.3590415716171264,0.0493025667965412,0.5084559917449951,-0.2439318001270294,0.0,0.0,0.0503046512603759,0.9419611692428588
0.0031908988021314,1.2981010675430298,0.3712037801742553,0.0610473863780498,0.4941908121109009,-0.2853037118911743,0.0,0.0,-0.2516098618507385,0.6565569639205933
0.0069547654129564,1.299316167831421,0.3906581699848175,0.0590444691479206,0.4782525300979614,-0.3187655806541443,0.0,0.0,-0.1670277118682861,0.7407419681549072
0.0109069822356104,1.3004895448684692,0.4114409387111664,0.057647667825222,0.4602946043014526,-0.3591585159301758,0.0,0.0,-0.3861430883407593,-0.870184600353241
0.0149383544921875,1.3015310764312744,0.4182876050472259,0.0512059330940246,0.4436609148979187,-0.3326740860939026,0.0,0.0,0.2889875173568725,-0.8020915389060974
0.018778895959258,1.303236722946167,0.3978773951530456,0.0801063850522041,0.428601861000061,-0.301180899143219,0.0,0.0,0.0427041053771972,-0.8418334722518921
0.022503089159727,1.3054821491241455,0.3847967982292175,0.1035109087824821,0.4151993989944458,-0.2680484056472778,0.0,0.0,0.015990138053894,-0.961816430091858
0.0261992458254098,1.3082114458084106,0.3803622722625732,0.1244099140167236,0.4036430418491363,-0.2311274260282516,0.0,0.0,0.245873212814331,-0.89266437292099
0.0299407001584768,1.3111889362335205,0.3832243084907532,0.1348889917135238,0.3939030468463897,-0.1947997957468032,0.0,0.0,0.4685292243957519,-0.2493469715118408
0.0335875526070594,1.3146729469299316,0.3740950226783752,0.1574256122112274,0.3838612139225006,-0.2008362114429474,0.0,0.0,0.2569608688354492,-0.7688539028167725
0.0371195785701274,1.318992257118225,0.3611771464347839,0.1940835863351822,0.3753827214241028,-0.1695705205202102,0.0,0.0,0.4608125686645508,0.999997854232788
0.0406393036246299,1.323949933052063,0.3620168566703796,0.2229483872652053,0.3647441267967224,-0.2127716839313507,0.0,0.0,0.4225543737411499,-0.9888721108436584
0.0438450798392295,1.3296751976013184,0.3288984596729278,0.2565442025661468,0.3559662997722626,-0.175556480884552,0.0,0.0,0.4547020196914673,0.0026544332504272
0.0470282547175884,1.3362107276916504,0.3263936936855316,0.2924483120441437,0.3474578857421875,-0.1701677739620208,0.0,0.0,0.3671392202377319,0.7870843410491943
0.0501284599304199,1.343539834022522,0.3198256194591522,0.3280740678310394,0.3371834754943847,-0.2054880559444427,0.0,0.0,-0.2010974884033203,0.1347864866256714
0.0533461570739746,1.350775957107544,0.3316957056522369,0.3238825500011444,0.3268248438835144,-0.2071724385023117,0.0,0.0,0.0865650177001953,0.6502233743667603
0.0566066727042198,1.3583978414535522,0.3373791873455047,0.3412696123123169,0.3150357604026794,-0.2357825338840484,0.0,0.0,-0.3111952543258667,0.1497193574905395
0.0599822998046875,1.3659268617630005,0.3490215837955475,0.3370752036571502,0.303163468837738,-0.2374466657638549,0.0,0.0,0.039713978767395,-0.1372315287590026
0.063283160328865,1.3737930059432983,0.3420795798301697,0.3520558774471283,0.2907705008983612,-0.247859314084053,0.0,0.0,-0.3326212167739868,-0.8209844827651978
0.0666443854570388,1.381547927856445,0.3469168543815613,0.3467821478843689,0.2796654105186462,-0.2221018821001052,0.0,0.0,-0.102435827255249,-0.7420079708099365
0.0700674057006836,1.3891819715499878,0.3518834710121155,0.3410931527614593,0.269837349653244,-0.1965613812208175,0.0,0.0,0.004431128501892,0.3099744319915771
0.0735610947012901,1.3974286317825315,0.3586615920066833,0.3681984543800354,0.2603369653224945,-0.1900075376033783,0.0,0.0,-0.2888587713241577,-0.2699507474899292
0.0771622657775878,1.4055819511413574,0.3695151805877685,0.3640073835849762,0.2507575154304504,-0.191589280962944,0.0,0.0,0.137654423713684,0.0589896440505981
0.0808183699846267,1.414533615112305,0.3746395707130432,0.3993659317493438,0.2415545880794525,-0.1840584874153137,0.0,0.0,-0.1741945743560791,-0.1441987156867981
0.0845776572823524,1.4233919382095337,0.3850697875022888,0.395175039768219,0.2322751581668853,-0.1855887472629547,0.0,0.0,0.0748956203460693,-0.6223689317703247
0.0882617980241775,1.43291974067688,0.3764162063598633,0.4246879518032074,0.2241638302803039,-0.1622261554002761,0.0,0.0,-0.6155152320861816,-0.0506806969642639
0.0920442566275596,1.4423538446426392,0.3863464593887329,0.4204984009265899,0.2159791886806488,-0.1636930704116821,0.0,0.0,-0.1407115459442138,0.438233733177185
0.0959224700927734,1.451694369316101,0.3959954082965851,0.4163087010383606,0.2077230215072631,-0.165123239159584,0.0,0.0,-0.273059606552124,0.525601863861084
0.0999255180358886,1.4609527587890625,0.4093990325927734,0.4127298891544342,0.1985544115304947,-0.1833726018667221,0.0,0.0,-0.1851173639297485,0.4269983768463135
0.1040178313851356,1.4701179265975952,0.4184166491031647,0.4085386097431183,0.1893184632062912,-0.1847188621759414,0.0,0.0,-0.153485894203186,0.1983132362365722
0.1081960648298263,1.47918963432312,0.427081823348999,0.4043470621109009,0.1800175756216049,-0.1860178411006927,0.0,0.0,-0.1257925033569336,-0.2408367395401001
0.1124563217163086,1.4881683588027954,0.435369074344635,0.4001553356647491,0.170654296875,-0.1872656941413879,0.0,0.0,-0.1796801090240478,0.3409465551376343
0.1167946830391883,1.497053861618042,0.4432522654533386,0.3959634006023407,0.1612313687801361,-0.1884584873914718,0.0,0.0,-0.0969233512878418,-0.1774346828460693
0.1212069541215896,1.505846381187439,0.4507048726081848,0.3917713463306427,0.1517517566680908,-0.1895921230316162,0.0,0.0,0.0031076669692993,0.3760254383087158
0.1256294250488281,1.5152751207351685,0.4517316818237304,0.4200005829334259,0.1422889828681945,-0.1892552822828292,0.0,0.0,-0.0947606563568115,-0.1863618493080139
0.1301163733005523,1.5246111154556274,0.4582433104515075,0.4158082008361816,0.1327760815620422,-0.1902583241462707,0.0,0.0,-0.129202127456665,-0.097934603691101
0.1346628218889236,1.5338538885116575,0.4642453789710998,0.4116157293319702,0.1232165694236755,-0.1911900341510772,0.0,0.0,-0.5030421018600464,0.7365070581436157
