x_pos,y_pos,x_vel,y_vel,angle,ang_vel,leg_1,leg_2,main_booster,lat_booster
-0.0015214920276775,1.4032775163650513,-0.154009461402893,-0.3396790623664856,0.0016666271258145,0.0328685194253921,0.0,0.0,-0.5249899625778198,0.8571114540100098
-0.002967643784359,1.3953067064285278,-0.1442872434854507,-0.3542550802230835,0.0013464420335367,-0.0064036138355731,0.0,0.0,0.2359834909439087,0.0648047924041748
-0.0043115615844726,1.387441873550415,-0.1344507038593292,-0.3495490252971649,0.0014022197574377,0.0011156995315104,0.0,0.0,-0.3219149112701416,0.8225631713867188
-0.0056007383391261,1.3792271614074707,-0.1275469362735748,-0.365098088979721,4.679671474150382e-05,-0.0271109044551849,0.0,0.0,-0.3711614608764648,0.382580041885376
-0.0068868636153638,1.370665431022644,-0.1271315515041351,-0.3805246353149414,-0.001412168960087,-0.0291822347790002,0.0,0.0,-0.2121305465698242,-0.1392348408699035
-0.0081696510314941,1.3617565631866455,-0.1266961246728897,-0.3959524929523468,-0.0029758794698864,-0.0312771573662757,0.0,0.0,0.3097121715545654,0.8665480613708496
-0.0093997959047555,1.3531872034072876,-0.1195713430643081,-0.3808750212192535,-0.0063809077255427,-0.0681067258119583,0.0,0.0,0.2005608081817627,0.2585828304290771
-0.0105145452544093,1.3449747562408447,-0.1084529757499694,-0.3650122880935669,-0.0093722026795148,-0.0598313324153423,0.0,0.0,-0.607519268989563,0.524724006652832
-0.0115848537534475,1.3364204168319702,-0.1028699651360511,-0.3802225291728973,-0.0134872486814856,-0.0823084861040115,0.0,0.0,-0.5089759826660156,0.1973116397857666
-0.0126509666442871,1.327519416809082,-0.1023470163345336,-0.3956495225429535,-0.0177062693983316,-0.0843882039189338,0.0,0.0,-0.4525220394134521,-0.4632603526115417
-0.0137126920744776,1.3182713985443115,-0.1018052548170089,-0.4110789000988006,-0.0220302138477563,-0.0864868834614753,0.0,0.0,-0.5070889592170715,0.7217215299606323
-0.0147064207121729,1.3086732625961304,-0.0932753607630729,-0.4266926050186157,-0.0280574485659599,-0.1205558180809021,0.0,0.0,-0.2032446861267089,0.3382339477539062
-0.015695285052061,1.298728346824646,-0.092691034078598,-0.4421243369579315,-0.0341886356472969,-0.1226348727941513,0.0,0.0,-0.5861956477165222,-0.1963739991188049
-0.0166791919618845,1.2884368896484375,-0.092088982462883,-0.4575563967227936,-0.0404248535633087,-0.1247356534004211,0.0,0.0,-0.4922528862953186,-0.6236404180526733
-0.0176954269409179,1.277807354927063,-0.0961762219667434,-0.472574770450592,-0.045816920697689,-0.1078512519598007,0.0,0.0,-0.1994045376777649,0.396033763885498
-0.0187064167112112,1.266831398010254,-0.0955422520637512,-0.4880065321922302,-0.0513143725693225,-0.1099589094519615,0.0,0.0,0.4644759893417358,-0.6439405679702759
-0.0195898059755563,1.256645441055298,-0.0842668488621711,-0.4528496861457824,-0.0553552769124507,-0.0808253586292266,0.0,0.0,-0.9379895329475404,-0.610163152217865
-0.0205046646296978,1.246110439300537,-0.0882334187626838,-0.4683493077754974,-0.0585776902735233,-0.0644541457295417,0.0,0.0,-0.6873146295547485,0.1380772590637207
-0.0214138031005859,1.2352285385131836,-0.0875577330589294,-0.4837752878665924,-0.0619054958224296,-0.0665616989135742,0.0,0.0,-0.8386451601982117,-0.6125723123550415
-0.0223719589412212,1.2240043878555298,-0.093739628791809,-0.4989350736141205,-0.0639579072594642,-0.0410514548420906,0.0,0.0,-0.8043864965438843,-0.6514694094657898
-0.0233644489198923,1.2124420404434204,-0.0981001108884811,-0.5139371752738953,-0.0650942325592041,-0.0227286778390407,0.0,0.0,-0.908877968788147,0.1066411733627319
-0.0243509300053119,1.2005324363708496,-0.0973886400461196,-0.5293669104576111,-0.0663363859057426,-0.0248455759137868,0.0,0.0,-0.5144690275192261,-0.558567464351654
-0.0253657344728708,1.1882786750793457,-0.1010048016905784,-0.5446388721466064,-0.0668123215436935,-0.0095195220783352,0.0,0.0,-0.1331996321678161,-0.158650517463684
-0.026374340057373,1.17567777633667,-0.1002705544233322,-0.560068666934967,-0.0673942789435386,-0.0116402050480246,0.0,0.0,-0.4768576622009277,0.0985287427902221
-0.0273765567690134,1.1627297401428225,-0.0995241925120353,-0.5754983425140381,-0.0680815875530242,-0.0137475337833166,0.0,0.0,-0.158467411994934,-0.3784564137458801
-0.0283732414245605,1.1494132280349731,-0.0988635942339897,-0.5918796062469482,-0.0688743665814399,-0.0158555135130882,0.0,0.0,-0.401239812374115,-0.6375383138656616
-0.0294130332767963,1.135758876800537,-0.1043551787734031,-0.606842041015625,-0.0685102641582489,0.007282237522304,0.0,0.0,0.1466225385665893,0.0514795780181884
-0.0304974559694528,1.1226239204406738,-0.1082819327712059,-0.5837797522544861,-0.068670853972435,-0.0032115909270942,0.0,0.0,-0.1656667590141296,-0.1376609802246093
-0.0315751060843467,1.1091420650482178,-0.107498750090599,-0.5992071628570557,-0.0689363107085228,-0.0053091957233846,0.0,0.0,-0.3649225234985351,-0.6781858205795288
-0.0327013954520225,1.0953164100646973,-0.1136719584465026,-0.6144278645515442,-0.0679096579551696,0.0205330550670623,0.0,0.0,-0.8722966313362122,-0.2384606599807739
-0.033820915967226,1.0811436176300049,-0.11287422478199,-0.6298553943634033,-0.0669872462749481,0.0184478778392076,0.0,0.0,-0.2954435348510742,0.5055265426635742
-0.0348986610770225,1.066617488861084,-0.1077218428254127,-0.6456087827682495,-0.0670459270477294,-0.0011732990387827,0.0,0.0,-0.9567953944206238,-0.6075101494789124
-0.0360237136483192,1.051755666732788,-0.1137311905622482,-0.6604768633842468,-0.0658314153552055,0.0242900103330612,0.0,0.0,-0.3715412616729736,0.2579429149627685
-0.0371416099369525,1.0365465879440308,-0.1129175052046775,-0.675904393196106,-0.0647199377417564,0.0222297199070453,0.0,0.0,-0.5820783972740173,0.0902332067489624
-0.0382524505257606,1.0209906101226809,-0.1121001243591308,-0.6913319230079651,-0.063710942864418,0.0201797615736722,0.0,0.0,-0.7616006731987,-0.064631700515747
-0.0393561348319053,1.0050876140594482,-0.1112798303365707,-0.7067593932151794,-0.0628038793802261,0.0181412603706121,0.0,0.0,0.4161939620971679,-0.3159468173980713
-0.0404505729675293,0.9894239902496338,-0.1101465970277786,-0.6961296200752258,-0.0621021538972854,0.0140343066304922,0.0,0.0,-0.1519926786422729,-0.329837441444397
-0.0415376648306846,0.973413586616516,-0.1093230620026588,-0.7115570902824402,-0.0615010298788547,0.0120226126164197,0.0,0.0,0.5069546699523926,0.1613330841064453
-0.0426060669124126,0.9582098126411438,-0.1071876883506774,-0.6757040023803711,-0.0611657686531543,0.0067053786478936,0.0,0.0,-0.6245673894882202,0.1562690734863281
-0.0436673164367675,0.9426591396331788,-0.1063644140958786,-0.6911314129829407,-0.0609294660389423,0.0047262697480618,0.0,0.0,-0.7728617787361145,-0.0423993468284606
-0.0447214134037494,0.9267614483833312,-0.1055426448583602,-0.7065587639808655,-0.0607911422848701,0.0027663402725011,0.0,0.0,0.1057435274124145,-0.6843940019607544
-0.0457075126469135,0.9110361337661744,-0.100133791565895,-0.6988401412963867,-0.0592849887907505,0.0301229506731033,0.0,0.0,-0.5158345699310303,-0.5162747502326965
-0.0467208847403526,0.8949611783027649,-0.1036318689584732,-0.7143510580062866,-0.0570141077041626,0.0454176291823387,0.0,0.0,0.1043721437454223,0.3987774848937988
-0.0476407036185264,0.8790628910064697,-0.0944898277521133,-0.7065001130104065,-0.0545307733118534,0.0496664568781852,0.0,0.0,-0.3476709723472595,-0.135746955871582
-0.0485532768070697,0.8628175854682922,-0.0936833396553993,-0.7219278216362,-0.0521406568586826,0.0478024780750274,0.0,0.0,-0.8115190863609314,0.0248916149139404
-0.0494587905704975,0.846225380897522,-0.0928830951452255,-0.7373554706573486,-0.0498422496020793,0.0459684655070304,0.0,0.0,-0.3213065266609192,-0.0271828770637512
-0.0503573417663574,0.8292859792709351,-0.0920901075005531,-0.7527831196784973,-0.0476339012384414,0.0441671162843704,0.0,0.0,0.1379995346069336,-0.0182853937149047
-0.0512989051640033,0.812865674495697,-0.0959396064281463,-0.7297326326370239,-0.0458719730377197,0.0352386608719825,0.0,0.0,-0.6674444675445557,-0.3610001802444458
-0.0522335991263389,0.7960984110832214,-0.0951642841100692,-0.7451599836349487,-0.0441963709890842,0.033511709421873,0.0,0.0,-0.1387187838554382,-0.4070473909378052
-0.0531614311039447,0.7789841890335083,-0.0943994224071502,-0.7605873346328735,-0.0426050387322902,0.0318268612027168,0.0,0.0,0.2222036123275756,-0.0563525557518005
-0.0539586059749126,0.7621492147445679,-0.0817402452230453,-0.7481643557548523,-0.0406047664582729,0.0400053933262825,0.0,0.0,0.0106135606765747,0.5292515754699707
-0.054728128015995,0.7456461191177368,-0.0777646228671073,-0.7334548830986023,-0.0397986620664596,0.0161220468580722,0.0,0.0,0.0192756652832031,-0.3200713396072387
-0.0554127693176269,0.7292028069496155,-0.0695223286747932,-0.7307819724082947,-0.0387574099004268,0.0208251234143972,0.0,0.0,0.0700891017913818,-0.0352930426597595
-0.0560689941048622,0.7131869196891785,-0.0666098520159721,-0.7117959260940552,-0.0377805419266223,0.0195370316505432,0.0,0.0,-0.4128788709640503,-0.3270593881607055
-0.0567190162837505,0.6968238949775696,-0.0659145042300224,-0.7272230386734009,-0.0368745848536491,0.0181190688163042,0.0,0.0,0.4365622997283935,-0.3662322759628296
-0.0574308410286903,0.6807324886322021,-0.0716386437416076,-0.7151597142219543,-0.0364205837249755,0.0090799303725361,0.0,0.0,-0.0177536606788635,-0.1291850209236145
-0.0581367500126361,0.6642941832542419,-0.0709796324372291,-0.7305868268013,-0.0360306799411773,0.0077979378402233,0.0,0.0,0.0987459421157836,0.2011675834655761
-0.0587288849055767,0.6481760740280151,-0.0599811561405658,-0.7163410782814026,-0.0352766402065753,0.0150810275226831,0.0,0.0,-0.3834925889968872,0.4892678260803222
-0.0593154914677143,0.6317108869552612,-0.0593636557459831,-0.731768012046814,-0.0345790199935436,0.0139523474499583,0.0,0.0,0.0686162710189819,0.5745372772216797
-0.0598884597420692,0.6156660914421082,-0.0567105486989021,-0.713115394115448,-0.0351593047380447,-0.0116059184074401,0.0,0.0,0.0657582283020019,0.2483237981796264
-0.0604148879647254,0.5996306538581848,-0.0521537475287914,-0.712700605392456,-0.0356347449123859,-0.0095088090747594,0.0,0.0,0.1075227260589599,-0.234109878540039
-0.060986615717411,0.5839565992355347,-0.0563348606228828,-0.6966479420661926,-0.0364645011723041,-0.0165950562804937,0.0,0.0,0.1929508447647094,0.7839124202728271
-0.0613761916756629,0.5684841871261597,-0.0365896113216877,-0.6877185106277466,-0.0387998148798942,-0.046706635504961,0.0,0.0,-0.708372175693512,-0.1512634754180908
-0.0617610923945903,0.5526648163795471,-0.0360996834933757,-0.7031459212303162,-0.0411688387393951,-0.0473802052438259,0.0,0.0,-0.1242910623550415,0.2002421617507934
-0.0621417984366416,0.536498486995697,-0.0356394425034523,-0.7185733318328857,-0.0435664504766464,-0.0479524321854114,0.0,0.0,0.5444972515106201,0.1028199195861816
-0.0626098662614822,0.5208206176757812,-0.0438221469521522,-0.6968809962272644,-0.0465228632092475,-0.0591282956302166,0.0,0.0,0.9121717214584352,0.1831611394882202
-0.0630033463239669,0.5062782764434814,-0.0364500917494297,-0.6464199423789978,-0.0493824556469917,-0.0571918971836566,0.0,0.0,-0.2804670333862304,-0.6294847130775452
-0.0634365081787109,0.4913846254348755,-0.0415037497878074,-0.6620036959648132,-0.051174346357584,-0.0358376838266849,0.0,0.0,0.2861900329589844,0.155251145362854
-0.0638113990426063,0.4771377444267273,-0.0357713364064693,-0.6332510709762573,-0.052876241505146,-0.0340378209948539,0.0,0.0,-0.1964427828788757,0.3129235506057739
-0.0641834288835525,0.4625438749790191,-0.0354803279042243,-0.6486781239509583,-0.0545800253748893,-0.0340756624937057,0.0,0.0,0.7101023197174072,-0.604936420917511
-0.0646645575761795,0.4486674964427948,-0.0473505556583404,-0.6167563199996948,-0.0553320758044719,-0.0150407496839761,0.0,0.0,0.1903902292251587,0.824023962020874
-0.0650279968976974,0.4351096153259277,-0.033952672034502,-0.6026608347892761,-0.0576961077749729,-0.0472808666527271,0.0,0.0,-0.831738293170929,-0.4636276960372925
-0.0653895363211631,0.4212046861648559,-0.0337790884077549,-0.6180880665779114,-0.0600459165871143,-0.0469960756599903,0.0,0.0,0.7811450958251953,0.3799128532409668
-0.0656331032514572,0.4078778028488159,-0.0223721303045749,-0.5923877954483032,-0.0620098412036895,-0.0392784960567951,0.0,0.0,0.5512006282806396,0.4478517770767212
-0.0658843964338302,0.3947565257549286,-0.0230174995958805,-0.5832573771476746,-0.0640956312417984,-0.0417159385979175,0.0,0.0,-0.0981484651565551,-0.5211977362632751
-0.0661717429757118,0.3812861144542694,-0.0275764856487512,-0.5987328886985779,-0.0652327761054039,-0.022743172943592,0.0,0.0,0.2392524480819702,0.3312563896179199
-0.0664656609296798,0.3678520321846008,-0.0281691160053014,-0.5971239805221558,-0.0664452165365219,-0.0242488253861665,0.0,0.0,0.7606160640716553,-0.2042010426521301
-0.0667124763131141,0.3553369045257568,-0.0234462171792984,-0.5562857985496521,-0.0676598697900772,-0.0242933593690395,0.0,0.0,0.7300592660903931,0.3852405548095703
-0.0668182373046875,0.3437444865703583,-0.0097877327352762,-0.5152530670166016,-0.0684433653950691,-0.0156696196645498,0.0,0.0,-0.3586354255676269,0.4033007621765136
-0.0669249519705772,0.3318049907684326,-0.0099248066544532,-0.5306796431541443,-0.0691790655255317,-0.0147141143679618,0.0,0.0,0.2044953107833862,0.1508029699325561
-0.0671103447675705,0.3198894262313843,-0.0174086950719356,-0.5296316742897034,-0.070299282670021,-0.0224043577909469,0.0,0.0,0.3024899959564209,0.5997577905654907
-0.0671711936593055,0.3085559010505676,-0.0038734779227524,-0.5038163065910339,-0.0724895671010017,-0.0438054278492927,0.0,0.0,0.299453854560852,-0.7315170168876648
-0.0673483833670616,0.2975685000419616,-0.01691385358572,-0.4883717596530914,-0.0732874125242233,-0.0159568339586257,0.0,0.0,0.0607683658599853,0.5628708600997925
-0.0674909576773643,0.2868867218494415,-0.0123213026672601,-0.4748422801494598,-0.0752034112811088,-0.0383200570940971,0.0,0.0,-0.6000961661338806,0.1530203819274902
-0.0676365867257118,0.2758578360080719,-0.0126976761966943,-0.4902690351009369,-0.0770532190799713,-0.0369962379336357,0.0,0.0,0.6429078578948975,-0.3348314166069031
-0.0676548033952713,0.2653370797634125,-0.0004262670408934,-0.4676642119884491,-0.0784326419234275,-0.0275886710733175,0.0,0.0,0.2753671407699585,-0.2641388773918152
-0.0676381140947341,0.2548620700836181,0.0029114505741745,-0.4656198918819427,-0.0796552374958992,-0.0244522057473659,0.0,0.0,-0.1355258226394653,-0.8317294716835022
-0.0676815956830978,0.2440405488014221,-0.004604616202414,-0.4809457063674927,-0.0794032588601112,0.0050398427993059,0.0,0.0,0.3475761413574219,-0.4844887256622314
-0.0675733536481857,0.2335539609193802,0.0099272299557924,-0.4660228788852691,-0.0785186737775802,0.0176913309842348,0.0,0.0,0.4200688600540161,-0.3395962715148926
-0.0673244446516037,0.2232130914926529,0.0233600996434688,-0.4595165550708771,-0.0769999772310257,0.030373889952898,0.0,0.0,0.064761996269226,-0.9491121768951416
-0.0671228393912315,0.2132652401924133,0.0166311673820018,-0.4419487118721008,-0.0735061764717102,0.0698758140206337,0.0,0.0,0.0879299640655517,0.4253925085067749
-0.0668704062700271,0.2037153542041778,0.0215348564088344,-0.4242607653141022,-0.0698339417576789,0.073444053530693,0.0,0.0,-0.3917320966720581,-0.530753493309021
-0.0666577368974685,0.1938240081071853,0.0166272185742855,-0.4394054710865021,-0.0652369633316993,0.091939739882946,0.0,0.0,-0.0852010846138,0.2931439876556396
-0.0664519295096397,0.183585837483406,0.0158375483006238,-0.4548335969448089,-0.0605520717799663,0.0936976820230484,0.0,0.0,0.5495443344116211,0.5618888139724731
-0.0662335380911827,0.1737149506807327,0.0182863157242536,-0.4385663270950317,-0.0570267960429191,0.0705054402351379,0.0,0.0,0.2665009498596191,0.1733789443969726
-0.0659202560782432,0.1644820123910904,0.0273607186973094,-0.4102074801921844,-0.053110271692276,0.0783303678035736,0.0,0.0,-0.117755115032196,-0.1099539995193481
-0.0656152740120887,0.1549020856618881,0.0264499820768833,-0.4256351888179779,-0.0491011515259742,0.0801822692155838,0.0,0.0,0.0541309118270874,0.2132961750030517
-0.0653730407357215,0.1457415223121643,0.0204357486218214,-0.4070184528827667,-0.0453653968870639,0.0747151300311088,0.0,0.0,0.0243332386016845,0.2022448778152465
-0.0650662407279014,0.136878564953804,0.0265527218580245,-0.3937866985797882,-0.041284792125225,0.0816119760274887,0.0,0.0,0.1524035930633545,0.4718146324157715
-0.0647843331098556,0.1284554302692413,0.0241379961371421,-0.3742576539516449,-0.0372805669903755,0.0800844952464103,0.0,0.0,-0.1136142611503601,-0.8509266376495361
-0.0645883530378341,0.1196958422660827,0.0134961623698472,-0.3891755044460296,-0.0312528982758522,0.1205532997846603,0.0,0.0,0.6504595279693604,0.2851691246032715
-0.0644115433096885,0.1113365739583969,0.0115987788885831,-0.3714075088500976,-0.0252417381852865,0.1202229261398315,0.0,0.0,0.5327540636062622,0.9236277341842652
-0.0642800331115722,0.1034699752926826,0.0089727528393268,-0.3495622873306274,-0.0211130063980817,0.0825747400522232,0.0,0.0,0.4860371351242065,0.9589838981628418
-0.0642273873090744,0.0959632247686386,0.0030629043467342,-0.3336058259010315,-0.0189410224556922,0.043439645320177,0.0,0.0,0.4220397472381592,0.580657958984375
-0.0640285462141037,0.0890362560749054,0.0185336079448461,-0.3078475296497345,-0.0176039990037679,0.0267402864992618,0.0,0.0,-0.1015438437461853,0.955956220626831
-0.0637574195861816,0.0817516669631004,0.0277803540229797,-0.3237682282924652,-0.0182606037706136,-0.013131852261722,0.0,0.0,0.5002797842025757,0.7441999912261963
-0.0632799118757247,0.0751591548323631,0.0495491065084934,-0.2930235862731933,-0.0200416594743728,-0.0356209352612495,0.0,0.0,-0.3682278990745544,-0.3495506048202514
-0.0628139525651931,0.0682196021080017,0.0482984669506549,-0.3084505200386047,-0.0217196717858314,-0.0335604324936866,0.0,0.0,0.425406813621521,-0.0070607662200927
-0.0622205734252929,0.0620344243943691,0.0603597238659858,-0.2749097645282745,-0.0227246396243572,-0.0200994499027729,0.0,0.0,-0.542786180973053,-0.5341113209724426
-0.0616759285330772,0.0555034987628459,0.0544347278773784,-0.2902642488479614,-0.022697864100337,0.0005355380126275,0.0,0.0,0.462732195854187,0.3799231052398681
-0.0611333847045898,0.0497097112238407,0.0541542693972587,-0.2575026154518127,-0.0225960258394479,0.0020367212127894,0.0,0.0,-0.4052759408950805,0.7877383232116699
-0.0605343803763389,0.0435733161866664,0.0614383146166801,-0.2727508246898651,-0.0241131447255611,-0.0303424391895532,0.0,0.0,0.5774534940719604,-0.3017541170120239
-0.0598603263497352,0.0377435535192489,0.068473570048809,-0.259120225906372,-0.0251689553260803,-0.0211161654442548,0.0,0.0,0.5560274124145508,0.494070291519165
-0.0592994689941406,0.0324442237615585,0.0575950220227241,-0.2355524003505706,-0.0266518499702215,-0.0296581592410802,0.0,0.0,0.4565272331237793,0.3732098340988159
-0.0588523857295513,0.0274827815592288,0.0466380938887596,-0.2205439507961273,-0.0285521410405635,-0.0380057133734226,0.0,0.0,0.1869881153106689,0.7413985729217529
-0.0583655349910259,0.0227794032543897,0.052016407251358,-0.2091070860624313,-0.0318395607173442,-0.0657483488321304,0.0,0.0,-0.2198830842971801,0.378390908241272
-0.0578916557133197,0.017729053273797,0.0506023354828357,-0.2245345562696457,-0.0350202806293964,-0.0636144131422042,0.0,0.0,0.5978686809539795,0.5385277271270752
-0.0572409629821777,0.0128387073054909,0.068917192518711,-0.2174417823553085,-0.0388139672577381,-0.0758737847208976,0.0,0.0,0.6825456619262695,0.0835143327713012
-0.0564773567020893,0.0086393691599369,0.0796361863613128,-0.1867251247167587,-0.0420413576066494,-0.0645480081439018,0.0,0.0,0.0514068603515625,-0.4240748882293701
-0.0556895248591899,0.0048613524995744,0.0818632692098617,-0.1680028438568115,-0.0450876802206039,-0.060926467180252,0.0,0.0,0.0284558534622192,0.089261770248413
