x_pos,y_pos,x_vel,y_vel,angle,ang_vel,leg_1,leg_2,main_booster,lat_booster
-0.0015057564014568,1.4035242795944214,-0.1526189744472503,-0.3286985456943512,0.0018302577082067,0.0361085049808025,0.0,0.0,-0.2457015567659448,0.4609627945609579
-0.0029941559769213,1.3960516452789309,-0.1507226377725601,-0.3321189284324646,0.0036833442281931,0.0370662026107311,0.0,0.0,0.6252062440474289,0.5764215985698945
-0.0042805671691894,1.3890714645385742,-0.1298139691352844,-0.3102348744869232,0.0048430166207253,0.0231956616044044,0.0,0.0,-0.2326057641063577,-0.0017809655716201
-0.0055506704375147,1.381990909576416,-0.1282635033130645,-0.3146912753582001,0.0060704969801008,0.0245518740266561,0.0,0.0,0.7300320686800146,0.7507118511831454
-0.0066027641296386,1.3758389949798584,-0.1053557246923446,-0.2734213173389435,0.0062088235281407,0.0027672327123582,0.0,0.0,0.8001658525516364,0.8641624768960494
-0.007410907652229,1.3704752922058103,-0.0796127393841743,-0.238380029797554,0.0050297561101615,-0.0235834270715713,0.0,0.0,0.6772966521064072,0.5281312764854768
-0.0081908227875828,1.3658910989761353,-0.0757361352443695,-0.2037369757890701,0.002800935646519,-0.0445807203650474,0.0,0.0,-0.3756732568222922,0.5060111913257519
-0.0089077949523925,1.36120867729187,-0.0682493597269058,-0.2081115394830703,-0.000612236384768,-0.0682698637247085,0.0,0.0,-0.4270500370155932,-0.5603447484395663
-0.0096574779599905,1.356432318687439,-0.0727283433079719,-0.2122838050127029,-0.002828637836501,-0.0443316027522087,0.0,0.0,0.713623348719391,-0.6585610282002242
-0.010446548461914,1.35269033908844,-0.0780379623174667,-0.1663090586662292,-0.0036798908840864,-0.0170269198715686,0.0,0.0,0.2661451997452939,-0.2217413113972717
-0.0111574176698923,1.349531173706055,-0.0706111043691635,-0.1404096782207489,-0.0041559394448995,-0.0095218503847718,0.0,0.0,-0.0984442376215115,-0.6419343406405648
-0.0119037628173828,1.3462707996368408,-0.0753504931926727,-0.1449021250009536,-0.0034477273002266,0.0141656175255775,0.0,0.0,-0.1966677477877958,-0.2855950201924349
-0.0126420017331838,1.3429105281829834,-0.0745965912938118,-0.1493474543094635,-0.0026801081839948,0.0153538258746266,0.0,0.0,0.1638778815086456,0.4172088168683595
-0.0133238788694143,1.33982515335083,-0.0692525878548622,-0.1371243894100189,-0.0016242259880527,0.0211194977164268,0.0,0.0,0.6723788540772346,-0.2562113167195294
-0.013855648227036,1.3378911018371582,-0.0549859926104545,-0.0859573110938072,0.0001612017222214,0.0357115939259529,0.0,0.0,-0.8180618791695153,-0.5322766733829369
-0.0144171714782714,1.335850477218628,-0.0588888227939605,-0.0906925350427627,0.0028656588401645,0.0540939681231975,0.0,0.0,0.3634712184418154,0.4590638208888697
-0.0148635860532522,1.334769606590271,-0.0479700937867164,-0.0480502620339393,0.0061577027663588,0.0658469572663307,0.0,0.0,0.4447255501887575,-0.0117306728937151
-0.0151853561401367,1.3340811729431152,-0.0361427031457424,-0.0306161344051361,0.0100853471085429,0.0785599425435066,0.0,0.0,-0.3838735513830991,-0.9389224080728444
-0.0155684472993016,1.3333009481430054,-0.0439153239130973,-0.0347241796553134,0.0156260300427675,0.1108235716819763,0.0,0.0,-0.492961493689118,0.335740421538507
-0.0159521102905273,1.3324211835861206,-0.0440075621008873,-0.0391731485724449,0.0212140008807182,0.1117692440748214,0.0,0.0,0.6869556523624238,0.6803736214072625
-0.0161582939326763,1.332604169845581,-0.0252749472856521,0.0080586420372128,0.0258172508329153,0.092073455452919,0.0,0.0,0.5519330366915847,0.0120968412773485
-0.0163671486079692,1.333310842514038,-0.025635864585638,0.031317088752985,0.0305152516812086,0.093968279659748,0.0,0.0,-0.4775884773238128,0.6532410392718749
-0.016517449170351,1.333919644355774,-0.0182217098772525,0.0269862003624439,0.0336757861077785,0.0632159709930419,0.0,0.0,0.6528722588876776,0.9327148265221464
-0.0165311805903911,1.3348939418792725,-0.0028456686995923,0.0432683639228343,0.0351314805448055,0.0291166510432958,0.0,0.0,-0.6293600536446531,0.3458495839076726
-0.016551399603486,1.3357681035995483,-0.0035373172722756,0.038816038519144,0.0366234444081783,0.0298419445753097,0.0,0.0,-0.4491231053015618,-0.0491969819246604
-0.0165789611637592,1.3365209102630615,-0.0042926161549985,0.0334159098565578,0.0381484404206275,0.0304998867213726,0.0,0.0,0.3036312186752035,0.0117734674180903
-0.0166340824216604,1.3380329608917236,-0.0071064298972487,0.067163161933422,0.0397175848484039,0.0313830152153968,0.0,0.0,0.8410906988914673,0.2436597813245998
-0.01688127592206,1.3408148288726809,-0.0256496872752904,0.123612992465496,0.0406401269137859,0.0184506718069314,0.0,0.0,-0.5091923339355573,-0.8976295026577553
-0.0172260291874408,1.343498945236206,-0.0376342236995697,0.1192021071910858,0.0437579378485679,0.062356561422348,0.0,0.0,-0.8887478768488908,0.8404650724925686
-0.0175186153501272,1.3460841178894043,-0.0308074168860912,0.1148493587970733,0.0452827550470829,0.030496334657073,0.0,0.0,0.32611822738224,-0.9785553132024384
-0.0179153438657522,1.3495945930480957,-0.0432137548923492,0.1559100449085235,0.0487784259021282,0.0699134692549705,0.0,0.0,-0.3778085112571716,0.4154615402221679
-0.018326187506318,1.3530051708221436,-0.0446285121142864,0.1514627784490585,0.0522873885929584,0.0701792538166046,0.0,0.0,-0.3496767282485962,0.6997160911560059
-0.0187043193727731,1.3563261032104492,-0.0401639565825462,0.1475161015987396,0.0546032525599002,0.0463173165917396,0.0,0.0,-0.3191264867782593,0.5329716205596924
-0.0190605167299509,1.359545350074768,-0.0370019301772117,0.1430267542600631,0.055977776646614,0.0274904780089855,0.0,0.0,-0.152335524559021,0.4525623321533203
-0.0194332115352153,1.3626645803451538,-0.0386579409241676,0.1385803669691085,0.0573548302054405,0.0275410749018192,0.0,0.0,-0.0185414552688598,0.2298306226730346
-0.0198231693357229,1.3656837940216064,-0.040384542196989,0.1341340094804763,0.0587308593094348,0.0275205373764038,0.0,0.0,-0.2458089590072631,0.1842679977416992
-0.0202310569584369,1.3686031103134155,-0.0421769991517066,0.1296876817941665,0.0601023398339748,0.0274295657873153,0.0,0.0,-0.1053058505058288,0.5228381156921387
-0.0206138603389263,1.3714301586151123,-0.0385366901755332,0.1256409883499145,0.0603584572672843,0.0051223575137555,0.0,0.0,-0.1620241403579712,-0.4048737287521362
-0.0210158340632915,1.3741573095321655,-0.0404473021626472,0.1211948543787002,0.0606032311916351,0.0048955418169498,0.0,0.0,0.0089092254638671,0.0066199302673339
-0.0214428901672363,1.3773417472839355,-0.0430157557129859,0.1415169835090637,0.0609132461249828,0.006200092844665,0.0,0.0,-0.0994843244552612,-0.0584743618965148
-0.0218901634216308,1.3804261684417725,-0.0450277142226696,0.1370708644390106,0.0612055025994777,0.0058453725650906,0.0,0.0,-0.0366658568382263,-0.2487322688102722
-0.0223583225160837,1.3834103345870972,-0.0470845997333526,0.1326247602701187,0.0614770203828811,0.005430313758552,0.0,0.0,-0.1243407726287841,-0.0782111287117004
-0.0228475574404001,1.3862946033477783,-0.0491828694939613,0.128178671002388,0.0617248900234699,0.004957462195307,0.0,0.0,-0.1210154891014099,-0.0967622399330139
-0.0233585350215435,1.3890787363052368,-0.0513192303478717,0.123732604086399,0.061946365982294,0.0044295522384345,0.0,0.0,-0.2410964369773864,-0.5378561615943909
-0.0239365585148334,1.3917523622512815,-0.0591546110808849,0.1187683045864105,0.0632831379771232,0.0267352368682622,0.0,0.0,-0.2004529237747192,0.1148695945739746
-0.0245369914919137,1.394325852394104,-0.0613580457866191,0.1143221333622932,0.0645884051918983,0.0261055268347263,0.0,0.0,-0.2351528406143188,0.318922758102417
-0.0251600258052349,1.3967993259429932,-0.0635909214615821,0.1098759695887565,0.0658598616719245,0.0254291091114282,0.0,0.0,-0.1920533776283264,0.3845694065093994
-0.0258060451596975,1.3991727828979492,-0.0658507794141769,0.1054298430681228,0.0670953020453453,0.0247087441384792,0.0,0.0,-0.2727211713790893,0.0641340017318725
-0.0264753345400095,1.4014461040496826,-0.0681353658437728,0.1009837388992309,0.0682926774024963,0.0239471551030874,0.0,0.0,-0.3965508937835693,0.3206031322479248
-0.0271679870784282,1.403619408607483,-0.0704425424337387,0.0965376421809196,0.0694500133395195,0.0231469646096229,0.0,0.0,-0.075623869895935,0.014493703842163
-0.0278844833374023,1.40569269657135,-0.0727704167366027,0.0920915827155113,0.0705655813217163,0.0223107039928436,0.0,0.0,-0.31865394115448,0.7341142892837524
-0.028572654351592,1.4076762199401855,-0.0685635507106781,0.0881726071238517,0.070314347743988,-0.0050246063619852,0.0,0.0,-0.4635353684425354,0.0125936269760131
-0.0292848590761423,1.409559726715088,-0.0709276348352432,0.0837266817688942,0.0700180679559707,-0.0059256507083773,0.0,0.0,-0.2952866554260254,-0.6067516207695007
-0.0300692562013864,1.4113438129425049,-0.0793114304542541,0.0792494565248489,0.0708754807710647,0.017148608341813,0.0,0.0,-0.2505474090576172,-0.0922001600265502
-0.0308781620115041,1.4130278825759888,-0.081705741584301,0.0748034790158271,0.0716850459575653,0.0161915570497512,0.0,0.0,-0.1672632694244384,0.2474972009658813
-0.0317115783691406,1.414611577987671,-0.0841132402420044,0.0703575313091278,0.0724455192685127,0.0152095183730125,0.0,0.0,-0.214572787284851,0.0301295518875122
-0.0325697883963584,1.416095495223999,-0.0865327715873718,0.0659115836024284,0.073155753314495,0.0142043754458427,0.0,0.0,-0.3022843599319458,0.6288535594940186
-0.0333918556571006,1.4174883365631104,-0.0813205316662788,0.0619529597461223,0.0722746774554252,-0.0176214110106229,0.0,0.0,-0.3974524736404419,0.0752025842666626
-0.0342389121651649,1.418781280517578,-0.0837610736489296,0.0575070194900035,0.071341298520565,-0.0186676476150751,0.0,0.0,-0.3205812573432922,-0.2546032667160034
-0.0351110473275184,1.4199742078781128,-0.0862107425928115,0.0530610643327236,0.0703546926379203,-0.0197320692241191,0.0,0.0,-0.1637477874755859,-0.5159127116203308
-0.0360452644526958,1.4210585355758667,-0.0933235958218574,0.0481968410313129,0.0702550634741783,-0.0019925194792449,0.0,0.0,-0.3534309864044189,-0.4085226058959961
-0.0370046608150005,1.422042727470398,-0.0957891941070556,0.0437509566545486,0.0701005980372428,-0.003089191392064,0.0,0.0,-0.2121953964233398,-0.1994882822036743
-0.0379894264042377,1.4229267835617063,-0.0982616916298866,0.0393050834536552,0.0698905885219574,-0.0042001320980489,0.0,0.0,-0.2315268516540527,-0.4115715026855469
-0.0389994606375694,1.423710823059082,-0.1007404699921608,0.0348592028021812,0.0696243718266487,-0.0053241727873682,0.0,0.0,-0.5187307596206665,-0.0451079607009887
-0.0400349609553813,1.4243948459625244,-0.1032249331474304,0.0304133296012878,0.0693013593554496,-0.0064603076316416,0.0,0.0,-0.2849906682968139,-0.2813431024551391
-0.0410959236323833,1.424978733062744,-0.1057145744562149,0.0259674526751041,0.0689209774136543,-0.0076075182296335,0.0,0.0,-0.4270572066307068,-0.1380670070648193
-0.0421825423836708,1.4254624843597412,-0.1082088723778724,0.0215215776115655,0.0684827417135238,-0.0087648835033178,0.0,0.0,-0.1110071539878845,0.505134105682373
-0.0432489402592182,1.42584490776062,-0.1049937456846237,0.0170682072639465,0.0668448284268379,-0.032758142799139,0.0,0.0,-0.435679018497467,-0.1225941777229309
-0.0443410873413085,1.4261270761489868,-0.1074960008263588,0.012622115202248,0.0651481673121452,-0.0339333787560462,0.0,0.0,-0.3386193513870239,0.3651142120361328
-0.0454588904976844,1.42630934715271,-0.1100016385316848,0.0081759998574852,0.0633923634886741,-0.0351163819432258,0.0,0.0,-0.4607741236686706,0.1983063220977783
-0.046602439135313,1.4263916015625,-0.1125102639198303,0.0037298600655049,0.0615770444273948,-0.0363064929842948,0.0,0.0,-0.4425646066665649,0.1703394651412964
-0.0477716438472271,1.4263737201690674,-0.1150215417146682,-0.0007163051050156,0.0597019009292125,-0.0375030972063541,0.0,0.0,-0.5412648916244507,0.2832151651382446
-0.0489665046334266,1.4262558221817017,-0.1175351366400718,-0.0051624970510602,0.0577666163444519,-0.0387055501341819,0.0,0.0,-0.5210585594177246,0.459466814994812
-0.0501872077584266,1.4260380268096924,-0.1200507283210754,-0.0096087157726287,0.0557709485292434,-0.0399133339524269,0.0,0.0,-0.4133881330490112,0.4630950689315796
-0.0514336600899696,0.0,-0.1225680261850357,-0.0140549633651971,0.0537146441638469,-0.041125975549221,0.0,0.0,-0.5815277099609375,0.0694810152053833
-0.0527058616280555,1.425302028656006,-0.1250867396593094,-0.0185012426227331,0.0515974834561347,-0.0423429608345031,0.0,0.0,-0.6409779191017151,0.3488543033599853
-0.0540040023624897,1.4247839450836182,-0.1276065856218338,-0.0229475516825914,0.0494193024933338,-0.0435638278722763,0.0,0.0,-0.5632637143135071,-0.0765923261642456
-0.0553279891610145,1.424165964126587,-0.1301273107528686,-0.0273938905447721,0.0471799038350582,-0.0447881445288658,0.0,0.0,-0.7136576175689697,-0.4014279842376709
-0.056677721440792,1.423448085784912,-0.1326486468315124,-0.0318402685225009,0.0448791198432445,-0.0460155010223388,0.0,0.0,-0.4930334091186523,0.4727374315261841
-0.0580533966422081,1.4226300716400146,-0.1351703107357025,-0.036286674439907,0.0425168499350547,-0.0472455136477947,0.0,0.0,-0.691092312335968,0.3182827234268188
-0.059454821050167,1.4217119216918943,-0.1376920789480209,-0.0407331176102161,0.0400929525494575,-0.0484778322279453,0.0,0.0,-0.8496735692024231,0.3471424579620361
-0.0608820915222168,1.4206939935684204,-0.1402136981487274,-0.0451796017587184,0.0376073382794857,-0.0497120693325996,0.0,0.0,-0.6089469790458679,0.4273793697357178
-0.0623352043330669,1.4195759296417236,-0.1427348852157592,-0.0496261194348335,0.0350599475204944,-0.0509479269385337,0.0,0.0,-0.647913932800293,0.3648397922515869
-0.0638141632080078,1.4183579683303833,-0.1452554017305374,-0.0540726818144321,0.0324506945908069,-0.0521850287914276,0.0,0.0,-0.7835303544998169,0.343106746673584
-0.0653189644217491,1.4170401096343994,-0.1477749496698379,-0.058519285172224,0.0297795590013265,-0.0534231141209602,0.0,0.0,-0.8377585411071777,0.4511702060699463
-0.0668495148420333,0.0,-0.1502932906150818,-0.0629659295082092,0.0270464550703763,-0.0546618625521659,0.0,0.0,-0.917348086833954,-0.2953593730926513
-0.0684059113264083,1.4141042232513428,-0.1528101414442062,-0.0674126148223877,0.0242514163255691,-0.0559009909629821,0.0,0.0,-0.9307677149772644,0.08826744556427
-0.0699880570173263,1.4124864339828491,-0.1553252041339874,-0.0718593448400497,0.0213943980634212,-0.0571401342749595,0.0,0.0,-0.9018273949623108,-0.0286948680877685
-0.071596048772335,1.410768747329712,-0.1578381508588791,-0.0763061121106147,0.0184754505753517,-0.0583790838718414,0.0,0.0,-0.7955859899520874,-0.3484596014022827
-0.0732297897338867,1.408950924873352,-0.1603486835956573,-0.0807529315352439,0.0154945785179734,-0.0596175119280815,0.0,0.0,-0.9802491664886476,-0.3352857828140259
-0.0748891830444336,1.4070333242416382,-0.1628564447164535,-0.0851997956633567,0.0124518275260925,-0.0608551502227783,0.0,0.0,-0.915928304195404,-0.3901777863502502
-0.0765742287039756,1.4050157070159912,-0.1653610914945602,-0.0896466895937919,0.0093472311273217,-0.0620916858315467,0.0,0.0,-0.991750955581665,-0.1961619853973388
-0.0782849341630935,1.4028983116149902,-0.1678622514009475,-0.0940936431288719,0.0061808908358216,-0.063326820731163,0.0,0.0,-0.9198911786079408,-0.0067174434661865
-0.0800211876630783,1.4006808996200562,-0.1703594923019409,-0.098540648818016,0.0029528664890676,-0.0645602867007255,0.0,0.0,-0.9228731989860536,0.1042559146881103
-0.0817831009626388,1.3983635902404783,-0.1728523671627044,-0.1029876992106437,-0.0003367241297382,-0.0657918006181716,0.0,0.0,-0.8847644329071045,0.2124631404876709
-0.0835704803466796,1.3959462642669678,-0.1753404438495636,-0.1074348241090774,-0.0036877717357128,-0.0670210272073745,0.0,0.0,-0.9625833630561828,0.189432144165039
-0.0853832215070724,1.393429160118103,-0.1778231561183929,-0.1118819788098335,-0.0071001639589667,-0.0682476833462715,0.0,0.0,-0.9888990521430968,0.142815351486206
-0.0872214287519455,1.3908123970031738,-0.1802999824285507,-0.1163291856646537,-0.010573735460639,-0.0694714337587356,0.0,0.0,-0.9585012197494508,-0.4867956638336181
-0.089085005223751,1.388095498085022,-0.1827702969312667,-0.1207764521241188,-0.0141083300113677,-0.0706920027732849,0.0,0.0,-0.9940581321716307,-0.3151528835296631
-0.0909737572073936,1.385278820991516,-0.1852334588766098,-0.125223770737648,-0.0177037790417671,-0.07190902531147,0.0,0.0,-0.98102205991745,0.101157546043396
-0.0928876847028732,1.3823623657226562,-0.1876887530088424,-0.1296711415052414,-0.0213598757982254,-0.0731221288442611,0.0,0.0,-0.8486943244934082,-0.3133881092071533
-0.0948266983032226,1.3793458938598633,-0.1901354193687439,-0.1341185569763183,-0.0250764228403568,-0.0743310302495956,0.0,0.0,-0.9864112734794616,-0.4676486253738403
-0.0967906937003135,1.376229763031006,-0.1925725936889648,-0.1385660469532013,-0.0288531873375177,-0.0755353271961212,0.0,0.0,-0.864797055721283,-0.378064751625061
-0.098779484629631,1.373013615608215,-0.1949993520975113,-0.1430136114358902,-0.0326899178326129,-0.0767346173524856,0.0,0.0,-0.9917517304420472,-0.3749781847000122
-0.1007930785417556,1.3696978092193604,-0.1974146664142608,-0.1474612057209015,-0.0365863665938377,-0.0779285728931427,0.0,0.0,-0.9958928227424622,-0.3601076602935791
-0.1028312668204307,1.3662822246551514,-0.1998174637556076,-0.1519088596105575,-0.0405422039330005,-0.0791167318820953,0.0,0.0,-0.9947360157966614,-0.4748286008834839
-0.1048939675092697,1.3627667427062988,-0.2022065371274948,-0.1563565731048584,-0.0445571392774581,-0.0802986770868301,0.0,0.0,-0.9779291749000548,-0.8374596834182739
-0.1070494651794433,1.3591631650924685,-0.2131826430559158,-0.1602387279272079,-0.0469002984464168,-0.0468633212149143,0.0,0.0,-0.8982899188995361,-0.4993805885314941
-0.1092291846871376,1.355459451675415,-0.2155400216579437,-0.1646856218576431,-0.049301877617836,-0.0480316504836082,0.0,0.0,-0.997032344341278,-0.5769771933555603
-0.1114727035164833,1.351658821105957,-0.2228762358427047,-0.1689658761024475,-0.0507588982582092,-0.0291405227035284,0.0,0.0,-0.97462260723114,-0.6538876295089722
-0.1137920394539833,1.3477686643600464,-0.2317355871200561,-0.1728996336460113,-0.0509556904435157,-0.0039356714114546,0.0,0.0,-0.9983601570129396,-0.462182879447937
-0.1161349266767501,1.3437786102294922,-0.2340333759784698,-0.1773460805416107,-0.0512096807360649,-0.0050796815194189,0.0,0.0,-0.9841044545173644,-0.2820086479187011
-0.1185011863708496,1.3396885395050049,-0.2363074272871017,-0.1817925423383712,-0.051520399749279,-0.0062145986594259,0.0,0.0,-0.9923776984214784,-0.1712824702262878
-0.1208903342485427,1.3354984521865845,-0.2385555058717727,-0.1862390041351318,-0.0518874004483222,-0.0073397741653025,0.0,0.0,-0.9771060943603516,-0.7960991263389587
-0.1233787536621093,1.331212282180786,-0.2503592669963836,-0.1904468238353729,-0.0503887012600898,0.0299739353358745,0.0,0.0,-0.9658904671669006,0.2610205411911011
-0.1258896887302398,1.3268259763717651,-0.2525479197502136,-0.1948934495449066,-0.0489452034235,0.0288697071373462,0.0,0.0,-0.9889466166496276,0.2605423927307129
-0.128422737121582,1.32233989238739,-0.2547027170658111,-0.1993400603532791,-0.0475563593208789,0.0277768224477767,0.0,0.0,-0.9853143095970154,0.112323522567749
-0.1309774369001388,1.3177536725997925,-0.2568206191062927,-0.203786626458168,-0.0462215468287467,0.0266959425061941,0.0,0.0,-0.9978339076042176,0.0818043947219848
-0.1335534155368805,1.3130676746368408,-0.2588983178138733,-0.2082331925630569,-0.0449401773512363,0.0256275795400142,0.0,0.0,-0.9713820815086364,0.4987344741821289
-0.1361503601074218,1.308281421661377,-0.2609322071075439,-0.2126797139644622,-0.0437115505337715,0.0245723985135555,0.0,0.0,-0.9896075129508972,0.609796404838562
-0.1387145966291427,1.3033850193023682,-0.2562492489814758,-0.2176225334405899,-0.043877575546503,-0.0033205044455826,0.0,0.0,-0.9894248247146606,-0.1385439038276672
