x_pos,y_pos,x_vel,y_vel,angle,ang_vel,leg_1,leg_2,main_booster,lat_booster
-0.0015321731334552,1.4031513929367063,-0.1547385156154632,-0.3452761471271515,0.0013619889505207,0.0268364641815423,0.0,0.0,0.0550440549850463,0.9350370168685912
-0.0029661178123205,1.3953702449798584,-0.1424548923969268,-0.345826506614685,0.0004289467760827,-0.0186617989093065,0.0,0.0,-0.3816220164299011,0.3608301877975464
-0.0044198990799486,1.387115478515625,-0.1440180540084839,-0.366878867149353,-0.0009119256283156,-0.0268198456615209,0.0,0.0,-0.4370143413543701,0.2928864955902099
-0.0058988570235669,1.378387689590454,-0.1461328715085983,-0.3879067599773407,-0.0026579862460494,-0.0349246151745319,0.0,0.0,0.1239323616027832,0.4243977069854736
-0.0073195458389818,1.3698519468307495,-0.1403177827596664,-0.379372239112854,-0.0043855858966708,-0.0345550701022148,0.0,0.0,0.1289037466049194,0.6769437789916992
-0.0086152078583836,1.3613977432250977,-0.1262080371379852,-0.375756561756134,-0.0077078524045646,-0.0664516538381576,0.0,0.0,-0.0236260890960693,0.1166827678680419
-0.0099516864866018,1.352470636367798,-0.129889041185379,-0.3967846930027008,-0.0114244865253567,-0.0743394941091537,0.0,0.0,0.0159306526184082,0.5806725025177002
-0.011180305853486,1.3436665534973145,-0.1177005767822265,-0.3913344144821167,-0.0165293905884027,-0.1021075472235679,0.0,0.0,0.0391618013381958,0.1350517272949218
-0.0124580385163426,1.335179567337036,-0.1221835017204284,-0.377274215221405,-0.0220581665635108,-0.1105857715010643,0.0,0.0,-0.2294172048568725,-0.1189044713973999
-0.0137904165312647,1.326219916343689,-0.1272579878568649,-0.3983064889907837,-0.0279716458171606,-0.1182804554700851,0.0,0.0,-0.6387509107589722,0.1064317226409912
-0.015181541442871,1.3167879581451416,-0.132752776145935,-0.4193329513072967,-0.0342664159834384,-0.1259067058563232,0.0,0.0,0.334263801574707,-0.1670954823493957
-0.0165637973695993,1.3075202703475952,-0.1317467242479324,-0.4120625555515289,-0.0406686514616012,-0.1280565112829208,0.0,0.0,-0.5975419878959656,0.0620118379592895
-0.0180124286562204,1.2977800369262695,-0.1380128711462021,-0.4330977499485016,-0.0474456511437892,-0.1355525553226471,0.0,0.0,0.3006408214569092,0.5230386257171631
-0.0194175727665424,1.2879745960235596,-0.1323840916156768,-0.4360704720020294,-0.0554947257041931,-0.1609961837530136,0.0,0.0,0.2229869365692138,0.0078842639923095
-0.0207576751708984,1.2786024808883667,-0.1260066330432891,-0.4168532192707062,-0.0634192824363708,-0.1585055291652679,0.0,0.0,-0.0695207118988037,0.5135053396224976
-0.022126292809844,1.2687479257583618,-0.1272818744182586,-0.4384132027626037,-0.0729155614972114,-0.1899427622556686,0.0,0.0,-0.5267456769943237,0.1456142663955688
-0.0235736854374408,1.258421778678894,-0.1348054409027099,-0.4594454169273376,-0.082772172987461,-0.1971499621868133,0.0,0.0,0.1031093597412109,0.3125602006912231
-0.0249869339168071,1.2479865550994873,-0.1314931362867355,-0.4643607139587402,-0.0925408825278282,-0.1953918039798736,0.0,0.0,0.2818818092346191,0.0766346454620361
-0.0263514518737792,1.237999677658081,-0.1266162693500518,-0.4444980919361114,-0.102311722934246,-0.1954346597194671,0.0,0.0,-0.8874528408050537,-0.3838260173797607
-0.0278019905090332,1.2275413274765017,-0.1348702162504196,-0.4655416905879974,-0.1124339327216148,-0.2024620473384857,0.0,0.0,-0.6037779450416565,-0.0595002770423889
-0.029340362176299,1.2166119813919067,-0.1433281004428863,-0.4865777790546417,-0.122903935611248,-0.2094186097383499,0.0,0.0,-0.3121512532234192,0.7249419689178467
-0.0309109687805175,1.2051968574523926,-0.1447338312864303,-0.5083981156349182,-0.1351945400238037,-0.2458342760801315,0.0,0.0,0.2306859493255615,0.7691653966903687
-0.0323493964970111,1.193879008293152,-0.1297701895236969,-0.5043590664863586,-0.1492432653903961,-0.2809995412826538,0.0,0.0,0.0256633758544921,-0.475164532661438
-0.0338089950382709,1.1823687553405762,-0.1317746937274933,-0.5130473971366882,-0.1634277403354644,-0.2837155163288116,0.0,0.0,-0.1795405149459839,-0.917201280593872
-0.0354508385062217,1.1704128980636597,-0.1519709676504135,-0.5327665209770203,-0.1756754219532013,-0.2449756413698196,0.0,0.0,0.0596194267272949,-0.4913911819458008
-0.0372040756046772,1.1586569547653198,-0.1623591482639312,-0.5240718126296997,-0.1886876374483108,-0.2602438926696777,0.0,0.0,-0.3417873382568359,-0.9460466504096984
-0.0391266830265522,1.1464574337005615,-0.1808726787567138,-0.5436893701553345,-0.2001387327909469,-0.2290219813585281,0.0,0.0,0.8372950553894043,-0.5440553426742554
-0.0411579124629497,1.1352009773254397,-0.1920978128910064,-0.5018118619918823,-0.2112542390823364,-0.2223102301359176,0.0,0.0,0.0103044509887695,-0.8370155692100525
-0.0433446876704692,1.1242259740829468,-0.2090263664722442,-0.4891975820064544,-0.2210085391998291,-0.1950864344835281,0.0,0.0,0.0096969604492187,0.2638146877288818
-0.0455788597464561,1.1132203340530396,-0.2134118974208831,-0.4906740486621856,-0.231142371892929,-0.2026765793561935,0.0,0.0,-0.2402024865150451,-0.5695409178733826
-0.0479554161429405,1.1017649173736572,-0.2284611761569976,-0.5105972290039062,-0.2404750883579254,-0.1866543889045715,0.0,0.0,0.4086512327194214,-0.3591896295547485
-0.0504091270267963,1.0904067754745483,-0.2355909645557403,-0.5064374208450317,-0.2504276037216186,-0.199050173163414,0.0,0.0,-0.5475996136665344,0.490018367767334
-0.052965261042118,1.078577995300293,-0.2455528527498245,-0.5274756550788879,-0.2606891691684723,-0.2052313089370727,0.0,0.0,0.1642965078353881,-0.3479160070419311
-0.0556021705269813,1.0666643381118774,-0.2531658113002777,-0.5314065217971802,-0.271463394165039,-0.2154845893383026,0.0,0.0,-0.374030590057373,-0.0762543082237243
-0.0583426468074321,1.0542802810668943,-0.2632541060447693,-0.5524463057518005,-0.2825380861759186,-0.2214932143688202,0.0,0.0,0.6550323963165283,-0.3717865347862243
-0.0609582886099815,1.0425094366073608,-0.2506044507026672,-0.525301456451416,-0.2938241362571716,-0.2257216870784759,0.0,0.0,-0.9855953454971312,-0.8285306096076965
-0.0637444481253624,1.0302938222885132,-0.2691015601158142,-0.5448646545410156,-0.3036476671695709,-0.1964707821607589,0.0,0.0,0.712249755859375,-0.7474843859672546
-0.066413402557373,1.0187492370605469,-0.2586857378482818,-0.5148354172706604,-0.3121426999568939,-0.1699002981185913,0.0,0.0,-0.0269476175308227,-0.8608736395835876
-0.0692542046308517,1.0067756175994873,-0.2774421572685241,-0.5336019396781921,-0.3190378546714782,-0.1379028260707855,0.0,0.0,0.1286230087280273,-0.4946325421333313
-0.0720520988106727,0.9949132800102234,-0.2729855477809906,-0.5287350416183472,-0.3261167705059051,-0.141579121351242,0.0,0.0,-0.1988724470138549,0.3416862487792969
-0.0749558433890342,0.9825795888900756,-0.283336877822876,-0.5497698187828064,-0.3334620893001556,-0.1469063311815261,0.0,0.0,0.0010848045349121,-0.9257453680038452
-0.0778464302420616,0.9702139496803284,-0.28355672955513,-0.5508705973625183,-0.3392180204391479,-0.1151179447770118,0.0,0.0,0.0020135641098022,-0.1933937668800354
-0.0807246193289756,0.9576162695884703,-0.2823417782783508,-0.5611922740936279,-0.344952791929245,-0.1146953925490379,0.0,0.0,0.9029941558837892,0.4393074512481689
-0.0833958610892295,0.9453487992286682,-0.2619291543960571,-0.5464820265769958,-0.3504016995429992,-0.1089784055948257,0.0,0.0,0.5260815620422363,-0.7020336389541626
-0.0861729606986045,0.9330346584320068,-0.273596316576004,-0.5483066439628601,-0.3547316789627075,-0.0865997225046157,0.0,0.0,0.8301892280578613,-0.7529947757720947
-0.0889338478446006,0.9207640290260316,-0.2733294069766998,-0.5460405349731445,-0.3576329946517944,-0.0580261349678039,0.0,0.0,0.2886570692062378,-0.0908896923065185
-0.0916351303458213,0.9084863662719728,-0.2673789858818054,-0.546362042427063,-0.3605290949344635,-0.0579221062362194,0.0,0.0,0.4642733335494995,-0.3854068517684936
-0.0942760482430458,0.8968266844749451,-0.2607108950614929,-0.5190626382827759,-0.3640901744365692,-0.0712222531437873,0.0,0.0,0.778336763381958,0.6232733726501465
-0.0968182533979415,0.8859452605247498,-0.2491096258163452,-0.4849311709403991,-0.3694970607757568,-0.1081374287605285,0.0,0.0,0.7225654125213623,0.5461516380310059
-0.0992583259940147,0.8753218054771423,-0.2376201450824737,-0.4738146364688873,-0.3762731552124023,-0.135522186756134,0.0,0.0,0.818713903427124,-0.2858169078826904
-0.101427748799324,0.8650168776512146,-0.2110835611820221,-0.4595582187175751,-0.3824875950813293,-0.1242889314889907,0.0,0.0,0.6815543174743652,-0.7762471437454224
-0.1035391837358474,0.8553583025932312,-0.2065646350383758,-0.4305083155632019,-0.3873689770698547,-0.0976276621222496,0.0,0.0,0.3919744491577148,-0.4811246991157532
-0.1055309325456619,0.8456956744194031,-0.1948674917221069,-0.4306288063526153,-0.3919664919376373,-0.0919500887393951,0.0,0.0,0.9284603595733644,-0.7777653932571411
-0.1073246970772743,0.836890697479248,-0.1764812171459198,-0.3921305239200592,-0.395067811012268,-0.0620257072150707,0.0,0.0,0.9333784580230712,-0.9362556338310242
-0.1088969260454177,0.8283315300941467,-0.1563298553228378,-0.3806636035442352,-0.3960242569446563,-0.0191286504268646,0.0,0.0,0.8582601547241211,-0.9216116666793824
-0.1105491667985916,0.82014000415802,-0.1658328026533126,-0.3638979494571686,-0.3953739106655121,0.0130070624873042,0.0,0.0,0.9425461292266846,-0.8161063194274902
-0.1118931770324707,0.8127472400665283,-0.1367445886135101,-0.3279121816158294,-0.3928612470626831,0.0502530857920646,0.0,0.0,0.9159978628158568,-0.1749880313873291
-0.11289644241333,0.8058739304542542,-0.1033143177628517,-0.3046611249446869,-0.3896738588809967,0.0637482851743698,0.0,0.0,0.8890715837478638,-0.814369261264801
-0.1136190444231033,0.799825131893158,-0.0769726485013961,-0.2675539851188659,-0.3846568167209625,0.1003408432006836,0.0,0.0,0.6533619165420532,-0.9008831977844238
-0.1142952889204025,0.7944923639297485,-0.0739605575799942,-0.2353226989507675,-0.3779210746288299,0.1347148716449737,0.0,0.0,0.6217547655105591,-0.4697180986404419
-0.1148968711495399,0.7891661524772644,-0.0667060688138008,-0.2350055426359176,-0.370967298746109,0.139075681567192,0.0,0.0,0.7648571729660034,-0.630496084690094
-0.1154852882027626,0.784507691860199,-0.0663985759019851,-0.2051094621419906,-0.3629885613918304,0.1595749855041504,0.0,0.0,-0.3876168727874756,-0.7392153143882751
-0.1162232384085655,0.7793998718261719,-0.0825076326727867,-0.2248330563306808,-0.3537838757038116,0.1840933263301849,0.0,0.0,0.0992915630340576,0.4488892555236816
-0.1169104576110839,0.7743856310844421,-0.0775770097970962,-0.2207023799419403,-0.344468206167221,0.1863129585981369,0.0,0.0,0.2770688533782959,-0.4742543697357178
-0.1175923347473144,0.7693336606025696,-0.0771660357713699,-0.2224181145429611,-0.3350684940814972,0.1879943907260894,0.0,0.0,-0.4166462421417236,0.12012779712677
-0.1183793097734451,0.7638094425201416,-0.0877542048692703,-0.2434468418359756,-0.3255951404571533,0.1894666850566864,0.0,0.0,-0.9288550615310668,0.5240476131439209
-0.1192290335893631,0.7577980160713196,-0.0930938422679901,-0.2653678059577942,-0.3171326220035553,0.1692495644092559,0.0,0.0,-0.8725613355636597,0.0856299400329589
-0.1201830878853797,0.751314103603363,-0.1036609262228012,-0.2863944470882416,-0.3085621297359466,0.1714095622301101,0.0,0.0,0.3814921379089355,-0.6869720816612244
-0.1210503578186035,0.7453986406326294,-0.0965330600738525,-0.2608594000339508,-0.2984174489974975,0.2028929740190506,0.0,0.0,-0.8224218487739563,-0.5302355885505676
-0.1220679283142089,0.7390300035476685,-0.112941101193428,-0.2807923853397369,-0.2868870794773102,0.230607658624649,0.0,0.0,-0.9291911721229552,0.2427113056182861
-0.123188778758049,0.7321895956993103,-0.1234667152166366,-0.3018231093883514,-0.2751997113227844,0.2337476462125778,0.0,0.0,-0.9714089632034302,0.596245288848877
-0.1243650466203689,0.7248582243919373,-0.1279617846012115,-0.323933869600296,-0.2646093964576721,0.2118062973022461,0.0,0.0,-0.9620545506477356,0.5952944755554199
-0.1256072074174881,0.7170464396476746,-0.1338448077440261,-0.3454872369766235,-0.2547729611396789,0.1967288106679916,0.0,0.0,-0.9101802706718444,0.5491870641708374
-0.1269048750400543,0.7087435126304626,-0.1383830457925796,-0.36754310131073,-0.2459805905818939,0.1758473217487335,0.0,0.0,-0.9277184009552002,-0.1089777946472168
-0.1283045709133148,0.6999678611755371,-0.1488188803195953,-0.3885687589645386,-0.2369724959135055,0.1801616251468658,0.0,0.0,-0.9926386475563048,0.8289964199066162
-0.1297365128993988,0.6906854510307312,-0.1504544615745544,-0.4114079475402832,-0.2296041399240493,0.1473668068647384,0.0,0.0,-0.9953205585479736,0.1957112550735473
-0.1312696486711502,0.6809297800064087,-0.1608303189277649,-0.4324315786361694,-0.2219942361116409,0.1521980166435241,0.0,0.0,-0.7556902766227722,0.8456211090087891
-0.1328382492065429,0.6706867218017578,-0.1629808843135833,-0.4543397128582001,-0.2158043682575225,0.1237973719835281,0.0,0.0,-0.6426695585250854,-0.440145194530487
-0.1345071792602539,0.6599703431129456,-0.1732846796512603,-0.4753618836402893,-0.2093495726585388,0.1290960609912872,0.0,0.0,-0.883013129234314,0.4280732870101928
-0.1362758576869964,0.648780882358551,-0.1835475265979766,-0.4963842332363128,-0.2026190757751464,0.134609967470169,0.0,0.0,-0.0914208889007568,0.3113865852355957
-0.1381438225507736,0.6371180415153503,-0.1937655508518219,-0.5174068808555603,-0.1956027150154113,0.1403272598981857,0.0,0.0,0.5960311889648438,0.7193131446838379
-0.1398634910583496,0.6260829567909241,-0.1778858006000518,-0.4896798431873321,-0.189647689461708,0.1191001310944557,0.0,0.0,-0.897918701171875,0.6483566761016846
-0.1416394263505935,0.6145623326301575,-0.1827415972948074,-0.5113771557807922,-0.1844707578420639,0.1035385951399803,0.0,0.0,0.4096865653991699,0.5717883110046387
-0.1434119194746017,0.6034248471260071,-0.1814667731523513,-0.4944771826267242,-0.1802385449409485,0.0846444815397262,0.0,0.0,0.2003645896911621,0.4511702060699463
-0.1451985388994217,0.5925660133361816,-0.1831653416156768,-0.482077032327652,-0.1757258176803589,0.090254470705986,0.0,0.0,-0.3196157217025757,-0.1838630437850952
-0.1470811814069748,0.5812336206436157,-0.1930892169475555,-0.5030977129936218,-0.1708851009607315,0.0968144088983535,0.0,0.0,0.7535684108734131,0.8237578868865967
-0.1489066183567047,0.5699329972267151,-0.1861073821783065,-0.5018417835235596,-0.167313739657402,0.0714268237352371,0.0,0.0,-0.3414254784584045,0.8629162311553955
-0.1507494002580642,0.5581328868865967,-0.1861917972564697,-0.5242369771003723,-0.1653999388217926,0.0382759571075439,0.0,0.0,0.2011020183563232,0.6295464038848877
-0.1524506509304046,0.5464313626289368,-0.1713054478168487,-0.5199378728866577,-0.1642135679721832,0.0237269923090934,0.0,0.0,-0.3336747884750366,-0.8190072178840637
-0.1542939245700836,0.5342620015144348,-0.1871221512556076,-0.5405514240264893,-0.1614183187484741,0.0559049025177955,0.0,0.0,0.8855674266815186,0.7481622695922852
-0.1560385674238205,0.5228812098503113,-0.1761029362678527,-0.5056371092796326,-0.1597767621278762,0.0328312218189239,0.0,0.0,0.1977856159210205,0.7499804496765137
-0.1577014029026031,0.5118263363838196,-0.1668145358562469,-0.4912682473659515,-0.1592453569173813,0.0106278201565146,0.0,0.0,-0.461205780506134,-0.0375479459762573
-0.1594530045986175,0.5002976655960083,-0.1760579198598861,-0.5122872591018677,-0.1583486050367355,0.0179352425038814,0.0,0.0,0.830416202545166,0.9070799350738524
-0.1610430777072906,0.4887753129005432,-0.1586625725030899,-0.5121411681175232,-0.1586911827325821,-0.0068515501916408,0.0,0.0,-0.3782703876495361,0.960106611251831
-0.1626509726047516,0.4767600297927856,-0.1590671092271804,-0.5341975092887878,-0.1604173928499221,-0.0345243252813816,0.0,0.0,-0.3595897555351257,-0.7357765436172485
-0.1643916070461273,0.4642916023731231,-0.1739900410175323,-0.554161787033081,-0.1604977995157241,-0.0016080109635367,0.0,0.0,0.6839203834533691,0.8197200298309326
-0.1660843789577484,0.452198714017868,-0.1678836345672607,-0.5376104116439819,-0.1618885397911071,-0.0278151482343673,0.0,0.0,0.5256433486938477,0.7701749801635742
-0.1678046286106109,0.4407426714897156,-0.1692610085010528,-0.5094629526138306,-0.1646508574485778,-0.0552464015781879,0.0,0.0,0.247598648071289,0.9719080924987792
-0.1693653166294098,0.4295597076416015,-0.1517753899097442,-0.4975026547908783,-0.1689530611038208,-0.0860442221164703,0.0,0.0,0.2424415349960327,0.991570234298706
-0.1708765923976898,0.4187366962432861,-0.1452263742685318,-0.4817047715187073,-0.1748648136854171,-0.1182350665330886,0.0,0.0,0.0743494033813476,0.990053415298462
-0.1723635643720626,0.4081630706787109,-0.1412334740161895,-0.4708373248577118,-0.182349607348442,-0.1496959626674652,0.0,0.0,-0.8007270097732544,-0.7205715179443359
-0.1739814728498459,0.3971298038959503,-0.1562247425317764,-0.4910640120506286,-0.1879469156265258,-0.1119460687041282,0.0,0.0,-0.173471987247467,0.988173484802246
-0.1756073981523513,0.3856064081192016,-0.1558251678943634,-0.5130268335342407,-0.1947582513093948,-0.1362264901399612,0.0,0.0,-0.8490557074546814,0.2777662277221679
-0.1773008406162262,0.3736095428466797,-0.1629502475261688,-0.5340481400489807,-0.2011851370334625,-0.1285380572080612,0.0,0.0,-0.8453423380851746,0.918023943901062
-0.1789743453264236,0.3611189723014831,-0.1592198759317398,-0.5562608242034912,-0.2093934118747711,-0.1641655713319778,0.0,0.0,-0.6572906970977783,-0.0552822947502136
-0.1807096451520919,0.3481551706790924,-0.1657747477293014,-0.5772834420204163,-0.2172180712223053,-0.1564930230379104,0.0,0.0,-0.4379254579544067,-0.075720191001892
-0.1825034171342849,0.3347180187702179,-0.1720206290483474,-0.598305344581604,-0.2246599197387695,-0.1488372832536697,0.0,0.0,0.2962640523910522,-0.1439525485038757
-0.1842343360185623,0.3217038810253143,-0.1660438627004623,-0.5795015692710876,-0.2318031191825866,-0.1428639888763427,0.0,0.0,0.4774016141891479,-0.0704832673072815
-0.1857174932956695,0.3092875480651855,-0.1422318518161773,-0.5528058409690857,-0.2379758059978485,-0.1234533786773681,0.0,0.0,0.5539752244949341,-0.9678838849067688
-0.1871155798435211,0.2971903383731842,-0.1361159980297088,-0.5382565855979919,-0.2417322695255279,-0.0751293152570724,0.0,0.0,0.8276567459106445,-0.3389959335327148
-0.188350111246109,0.2859373688697815,-0.1200870126485824,-0.5006893873214722,-0.2451487481594085,-0.0683296248316764,0.0,0.0,0.9834344387054444,-0.8613568544387817
-0.1893835067749023,0.2755890488624573,-0.102219745516777,-0.4601095616817474,-0.2462828606367111,-0.0226824097335338,0.0,0.0,0.9837658405303956,0.403791069984436
-0.1902258843183517,0.265531986951828,-0.083933874964714,-0.4470315277576446,-0.2465969771146774,-0.0062824748456478,0.0,0.0,0.9825167655944824,0.8069016933441162
-0.1910132467746734,0.256116509437561,-0.0768449306488037,-0.4187842607498169,-0.2485176920890808,-0.0384142585098743,0.0,0.0,0.954564094543457,0.2010895013809204
-0.1918269097805023,0.2471682876348495,-0.0791534259915351,-0.3980754911899566,-0.2507735788822174,-0.045117687433958,0.0,0.0,0.7682210206985474,0.5630526542663574
-0.1924964934587478,0.2386149019002914,-0.0639240592718124,-0.3806710243225097,-0.2538692355155945,-0.0619131922721862,0.0,0.0,0.9718990325927734,-0.586575448513031
-0.1930397003889084,0.2305157780647277,-0.0528915449976921,-0.3602102696895599,-0.2553265392780304,-0.0291452053934335,0.0,0.0,0.9360268115997314,-0.1620836853981018
-0.1933445036411285,0.2224959731101989,-0.0301020890474319,-0.3565011620521545,-0.255717933177948,-0.0078278742730617,0.0,0.0,0.5149424076080322,-0.5269137024879456
-0.1934494078159332,0.2148934453725814,-0.0117325810715556,-0.337673157453537,-0.2544462382793426,0.025433937087655,0.0,0.0,0.9053237438201904,-0.6494407653808594
-0.1933459341526031,0.2081808447837829,0.0073851533234119,-0.2978265583515167,-0.2514260113239288,0.0604045316576957,0.0,0.0,-0.2420325279235839,-0.5539283156394958
