x_pos,y_pos,x_vel,y_vel,angle,ang_vel,leg_1,leg_2,main_booster,lat_booster
-0.0016663551796227,1.403369665145874,-0.1689173877239227,-0.335570216178894,0.0020452679600566,0.0403657481074333,0.0,0.0,-0.1296254867373045,-0.8711639298916046
-0.0035387992393225,1.3955833911895752,-0.1910319179296493,-0.3460616171360016,0.0057854265905916,0.074811078608036,0.0,0.0,-0.8634264895774437,0.8603233856088154
-0.0054719923064112,1.3875367641448977,-0.1951668560504913,-0.3576433062553406,0.0076119294390082,0.0365334078669548,0.0,0.0,0.7896315875018669,0.8031044661839758
-0.0076307295821607,1.3800435066223145,-0.2159641087055206,-0.3330327868461609,0.0077045778743922,0.0018533014226704,0.0,0.0,0.4856432938467225,0.9057951737435392
-0.0097341537475585,1.3731801509857178,-0.2089640200138092,-0.3050290942192077,0.0063307522796094,-0.0274789836257696,0.0,0.0,-0.6287891584307728,0.6503415732059328
-0.0119174001738429,1.366061806678772,-0.2154813259840011,-0.3163612186908722,0.0035233004018664,-0.0561542809009552,0.0,0.0,0.4122526716744361,-0.8037056601185149
-0.0143294334411621,1.359428882598877,-0.2400796115398407,-0.2947924733161926,0.0024134118575602,-0.0221995525062084,0.0,0.0,0.1610132652868465,-0.7063734017428667
-0.016821289435029,1.3532254695892334,-0.2497652024030685,-0.2757095992565155,0.0029863030649721,0.0114588309079408,0.0,0.0,-0.4661924055931097,-0.6428213287583342
-0.0195063594728708,1.3467742204666138,-0.2705287039279938,-0.2867341637611389,0.0049800779670476,0.0398792773485183,0.0,0.0,0.3345294001289953,-0.7742576736884232
-0.0223974231630563,1.3409528732299805,-0.2927853167057037,-0.2587462067604065,0.0086209960281848,0.0728248506784439,0.0,0.0,0.1738191794407886,-0.8173388440049371
-0.025426959618926,1.3355110883712769,-0.3084378242492676,-0.2418981939554214,0.0140462322160601,0.1085146069526672,0.0,0.0,0.2283701356514649,0.6329938820705131
-0.0284941680729389,1.3304049968719482,-0.3111343681812286,-0.2269861847162246,0.0184156503528356,0.0873960703611373,0.0,0.0,-0.0200994151544422,0.7800730057535122
-0.0316264145076274,1.3250503540039062,-0.3158396184444427,-0.2380172461271286,0.0209940411150455,0.0515724830329418,0.0,0.0,-0.0126308218403516,0.6670756763595926
-0.0348392501473426,1.31943678855896,-0.3224876523017883,-0.2495084553956985,0.022180002182722,0.023721519857645,0.0,0.0,0.7693970431180479,-0.9553350281904276
-0.0381172187626361,1.314905881881714,-0.3312495946884155,-0.2014374732971191,0.0256014671176671,0.0684356838464737,0.0,0.0,-0.3702776349344883,-0.6688228498024915
-0.0415761955082416,1.3101104497909546,-0.3505196869373321,-0.2132105827331543,0.0301718860864639,0.0914161801338195,0.0,0.0,0.7970754217551101,0.7686710630200138
-0.0449765212833881,1.3064751625061035,-0.343511700630188,-0.1616490185260772,0.0336259827017784,0.0690880417823791,0.0,0.0,0.7813059793474806,0.8196223205578927
-0.0482930168509483,1.303195238113403,-0.3338956534862518,-0.1458207815885543,0.0358366258442401,0.0442169159650802,0.0,0.0,0.4816063853518806,-0.8081437062492798
-0.0517376884818077,1.3007495403289795,-0.3485101759433746,-0.1088024601340293,0.0398396886885166,0.080068714916706,0.0,0.0,0.997244509094792,0.8975436480087107
-0.0553802475333213,1.2990719079971311,-0.3663194179534912,-0.0746137946844101,0.041872788220644,0.0406656339764595,0.0,0.0,0.2336348005890609,0.6730317876496474
-0.0590206161141395,1.2979960441589355,-0.3649221062660217,-0.0478449575603008,0.0427541770040988,0.0176294259727001,0.0,0.0,-0.8099973141466665,0.6205975367585499
-0.0627433806657791,1.2966649532318115,-0.3719132244586944,-0.0591448694467544,0.0423949062824249,-0.0071862200275063,0.0,0.0,-0.6179749768170721,0.961573683432782
-0.0665051490068435,1.2950841188430786,-0.3734675049781799,-0.0701930448412895,0.0397220142185688,-0.0534625649452209,0.0,0.0,0.0361228527236878,0.6141561303094486
-0.0703063979744911,1.2935408353805542,-0.3762604296207428,-0.0684848725795745,0.0358943901956081,-0.0765599310398101,0.0,0.0,-0.1321446857427346,-0.6500312323738138
-0.0742999091744422,1.2917416095733645,-0.3970918953418731,-0.0799189731478691,0.0336609110236167,-0.0446732565760612,0.0,0.0,0.7847157736375674,0.7529471902318701
-0.0785580649971962,1.290804743766785,-0.4216570854187011,-0.0415462963283062,0.0295527782291173,-0.0821629837155342,0.0,0.0,-0.5602488541044022,0.8114255205258033
-0.0828775390982627,1.2896217107772827,-0.4261197447776794,-0.052480686455965,0.0238026902079582,-0.1150016188621521,0.0,0.0,0.5627025503328,-0.920395547795638
-0.087551973760128,1.289356708526611,-0.463273823261261,-0.0117136044427752,0.0196836441755294,-0.0823812186717987,0.0,0.0,0.2596350654892134,0.7232050975516462
-0.0924152359366417,1.2897275686264038,-0.4805043637752533,0.0165460333228111,0.0139467874541878,-0.1147372275590896,0.0,0.0,0.8338425412142483,0.9010693601488176
-0.0973608046770095,1.2906537055969238,-0.4868539273738861,0.041211150586605,0.0063360617496073,-0.1522142887115478,0.0,0.0,-0.4206414933607565,-0.922404194094086
-0.1024956703186035,1.2913354635238647,-0.5075401067733765,0.0303133204579353,0.0004596304497681,-0.117528535425663,0.0,0.0,0.5466930153118585,-0.816533180068734
-0.1078930869698524,1.2923734188079834,-0.5352462530136108,0.04612697660923,-0.0039687319658696,-0.0885674208402633,0.0,0.0,-0.7341028355819406,0.903547982980894
-0.1133427619934082,1.2931652069091797,-0.5388655066490173,0.0351642295718193,-0.0100014563649892,-0.1206544786691665,0.0,0.0,0.3154110642937449,-0.8418230722056641
-0.1190259903669357,1.2941278219223022,-0.5637854337692261,0.0427405349910259,-0.0144774112850427,-0.08951897919178,0.0,0.0,-0.9269986072578522,-0.9893385288995936
-0.1248947158455848,1.2948395013809204,-0.5842089056968689,0.0316047854721546,-0.0171035751700401,-0.0525232180953025,0.0,0.0,-0.4107169576959484,-0.7680123274276611
-0.1309289932250976,1.2953039407730105,-0.6021981835365295,0.0206263605505228,-0.018317786976695,-0.0242844447493553,0.0,0.0,-0.5422720350742136,0.8107465280104872
-0.1370058953762054,1.295507788658142,-0.6048256754875183,0.0090298764407634,-0.0211488492786884,-0.0566212013363838,0.0,0.0,0.7569923722985747,-0.7155278019249836
-0.1431793272495269,1.2966772317886353,-0.6159266829490662,0.051950704306364,-0.0225384756922721,-0.0277927704155445,0.0,0.0,-0.6353516878922534,0.8423964509790427
-0.149388313293457,1.297599196434021,-0.6178158521652222,0.0409309789538383,-0.0255771297961473,-0.0607730969786644,0.0,0.0,0.6433400441146986,-0.9053973117381098
-0.1557168066501617,1.2991760969161987,-0.6315509080886841,0.0700595527887344,-0.0268578939139843,-0.0256153549998998,0.0,0.0,0.1801750270995092,0.8684589902710267
-0.1621415168046951,1.3013405799865725,-0.6392815709114075,0.096136100590229,-0.0300047025084495,-0.0629364699125289,0.0,0.0,-0.9501026272773744,-0.2806322574615478
-0.1686543524265289,1.303250432014465,-0.6479981541633606,0.0848172232508659,-0.0332486629486084,-0.0648793652653694,0.0,0.0,-0.8571109771728516,0.546506404876709
-0.175201803445816,1.3048975467681885,-0.6500688791275024,0.0730902031064033,-0.0378572531044483,-0.092171773314476,0.0,0.0,-0.8637121915817261,0.427060604095459
-0.1818300187587738,1.3062902688980105,-0.6580520868301392,0.0617702789604663,-0.0425715036690235,-0.094285063445568,0.0,0.0,-0.800571858882904,0.802404522895813
-0.1884764730930328,1.3074157238006592,-0.6582541465759277,0.0498169288039207,-0.0488857068121433,-0.1262842416763305,0.0,0.0,-0.9075612425804138,0.7648019790649414
-0.1951313018798828,1.3082743883132937,-0.6573176980018616,0.0378828905522823,-0.0569531768560409,-0.1613495498895645,0.0,0.0,-0.9736602902412416,0.7937030792236328
-0.2017862796783447,1.308869481086731,-0.6554639339447021,0.0260370019823312,-0.0668793022632598,-0.1985227167606353,0.0,0.0,-0.838965892791748,0.5503668785095215
-0.2084706276655197,1.3092139959335327,-0.6573817133903503,0.014774365350604,-0.0778173506259918,-0.2187610119581222,0.0,0.0,-0.978396475315094,0.864129900932312
-0.2151620835065841,1.309307098388672,-0.6566259264945984,0.0034370333887636,-0.0902213454246521,-0.2480797320604324,0.0,0.0,-0.97898668050766,0.8775615692138672
-0.2218433320522308,1.3091363906860352,-0.6537879109382629,-0.0085116811096668,-0.1044435799121856,-0.2844448089599609,0.0,0.0,-0.980620265007019,0.6783673763275146
-0.2285105288028717,1.308703899383545,-0.650574803352356,-0.0204352978616952,-0.1204749271273613,-0.3206271529197693,0.0,0.0,-0.9519382119178772,0.0848860740661621
-0.2352251559495926,1.3080202341079712,-0.6552112698554993,-0.0317758955061435,-0.1366440504789352,-0.3233823776245117,0.0,0.0,-0.9225035905838012,0.4963885545730591
-0.2419826984405517,1.307085633277893,-0.6593977212905884,-0.0431170463562011,-0.1529547870159149,-0.3262149691581726,0.0,0.0,-0.9876945614814758,0.6169153451919556
-0.2487294673919677,1.3058950901031494,-0.6569861173629761,-0.0548342876136302,-0.170648768544197,-0.3538796007633209,0.0,0.0,-0.8908812999725342,-0.311988353729248
-0.2555100321769714,1.3044542074203491,-0.6602650880813599,-0.0661801174283027,-0.188491865992546,-0.35686194896698,0.0,0.0,-0.9459398984909058,-0.5632310509681702
-0.2623707354068756,1.3027751445770264,-0.6694859862327576,-0.0768265053629875,-0.2051797062158584,-0.3337567448616028,0.0,0.0,-0.8968658447265625,0.2587611675262451
-0.269256055355072,1.3008453845977783,-0.6718530654907227,-0.0881698876619339,-0.2220240235328674,-0.3368865847587585,0.0,0.0,-0.307095468044281,-0.6110332012176514
-0.2761974334716797,1.2986797094345093,-0.6782938241958618,-0.0987194776535034,-0.2380778640508651,-0.3210767209529876,0.0,0.0,-0.8757762312889099,0.1866450309753418
-0.2831543385982513,1.2962632179260254,-0.6797564029693604,-0.1100615561008453,-0.2542952001094818,-0.3243467211723327,0.0,0.0,0.3491437435150146,-0.3515921831130981
-0.2900211811065674,1.2945512533187866,-0.6703659892082214,-0.0790074691176414,-0.2709671258926391,-0.3334382474422455,0.0,0.0,-0.2020434141159057,-0.6816141605377197
-0.2969431281089782,1.2926024198532104,-0.6770168542861938,-0.0894995927810669,-0.2865509390830993,-0.3116762340068817,0.0,0.0,0.6282095909118652,-0.4479819536209106
-0.3037668764591217,1.291439414024353,-0.6666525602340698,-0.0548610612750053,-0.3027651607990265,-0.3242844045162201,0.0,0.0,-0.321923017501831,-0.469458520412445
-0.3105886578559875,1.2900259494781494,-0.6663677096366882,-0.0662043765187263,-0.3191555738449096,-0.3278083801269531,0.0,0.0,0.3505086898803711,-0.5768279433250427
-0.3172700405120849,1.2890876531600952,-0.6534101963043213,-0.0450286753475666,-0.3345042467117309,-0.306973397731781,0.0,0.0,0.3407325744628906,-0.5330146551132202
-0.3238685131072998,1.28837251663208,-0.6460691690444946,-0.0350400209426879,-0.3489339351654053,-0.2885937690734863,0.0,0.0,0.4956634044647217,0.211998701095581
-0.3303752541542053,1.2882180213928225,-0.6362999677658081,-0.0104250246658921,-0.3640665709972381,-0.3026532530784607,0.0,0.0,0.2220292091369629,0.0390180349349975
-0.3366236090660095,1.2886914014816284,-0.6104440689086914,0.0173085145652294,-0.3793128430843353,-0.3049253523349762,0.0,0.0,0.2902300357818603,-0.5664944052696228
-0.3427434861660003,1.2892117500305176,-0.5987182855606079,0.019522275775671,-0.3934521377086639,-0.2827861309051513,0.0,0.0,-0.0427076816558837,-0.2682598829269409
-0.3488380014896393,1.289480447769165,-0.5960763096809387,0.008182780817151,-0.4077830016613006,-0.2866176962852478,0.0,0.0,0.5177559852600098,-0.3098927736282348
-0.3548103868961334,1.2901487350463867,-0.5834001898765564,0.0256341192871332,-0.4227074682712555,-0.2984891235828399,0.0,0.0,0.3097032308578491,-0.1837798357009887
-0.3605965077877044,1.2913450002670288,-0.564373254776001,0.0488249063491821,-0.4381642043590545,-0.3091344833374023,0.0,0.0,0.2828315496444702,-0.2443436384201049
-0.3661201000213623,1.2929319143295288,-0.538148820400238,0.0660098940134048,-0.4537077248096466,-0.310870498418808,0.0,0.0,0.3474612236022949,-0.5311052203178406
-0.3714408278465271,1.295304298400879,-0.518574595451355,0.100976213812828,-0.4685804843902588,-0.2974549531936645,0.0,0.0,0.0121502876281738,-0.5201321244239807
-0.3765516281127929,1.2978928089141846,-0.4985458254814148,0.1107520163059234,-0.4824882745742798,-0.2781561017036438,0.0,0.0,-0.2114420533180236,-0.6460452079772949
-0.3816666007041931,1.300262689590454,-0.5001481771469116,0.1013113036751747,-0.4951713979244232,-0.2536624073982239,0.0,0.0,0.1904350519180297,-0.6288409233093262
-0.386620432138443,1.302680253982544,-0.4851609170436859,0.1037298962473869,-0.5066653490066528,-0.2298790216445922,0.0,0.0,-0.0972058176994323,-0.4438121318817138
-0.3915243744850158,1.304846167564392,-0.4800604283809662,0.0923940762877464,-0.5183632969856262,-0.2339586764574051,0.0,0.0,0.0407127141952514,-0.646022379398346
-0.3961753249168396,1.3074580430984497,-0.4558585286140442,0.1125346273183822,-0.5288944244384766,-0.2106221616268158,0.0,0.0,-0.0736492872238159,-0.7124442458152771
-0.4008108675479889,1.3098604679107666,-0.4553408026695251,0.1035402566194534,-0.53830885887146,-0.1882892698049545,0.0,0.0,0.2833603620529175,-0.4923110008239746
-0.4051389098167419,1.3128950595855713,-0.4241147041320801,0.1313866674900055,-0.5483329892158508,-0.2004822194576263,0.0,0.0,0.0200645923614501,-0.6325976848602295
-0.4094231724739074,1.316043496131897,-0.4206854701042175,0.1367419362068176,-0.5573059320449829,-0.1794594228267669,0.0,0.0,-0.092594027519226,-0.4702569246292114
-0.4136465489864349,1.318939447402954,-0.4144710004329681,0.125409185886383,-0.5664862990379333,-0.1836057007312774,0.0,0.0,0.0883048772811889,-0.2465864419937133
-0.4176601469516754,1.322116732597351,-0.3930939137935638,0.1376773566007614,-0.5761829018592834,-0.1939322650432586,0.0,0.0,-0.360970139503479,-0.4215494394302368
-0.4216092526912689,1.3250420093536377,-0.3865230083465576,0.1263434141874313,-0.586087167263031,-0.1980855762958526,0.0,0.0,0.1217495203018188,-0.6828393340110779
-0.4252802431583404,1.3283629417419434,-0.3598191440105438,0.1443479210138321,-0.5947340130805969,-0.1729364693164825,0.0,0.0,-0.3268815875053406,-0.6025259494781494
-0.428916871547699,1.331465244293213,-0.3571790754795074,0.1349342465400695,-0.6024784445762634,-0.154888242483139,0.0,0.0,-0.4340248107910156,-0.2319340109825134
-0.4324846267700195,1.3343151807785034,-0.3501568436622619,0.1236024349927902,-0.610430121421814,-0.1590333878993988,0.0,0.0,-0.5157274603843689,-0.4905797243118286
-0.4359822869300842,1.3369128704071045,-0.3430074453353882,0.1122703403234481,-0.6185885667800903,-0.1631704270839691,0.0,0.0,-0.2563125491142273,-0.704569399356842
-0.4394423365592956,1.3392937183380127,-0.3400655388832092,0.102979339659214,-0.6258007287979126,-0.1442445963621139,0.0,0.0,0.0890724658966064,-0.4664343595504761
-0.4426032900810241,1.3416574001312256,-0.3103645443916321,0.1022747606039047,-0.6327936053276062,-0.1398577541112899,0.0,0.0,0.080487847328186,-0.5253787040710449
-0.445434957742691,1.3444055318832395,-0.2782276272773742,0.1197133064270019,-0.6388497948646545,-0.1211246624588966,0.0,0.0,-0.1335211992263794,-0.4891234636306762
-0.4481925070285797,1.3469010591506958,-0.2706708908081054,0.10838283598423,-0.645110011100769,-0.1252041757106781,0.0,0.0,-0.3492223024368286,-0.6159399151802063
-0.4509044289588928,1.349179983139038,-0.2668311893939972,0.0990836918354034,-0.6505047082901001,-0.1078937426209449,0.0,0.0,-0.5200258493423462,-0.3603919744491577
-0.4535407423973083,1.3512060642242432,-0.2591305673122406,0.0877536982297897,-0.6561011672019958,-0.1119287610054016,0.0,0.0,0.0257259607315063,-0.6245000958442688
-0.4559763371944427,1.3534318208694458,-0.239976555109024,0.0970744714140892,-0.6605689525604248,-0.0893557220697403,0.0,0.0,-0.6559085249900818,-0.1465029716491699
-0.4583353102207184,1.3554047346115112,-0.2321690768003463,0.0857450887560844,-0.665235698223114,-0.0933354496955871,0.0,0.0,-0.1490241885185241,0.0449540615081787
-0.4606172144412994,1.357124924659729,-0.2243221253156662,0.0744156166911125,-0.6700998544692993,-0.0972832217812538,0.0,0.0,-0.3378710746765136,-0.7511239051818848
-0.4628737866878509,1.358662724494934,-0.2232329845428466,0.0670613273978233,-0.6731613874435425,-0.061230294406414,0.0,0.0,-0.207148015499115,-0.1575790047645568
-0.465052843093872,1.359947681427002,-0.215331882238388,0.0557327754795551,-0.6764166951179504,-0.0651056692004203,0.0,0.0,-0.1858057379722595,-0.247971773147583
-0.4671542048454284,1.3609795570373535,-0.2074169814586639,0.044404212385416,-0.679863691329956,-0.0689404755830764,0.0,0.0,-0.3098225593566894,-0.2765871286392212
-0.469177782535553,1.3617584705352783,-0.1994965374469757,0.033075638115406,-0.6835002303123474,-0.0727312713861465,0.0,0.0,0.142485499382019,-0.2410880327224731
-0.4709194302558899,1.3627015352249146,-0.171102374792099,0.0402370877563953,-0.6874035596847534,-0.0780664086341857,0.0,0.0,-0.2041108608245849,0.3251140117645263
-0.4725833535194397,1.363391399383545,-0.1631951779127121,0.0289084706455469,-0.6914914846420288,-0.081758439540863,0.0,0.0,-0.181412935256958,-0.0478522181510925
-0.4741696417331695,1.363828420639038,-0.1553064733743667,0.017579860985279,-0.6957612633705139,-0.085395723581314,0.0,0.0,-0.0321261286735534,-0.4578672647476196
-0.4756785929203033,1.3640124797821045,-0.1474439948797226,0.0062512606382369,-0.7002099752426147,-0.0889745354652404,0.0,0.0,-0.1513001918792724,0.2343829870223999
-0.4771104753017425,1.363943576812744,-0.1396154165267944,-0.0050773187540471,-0.704834520816803,-0.0924911648035049,0.0,0.0,-0.041191816329956,-0.158288836479187
-0.4784657061100006,1.363621950149536,-0.1318282634019851,-0.0164058674126863,-0.7096316814422607,-0.0959417968988418,0.0,0.0,-0.217673659324646,-0.0016568303108215
-0.4797447323799133,1.3630472421646118,-0.1240899190306663,-0.0277343783527612,-0.7145978212356567,-0.0993227437138557,0.0,0.0,0.3445510864257812,0.0986409187316894
-0.4804045557975769,1.3628932237625122,-0.0624739229679107,-0.0088800890371203,-0.7191923260688782,-0.0918896347284317,0.0,0.0,-0.2597657442092895,0.1042964458465576
-0.4809892773628235,1.3624863624572754,-0.0548546612262725,-0.0202081520110368,-0.7239482998847961,-0.0951201170682907,0.0,0.0,-0.5541176795959473,-0.0765389204025268
-0.481499582529068,1.3618264198303225,-0.0473058559000492,-0.0315361320972442,-0.7288618087768555,-0.0982698202133178,0.0,0.0,-0.6817479133605957,-0.5614787936210632
-0.4819629192352295,1.360955834388733,-0.0433666221797466,-0.0404670760035514,-0.7327978014945984,-0.0787202268838882,0.0,0.0,-0.1851173043251037,-0.4616664052009582
-0.4823533892631531,1.3598320484161377,-0.035978764295578,-0.0517942085862159,-0.7368826866149902,-0.0816981494426727,0.0,0.0,-0.3932130336761474,0.3991384506225586
-0.4826718866825104,1.3584550619125366,-0.0286820046603679,-0.0631211847066879,-0.7411119341850281,-0.0845850184559822,0.0,0.0,-0.5986338257789612,-0.6501070261001587
-0.4829649925231933,1.3568851947784424,-0.0273544453084468,-0.0709689632058143,-0.7437264323234558,-0.0522903129458427,0.0,0.0,0.0559757947921752,-0.3840934038162231
-0.482954204082489,1.3554737567901611,0.0031708129681646,-0.0640251860022544,-0.7465394139289856,-0.0562600381672382,0.0,0.0,-0.8261722326278687,-0.1462477445602417
-0.4828744828701019,1.3538086414337158,0.0101558351889252,-0.0753508806228637,-0.7494821548461914,-0.0588553324341774,0.0,0.0,-0.6572167873382568,0.1929758787155151
-0.4827269613742828,1.3518903255462646,0.0170238949358463,-0.0866763517260551,-0.7525495290756226,-0.0613472983241081,0.0,0.0,-0.8224999308586121,-0.3152883052825928
-0.4825128018856048,1.349718451499939,0.0237688533961772,-0.0980015844106674,-0.7557361721992493,-0.0637329071760177,0.0,0.0,-0.6810517311096191,-0.4668291807174682
-0.4822332262992859,1.3472929000854492,0.0303847454488277,-0.1093265637755394,-0.759036660194397,-0.0660094246268272,0.0,0.0,-0.6334294676780701,-0.5239627361297607
