x_pos,y_pos,x_vel,y_vel,angle,ang_vel,leg_1,leg_2,main_booster,lat_booster
-0.0016633986961096,1.4030561447143557,-0.1684325039386749,-0.3495169281959533,0.0018615436274558,0.0367283597588539,0.0,0.0,0.3412361734454607,0.7720799351400616
-0.0033603669144213,1.3952049016952517,-0.1700538098812103,-0.3489424884319305,0.0022140531800687,0.0070516751147806,0.0,0.0,0.2526364014370659,-0.8554978902318856
-0.0051495553925633,1.3872380256652832,-0.1810952723026275,-0.3540880978107452,0.0043601621873676,0.0429264120757579,0.0,0.0,0.2141199756783132,-0.9899824019632516
-0.0072615621611475,1.3792489767074585,-0.2153056859970092,-0.3550831377506256,0.008415937423706,0.08112333714962,0.0,0.0,0.1834235547433753,-0.6010784306788877
-0.0094626424834132,1.3713949918746948,-0.2255867421627044,-0.3491073548793793,0.0138323307037353,0.1083380132913589,0.0,0.0,-0.3002568957223237,-0.6546714603710949
-0.0118436813354492,1.3629710674285889,-0.2445779740810394,-0.3744670152664184,0.0202302504330873,0.1279701292514801,0.0,0.0,-0.4354216078624753,-0.7808511300374841
-0.0144285205751657,1.3539775609970093,-0.2665538191795349,-0.39984130859375,0.0282101482152938,0.1596128940582275,0.0,0.0,0.1644703447727047,0.6020837929305568
-0.017001723870635,1.3451086282730105,-0.264365941286087,-0.3943183720111847,0.0351797714829444,0.139405220746994,0.0,0.0,0.1249249190420809,-0.6430334459087672
-0.0197944641113281,1.3365302085876465,-0.2875723838806152,-0.3814913034439087,0.0433839075267314,0.1640979945659637,0.0,0.0,0.411018887152293,0.6890349715399009
-0.0227001197636127,1.3283209800720217,-0.2974476516246795,-0.3650620281696319,0.0501923635601997,0.1361816823482513,0.0,0.0,0.6243619837746064,0.6891254272635668
-0.0256275180727243,1.3204309940338137,-0.2984099090099334,-0.350868672132492,0.0558134727180004,0.1124324798583984,0.0,0.0,0.2264331159470773,0.652931537541284
-0.0286053661257028,1.312567949295044,-0.3022238612174988,-0.3496449291706085,0.0602070577442646,0.0878797620534896,0.0,0.0,-0.1918670109155293,0.8713442442334385
-0.0316381454467773,1.3041484355926514,-0.3055617213249206,-0.3742965757846832,0.0624670796096324,0.0452046580612659,0.0,0.0,-0.9226064533429048,-0.753203625035175
-0.0348608009517192,1.295148491859436,-0.3258502781391144,-0.4001473486423492,0.0660224929451942,0.0711147636175155,0.0,0.0,0.8265798850986064,-0.9635453136993184
-0.0381835922598838,1.2869641780853271,-0.3380590081214905,-0.3640108108520508,0.0717430859804153,0.1144221425056457,0.0,0.0,-0.804542225795464,0.9372352458901844
-0.0415555946528911,1.2782098054885864,-0.3407080769538879,-0.3892554640769958,0.0752321854233741,0.0697884410619735,0.0,0.0,0.6210953197497822,-0.8811564293061879
-0.0450458526611328,1.2701623439788818,-0.3545092344284057,-0.3579547107219696,0.0806725844740867,0.1088176518678665,0.0,0.0,-0.0548588699876892,-0.8817996007157733
-0.0487241744995117,1.2615325450897217,-0.3746344745159149,-0.3839248716831207,0.0874185115098953,0.1349309235811233,0.0,0.0,0.1995605394412967,-0.6419137955556904
-0.0525607094168663,1.253215789794922,-0.3918288350105285,-0.3701342046260834,0.0955288931727409,0.162222757935524,0.0,0.0,0.4971634150922717,-0.7882883247906807
-0.0567233078181743,1.2450759410858154,-0.42584428191185,-0.3624005317687988,0.1050410345196724,0.1902600228786468,0.0,0.0,0.8622150892788152,-0.7065511748687219
-0.061009407043457,1.237654209136963,-0.4399231970310211,-0.3306901156902313,0.1162951812148094,0.225103422999382,0.0,0.0,0.7389885254596664,-0.8505881418408178
-0.0655349716544151,1.230345606803894,-0.4655449986457824,-0.325898677110672,0.1292338222265243,0.2587961852550506,0.0,0.0,-0.5301358466728814,0.6107709415800641
-0.0701339691877365,1.222480535507202,-0.4713431298732757,-0.3505865931510925,0.1406528800725937,0.2284013479948043,0.0,0.0,0.9503354213666588,-0.9054313666431386
-0.0748950988054275,1.214590311050415,-0.4894921779632568,-0.3519902229309082,0.1540219336748123,0.2674049139022827,0.0,0.0,0.690754502311562,0.7013643491855788
-0.0799887627363205,1.2070879936218262,-0.5209234952926636,-0.3346766233444214,0.165603294968605,0.2316477000713348,0.0,0.0,-0.4559741519102003,0.8905549438256986
-0.0851556807756424,1.1990153789520264,-0.5268657207489014,-0.3599559068679809,0.1757924854755401,0.2037836015224456,0.0,0.0,-0.3125607526780058,0.8977815973132637
-0.0903792381286621,1.190399408340454,-0.5306590795516968,-0.3839371502399444,0.1841275095939636,0.1667005121707916,0.0,0.0,-0.3387627440601448,0.6054370043652376
-0.0956913009285926,1.181232213973999,-0.5385116934776306,-0.408357560634613,0.1914662420749664,0.1467745304107666,0.0,0.0,-0.6989640087956177,0.9778342540887986
-0.1010678261518478,1.1715222597122192,-0.5433770418167114,-0.4323084056377411,0.1972189247608184,0.1150535121560096,0.0,0.0,-0.3432469465501258,-0.6601088891572706
-0.1066179275512695,1.1612257957458496,-0.5620411038398743,-0.4585699439048767,0.2043009400367736,0.1416407376527786,0.0,0.0,-0.6874206911656127,-0.8085633641290818
-0.1123487502336502,1.1503517627716064,-0.5816190242767334,-0.4844935834407806,0.2129047662019729,0.1720762252807617,0.0,0.0,-0.2926495442210537,-0.7579371053304231
-0.1182618141174316,1.138884663581848,-0.6014764904975891,-0.5111532211303711,0.2231853902339935,0.2056128531694412,0.0,0.0,0.0613491950333444,-0.707594625977877
-0.1245180144906044,1.1275714635849,-0.6370593905448914,-0.5045827627182007,0.2347855269908905,0.2320028245449066,0.0,0.0,0.5898971625123632,-0.940276888776358
-0.1311048567295074,1.1161398887634275,-0.6718310117721558,-0.5102311968803406,0.2481533139944076,0.2673554420471191,0.0,0.0,-0.1352648634648843,-0.7015383318347364
-0.1378531455993652,1.104123592376709,-0.689236044883728,-0.5365565419197083,0.262843519449234,0.2938036918640136,0.0,0.0,-0.3619940994354407,-0.8054379202962744
-0.1447681486606598,1.0915236473083496,-0.7073277235031128,-0.5629225373268127,0.279051274061203,0.3241550326347351,0.0,0.0,0.1582169550320413,-0.7831974315500141
-0.1519529372453689,1.0787808895111084,-0.73569256067276,-0.5697354078292847,0.2967749238014221,0.3544730246067047,0.0,0.0,0.4602798321413095,-0.9780459862492236
-0.1594722718000412,1.0664291381835938,-0.7709398865699768,-0.5529597401618958,0.316445916891098,0.3934206664562225,0.0,0.0,-0.3799905119902693,-0.6293498199706198
-0.1671391427516937,1.05349600315094,-0.7868112325668335,-0.5793402194976807,0.3374099135398865,0.4192801415920257,0.0,0.0,0.794355172121824,0.8236512052952715
-0.1750236451625824,1.0409836769104004,-0.8068164587020874,-0.5605251789093018,0.3566798567771911,0.3853996098041534,0.0,0.0,0.2269417863318434,0.6781441817715717
-0.183231920003891,1.0287059545516968,-0.8375530242919922,-0.5499241948127747,0.3743574619293213,0.3535524010658264,0.0,0.0,-0.9777658581733704,0.9990946054458618
-0.1914338171482086,1.0159127712249756,-0.8344168663024902,-0.5723878145217896,0.3894822895526886,0.3024967908859253,0.0,0.0,-0.9282116293907166,0.9984833002090454
-0.1996256858110427,1.0025945901870728,-0.8310291171073914,-0.5952045917510986,0.4021469950675964,0.2532939314842224,0.0,0.0,-0.902323305606842,0.9993001222610474
-0.2078045904636383,0.9887609481811525,-0.8273490071296692,-0.6175435185432434,0.4123218059539795,0.2034959495067596,0.0,0.0,-0.9128705859184264,0.9935095310211182
-0.2159793376922607,0.974392592906952,-0.82505863904953,-0.6408332586288452,0.4205040633678436,0.1636452823877334,0.0,0.0,-0.938480257987976,0.9956996440887452
-0.2241342961788177,0.9594981074333192,-0.8209303021430969,-0.6636132597923279,0.4263835847377777,0.1175902113318443,0.0,0.0,-0.8481726050376892,0.9988341331481934
-0.2322628498077392,0.9440832138061525,-0.8160812258720398,-0.6860836744308472,0.4298887252807617,0.0701029002666473,0.0,0.0,-0.9232292771339417,0.9799989461898804
-0.2403847724199295,0.9281480312347412,-0.8137872815132141,-0.7087184190750122,0.4316220879554748,0.0346673168241977,0.0,0.0,-0.8915693163871765,0.9685583114624025
-0.2484959661960601,0.91168874502182,-0.8111633062362671,-0.7315403819084167,0.4316689074039459,0.000936578202527,0.0,0.0,-0.9183396100997924,0.9336713552474976
-0.2565760612487793,0.894702136516571,-0.8062330484390259,-0.7544122338294983,0.429737389087677,-0.0386306010186672,0.0,0.0,-0.8454946279525757,0.976815700531006
-0.2645968496799469,0.8772057890892029,-0.7978787422180176,-0.7763442397117615,0.4251786768436432,-0.091174229979515,0.0,0.0,-0.6859559416770935,0.9914497137069702
-0.2725754678249359,0.8591901063919067,-0.7918156385421753,-0.7988871932029724,0.418631374835968,-0.130946010351181,0.0,0.0,-0.7728946208953857,0.8836021423339844
-0.2804909646511078,0.8406513929367065,-0.7833616137504578,-0.8215386867523193,0.4098032712936401,-0.1765612810850143,0.0,0.0,-0.8331329822540283,0.9370217323303224
-0.2883470058441162,0.8215968012809753,-0.775441586971283,-0.8439651727676392,0.3988869190216064,-0.2183268964290619,0.0,0.0,-0.6062871813774109,0.9688491821289062
-0.2961137294769287,0.8020269870758057,-0.7639973759651184,-0.8662739396095276,0.3853468000888824,-0.2708021998405456,0.0,0.0,-0.4526150822639465,0.9933805465698242
-0.3038105070590973,0.7819234728813171,-0.7551915049552917,-0.889649510383606,0.3699546158313751,-0.3078438937664032,0.0,0.0,-0.0523116588592529,0.9802696704864502
-0.3114117980003357,0.7613107562065125,-0.7431991696357727,-0.911839485168457,0.3520818650722503,-0.3574550151824951,0.0,0.0,0.6761586666107178,0.8708341121673584
-0.3190180361270904,0.7412161231040955,-0.7419576048851013,-0.8886449337005615,0.3325148820877075,-0.391339361667633,0.0,0.0,0.7912039756774902,0.9854986667633056
-0.326730877161026,0.7219153642654419,-0.7505209445953369,-0.8531830310821533,0.3108998835086822,-0.4323000907897949,0.0,0.0,0.8080087900161743,0.8793776035308838
-0.3346957266330719,0.7032769322395325,-0.7735246419906616,-0.8236389756202698,0.2871754467487335,-0.4744885563850403,0.0,0.0,0.8548316955566406,0.8405168056488037
-0.342612087726593,0.6847230792045593,-0.7668230533599854,-0.8199293613433838,0.2617177665233612,-0.5091539025306702,0.0,0.0,0.8040128946304321,0.6892272233963013
-0.3507424890995025,0.6666974425315857,-0.7862520217895508,-0.7965827584266663,0.2344296872615814,-0.5457622408866882,0.0,0.0,0.5477662086486816,0.0856529474258422
-0.3588201403617859,0.6488598585128784,-0.7811683416366577,-0.7887799739837646,0.207515075802803,-0.5382925868034363,0.0,0.0,0.5879334211349487,0.716926097869873
-0.3668810725212097,0.6313542723655701,-0.7777917385101318,-0.7743090391159058,0.1790408641099929,-0.5694849491119385,0.0,0.0,0.57338547706604,-0.3328069448471069
-0.3749386668205261,0.61385577917099,-0.777177631855011,-0.7745106220245361,0.1504323631525039,-0.5721703767776489,0.0,0.0,0.7604360580444336,-0.3257650136947632
-0.3831518590450287,0.5967039465904236,-0.7918226718902588,-0.759586751461029,0.1210417374968528,-0.5878128409385681,0.0,0.0,0.6986188888549805,0.1940604448318481
-0.3913751244544983,0.5803090333938599,-0.79265296459198,-0.7265222072601318,0.0915781930088996,-0.5892710089683533,0.0,0.0,0.4177718162536621,0.8250453472137451
-0.3993977904319763,0.563742458820343,-0.7707760334014893,-0.734656572341919,0.0603975281119346,-0.6236138343811035,0.0,0.0,0.7025270462036133,0.9670594930648804
-0.407283067703247,0.5479592680931091,-0.7548819184303284,-0.7004534006118774,0.0271517932415008,-0.6649154424667358,0.0,0.0,0.4772112369537353,0.9274027347564696
-0.4151143431663513,0.5322529673576355,-0.7472954988479614,-0.6977890729904175,-0.0082209045067429,-0.7074545621871948,0.0,0.0,0.7821218967437744,0.9874560832977296
-0.4228805899620056,0.5170959830284119,-0.7384749054908752,-0.6742780804634094,-0.0458992682397365,-0.7535678744316101,0.0,0.0,0.7174519300460815,0.8697474002838135
-0.4304172396659851,0.5023545026779175,-0.7136980295181274,-0.6568759083747864,-0.0854328721761703,-0.7906726598739624,0.0,0.0,0.9220486879348756,0.9861711263656616
-0.4378580152988434,0.4885575175285339,-0.7018067240715027,-0.616148054599762,-0.1273860484361648,-0.8390643000602722,0.0,0.0,0.9460515975952148,0.4429701566696167
-0.4450232088565826,0.4752111434936523,-0.6746866703033447,-0.5972808599472046,-0.169124349951744,-0.8347668647766113,0.0,0.0,0.7851488590240479,0.9824607372283936
-0.451974868774414,0.4619286060333252,-0.6514373421669006,-0.5959034562110901,-0.2130800038576126,-0.8791143298149109,0.0,0.0,0.8343596458435059,-0.039358377456665
-0.4586661756038666,0.4486083984375,-0.6259626746177673,-0.5988284349441528,-0.2568719983100891,-0.8758406639099121,0.0,0.0,0.7749664783477783,-0.264007568359375
-0.4651841521263122,0.4352872669696808,-0.6087910532951355,-0.6001927852630615,-0.3010063767433166,-0.8826888799667358,0.0,0.0,0.4489824771881103,-0.942229986190796
-0.4714568257331848,0.4224635362625122,-0.5864855051040649,-0.5789518356323242,-0.3434069454669952,-0.8480121493339539,0.0,0.0,-0.1107368469238281,-0.8546061515808105
-0.4776636660099029,0.4091314375400543,-0.5817864537239075,-0.6023549437522888,-0.3844644725322723,-0.8211519122123718,0.0,0.0,0.0750036239624023,-0.9030957221984864
-0.4836936593055725,0.3960879743099212,-0.5663102269172668,-0.5901151299476624,-0.4238223731517792,-0.7871586680412292,0.0,0.0,-0.5068281292915344,-0.4088482856750488
-0.4896008968353271,0.3824958801269531,-0.554514467716217,-0.6155060529708862,-0.4633632004261017,-0.7908170819282532,0.0,0.0,-0.4055382013320923,-0.9744308590888976
-0.4954445362091064,0.3684095740318298,-0.5503973960876465,-0.637856662273407,-0.5011690258979797,-0.756116509437561,0.0,0.0,-0.6516748666763306,-0.9621710777282716
-0.5012392401695251,0.353834867477417,-0.5481123328208923,-0.659657895565033,-0.5367825627326965,-0.7122712135314941,0.0,0.0,-0.2795515060424804,-0.9676328897476196
-0.5069762468338013,0.3387731611728668,-0.544769287109375,-0.681287407875061,-0.5703226923942566,-0.6708031296730042,0.0,0.0,0.1001750230789184,-0.9585781693458556
-0.5124028921127319,0.3238160908222198,-0.5159214735031128,-0.6765537261962891,-0.6019733548164368,-0.6330139636993408,0.0,0.0,0.5211719274520874,-0.9674283266067504
-0.5173841714859009,0.3089509308338165,-0.4735842645168304,-0.6722374558448792,-0.6316410899162292,-0.5933560132980347,0.0,0.0,0.8783460855484009,-0.9150646328926086
-0.5220431089401245,0.2940279841423034,-0.4433632791042328,-0.6745238900184631,-0.659461259841919,-0.5564037561416626,0.0,0.0,0.9156548976898192,-0.9546814560890198
-0.5262534022331238,0.2790521085262298,-0.4006113111972809,-0.6764017343521118,-0.6851987838745117,-0.514750599861145,0.0,0.0,0.9700167179107666,-0.970576286315918
-0.5298106074333191,0.2641932964324951,-0.3374620974063873,-0.6705538630485535,-0.7086775898933411,-0.4695755839347839,0.0,0.0,0.9848263263702391,-0.9976144433021544
-0.532849907875061,0.2492006123065948,-0.2877705097198486,-0.6757543087005615,-0.7298619747161865,-0.4236875474452972,0.0,0.0,0.9917991161346436,-0.9973804950714112
-0.5352139472961426,0.2347471565008163,-0.2220733910799026,-0.6510698795318604,-0.7489857077598572,-0.3824749588966369,0.0,0.0,0.9990730285644532,-0.9991847276687622
-0.5368441343307495,0.2207798510789871,-0.1505206525325775,-0.6286404728889465,-0.7659614086151123,-0.339513897895813,1.0,0.0,0.9456650018692015,-0.9999833106994628
-0.5376979112625122,0.2080748379230499,-0.0869023203849792,-0.5638419985771179,-0.7633587121963501,0.0528981462121009,1.0,0.0,0.9065006971359252,-0.9999845623970032
-0.5379674434661865,0.1958772987127304,-0.044426754117012,-0.5311168432235718,-0.7403043508529663,0.4602462351322174,1.0,0.0,0.9941573143005372,-0.9956091046333312
-0.5376406908035278,0.1845430731773376,-0.0012954636476933,-0.4838709235191345,-0.6966707706451416,0.871430516242981,1.0,0.0,0.9999997615814208,-0.9978278875350952
-0.5365167856216431,0.1738794595003128,0.0730150118470192,-0.452997088432312,-0.6469185948371887,0.995083212852478,1.0,0.0,0.9999375343322754,-0.9935632348060608
-0.5349539518356323,0.1638849079608917,0.1072877794504165,-0.4211004078388214,-0.5865933299064636,1.2078649997711182,1.0,0.0,0.996062994003296,-0.9980645179748536
-0.5329362154006958,0.1549244076013565,0.142706960439682,-0.37386354804039,-0.5179228782653809,1.3735177516937256,1.0,0.0,0.782221794128418,-0.9105363488197328
-0.5304977893829346,0.1464122831821441,0.1807053685188293,-0.3561412394046783,-0.4473863244056701,1.4108319282531738,1.0,0.0,0.7628296613693237,-0.9856626391410828
-0.5278250575065613,0.1385701447725296,0.2004333436489105,-0.3289786279201507,-0.3752847909927368,1.4420818090438845,0.0,0.0,0.9998905658721924,0.0348401069641113
-0.5247677564620972,0.1315475553274154,0.237631469964981,-0.2959571778774261,-0.3038883209228515,1.4279810190200806,0.0,1.0,0.8792476654052734,0.995924711227417
-0.5220118165016174,0.1271354258060455,0.2839299738407135,-0.1448883712291717,-0.2959074676036834,-0.3959845006465912,0.0,1.0,0.8792476654052734,0.995924711227417
